Data from Lead_5_1_HRD10591_00090.txt Node
Date: Fri Feb 20 11:08:54 EST 2026
User: Yrep
Spectrometer: HR+D1059
Trigger mode: 1
Integration Time (sec): 1.000000E-1
Scans to average: 1
Electric dark correction enabled: true
Nonlinearity correction enabled: false
Boxcar width: 0
XAxis mode: Wavelengths
Number of Pixels in Spectrum: 2048
>>>>>Begin Spectral Data<<<<<
223.165	-23.69
223.4	-23.69
223.635	-23.69
223.869	-21.69
224.104	-5.69
224.338	-20.69
224.573	-1.69
224.808	-13.69
225.042	-7.69
225.277	-17.69
225.511	0.31
225.746	6.31
225.98	11.31
226.215	2.31
226.449	10.31
226.683	17.31
226.918	30.31
227.152	34.31
227.387	31.31
227.621	36.31
227.856	43.31
228.09	41.31
228.324	47.31
228.559	34.31
228.793	61.31
229.027	61.31
229.262	65.31
229.496	72.31
229.73	58.31
229.964	61.31
230.199	65.31
230.433	82.31
230.667	79.31
230.901	70.31
231.136	80.31
231.37	85.31
231.604	83.31
231.838	86.31
232.072	83.31
232.306	74.31
232.541	70.31
232.775	78.31
233.009	71.31
233.243	75.31
233.477	69.31
233.711	90.31
233.945	81.31
234.179	82.31
234.413	72.31
234.647	75.31
234.881	76.31
235.115	83.31
235.349	75.31
235.583	79.31
235.817	91.31
236.051	75.31
236.285	77.31
236.519	65.31
236.753	63.31
236.987	85.31
237.221	73.31
237.455	78.31
237.689	73.31
237.922	79.31
238.156	78.31
238.39	76.31
238.624	76.31
238.858	77.31
239.091	81.31
239.325	62.31
239.559	63.31
239.793	83.31
240.027	76.31
240.26	78.31
240.494	74.31
240.728	70.31
240.961	67.31
241.195	61.31
241.429	70.31
241.662	84.31
241.896	72.31
242.13	80.31
242.363	62.31
242.597	89.31
242.83	80.31
243.064	82.31
243.298	74.31
243.531	63.31
243.765	65.31
243.998	72.31
244.232	74.31
244.465	75.31
244.699	72.31
244.932	66.31
245.166	83.31
245.399	75.31
245.633	77.31
245.866	71.31
246.099	67.31
246.333	75.31
246.566	69.31
246.8	71.31
247.033	57.31
247.266	77.31
247.5	79.31
247.733	89.31
247.966	85.31
248.2	69.31
248.433	92.31
248.666	73.31
248.899	77.31
249.133	69.31
249.366	88.31
249.599	78.31
249.832	71.31
250.066	79.31
250.299	75.31
250.532	77.31
250.765	79.31
250.998	83.31
251.231	79.31
251.465	69.31
251.698	82.31
251.931	78.31
252.164	67.31
252.397	81.31
252.63	76.31
252.863	84.31
253.096	77.31
253.329	90.31
253.562	93.31
253.795	81.31
254.028	73.31
254.261	77.31
254.494	75.31
254.727	97.31
254.96	74.31
255.193	83.31
255.426	78.31
255.659	85.31
255.892	81.31
256.124	74.31
256.357	75.31
256.59	78.31
256.823	74.31
257.056	77.31
257.289	74.31
257.521	65.31
257.754	80.31
257.987	84.31
258.22	73.31
258.452	78.31
258.685	77.31
258.918	66.31
259.151	85.31
259.383	87.31
259.616	89.31
259.849	87.31
260.081	78.31
260.314	76.31
260.547	77.31
260.779	86.31
261.012	77.31
261.244	67.31
261.477	81.31
261.71	83.31
261.942	75.31
262.175	86.31
262.407	73.31
262.64	77.31
262.872	77.31
263.105	71.31
263.337	86.31
263.57	85.31
263.802	88.31
264.035	77.31
264.267	97.31
264.499	67.31
264.732	88.31
264.964	71.31
265.197	77.31
265.429	83.31
265.661	82.31
265.894	74.31
266.126	86.31
266.358	89.31
266.591	78.31
266.823	79.31
267.055	76.31
267.287	85.31
267.52	82.31
267.752	95.31
267.984	74.31
268.216	84.31
268.448	72.31
268.681	63.31
268.913	68.31
269.145	79.31
269.377	84.31
269.609	93.31
269.841	75.31
270.073	83.31
270.306	87.31
270.538	82.31
270.77	87.31
271.002	103.31
271.234	90.31
271.466	80.31
271.698	79.31
271.93	73.31
272.162	79.31
272.394	79.31
272.626	82.31
272.858	73.31
273.09	89.31
273.322	80.31
273.553	71.31
273.785	92.31
274.017	89.31
274.249	87.31
274.481	85.31
274.713	89.31
274.945	80.31
275.176	71.31
275.408	78.31
275.64	82.31
275.872	74.31
276.104	80.31
276.335	73.31
276.567	83.31
276.799	77.31
277.031	77.31
277.262	91.31
277.494	87.31
277.726	75.31
277.957	75.31
278.189	78.31
278.421	81.31
278.652	65.31
278.884	83.31
279.115	83.31
279.347	90.31
279.579	86.31
279.81	91.31
280.042	87.31
280.273	83.31
280.505	92.31
280.736	72.31
280.968	85.31
281.199	75.31
281.431	83.31
281.662	80.31
281.894	94.31
282.125	77.31
282.356	89.31
282.588	76.31
282.819	87.31
283.051	68.31
283.282	82.31
283.513	65.31
283.745	81.31
283.976	71.31
284.207	81.31
284.439	81.31
284.67	91.31
284.901	100.31
285.132	81.31
285.364	82.31
285.595	81.31
285.826	84.31
286.057	86.31
286.288	88.31
286.52	73.31
286.751	74.31
286.982	73.31
287.213	74.31
287.444	90.31
287.675	87.31
287.906	78.31
288.138	88.31
288.369	90.31
288.6	78.31
288.831	85.31
289.062	75.31
289.293	79.31
289.524	85.31
289.755	84.31
289.986	93.31
290.217	86.31
290.448	84.31
290.679	74.31
290.91	76.31
291.141	89.31
291.371	90.31
291.602	81.31
291.833	84.31
292.064	71.31
292.295	74.31
292.526	86.31
292.757	79.31
292.987	87.31
293.218	72.31
293.449	81.31
293.68	79.31
293.91	69.31
294.141	87.31
294.372	101.31
294.603	79.31
294.833	92.31
295.064	91.31
295.295	86.31
295.525	86.31
295.756	86.31
295.987	77.31
296.217	77.31
296.448	84.31
296.679	79.31
296.909	83.31
297.14	82.31
297.37	83.31
297.601	82.31
297.831	76.31
298.062	81.31
298.292	79.31
298.523	97.31
298.753	71.31
298.984	84.31
299.214	86.31
299.445	76.31
299.675	89.31
299.905	88.31
300.136	80.31
300.366	66.31
300.597	85.31
300.827	69.31
301.057	66.31
301.288	76.31
301.518	77.31
301.748	75.31
301.979	101.31
302.209	86.31
302.439	83.31
302.669	85.31
302.9	85.31
303.13	71.31
303.36	89.31
303.59	82.31
303.82	92.31
304.051	79.31
304.281	85.31
304.511	85.31
304.741	75.31
304.971	67.31
305.201	74.31
305.431	93.31
305.661	88.31
305.891	82.31
306.121	77.31
306.352	69.31
306.582	85.31
306.812	86.31
307.042	79.31
307.272	85.31
307.502	76.31
307.731	84.31
307.961	84.31
308.191	82.31
308.421	67.31
308.651	82.31
308.881	81.31
309.111	98.31
309.341	82.31
309.571	77.31
309.8	78.31
310.03	71.31
310.26	81.31
310.49	83.31
310.72	88.31
310.949	90.31
311.179	65.31
311.409	83.31
311.639	81.31
311.868	71.31
312.098	83.31
312.328	94.31
312.557	93.31
312.787	78.31
313.017	95.31
313.246	66.31
313.476	84.31
313.706	94.31
313.935	78.31
314.165	75.31
314.394	83.31
314.624	67.31
314.853	78.31
315.083	68.31
315.312	79.31
315.542	71.31
315.771	82.31
316.001	74.31
316.23	85.31
316.46	83.31
316.689	85.31
316.919	91.31
317.148	78.31
317.377	84.31
317.607	83.31
317.836	81.31
318.065	81.31
318.295	86.31
318.524	85.31
318.753	85.31
318.983	74.31
319.212	76.31
319.441	87.31
319.67	97.31
319.9	70.31
320.129	78.31
320.358	77.31
320.587	70.31
320.816	72.31
321.046	83.31
321.275	65.31
321.504	87.31
321.733	97.31
321.962	92.31
322.191	82.31
322.42	76.31
322.649	91.31
322.878	85.31
323.108	79.31
323.337	78.31
323.566	81.31
323.795	81.31
324.024	86.31
324.253	86.31
324.482	83.31
324.71	88.31
324.939	79.31
325.168	96.31
325.397	81.31
325.626	83.31
325.855	80.31
326.084	79.31
326.313	86.31
326.542	69.31
326.77	81.31
326.999	87.31
327.228	75.31
327.457	86.31
327.686	81.31
327.914	85.31
328.143	74.31
328.372	86.31
328.6	87.31
328.829	81.31
329.058	84.31
329.287	86.31
329.515	92.31
329.744	88.31
329.972	79.31
330.201	72.31
330.43	79.31
330.658	85.31
330.887	85.31
331.115	81.31
331.344	86.31
331.572	75.31
331.801	79.31
332.03	95.31
332.258	71.31
332.486	80.31
332.715	91.31
332.943	63.31
333.172	69.31
333.4	87.31
333.629	93.31
333.857	71.31
334.085	85.31
334.314	92.31
334.542	85.31
334.771	96.31
334.999	86.31
335.227	86.31
335.455	83.31
335.684	93.31
335.912	72.31
336.14	73.31
336.369	75.31
336.597	74.31
336.825	89.31
337.053	70.31
337.281	75.31
337.51	70.31
337.738	84.31
337.966	77.31
338.194	74.31
338.422	93.31
338.65	89.31
338.878	79.31
339.106	72.31
339.334	75.31
339.562	89.31
339.79	75.31
340.018	76.31
340.246	94.31
340.474	84.31
340.702	91.31
340.93	92.31
341.158	72.31
341.386	79.31
341.614	76.31
341.842	79.31
342.07	82.31
342.298	80.31
342.526	88.31
342.754	85.31
342.981	80.31
343.209	96.31
343.437	89.31
343.665	82.31
343.893	83.31
344.12	86.31
344.348	84.31
344.576	99.31
344.804	85.31
345.031	87.31
345.259	62.31
345.487	83.31
345.714	73.31
345.942	72.31
346.17	83.31
346.397	83.31
346.625	75.31
346.853	82.31
347.08	74.31
347.308	79.31
347.535	87.31
347.763	84.31
347.99	95.31
348.218	85.31
348.445	68.31
348.673	84.31
348.9	71.31
349.128	73.31
349.355	79.31
349.583	81.31
349.81	82.31
350.037	73.31
350.265	85.31
350.492	86.31
350.72	70.31
350.947	75.31
351.174	79.31
351.402	86.31
351.629	81.31
351.856	82.31
352.083	69.31
352.311	89.31
352.538	70.31
352.765	74.31
352.992	93.31
353.22	83.31
353.447	85.31
353.674	83.31
353.901	80.31
354.128	89.31
354.355	88.31
354.583	80.31
354.81	72.31
355.037	79.31
355.264	64.31
355.491	86.31
355.718	89.31
355.945	74.31
356.172	86.31
356.399	67.31
356.626	73.31
356.853	74.31
357.08	76.31
357.307	96.31
357.534	78.31
357.761	77.31
357.988	102.31
358.215	58.31
358.441	79.31
358.668	79.31
358.895	64.31
359.122	78.31
359.349	64.31
359.576	91.31
359.802	71.31
360.029	79.31
360.256	85.31
360.483	90.31
360.709	93.31
360.936	81.31
361.163	80.31
361.39	76.31
361.616	75.31
361.843	87.31
362.07	72.31
362.296	80.31
362.523	73.31
362.749	59.31
362.976	96.31
363.203	87.31
363.429	75.31
363.656	92.31
363.882	75.31
364.109	89.31
364.335	85.31
364.562	80.31
364.788	90.31
365.015	75.31
365.241	84.31
365.468	87.31
365.694	79.31
365.92	95.31
366.147	82.31
366.373	77.31
366.599	82.31
366.826	68.31
367.052	75.31
367.278	73.31
367.505	69.31
367.731	83.31
367.957	85.31
368.184	86.31
368.41	78.31
368.636	82.31
368.862	72.31
369.089	85.31
369.315	79.31
369.541	78.31
369.767	74.31
369.993	90.31
370.219	77.31
370.445	87.31
370.672	80.31
370.898	78.31
371.124	79.31
371.35	83.31
371.576	81.31
371.802	77.31
372.028	94.31
372.254	63.31
372.48	76.31
372.706	82.31
372.932	81.31
373.158	85.31
373.384	79.31
373.61	82.31
373.835	79.31
374.061	71.31
374.287	81.31
374.513	67.31
374.739	95.31
374.965	75.31
375.191	76.31
375.416	91.31
375.642	74.31
375.868	75.31
376.094	79.31
376.319	84.31
376.545	86.31
376.771	83.31
376.997	75.31
377.222	85.31
377.448	73.31
377.674	71.31
377.899	93.31
378.125	82.31
378.35	83.31
378.576	92.31
378.802	75.31
379.027	89.31
379.253	99.31
379.478	88.31
379.704	77.31
379.929	71.31
380.155	88.31
380.38	85.31
380.606	65.31
380.831	79.31
381.057	83.31
381.282	78.31
381.507	74.31
381.733	69.31
381.958	76.31
382.184	69.31
382.409	84.31
382.634	81.31
382.86	76.31
383.085	72.31
383.31	83.31
383.535	80.31
383.761	90.31
383.986	77.31
384.211	86.31
384.436	70.31
384.662	87.31
384.887	93.31
385.112	82.31
385.337	71.31
385.562	73.31
385.787	73.31
386.013	76.31
386.238	79.31
386.463	70.31
386.688	85.31
386.913	86.31
387.138	72.31
387.363	83.31
387.588	75.31
387.813	82.31
388.038	75.31
388.263	94.31
388.488	78.31
388.713	85.31
388.938	82.31
389.163	76.31
389.387	87.31
389.612	81.31
389.837	89.31
390.062	82.31
390.287	82.31
390.512	87.31
390.736	82.31
390.961	85.31
391.186	83.31
391.411	84.31
391.636	77.31
391.86	63.31
392.085	79.31
392.31	78.31
392.534	82.31
392.759	75.31
392.984	65.31
393.208	91.31
393.433	81.31
393.658	82.31
393.882	87.31
394.107	96.31
394.331	82.31
394.556	86.31
394.78	79.31
395.005	81.31
395.229	82.31
395.454	70.31
395.678	80.31
395.903	78.31
396.127	73.31
396.352	87.31
396.576	69.31
396.801	76.31
397.025	90.31
397.249	76.31
397.474	81.31
397.698	79.31
397.922	67.31
398.147	77.31
398.371	73.31
398.595	80.31
398.82	83.31
399.044	76.31
399.268	67.31
399.492	80.31
399.717	89.31
399.941	70.31
400.165	75.31
400.389	71.31
400.613	77.31
400.837	89.31
401.062	79.31
401.286	72.31
401.51	79.31
401.734	68.31
401.958	73.31
402.182	76.31
402.406	88.31
402.63	81.31
402.854	82.31
403.078	91.31
403.302	81.31
403.526	79.31
403.75	80.31
403.974	74.31
404.198	83.31
404.422	78.31
404.645	86.31
404.869	77.31
405.093	84.31
405.317	83.31
405.541	88.31
405.765	75.31
405.988	88.31
406.212	88.31
406.436	66.31
406.66	85.31
406.883	67.31
407.107	88.31
407.331	73.31
407.555	87.31
407.778	75.31
408.002	70.31
408.226	82.31
408.449	82.31
408.673	81.31
408.896	81.31
409.12	65.31
409.344	81.31
409.567	70.31
409.791	69.31
410.014	78.31
410.238	85.31
410.461	93.31
410.685	83.31
410.908	70.31
411.132	77.31
411.355	79.31
411.578	82.31
411.802	83.31
412.025	81.31
412.249	68.31
412.472	86.31
412.695	65.31
412.919	94.31
413.142	79.31
413.365	95.31
413.589	96.31
413.812	70.31
414.035	73.31
414.258	87.31
414.482	85.31
414.705	64.31
414.928	89.31
415.151	83.31
415.374	90.31
415.597	87.31
415.821	81.31
416.044	73.31
416.267	79.31
416.49	77.31
416.713	82.31
416.936	75.31
417.159	76.31
417.382	105.31
417.605	74.31
417.828	71.31
418.051	69.31
418.274	76.31
418.497	64.31
418.72	82.31
418.943	78.31
419.166	76.31
419.389	81.31
419.611	72.31
419.834	75.31
420.057	77.31
420.28	74.31
420.503	77.31
420.726	73.31
420.948	85.31
421.171	80.31
421.394	79.31
421.617	81.31
421.839	81.31
422.062	94.31
422.285	73.31
422.507	82.31
422.73	65.31
422.953	70.31
423.175	76.31
423.398	80.31
423.621	81.31
423.843	93.31
424.066	76.31
424.288	65.31
424.511	79.31
424.733	71.31
424.956	82.31
425.178	77.31
425.401	67.31
425.623	88.31
425.846	81.31
426.068	81.31
426.291	83.31
426.513	90.31
426.735	73.31
426.958	66.31
427.18	85.31
427.402	73.31
427.625	69.31
427.847	82.31
428.069	76.31
428.292	68.31
428.514	78.31
428.736	75.31
428.958	74.31
429.181	79.31
429.403	83.31
429.625	81.31
429.847	73.31
430.069	72.31
430.292	80.31
430.514	71.31
430.736	81.31
430.958	79.31
431.18	74.31
431.402	90.31
431.624	82.31
431.846	79.31
432.068	70.31
432.29	87.31
432.512	84.31
432.734	81.31
432.956	80.31
433.178	85.31
433.4	67.31
433.622	87.31
433.844	83.31
434.066	81.31
434.287	73.31
434.509	92.31
434.731	87.31
434.953	63.31
435.175	72.31
435.397	75.31
435.618	83.31
435.84	95.31
436.062	83.31
436.284	72.31
436.505	73.31
436.727	73.31
436.949	79.31
437.17	74.31
437.392	85.31
437.614	78.31
437.835	75.31
438.057	89.31
438.278	79.31
438.5	70.31
438.721	71.31
438.943	80.31
439.165	82.31
439.386	63.31
439.608	86.31
439.829	90.31
440.05	72.31
440.272	71.31
440.493	83.31
440.715	71.31
440.936	83.31
441.158	79.31
441.379	73.31
441.6	79.31
441.822	86.31
442.043	72.31
442.264	70.31
442.486	90.31
442.707	71.31
442.928	85.31
443.149	87.31
443.371	90.31
443.592	65.31
443.813	89.31
444.034	73.31
444.255	85.31
444.476	69.31
444.698	83.31
444.919	78.31
445.14	164.31
445.361	103.31
445.582	67.31
445.803	87.31
446.024	71.31
446.245	78.31
446.466	97.31
446.687	81.31
446.908	76.31
447.129	85.31
447.35	67.31
447.571	96.31
447.792	70.31
448.013	75.31
448.234	77.31
448.455	81.31
448.675	77.31
448.896	82.31
449.117	91.31
449.338	71.31
449.559	65.31
449.779	76.31
450	74.31
450.221	77.31
450.442	93.31
450.662	81.31
450.883	71.31
451.104	93.31
451.324	69.31
451.545	69.31
451.766	78.31
451.986	88.31
452.207	57.31
452.428	70.31
452.648	72.31
452.869	85.31
453.089	84.31
453.31	70.31
453.53	69.31
453.751	72.31
453.971	79.31
454.192	73.31
454.412	72.31
454.633	68.31
454.853	86.31
455.073	83.31
455.294	76.31
455.514	78.31
455.734	72.31
455.955	85.31
456.175	77.31
456.395	69.31
456.616	73.31
456.836	88.31
457.056	74.31
457.276	72.31
457.497	81.31
457.717	71.31
457.937	60.31
458.157	78.31
458.377	81.31
458.598	83.31
458.818	85.31
459.038	82.31
459.258	69.31
459.478	83.31
459.698	88.31
459.918	78.31
460.138	72.31
460.358	75.31
460.578	74.31
460.798	73.31
461.018	80.31
461.238	69.31
461.458	77.31
461.678	75.31
461.898	87.31
462.118	89.31
462.338	83.31
462.558	83.31
462.777	78.31
462.997	87.31
463.217	72.31
463.437	76.31
463.657	72.31
463.876	70.31
464.096	80.31
464.316	72.31
464.536	89.31
464.755	79.31
464.975	74.31
465.195	63.31
465.414	75.31
465.634	83.31
465.854	75.31
466.073	79.31
466.293	77.31
466.512	71.31
466.732	79.31
466.951	71.31
467.171	83.31
467.391	63.31
467.61	72.31
467.829	83.31
468.049	87.31
468.268	86.31
468.488	69.31
468.707	79.31
468.927	85.31
469.146	75.31
469.365	81.31
469.585	77.31
469.804	68.31
470.023	77.31
470.243	79.31
470.462	63.31
470.681	79.31
470.901	71.31
471.12	68.31
471.339	81.31
471.558	88.31
471.777	97.31
471.997	71.31
472.216	77.31
472.435	73.31
472.654	93.31
472.873	89.31
473.092	82.31
473.311	81.31
473.53	83.31
473.749	80.31
473.968	82.31
474.187	76.31
474.406	74.31
474.625	81.31
474.844	84.31
475.063	76.31
475.282	77.31
475.501	65.31
475.72	71.31
475.939	71.31
476.158	75.31
476.377	82.31
476.596	82.31
476.814	74.31
477.033	70.31
477.252	80.31
477.471	94.31
477.69	78.31
477.908	78.31
478.127	86.31
478.346	64.31
478.564	85.31
478.783	76.31
479.002	71.31
479.22	81.31
479.439	87.31
479.658	62.31
479.876	81.31
480.095	81.31
480.313	78.31
480.532	71.31
480.751	91.31
480.969	88.31
481.188	74.31
481.406	60.31
481.624	82.31
481.843	66.31
482.061	78.31
482.28	81.31
482.498	70.31
482.717	78.31
482.935	83.31
483.153	80.31
483.372	74.31
483.59	91.31
483.808	80.31
484.027	67.31
484.245	83.31
484.463	86.31
484.681	87.31
484.9	80.31
485.118	91.31
485.336	85.31
485.554	85.31
485.772	81.31
485.99	65.31
486.209	96.31
486.427	81.31
486.645	80.31
486.863	75.31
487.081	88.31
487.299	81.31
487.517	65.31
487.735	91.31
487.953	78.31
488.171	86.31
488.389	84.31
488.607	87.31
488.825	91.31
489.043	93.31
489.261	78.31
489.479	87.31
489.696	87.31
489.914	82.31
490.132	80.31
490.35	79.31
490.568	83.31
490.786	86.31
491.003	91.31
491.221	81.31
491.439	73.31
491.657	94.31
491.874	88.31
492.092	79.31
492.31	77.31
492.527	68.31
492.745	95.31
492.963	87.31
493.18	76.31
493.398	93.31
493.615	83.31
493.833	87.31
494.05	81.31
494.268	77.31
494.485	89.31
494.703	83.31
494.92	90.31
495.138	66.31
495.355	75.31
495.573	79.31
495.79	79.31
496.008	79.31
496.225	80.31
496.442	75.31
496.66	89.31
496.877	82.31
497.094	86.31
497.312	81.31
497.529	91.31
497.746	81.31
497.963	86.31
498.181	85.31
498.398	90.31
498.615	85.31
498.832	77.31
499.049	84.31
499.267	89.31
499.484	75.31
499.701	80.31
499.918	69.31
500.135	88.31
500.352	81.31
500.569	80.31
500.786	93.31
501.003	78.31
501.22	85.31
501.437	81.31
501.654	75.31
501.871	78.31
502.088	65.31
502.305	79.31
502.522	79.31
502.739	79.31
502.956	80.31
503.172	84.31
503.389	79.31
503.606	93.31
503.823	75.31
504.04	66.31
504.256	65.31
504.473	73.31
504.69	84.31
504.907	79.31
505.123	72.31
505.34	80.31
505.557	75.31
505.773	68.31
505.99	68.31
506.207	83.31
506.423	89.31
506.64	75.31
506.856	73.31
507.073	97.31
507.289	88.31
507.506	80.31
507.722	91.31
507.939	75.31
508.155	82.31
508.372	79.31
508.588	82.31
508.805	78.31
509.021	87.31
509.238	73.31
509.454	78.31
509.67	71.31
509.887	85.31
510.103	87.31
510.319	81.31
510.536	77.31
510.752	72.31
510.968	81.31
511.184	85.31
511.401	86.31
511.617	79.31
511.833	77.31
512.049	78.31
512.265	72.31
512.481	95.31
512.698	77.31
512.914	91.31
513.13	75.31
513.346	84.31
513.562	93.31
513.778	77.31
513.994	85.31
514.21	70.31
514.426	81.31
514.642	86.31
514.858	87.31
515.074	72.31
515.29	78.31
515.506	109.31
515.721	85.31
515.937	74.31
516.153	88.31
516.369	85.31
516.585	81.31
516.801	85.31
517.016	80.31
517.232	76.31
517.448	72.31
517.664	64.31
517.879	80.31
518.095	90.31
518.311	89.31
518.527	79.31
518.742	78.31
518.958	70.31
519.173	86.31
519.389	76.31
519.605	78.31
519.82	86.31
520.036	79.31
520.251	72.31
520.467	99.31
520.682	86.31
520.898	87.31
521.113	86.31
521.329	78.31
521.544	78.31
521.76	83.31
521.975	87.31
522.19	84.31
522.406	91.31
522.621	90.31
522.836	94.31
523.052	73.31
523.267	65.31
523.482	79.31
523.698	87.31
523.913	78.31
524.128	79.31
524.343	78.31
524.559	87.31
524.774	95.31
524.989	74.31
525.204	84.31
525.419	69.31
525.634	73.31
525.849	90.31
526.064	76.31
526.28	84.31
526.495	72.31
526.71	82.31
526.925	77.31
527.14	69.31
527.355	81.31
527.57	91.31
527.785	65.31
527.999	76.31
528.214	82.31
528.429	94.31
528.644	83.31
528.859	89.31
529.074	82.31
529.289	82.31
529.503	90.31
529.718	101.31
529.933	86.31
530.148	75.31
530.363	87.31
530.577	86.31
530.792	79.31
531.007	82.31
531.221	87.31
531.436	89.31
531.651	87.31
531.865	84.31
532.08	83.31
532.295	77.31
532.509	72.31
532.724	89.31
532.938	78.31
533.153	84.31
533.367	77.31
533.582	75.31
533.796	83.31
534.011	77.31
534.225	75.31
534.44	83.31
534.654	80.31
534.868	73.31
535.083	82.31
535.297	92.31
535.511	75.31
535.726	80.31
535.94	75.31
536.154	83.31
536.369	75.31
536.583	76.31
536.797	84.31
537.011	81.31
537.225	81.31
537.44	88.31
537.654	69.31
537.868	64.31
538.082	81.31
538.296	84.31
538.51	76.31
538.724	72.31
538.938	83.31
539.153	91.31
539.367	80.31
539.581	86.31
539.795	83.31
540.009	92.31
540.222	85.31
540.436	88.31
540.65	81.31
540.864	96.31
541.078	79.31
541.292	86.31
541.506	72.31
541.72	71.31
541.934	87.31
542.147	94.31
542.361	94.31
542.575	72.31
542.789	86.31
543.002	76.31
543.216	87.31
543.43	89.31
543.644	76.31
543.857	79.31
544.071	83.31
544.285	89.31
544.498	87.31
544.712	93.31
544.925	77.31
545.139	67.31
545.352	84.31
545.566	74.31
545.779	83.31
545.993	81.31
546.206	72.31
546.42	67.31
546.633	86.31
546.847	93.31
547.06	83.31
547.274	95.31
547.487	89.31
547.7	63.31
547.914	76.31
548.127	82.31
548.34	85.31
548.554	77.31
548.767	72.31
548.98	74.31
549.193	79.31
549.407	82.31
549.62	83.31
549.833	90.31
550.046	67.31
550.259	87.31
550.473	86.31
550.686	75.31
550.899	81.31
551.112	93.31
551.325	87.31
551.538	67.31
551.751	77.31
551.964	75.31
552.177	87.31
552.39	81.31
552.603	88.31
552.816	88.31
553.029	83.31
553.242	82.31
553.455	87.31
553.667	79.31
553.88	93.31
554.093	82.31
554.306	72.31
554.519	82.31
554.732	79.31
554.944	75.31
555.157	83.31
555.37	70.31
555.583	91.31
555.795	90.31
556.008	88.31
556.221	93.31
556.433	82.31
556.646	77.31
556.859	87.31
557.071	90.31
557.284	89.31
557.496	81.31
557.709	83.31
557.921	70.31
558.134	83.31
558.346	82.31
558.559	80.31
558.771	80.31
558.984	85.31
559.196	74.31
559.409	89.31
559.621	78.31
559.833	85.31
560.046	90.31
560.258	80.31
560.47	84.31
560.683	80.31
560.895	81.31
561.107	72.31
561.32	63.31
561.532	75.31
561.744	86.31
561.956	78.31
562.168	86.31
562.381	84.31
562.593	86.31
562.805	86.31
563.017	88.31
563.229	83.31
563.441	79.31
563.653	73.31
563.865	76.31
564.077	59.31
564.289	76.31
564.501	81.31
564.713	73.31
564.925	86.31
565.137	79.31
565.349	73.31
565.561	82.31
565.773	82.31
565.985	65.31
566.197	84.31
566.408	73.31
566.62	87.31
566.832	92.31
567.044	79.31
567.255	95.31
567.467	80.31
567.679	79.31
567.891	89.31
568.102	90.31
568.314	84.31
568.526	74.31
568.737	87.31
568.949	75.31
569.161	78.31
569.372	70.31
569.584	80.31
569.795	91.31
570.007	67.31
570.218	94.31
570.43	77.31
570.641	82.31
570.853	97.31
571.064	86.31
571.276	81.31
571.487	87.31
571.698	66.31
571.91	89.31
572.121	87.31
572.333	84.31
572.544	86.31
572.755	80.31
572.966	79.31
573.178	91.31
573.389	91.31
573.6	82.31
573.811	78.31
574.023	82.31
574.234	79.31
574.445	77.31
574.656	81.31
574.867	78.31
575.078	74.31
575.289	79.31
575.501	85.31
575.712	79.31
575.923	88.31
576.134	82.31
576.345	90.31
576.556	95.31
576.767	92.31
576.978	82.31
577.188	83.31
577.399	80.31
577.61	74.31
577.821	85.31
578.032	87.31
578.243	84.31
578.454	87.31
578.665	86.31
578.875	93.31
579.086	88.31
579.297	91.31
579.508	82.31
579.718	75.31
579.929	78.31
580.14	89.31
580.35	99.31
580.561	89.31
580.772	97.31
580.982	77.31
581.193	71.31
581.403	87.31
581.614	70.31
581.825	80.31
582.035	79.31
582.246	95.31
582.456	80.31
582.667	85.31
582.877	70.31
583.087	80.31
583.298	86.31
583.508	86.31
583.719	82.31
583.929	83.31
584.139	91.31
584.35	68.31
584.56	89.31
584.77	79.31
584.981	73.31
585.191	85.31
585.401	79.31
585.611	89.31
585.821	73.31
586.032	81.31
586.242	79.31
586.452	82.31
586.662	81.31
586.872	90.31
587.082	73.31
587.292	75.31
587.502	81.31
587.713	77.31
587.923	65.31
588.133	77.31
588.343	95.31
588.553	86.31
588.762	78.31
588.972	89.31
589.182	78.31
589.392	91.31
589.602	90.31
589.812	86.31
590.022	90.31
590.232	80.31
590.441	72.31
590.651	82.31
590.861	85.31
591.071	81.31
591.281	90.31
591.49	84.31
591.7	83.31
591.91	79.31
592.119	80.31
592.329	89.31
592.539	75.31
592.748	91.31
592.958	82.31
593.167	82.31
593.377	83.31
593.587	85.31
593.796	82.31
594.006	83.31
594.215	71.31
594.424	81.31
594.634	70.31
594.843	76.31
595.053	79.31
595.262	75.31
595.472	71.31
595.681	71.31
595.89	92.31
596.1	92.31
596.309	76.31
596.518	80.31
596.727	83.31
596.937	73.31
597.146	92.31
597.355	91.31
597.564	80.31
597.774	74.31
597.983	85.31
598.192	79.31
598.401	83.31
598.61	80.31
598.819	77.31
599.028	84.31
599.237	90.31
599.446	105.31
599.655	88.31
599.864	81.31
600.073	84.31
600.282	99.31
600.491	79.31
600.7	87.31
600.909	90.31
601.118	65.31
601.327	85.31
601.536	84.31
601.745	78.31
601.953	91.31
602.162	89.31
602.371	87.31
602.58	80.31
602.789	95.31
602.997	73.31
603.206	75.31
603.415	80.31
603.623	82.31
603.832	85.31
604.041	89.31
604.249	81.31
604.458	82.31
604.666	74.31
604.875	88.31
605.084	81.31
605.292	90.31
605.501	83.31
605.709	83.31
605.918	87.31
606.126	79.31
606.334	90.31
606.543	90.31
606.751	89.31
606.96	78.31
607.168	79.31
607.376	81.31
607.585	82.31
607.793	94.31
608.001	78.31
608.21	81.31
608.418	71.31
608.626	86.31
608.834	74.31
609.043	83.31
609.251	82.31
609.459	75.31
609.667	70.31
609.875	67.31
610.083	85.31
610.291	79.31
610.499	94.31
610.707	86.31
610.916	87.31
611.124	81.31
611.332	96.31
611.54	75.31
611.748	78.31
611.955	81.31
612.163	83.31
612.371	71.31
612.579	81.31
612.787	81.31
612.995	82.31
613.203	84.31
613.411	83.31
613.618	79.31
613.826	78.31
614.034	81.31
614.242	83.31
614.449	75.31
614.657	91.31
614.865	92.31
615.072	86.31
615.28	91.31
615.488	73.31
615.695	66.31
615.903	91.31
616.111	88.31
616.318	83.31
616.526	79.31
616.733	69.31
616.941	72.31
617.148	84.31
617.356	69.31
617.563	69.31
617.771	60.31
617.978	73.31
618.185	86.31
618.393	85.31
618.6	78.31
618.807	75.31
619.015	76.31
619.222	69.31
619.429	80.31
619.637	85.31
619.844	67.31
620.051	78.31
620.258	79.31
620.466	82.31
620.673	80.31
620.88	87.31
621.087	79.31
621.294	83.31
621.501	70.31
621.708	81.31
621.915	76.31
622.122	87.31
622.329	71.31
622.536	86.31
622.743	80.31
622.95	75.31
623.157	85.31
623.364	82.31
623.571	82.31
623.778	85.31
623.985	88.31
624.192	87.31
624.399	85.31
624.606	79.31
624.812	70.31
625.019	73.31
625.226	81.31
625.433	88.31
625.639	68.31
625.846	83.31
626.053	89.31
626.259	80.31
626.466	81.31
626.673	74.31
626.879	68.31
627.086	79.31
627.293	83.31
627.499	73.31
627.706	94.31
627.912	74.31
628.119	89.31
628.325	80.31
628.532	82.31
628.738	78.31
628.945	73.31
629.151	77.31
629.357	63.31
629.564	70.31
629.77	78.31
629.976	90.31
630.183	72.31
630.389	74.31
630.595	91.31
630.802	81.31
631.008	78.31
631.214	79.31
631.42	77.31
631.627	75.31
631.833	82.31
632.039	85.31
632.245	77.31
632.451	83.31
632.657	70.31
632.863	75.31
633.069	80.31
633.275	87.31
633.481	75.31
633.688	81.31
633.893	92.31
634.099	78.31
634.305	79.31
634.511	87.31
634.717	72.31
634.923	76.31
635.129	83.31
635.335	66.31
635.541	84.31
635.747	65.31
635.952	84.31
636.158	89.31
636.364	67.31
636.57	83.31
636.775	81.31
636.981	69.31
637.187	83.31
637.392	75.31
637.598	79.31
637.804	103.31
638.009	75.31
638.215	83.31
638.421	86.31
638.626	79.31
638.832	75.31
639.037	67.31
639.243	72.31
639.448	73.31
639.654	90.31
639.859	78.31
640.065	89.31
640.27	93.31
640.475	81.31
640.681	80.31
640.886	92.31
641.091	70.31
641.297	83.31
641.502	72.31
641.707	74.31
641.913	64.31
642.118	79.31
642.323	63.31
642.528	70.31
642.733	77.31
642.939	87.31
643.144	93.31
643.349	71.31
643.554	80.31
643.759	86.31
643.964	84.31
644.169	86.31
644.374	85.31
644.579	84.31
644.784	86.31
644.989	74.31
645.194	79.31
645.399	85.31
645.604	59.31
645.809	82.31
646.014	73.31
646.219	83.31
646.423	83.31
646.628	82.31
646.833	93.31
647.038	97.31
647.243	80.31
647.447	89.31
647.652	85.31
647.857	83.31
648.062	86.31
648.266	70.31
648.471	87.31
648.676	86.31
648.88	89.31
649.085	86.31
649.289	83.31
649.494	81.31
649.698	79.31
649.903	90.31
650.107	74.31
650.312	85.31
650.516	85.31
650.721	83.31
650.925	71.31
651.13	78.31
651.334	60.31
651.539	70.31
651.743	85.31
651.947	90.31
652.152	84.31
652.356	80.31
652.56	69.31
652.764	95.31
652.969	66.31
653.173	87.31
653.377	88.31
653.581	71.31
653.785	82.31
653.99	76.31
654.194	94.31
654.398	91.31
654.602	77.31
654.806	89.31
655.01	83.31
655.214	74.31
655.418	66.31
655.622	76.31
655.826	88.31
656.03	94.31
656.234	68.31
656.438	88.31
656.642	81.31
656.846	81.31
657.049	74.31
657.253	81.31
657.457	85.31
657.661	93.31
657.865	85.31
658.068	92.31
658.272	70.31
658.476	65.31
658.68	93.31
658.883	81.31
659.087	73.31
659.291	70.31
659.494	82.31
659.698	82.31
659.901	82.31
660.105	82.31
660.309	79.31
660.512	82.31
660.716	86.31
660.919	86.31
661.123	81.31
661.326	67.31
661.53	71.31
661.733	91.31
661.936	82.31
662.14	83.31
662.343	84.31
662.546	70.31
662.75	78.31
662.953	70.31
663.156	92.31
663.36	75.31
663.563	85.31
663.766	93.31
663.969	87.31
664.173	66.31
664.376	66.31
664.579	83.31
664.782	89.31
664.985	67.31
665.188	78.31
665.391	81.31
665.594	90.31
665.797	87.31
666	75.31
666.203	64.31
666.406	76.31
666.609	76.31
666.812	75.31
667.015	71.31
667.218	56.31
667.421	70.31
667.624	95.31
667.827	84.31
668.03	72.31
668.232	64.31
668.435	78.31
668.638	82.31
668.841	75.31
669.043	87.31
669.246	70.31
669.449	76.31
669.651	86.31
669.854	79.31
670.057	86.31
670.259	55.31
670.462	72.31
670.665	93.31
670.867	90.31
671.07	80.31
671.272	83.31
671.475	90.31
671.677	68.31
671.88	80.31
672.082	81.31
672.284	85.31
672.487	81.31
672.689	71.31
672.892	70.31
