Data from Dry_Prop_75_2_HRD10591_00003.txt Node
Date: Wed Dec 03 14:50:06 EST 2025
User: Yrep
Spectrometer: HR+D1059
Trigger mode: 1
Integration Time (sec): 1.000000E-1
Scans to average: 1
Electric dark correction enabled: true
Nonlinearity correction enabled: false
Boxcar width: 0
XAxis mode: Wavelengths
Number of Pixels in Spectrum: 2048
>>>>>Begin Spectral Data<<<<<
223.165	-14.5
223.4	-14.5
223.635	-14.5
223.869	-17.5
224.104	-4.5
224.338	-19.5
224.573	-7.5
224.808	-11.5
225.042	-8.5
225.277	2.5
225.511	-0.5
225.746	5.5
225.98	-6.5
226.215	7.5
226.449	9.5
226.683	23.5
226.918	19.5
227.152	22.5
227.387	34.5
227.621	47.5
227.856	40.5
228.09	43.5
228.324	41.5
228.559	51.5
228.793	58.5
229.027	72.5
229.262	63.5
229.496	77.5
229.73	62.5
229.964	77.5
230.199	78.5
230.433	78.5
230.667	85.5
230.901	89.5
231.136	88.5
231.37	83.5
231.604	86.5
231.838	82.5
232.072	79.5
232.306	67.5
232.541	74.5
232.775	96.5
233.009	78.5
233.243	78.5
233.477	96.5
233.711	67.5
233.945	77.5
234.179	84.5
234.413	78.5
234.647	86.5
234.881	85.5
235.115	82.5
235.349	68.5
235.583	66.5
235.817	78.5
236.051	79.5
236.285	57.5
236.519	74.5
236.753	69.5
236.987	83.5
237.221	81.5
237.455	58.5
237.689	78.5
237.922	75.5
238.156	69.5
238.39	77.5
238.624	70.5
238.858	65.5
239.091	67.5
239.325	76.5
239.559	83.5
239.793	72.5
240.027	80.5
240.26	77.5
240.494	76.5
240.728	71.5
240.961	80.5
241.195	82.5
241.429	80.5
241.662	76.5
241.896	78.5
242.13	63.5
242.363	81.5
242.597	83.5
242.83	80.5
243.064	75.5
243.298	74.5
243.531	72.5
243.765	76.5
243.998	70.5
244.232	67.5
244.465	72.5
244.699	81.5
244.932	63.5
245.166	79.5
245.399	71.5
245.633	76.5
245.866	87.5
246.099	84.5
246.333	72.5
246.566	83.5
246.8	84.5
247.033	79.5
247.266	75.5
247.5	77.5
247.733	76.5
247.966	85.5
248.2	76.5
248.433	63.5
248.666	88.5
248.899	74.5
249.133	79.5
249.366	91.5
249.599	79.5
249.832	98.5
250.066	86.5
250.299	64.5
250.532	67.5
250.765	82.5
250.998	73.5
251.231	80.5
251.465	96.5
251.698	81.5
251.931	74.5
252.164	82.5
252.397	81.5
252.63	72.5
252.863	66.5
253.096	76.5
253.329	84.5
253.562	85.5
253.795	80.5
254.028	108.5
254.261	86.5
254.494	68.5
254.727	71.5
254.96	78.5
255.193	63.5
255.426	71.5
255.659	80.5
255.892	84.5
256.124	81.5
256.357	86.5
256.59	78.5
256.823	65.5
257.056	80.5
257.289	75.5
257.521	88.5
257.754	86.5
257.987	77.5
258.22	81.5
258.452	87.5
258.685	93.5
258.918	69.5
259.151	72.5
259.383	81.5
259.616	88.5
259.849	89.5
260.081	85.5
260.314	79.5
260.547	64.5
260.779	68.5
261.012	89.5
261.244	77.5
261.477	89.5
261.71	70.5
261.942	81.5
262.175	88.5
262.407	75.5
262.64	85.5
262.872	79.5
263.105	91.5
263.337	89.5
263.57	75.5
263.802	85.5
264.035	89.5
264.267	75.5
264.499	76.5
264.732	67.5
264.964	79.5
265.197	89.5
265.429	82.5
265.661	88.5
265.894	77.5
266.126	86.5
266.358	72.5
266.591	88.5
266.823	78.5
267.055	72.5
267.287	85.5
267.52	86.5
267.752	79.5
267.984	84.5
268.216	93.5
268.448	87.5
268.681	78.5
268.913	85.5
269.145	91.5
269.377	92.5
269.609	78.5
269.841	82.5
270.073	77.5
270.306	71.5
270.538	83.5
270.77	80.5
271.002	79.5
271.234	90.5
271.466	74.5
271.698	80.5
271.93	79.5
272.162	84.5
272.394	89.5
272.626	76.5
272.858	78.5
273.09	96.5
273.322	81.5
273.553	84.5
273.785	89.5
274.017	84.5
274.249	80.5
274.481	74.5
274.713	81.5
274.945	86.5
275.176	63.5
275.408	89.5
275.64	88.5
275.872	78.5
276.104	76.5
276.335	80.5
276.567	94.5
276.799	93.5
277.031	76.5
277.262	73.5
277.494	71.5
277.726	83.5
277.957	80.5
278.189	81.5
278.421	93.5
278.652	84.5
278.884	78.5
279.115	74.5
279.347	91.5
279.579	66.5
279.81	87.5
280.042	83.5
280.273	80.5
280.505	79.5
280.736	87.5
280.968	96.5
281.199	81.5
281.431	93.5
281.662	91.5
281.894	83.5
282.125	88.5
282.356	71.5
282.588	78.5
282.819	74.5
283.051	84.5
283.282	83.5
283.513	89.5
283.745	85.5
283.976	76.5
284.207	89.5
284.439	94.5
284.67	71.5
284.901	84.5
285.132	87.5
285.364	68.5
285.595	87.5
285.826	84.5
286.057	84.5
286.288	81.5
286.52	93.5
286.751	81.5
286.982	72.5
287.213	78.5
287.444	74.5
287.675	72.5
287.906	94.5
288.138	79.5
288.369	62.5
288.6	82.5
288.831	71.5
289.062	83.5
289.293	83.5
289.524	68.5
289.755	89.5
289.986	71.5
290.217	81.5
290.448	80.5
290.679	86.5
290.91	88.5
291.141	80.5
291.371	87.5
291.602	81.5
291.833	78.5
292.064	94.5
292.295	85.5
292.526	88.5
292.757	77.5
292.987	86.5
293.218	87.5
293.449	81.5
293.68	77.5
293.91	81.5
294.141	78.5
294.372	73.5
294.603	67.5
294.833	84.5
295.064	88.5
295.295	91.5
295.525	72.5
295.756	87.5
295.987	86.5
296.217	70.5
296.448	73.5
296.679	91.5
296.909	81.5
297.14	69.5
297.37	73.5
297.601	84.5
297.831	93.5
298.062	77.5
298.292	81.5
298.523	78.5
298.753	79.5
298.984	84.5
299.214	81.5
299.445	75.5
299.675	78.5
299.905	84.5
300.136	83.5
300.366	84.5
300.597	83.5
300.827	68.5
301.057	79.5
301.288	71.5
301.518	81.5
301.748	68.5
301.979	100.5
302.209	96.5
302.439	84.5
302.669	91.5
302.9	87.5
303.13	72.5
303.36	81.5
303.59	77.5
303.82	70.5
304.051	87.5
304.281	80.5
304.511	89.5
304.741	93.5
304.971	91.5
305.201	88.5
305.431	89.5
305.661	78.5
305.891	82.5
306.121	86.5
306.352	95.5
306.582	85.5
306.812	81.5
307.042	84.5
307.272	77.5
307.502	94.5
307.731	84.5
307.961	78.5
308.191	84.5
308.421	83.5
308.651	81.5
308.881	93.5
309.111	84.5
309.341	76.5
309.571	65.5
309.8	91.5
310.03	86.5
310.26	88.5
310.49	89.5
310.72	85.5
310.949	68.5
311.179	110.5
311.409	95.5
311.639	86.5
311.868	88.5
312.098	85.5
312.328	79.5
312.557	92.5
312.787	71.5
313.017	89.5
313.246	96.5
313.476	93.5
313.706	92.5
313.935	78.5
314.165	77.5
314.394	76.5
314.624	78.5
314.853	102.5
315.083	75.5
315.312	79.5
315.542	85.5
315.771	78.5
316.001	83.5
316.23	71.5
316.46	83.5
316.689	100.5
316.919	93.5
317.148	94.5
317.377	97.5
317.607	92.5
317.836	81.5
318.065	86.5
318.295	94.5
318.524	74.5
318.753	80.5
318.983	73.5
319.212	75.5
319.441	69.5
319.67	93.5
319.9	85.5
320.129	91.5
320.358	77.5
320.587	72.5
320.816	86.5
321.046	97.5
321.275	101.5
321.504	86.5
321.733	77.5
321.962	71.5
322.191	78.5
322.42	76.5
322.649	83.5
322.878	95.5
323.108	88.5
323.337	79.5
323.566	66.5
323.795	87.5
324.024	79.5
324.253	78.5
324.482	89.5
324.71	75.5
324.939	85.5
325.168	94.5
325.397	87.5
325.626	88.5
325.855	86.5
326.084	91.5
326.313	69.5
326.542	91.5
326.77	86.5
326.999	86.5
327.228	93.5
327.457	81.5
327.686	87.5
327.914	87.5
328.143	92.5
328.372	85.5
328.6	81.5
328.829	84.5
329.058	81.5
329.287	88.5
329.515	79.5
329.744	75.5
329.972	87.5
330.201	86.5
330.43	88.5
330.658	81.5
330.887	83.5
331.115	97.5
331.344	95.5
331.572	84.5
331.801	77.5
332.03	87.5
332.258	93.5
332.486	84.5
332.715	77.5
332.943	81.5
333.172	83.5
333.4	93.5
333.629	81.5
333.857	80.5
334.085	84.5
334.314	80.5
334.542	75.5
334.771	88.5
334.999	80.5
335.227	87.5
335.455	100.5
335.684	108.5
335.912	83.5
336.14	87.5
336.369	96.5
336.597	79.5
336.825	84.5
337.053	103.5
337.281	97.5
337.51	80.5
337.738	87.5
337.966	91.5
338.194	88.5
338.422	80.5
338.65	78.5
338.878	92.5
339.106	86.5
339.334	87.5
339.562	75.5
339.79	82.5
340.018	75.5
340.246	78.5
340.474	83.5
340.702	91.5
340.93	89.5
341.158	76.5
341.386	80.5
341.614	71.5
341.842	85.5
342.07	82.5
342.298	91.5
342.526	88.5
342.754	77.5
342.981	86.5
343.209	86.5
343.437	81.5
343.665	77.5
343.893	87.5
344.12	74.5
344.348	81.5
344.576	80.5
344.804	82.5
345.031	79.5
345.259	91.5
345.487	80.5
345.714	84.5
345.942	85.5
346.17	68.5
346.397	72.5
346.625	83.5
346.853	73.5
347.08	77.5
347.308	82.5
347.535	88.5
347.763	81.5
347.99	96.5
348.218	77.5
348.445	78.5
348.673	86.5
348.9	91.5
349.128	96.5
349.355	83.5
349.583	75.5
349.81	78.5
350.037	83.5
350.265	71.5
350.492	84.5
350.72	76.5
350.947	84.5
351.174	91.5
351.402	101.5
351.629	86.5
351.856	84.5
352.083	84.5
352.311	84.5
352.538	77.5
352.765	72.5
352.992	97.5
353.22	89.5
353.447	80.5
353.674	75.5
353.901	81.5
354.128	79.5
354.355	79.5
354.583	76.5
354.81	84.5
355.037	78.5
355.264	84.5
355.491	83.5
355.718	76.5
355.945	77.5
356.172	79.5
356.399	99.5
356.626	81.5
356.853	88.5
357.08	84.5
357.307	80.5
357.534	99.5
357.761	91.5
357.988	87.5
358.215	85.5
358.441	86.5
358.668	78.5
358.895	89.5
359.122	87.5
359.349	79.5
359.576	88.5
359.802	99.5
360.029	71.5
360.256	81.5
360.483	88.5
360.709	79.5
360.936	93.5
361.163	80.5
361.39	83.5
361.616	86.5
361.843	83.5
362.07	55.5
362.296	75.5
362.523	86.5
362.749	70.5
362.976	84.5
363.203	87.5
363.429	83.5
363.656	86.5
363.882	83.5
364.109	83.5
364.335	94.5
364.562	97.5
364.788	69.5
365.015	65.5
365.241	95.5
365.468	99.5
365.694	69.5
365.92	99.5
366.147	81.5
366.373	93.5
366.599	88.5
366.826	82.5
367.052	93.5
367.278	97.5
367.505	91.5
367.731	97.5
367.957	80.5
368.184	80.5
368.41	77.5
368.636	64.5
368.862	85.5
369.089	71.5
369.315	79.5
369.541	82.5
369.767	97.5
369.993	78.5
370.219	76.5
370.445	79.5
370.672	74.5
370.898	92.5
371.124	91.5
371.35	89.5
371.576	77.5
371.802	83.5
372.028	76.5
372.254	81.5
372.48	80.5
372.706	85.5
372.932	87.5
373.158	90.5
373.384	78.5
373.61	74.5
373.835	83.5
374.061	71.5
374.287	75.5
374.513	91.5
374.739	89.5
374.965	93.5
375.191	92.5
375.416	95.5
375.642	91.5
375.868	79.5
376.094	74.5
376.319	86.5
376.545	89.5
376.771	84.5
376.997	78.5
377.222	97.5
377.448	87.5
377.674	81.5
377.899	77.5
378.125	79.5
378.35	84.5
378.576	85.5
378.802	89.5
379.027	81.5
379.253	99.5
379.478	84.5
379.704	82.5
379.929	87.5
380.155	70.5
380.38	88.5
380.606	80.5
380.831	84.5
381.057	81.5
381.282	87.5
381.507	76.5
381.733	93.5
381.958	70.5
382.184	68.5
382.409	85.5
382.634	69.5
382.86	88.5
383.085	101.5
383.31	88.5
383.535	78.5
383.761	85.5
383.986	83.5
384.211	77.5
384.436	87.5
384.662	79.5
384.887	78.5
385.112	77.5
385.337	71.5
385.562	73.5
385.787	83.5
386.013	79.5
386.238	84.5
386.463	79.5
386.688	78.5
386.913	91.5
387.138	97.5
387.363	68.5
387.588	83.5
387.813	84.5
388.038	75.5
388.263	89.5
388.488	94.5
388.713	87.5
388.938	83.5
389.163	82.5
389.387	84.5
389.612	79.5
389.837	93.5
390.062	82.5
390.287	80.5
390.512	88.5
390.736	92.5
390.961	78.5
391.186	105.5
391.411	90.5
391.636	99.5
391.86	80.5
392.085	82.5
392.31	65.5
392.534	88.5
392.759	84.5
392.984	86.5
393.208	91.5
393.433	79.5
393.658	81.5
393.882	91.5
394.107	102.5
394.331	89.5
394.556	81.5
394.78	83.5
395.005	82.5
395.229	94.5
395.454	84.5
395.678	79.5
395.903	83.5
396.127	81.5
396.352	87.5
396.576	81.5
396.801	93.5
397.025	95.5
397.249	78.5
397.474	91.5
397.698	81.5
397.922	91.5
398.147	70.5
398.371	87.5
398.595	96.5
398.82	76.5
399.044	95.5
399.268	98.5
399.492	91.5
399.717	87.5
399.941	97.5
400.165	91.5
400.389	79.5
400.613	87.5
400.837	75.5
401.062	89.5
401.286	84.5
401.51	83.5
401.734	73.5
401.958	91.5
402.182	67.5
402.406	89.5
402.63	94.5
402.854	82.5
403.078	84.5
403.302	72.5
403.526	85.5
403.75	78.5
403.974	92.5
404.198	81.5
404.422	79.5
404.645	77.5
404.869	75.5
405.093	85.5
405.317	81.5
405.541	81.5
405.765	76.5
405.988	88.5
406.212	80.5
406.436	80.5
406.66	83.5
406.883	86.5
407.107	83.5
407.331	87.5
407.555	77.5
407.778	80.5
408.002	82.5
408.226	95.5
408.449	79.5
408.673	85.5
408.896	88.5
409.12	77.5
409.344	100.5
409.567	80.5
409.791	76.5
410.014	86.5
410.238	80.5
410.461	100.5
410.685	89.5
410.908	78.5
411.132	98.5
411.355	78.5
411.578	83.5
411.802	81.5
412.025	51.5
412.249	72.5
412.472	81.5
412.695	68.5
412.919	76.5
413.142	77.5
413.365	81.5
413.589	83.5
413.812	87.5
414.035	72.5
414.258	75.5
414.482	71.5
414.705	72.5
414.928	85.5
415.151	81.5
415.374	72.5
415.597	75.5
415.821	88.5
416.044	85.5
416.267	70.5
416.49	81.5
416.713	75.5
416.936	83.5
417.159	87.5
417.382	85.5
417.605	76.5
417.828	88.5
418.051	83.5
418.274	88.5
418.497	79.5
418.72	83.5
418.943	71.5
419.166	83.5
419.389	96.5
419.611	65.5
419.834	73.5
420.057	95.5
420.28	85.5
420.503	67.5
420.726	70.5
420.948	76.5
421.171	84.5
421.394	87.5
421.617	89.5
421.839	77.5
422.062	69.5
422.285	91.5
422.507	95.5
422.73	106.5
422.953	99.5
423.175	75.5
423.398	65.5
423.621	92.5
423.843	87.5
424.066	88.5
424.288	83.5
424.511	81.5
424.733	88.5
424.956	78.5
425.178	83.5
425.401	79.5
425.623	78.5
425.846	94.5
426.068	86.5
426.291	76.5
426.513	80.5
426.735	83.5
426.958	78.5
427.18	73.5
427.402	69.5
427.625	84.5
427.847	81.5
428.069	83.5
428.292	102.5
428.514	88.5
428.736	91.5
428.958	89.5
429.181	80.5
429.403	85.5
429.625	87.5
429.847	75.5
430.069	82.5
430.292	69.5
430.514	84.5
430.736	83.5
430.958	83.5
431.18	81.5
431.402	86.5
431.624	81.5
431.846	87.5
432.068	95.5
432.29	101.5
432.512	88.5
432.734	71.5
432.956	93.5
433.178	95.5
433.4	64.5
433.622	103.5
433.844	89.5
434.066	87.5
434.287	72.5
434.509	83.5
434.731	97.5
434.953	76.5
435.175	87.5
435.397	71.5
435.618	67.5
435.84	85.5
436.062	76.5
436.284	78.5
436.505	85.5
436.727	87.5
436.949	92.5
437.17	87.5
437.392	79.5
437.614	83.5
437.835	83.5
438.057	86.5
438.278	80.5
438.5	86.5
438.721	88.5
438.943	75.5
439.165	76.5
439.386	87.5
439.608	101.5
439.829	83.5
440.05	79.5
440.272	85.5
440.493	102.5
440.715	89.5
440.936	81.5
441.158	81.5
441.379	88.5
441.6	85.5
441.822	91.5
442.043	87.5
442.264	94.5
442.486	76.5
442.707	82.5
442.928	92.5
443.149	76.5
443.371	87.5
443.592	74.5
443.813	84.5
444.034	86.5
444.255	71.5
444.476	93.5
444.698	73.5
444.919	83.5
445.14	153.5
445.361	115.5
445.582	85.5
445.803	94.5
446.024	85.5
446.245	76.5
446.466	96.5
446.687	94.5
446.908	74.5
447.129	94.5
447.35	89.5
447.571	80.5
447.792	70.5
448.013	84.5
448.234	96.5
448.455	80.5
448.675	80.5
448.896	71.5
449.117	80.5
449.338	82.5
449.559	93.5
449.779	97.5
450	98.5
450.221	78.5
450.442	83.5
450.662	87.5
450.883	88.5
451.104	75.5
451.324	84.5
451.545	86.5
451.766	72.5
451.986	68.5
452.207	71.5
452.428	79.5
452.648	73.5
452.869	77.5
453.089	84.5
453.31	80.5
453.53	94.5
453.751	81.5
453.971	83.5
454.192	86.5
454.412	81.5
454.633	80.5
454.853	91.5
455.073	84.5
455.294	79.5
455.514	82.5
455.734	75.5
455.955	78.5
456.175	76.5
456.395	76.5
456.616	78.5
456.836	73.5
457.056	64.5
457.276	71.5
457.497	87.5
457.717	79.5
457.937	79.5
458.157	71.5
458.377	66.5
458.598	87.5
458.818	78.5
459.038	74.5
459.258	76.5
459.478	77.5
459.698	84.5
459.918	76.5
460.138	75.5
460.358	82.5
460.578	77.5
460.798	82.5
461.018	72.5
461.238	92.5
461.458	83.5
461.678	86.5
461.898	101.5
462.118	75.5
462.338	84.5
462.558	88.5
462.777	84.5
462.997	87.5
463.217	88.5
463.437	78.5
463.657	79.5
463.876	84.5
464.096	84.5
464.316	84.5
464.536	86.5
464.755	93.5
464.975	72.5
465.195	70.5
465.414	77.5
465.634	81.5
465.854	85.5
466.073	80.5
466.293	72.5
466.512	85.5
466.732	87.5
466.951	75.5
467.171	86.5
467.391	88.5
467.61	85.5
467.829	90.5
468.049	95.5
468.268	69.5
468.488	75.5
468.707	77.5
468.927	91.5
469.146	81.5
469.365	95.5
469.585	79.5
469.804	81.5
470.023	83.5
470.243	80.5
470.462	78.5
470.681	88.5
470.901	75.5
471.12	77.5
471.339	98.5
471.558	83.5
471.777	92.5
471.997	63.5
472.216	86.5
472.435	80.5
472.654	81.5
472.873	98.5
473.092	84.5
473.311	82.5
473.53	75.5
473.749	74.5
473.968	83.5
474.187	92.5
474.406	91.5
474.625	87.5
474.844	99.5
475.063	82.5
475.282	83.5
475.501	60.5
475.72	80.5
475.939	78.5
476.158	72.5
476.377	74.5
476.596	86.5
476.814	95.5
477.033	87.5
477.252	84.5
477.471	81.5
477.69	84.5
477.908	78.5
478.127	84.5
478.346	87.5
478.564	97.5
478.783	88.5
479.002	85.5
479.22	86.5
479.439	84.5
479.658	94.5
479.876	101.5
480.095	82.5
480.313	92.5
480.532	92.5
480.751	96.5
480.969	89.5
481.188	76.5
481.406	87.5
481.624	73.5
481.843	89.5
482.061	82.5
482.28	95.5
482.498	89.5
482.717	85.5
482.935	63.5
483.153	91.5
483.372	78.5
483.59	67.5
483.808	82.5
484.027	78.5
484.245	93.5
484.463	87.5
484.681	100.5
484.9	88.5
485.118	88.5
485.336	83.5
485.554	84.5
485.772	96.5
485.99	87.5
486.209	73.5
486.427	79.5
486.645	81.5
486.863	86.5
487.081	83.5
487.299	71.5
487.517	77.5
487.735	77.5
487.953	74.5
488.171	95.5
488.389	79.5
488.607	96.5
488.825	80.5
489.043	79.5
489.261	88.5
489.479	81.5
489.696	75.5
489.914	80.5
490.132	80.5
490.35	80.5
490.568	93.5
490.786	86.5
491.003	83.5
491.221	93.5
491.439	88.5
491.657	81.5
491.874	93.5
492.092	96.5
492.31	83.5
492.527	105.5
492.745	91.5
492.963	92.5
493.18	81.5
493.398	83.5
493.615	87.5
493.833	69.5
494.05	78.5
494.268	72.5
494.485	91.5
494.703	79.5
494.92	74.5
495.138	88.5
495.355	83.5
495.573	92.5
495.79	95.5
496.008	86.5
496.225	84.5
496.442	87.5
496.66	91.5
496.877	84.5
497.094	86.5
497.312	88.5
497.529	89.5
497.746	94.5
497.963	99.5
498.181	85.5
498.398	73.5
498.615	88.5
498.832	90.5
499.049	85.5
499.267	101.5
499.484	93.5
499.701	82.5
499.918	78.5
500.135	88.5
500.352	78.5
500.569	86.5
500.786	79.5
501.003	80.5
501.22	79.5
501.437	92.5
501.654	88.5
501.871	85.5
502.088	85.5
502.305	80.5
502.522	88.5
502.739	88.5
502.956	95.5
503.172	77.5
503.389	79.5
503.606	95.5
503.823	87.5
504.04	84.5
504.256	95.5
504.473	78.5
504.69	95.5
504.907	93.5
505.123	83.5
505.34	85.5
505.557	89.5
505.773	81.5
505.99	87.5
506.207	63.5
506.423	84.5
506.64	99.5
506.856	86.5
507.073	76.5
507.289	91.5
507.506	87.5
507.722	83.5
507.939	79.5
508.155	80.5
508.372	83.5
508.588	84.5
508.805	72.5
509.021	85.5
509.238	88.5
509.454	84.5
509.67	84.5
509.887	80.5
510.103	83.5
510.319	81.5
510.536	74.5
510.752	74.5
510.968	67.5
511.184	86.5
511.401	80.5
511.617	83.5
511.833	96.5
512.049	86.5
512.265	81.5
512.481	76.5
512.698	85.5
512.914	95.5
513.13	93.5
513.346	93.5
513.562	95.5
513.778	85.5
513.994	75.5
514.21	82.5
514.426	83.5
514.642	87.5
514.858	75.5
515.074	75.5
515.29	78.5
515.506	88.5
515.721	79.5
515.937	75.5
516.153	83.5
516.369	93.5
516.585	72.5
516.801	76.5
517.016	93.5
517.232	87.5
517.448	87.5
517.664	82.5
517.879	73.5
518.095	93.5
518.311	94.5
518.527	88.5
518.742	77.5
518.958	82.5
519.173	81.5
519.389	92.5
519.605	100.5
519.82	85.5
520.036	79.5
520.251	85.5
520.467	83.5
520.682	80.5
520.898	96.5
521.113	95.5
521.329	88.5
521.544	77.5
521.76	84.5
521.975	87.5
522.19	86.5
522.406	84.5
522.621	92.5
522.836	87.5
523.052	81.5
523.267	83.5
523.482	78.5
523.698	79.5
523.913	79.5
524.128	88.5
524.343	75.5
524.559	92.5
524.774	91.5
524.989	105.5
525.204	84.5
525.419	87.5
525.634	76.5
525.849	83.5
526.064	84.5
526.28	87.5
526.495	83.5
526.71	82.5
526.925	72.5
527.14	84.5
527.355	78.5
527.57	79.5
527.785	93.5
527.999	82.5
528.214	85.5
528.429	95.5
528.644	76.5
528.859	90.5
529.074	99.5
529.289	78.5
529.503	93.5
529.718	101.5
529.933	70.5
530.148	99.5
530.363	86.5
530.577	91.5
530.792	77.5
531.007	80.5
531.221	93.5
531.436	72.5
531.651	95.5
531.865	93.5
532.08	86.5
532.295	95.5
532.509	75.5
532.724	80.5
532.938	90.5
533.153	68.5
533.367	87.5
533.582	97.5
533.796	84.5
534.011	81.5
534.225	82.5
534.44	95.5
534.654	75.5
534.868	86.5
535.083	82.5
535.297	87.5
535.511	98.5
535.726	80.5
535.94	101.5
536.154	75.5
536.369	85.5
536.583	88.5
536.797	72.5
537.011	85.5
537.225	82.5
537.44	78.5
537.654	87.5
537.868	86.5
538.082	92.5
538.296	97.5
538.51	94.5
538.724	81.5
538.938	75.5
539.153	75.5
539.367	97.5
539.581	85.5
539.795	88.5
540.009	93.5
540.222	96.5
540.436	84.5
540.65	80.5
540.864	87.5
541.078	92.5
541.292	69.5
541.506	91.5
541.72	83.5
541.934	85.5
542.147	87.5
542.361	77.5
542.575	94.5
542.789	80.5
543.002	84.5
543.216	94.5
543.43	79.5
543.644	85.5
543.857	76.5
544.071	79.5
544.285	72.5
544.498	86.5
544.712	78.5
544.925	85.5
545.139	91.5
545.352	92.5
545.566	96.5
545.779	95.5
545.993	89.5
546.206	85.5
546.42	86.5
546.633	85.5
546.847	80.5
547.06	79.5
547.274	87.5
547.487	91.5
547.7	99.5
547.914	89.5
548.127	94.5
548.34	91.5
548.554	81.5
548.767	82.5
548.98	87.5
549.193	91.5
549.407	104.5
549.62	96.5
549.833	80.5
550.046	80.5
550.259	81.5
550.473	86.5
550.686	83.5
550.899	89.5
551.112	93.5
551.325	81.5
551.538	100.5
551.751	109.5
551.964	99.5
552.177	84.5
552.39	86.5
552.603	93.5
552.816	70.5
553.029	71.5
553.242	112.5
553.455	81.5
553.667	97.5
553.88	70.5
554.093	77.5
554.306	72.5
554.519	85.5
554.732	79.5
554.944	95.5
555.157	92.5
555.37	88.5
555.583	80.5
555.795	100.5
556.008	79.5
556.221	91.5
556.433	89.5
556.646	101.5
556.859	75.5
557.071	87.5
557.284	93.5
557.496	85.5
557.709	94.5
557.921	90.5
558.134	95.5
558.346	87.5
558.559	82.5
558.771	83.5
558.984	78.5
559.196	91.5
559.409	85.5
559.621	83.5
559.833	91.5
560.046	86.5
560.258	92.5
560.47	79.5
560.683	97.5
560.895	91.5
561.107	93.5
561.32	87.5
561.532	84.5
561.744	77.5
561.956	82.5
562.168	105.5
562.381	91.5
562.593	67.5
562.805	83.5
563.017	84.5
563.229	70.5
563.441	72.5
563.653	76.5
563.865	88.5
564.077	88.5
564.289	79.5
564.501	91.5
564.713	100.5
564.925	78.5
565.137	73.5
565.349	88.5
565.561	88.5
565.773	86.5
565.985	90.5
566.197	71.5
566.408	74.5
566.62	83.5
566.832	87.5
567.044	76.5
567.255	78.5
567.467	79.5
567.679	79.5
567.891	88.5
568.102	89.5
568.314	79.5
568.526	80.5
568.737	95.5
568.949	84.5
569.161	83.5
569.372	99.5
569.584	86.5
569.795	93.5
570.007	93.5
570.218	103.5
570.43	96.5
570.641	81.5
570.853	95.5
571.064	75.5
571.276	85.5
571.487	86.5
571.698	82.5
571.91	82.5
572.121	91.5
572.333	85.5
572.544	91.5
572.755	73.5
572.966	63.5
573.178	88.5
573.389	85.5
573.6	73.5
573.811	64.5
574.023	79.5
574.234	89.5
574.445	73.5
574.656	82.5
574.867	69.5
575.078	72.5
575.289	89.5
575.501	88.5
575.712	91.5
575.923	86.5
576.134	97.5
576.345	84.5
576.556	75.5
576.767	103.5
576.978	86.5
577.188	84.5
577.399	85.5
577.61	87.5
577.821	93.5
578.032	87.5
578.243	94.5
578.454	76.5
578.665	85.5
578.875	82.5
579.086	87.5
579.297	79.5
579.508	93.5
579.718	97.5
579.929	91.5
580.14	77.5
580.35	71.5
580.561	83.5
580.772	80.5
580.982	90.5
581.193	88.5
581.403	83.5
581.614	84.5
581.825	88.5
582.035	85.5
582.246	93.5
582.456	84.5
582.667	89.5
582.877	96.5
583.087	88.5
583.298	77.5
583.508	100.5
583.719	74.5
583.929	83.5
584.139	80.5
584.35	104.5
584.56	95.5
584.77	88.5
584.981	84.5
585.191	96.5
585.401	91.5
585.611	91.5
585.821	78.5
586.032	83.5
586.242	79.5
586.452	85.5
586.662	86.5
586.872	76.5
587.082	82.5
587.292	94.5
587.502	99.5
587.713	70.5
587.923	81.5
588.133	81.5
588.343	101.5
588.553	98.5
588.762	108.5
588.972	144.5
589.182	300.5
589.392	199.5
589.602	169.5
589.812	258.5
590.022	146.5
590.232	84.5
590.441	101.5
590.651	97.5
590.861	94.5
591.071	82.5
591.281	93.5
591.49	96.5
591.7	93.5
591.91	87.5
592.119	80.5
592.329	69.5
592.539	94.5
592.748	78.5
592.958	87.5
593.167	95.5
593.377	89.5
593.587	85.5
593.796	87.5
594.006	81.5
594.215	85.5
594.424	88.5
594.634	83.5
594.843	94.5
595.053	83.5
595.262	87.5
595.472	81.5
595.681	74.5
595.89	98.5
596.1	101.5
596.309	86.5
596.518	85.5
596.727	94.5
596.937	85.5
597.146	79.5
597.355	85.5
597.564	87.5
597.774	89.5
597.983	100.5
598.192	82.5
598.401	83.5
598.61	83.5
598.819	76.5
599.028	95.5
599.237	81.5
599.446	101.5
599.655	96.5
599.864	106.5
600.073	79.5
600.282	86.5
600.491	76.5
600.7	87.5
600.909	85.5
601.118	83.5
601.327	78.5
601.536	92.5
601.745	88.5
601.953	77.5
602.162	79.5
602.371	91.5
602.58	86.5
602.789	79.5
602.997	87.5
603.206	87.5
603.415	94.5
603.623	87.5
603.832	79.5
604.041	79.5
604.249	92.5
604.458	89.5
604.666	86.5
604.875	77.5
605.084	92.5
605.292	85.5
605.501	85.5
605.709	96.5
605.918	77.5
606.126	83.5
606.334	90.5
606.543	88.5
606.751	84.5
606.96	93.5
607.168	88.5
607.376	100.5
607.585	92.5
607.793	77.5
608.001	62.5
608.21	97.5
608.418	82.5
608.626	85.5
608.834	82.5
609.043	87.5
609.251	93.5
609.459	81.5
609.667	81.5
609.875	87.5
610.083	92.5
610.291	84.5
610.499	78.5
610.707	74.5
610.916	85.5
611.124	75.5
611.332	80.5
611.54	89.5
611.748	80.5
611.955	101.5
612.163	83.5
612.371	88.5
612.579	88.5
612.787	83.5
612.995	78.5
613.203	80.5
613.411	81.5
613.618	88.5
613.826	88.5
614.034	92.5
614.242	88.5
614.449	80.5
614.657	93.5
614.865	79.5
615.072	96.5
615.28	77.5
615.488	105.5
615.695	92.5
615.903	96.5
616.111	87.5
616.318	96.5
616.526	77.5
616.733	83.5
616.941	85.5
617.148	81.5
617.356	81.5
617.563	83.5
617.771	85.5
617.978	85.5
618.185	79.5
618.393	84.5
618.6	79.5
618.807	91.5
619.015	85.5
619.222	75.5
619.429	80.5
619.637	84.5
619.844	83.5
620.051	88.5
620.258	102.5
620.466	81.5
620.673	86.5
620.88	72.5
621.087	85.5
621.294	92.5
621.501	79.5
621.708	87.5
621.915	100.5
622.122	87.5
622.329	67.5
622.536	98.5
622.743	78.5
622.95	93.5
623.157	93.5
623.364	100.5
623.571	93.5
623.778	68.5
623.985	86.5
624.192	84.5
624.399	87.5
624.606	85.5
624.812	77.5
625.019	86.5
625.226	77.5
625.433	75.5
625.639	88.5
625.846	95.5
626.053	76.5
626.259	91.5
626.466	84.5
626.673	80.5
626.879	83.5
627.086	66.5
627.293	91.5
627.499	91.5
627.706	87.5
627.912	76.5
628.119	77.5
628.325	78.5
628.532	80.5
628.738	85.5
628.945	79.5
629.151	86.5
629.357	81.5
629.564	91.5
629.77	75.5
629.976	84.5
630.183	93.5
630.389	84.5
630.595	74.5
630.802	75.5
631.008	89.5
631.214	78.5
631.42	86.5
631.627	91.5
631.833	71.5
632.039	93.5
632.245	93.5
632.451	81.5
632.657	93.5
632.863	78.5
633.069	87.5
633.275	89.5
633.481	96.5
633.688	84.5
633.893	85.5
634.099	78.5
634.305	69.5
634.511	93.5
634.717	84.5
634.923	79.5
635.129	73.5
635.335	95.5
635.541	87.5
635.747	87.5
635.952	83.5
636.158	83.5
636.364	103.5
636.57	76.5
636.775	86.5
636.981	85.5
637.187	82.5
637.392	77.5
637.598	79.5
637.804	99.5
638.009	79.5
638.215	84.5
638.421	95.5
638.626	96.5
638.832	77.5
639.037	95.5
639.243	78.5
639.448	80.5
639.654	94.5
639.859	79.5
640.065	73.5
640.27	95.5
640.475	86.5
640.681	83.5
640.886	69.5
641.091	77.5
641.297	95.5
641.502	93.5
641.707	79.5
641.913	69.5
642.118	76.5
642.323	68.5
642.528	86.5
642.733	73.5
642.939	83.5
643.144	92.5
643.349	95.5
643.554	80.5
643.759	80.5
643.964	81.5
644.169	69.5
644.374	68.5
644.579	84.5
644.784	91.5
644.989	87.5
645.194	93.5
645.399	86.5
645.604	72.5
645.809	87.5
646.014	87.5
646.219	92.5
646.423	81.5
646.628	77.5
646.833	81.5
647.038	85.5
647.243	81.5
647.447	74.5
647.652	83.5
647.857	71.5
648.062	83.5
648.266	82.5
648.471	81.5
648.676	86.5
648.88	73.5
649.085	76.5
649.289	82.5
649.494	106.5
649.698	91.5
649.903	77.5
650.107	73.5
650.312	82.5
650.516	82.5
650.721	100.5
650.925	83.5
651.13	77.5
651.334	66.5
651.539	73.5
651.743	89.5
651.947	83.5
652.152	87.5
652.356	97.5
652.56	86.5
652.764	68.5
652.969	73.5
653.173	87.5
653.377	82.5
653.581	73.5
653.785	74.5
653.99	91.5
654.194	79.5
654.398	92.5
654.602	88.5
654.806	86.5
655.01	92.5
655.214	75.5
655.418	95.5
655.622	99.5
655.826	97.5
656.03	87.5
656.234	91.5
656.438	84.5
656.642	75.5
656.846	84.5
657.049	77.5
657.253	91.5
657.457	74.5
657.661	77.5
657.865	86.5
658.068	88.5
658.272	77.5
658.476	73.5
658.68	86.5
658.883	88.5
659.087	88.5
659.291	84.5
659.494	87.5
659.698	84.5
659.901	104.5
660.105	89.5
660.309	64.5
660.512	84.5
660.716	86.5
660.919	76.5
661.123	95.5
661.326	78.5
661.53	78.5
661.733	75.5
661.936	79.5
662.14	69.5
662.343	78.5
662.546	71.5
662.75	83.5
662.953	94.5
663.156	91.5
663.36	83.5
663.563	65.5
663.766	72.5
663.969	79.5
664.173	67.5
664.376	80.5
664.579	97.5
664.782	78.5
664.985	88.5
665.188	82.5
665.391	75.5
665.594	69.5
665.797	96.5
666	87.5
666.203	67.5
666.406	94.5
666.609	92.5
666.812	78.5
667.015	68.5
667.218	88.5
667.421	84.5
667.624	79.5
667.827	84.5
668.03	76.5
668.232	87.5
668.435	81.5
668.638	73.5
668.841	79.5
669.043	80.5
669.246	100.5
669.449	89.5
669.651	81.5
669.854	87.5
670.057	90.5
670.259	85.5
670.462	83.5
670.665	82.5
670.867	86.5
671.07	96.5
671.272	88.5
671.475	72.5
671.677	72.5
671.88	81.5
672.082	85.5
672.284	79.5
672.487	81.5
672.689	77.5
672.892	83.5
