Data from Background_1_HRD10591_00099.txt Node
Date: Wed Nov 05 14:39:47 EST 2025
User: Yrep
Spectrometer: HR+D1059
Trigger mode: 1
Integration Time (sec): 1.000000E-1
Scans to average: 1
Electric dark correction enabled: true
Nonlinearity correction enabled: false
Boxcar width: 0
XAxis mode: Wavelengths
Number of Pixels in Spectrum: 2048
>>>>>Begin Spectral Data<<<<<
223.165	-9.44
223.4	-9.44
223.635	-9.44
223.869	-20.44
224.104	-11.44
224.338	-17.44
224.573	-12.44
224.808	-12.44
225.042	-8.44
225.277	-5.44
225.511	-3.44
225.746	0.56
225.98	13.56
226.215	3.56
226.449	14.56
226.683	22.56
226.918	17.56
227.152	28.56
227.387	34.56
227.621	45.56
227.856	41.56
228.09	55.56
228.324	47.56
228.559	51.56
228.793	61.56
229.027	55.56
229.262	72.56
229.496	58.56
229.73	74.56
229.964	61.56
230.199	93.56
230.433	65.56
230.667	83.56
230.901	68.56
231.136	79.56
231.37	58.56
231.604	78.56
231.838	76.56
232.072	75.56
232.306	92.56
232.541	82.56
232.775	78.56
233.009	69.56
233.243	71.56
233.477	80.56
233.711	64.56
233.945	75.56
234.179	74.56
234.413	78.56
234.647	94.56
234.881	83.56
235.115	82.56
235.349	90.56
235.583	75.56
235.817	80.56
236.051	75.56
236.285	69.56
236.519	73.56
236.753	77.56
236.987	64.56
237.221	78.56
237.455	70.56
237.689	82.56
237.922	67.56
238.156	74.56
238.39	76.56
238.624	93.56
238.858	85.56
239.091	84.56
239.325	70.56
239.559	86.56
239.793	73.56
240.027	85.56
240.26	84.56
240.494	75.56
240.728	84.56
240.961	71.56
241.195	84.56
241.429	70.56
241.662	65.56
241.896	63.56
242.13	70.56
242.363	78.56
242.597	68.56
242.83	80.56
243.064	80.56
243.298	76.56
243.531	65.56
243.765	77.56
243.998	71.56
244.232	89.56
244.465	79.56
244.699	65.56
244.932	72.56
245.166	88.56
245.399	61.56
245.633	79.56
245.866	83.56
246.099	82.56
246.333	83.56
246.566	90.56
246.8	71.56
247.033	75.56
247.266	82.56
247.5	80.56
247.733	74.56
247.966	77.56
248.2	75.56
248.433	77.56
248.666	91.56
248.899	76.56
249.133	69.56
249.366	87.56
249.599	79.56
249.832	73.56
250.066	74.56
250.299	82.56
250.532	88.56
250.765	99.56
250.998	68.56
251.231	73.56
251.465	85.56
251.698	81.56
251.931	81.56
252.164	81.56
252.397	70.56
252.63	80.56
252.863	84.56
253.096	79.56
253.329	77.56
253.562	82.56
253.795	83.56
254.028	85.56
254.261	80.56
254.494	66.56
254.727	76.56
254.96	86.56
255.193	87.56
255.426	68.56
255.659	88.56
255.892	82.56
256.124	88.56
256.357	80.56
256.59	81.56
256.823	69.56
257.056	83.56
257.289	81.56
257.521	91.56
257.754	74.56
257.987	70.56
258.22	88.56
258.452	76.56
258.685	84.56
258.918	78.56
259.151	69.56
259.383	91.56
259.616	58.56
259.849	75.56
260.081	79.56
260.314	75.56
260.547	101.56
260.779	73.56
261.012	80.56
261.244	76.56
261.477	89.56
261.71	93.56
261.942	88.56
262.175	80.56
262.407	75.56
262.64	85.56
262.872	80.56
263.105	74.56
263.337	82.56
263.57	88.56
263.802	82.56
264.035	91.56
264.267	83.56
264.499	80.56
264.732	77.56
264.964	69.56
265.197	84.56
265.429	76.56
265.661	80.56
265.894	85.56
266.126	86.56
266.358	63.56
266.591	82.56
266.823	71.56
267.055	69.56
267.287	93.56
267.52	90.56
267.752	75.56
267.984	62.56
268.216	77.56
268.448	70.56
268.681	87.56
268.913	86.56
269.145	78.56
269.377	81.56
269.609	65.56
269.841	84.56
270.073	91.56
270.306	78.56
270.538	86.56
270.77	85.56
271.002	76.56
271.234	86.56
271.466	87.56
271.698	86.56
271.93	67.56
272.162	85.56
272.394	79.56
272.626	80.56
272.858	87.56
273.09	90.56
273.322	81.56
273.553	82.56
273.785	84.56
274.017	78.56
274.249	76.56
274.481	83.56
274.713	72.56
274.945	66.56
275.176	78.56
275.408	87.56
275.64	87.56
275.872	81.56
276.104	72.56
276.335	89.56
276.567	82.56
276.799	96.56
277.031	77.56
277.262	93.56
277.494	91.56
277.726	78.56
277.957	74.56
278.189	66.56
278.421	93.56
278.652	90.56
278.884	81.56
279.115	93.56
279.347	77.56
279.579	90.56
279.81	61.56
280.042	93.56
280.273	82.56
280.505	74.56
280.736	89.56
280.968	76.56
281.199	82.56
281.431	70.56
281.662	83.56
281.894	80.56
282.125	74.56
282.356	65.56
282.588	85.56
282.819	84.56
283.051	79.56
283.282	87.56
283.513	96.56
283.745	78.56
283.976	92.56
284.207	79.56
284.439	81.56
284.67	82.56
284.901	88.56
285.132	88.56
285.364	82.56
285.595	87.56
285.826	83.56
286.057	96.56
286.288	78.56
286.52	98.56
286.751	69.56
286.982	77.56
287.213	88.56
287.444	79.56
287.675	81.56
287.906	85.56
288.138	93.56
288.369	82.56
288.6	80.56
288.831	80.56
289.062	84.56
289.293	84.56
289.524	86.56
289.755	85.56
289.986	83.56
290.217	88.56
290.448	80.56
290.679	84.56
290.91	80.56
291.141	102.56
291.371	92.56
291.602	83.56
291.833	92.56
292.064	87.56
292.295	77.56
292.526	87.56
292.757	85.56
292.987	85.56
293.218	96.56
293.449	85.56
293.68	92.56
293.91	82.56
294.141	89.56
294.372	84.56
294.603	83.56
294.833	101.56
295.064	85.56
295.295	82.56
295.525	82.56
295.756	80.56
295.987	91.56
296.217	86.56
296.448	83.56
296.679	96.56
296.909	75.56
297.14	85.56
297.37	86.56
297.601	69.56
297.831	79.56
298.062	87.56
298.292	80.56
298.523	77.56
298.753	66.56
298.984	92.56
299.214	69.56
299.445	83.56
299.675	84.56
299.905	75.56
300.136	87.56
300.366	86.56
300.597	65.56
300.827	96.56
301.057	81.56
301.288	76.56
301.518	79.56
301.748	77.56
301.979	98.56
302.209	89.56
302.439	90.56
302.669	75.56
302.9	84.56
303.13	88.56
303.36	96.56
303.59	79.56
303.82	95.56
304.051	81.56
304.281	94.56
304.511	96.56
304.741	96.56
304.971	76.56
305.201	75.56
305.431	81.56
305.661	84.56
305.891	85.56
306.121	85.56
306.352	74.56
306.582	76.56
306.812	75.56
307.042	89.56
307.272	82.56
307.502	90.56
307.731	80.56
307.961	76.56
308.191	93.56
308.421	78.56
308.651	70.56
308.881	75.56
309.111	78.56
309.341	90.56
309.571	60.56
309.8	88.56
310.03	95.56
310.26	86.56
310.49	88.56
310.72	76.56
310.949	90.56
311.179	89.56
311.409	85.56
311.639	89.56
311.868	69.56
312.098	74.56
312.328	92.56
312.557	78.56
312.787	81.56
313.017	78.56
313.246	98.56
313.476	97.56
313.706	93.56
313.935	91.56
314.165	79.56
314.394	74.56
314.624	108.56
314.853	74.56
315.083	79.56
315.312	85.56
315.542	79.56
315.771	76.56
316.001	94.56
316.23	84.56
316.46	91.56
316.689	78.56
316.919	78.56
317.148	79.56
317.377	87.56
317.607	71.56
317.836	69.56
318.065	87.56
318.295	84.56
318.524	84.56
318.753	95.56
318.983	80.56
319.212	74.56
319.441	68.56
319.67	85.56
319.9	70.56
320.129	89.56
320.358	73.56
320.587	91.56
320.816	86.56
321.046	89.56
321.275	88.56
321.504	71.56
321.733	85.56
321.962	83.56
322.191	81.56
322.42	82.56
322.649	102.56
322.878	84.56
323.108	87.56
323.337	82.56
323.566	72.56
323.795	88.56
324.024	89.56
324.253	90.56
324.482	80.56
324.71	77.56
324.939	82.56
325.168	76.56
325.397	70.56
325.626	90.56
325.855	88.56
326.084	81.56
326.313	92.56
326.542	88.56
326.77	88.56
326.999	81.56
327.228	93.56
327.457	74.56
327.686	76.56
327.914	92.56
328.143	80.56
328.372	84.56
328.6	75.56
328.829	89.56
329.058	75.56
329.287	84.56
329.515	88.56
329.744	104.56
329.972	82.56
330.201	77.56
330.43	94.56
330.658	83.56
330.887	74.56
331.115	76.56
331.344	81.56
331.572	79.56
331.801	85.56
332.03	91.56
332.258	89.56
332.486	85.56
332.715	86.56
332.943	98.56
333.172	91.56
333.4	84.56
333.629	82.56
333.857	85.56
334.085	84.56
334.314	66.56
334.542	87.56
334.771	78.56
334.999	94.56
335.227	77.56
335.455	88.56
335.684	85.56
335.912	88.56
336.14	88.56
336.369	92.56
336.597	88.56
336.825	72.56
337.053	99.56
337.281	74.56
337.51	82.56
337.738	85.56
337.966	88.56
338.194	80.56
338.422	80.56
338.65	97.56
338.878	90.56
339.106	89.56
339.334	90.56
339.562	92.56
339.79	76.56
340.018	88.56
340.246	82.56
340.474	90.56
340.702	74.56
340.93	75.56
341.158	83.56
341.386	82.56
341.614	91.56
341.842	75.56
342.07	88.56
342.298	80.56
342.526	89.56
342.754	72.56
342.981	113.56
343.209	78.56
343.437	85.56
343.665	81.56
343.893	82.56
344.12	91.56
344.348	97.56
344.576	89.56
344.804	90.56
345.031	84.56
345.259	87.56
345.487	82.56
345.714	87.56
345.942	79.56
346.17	91.56
346.397	90.56
346.625	86.56
346.853	94.56
347.08	87.56
347.308	69.56
347.535	92.56
347.763	81.56
347.99	88.56
348.218	83.56
348.445	81.56
348.673	89.56
348.9	89.56
349.128	82.56
349.355	93.56
349.583	97.56
349.81	86.56
350.037	84.56
350.265	84.56
350.492	76.56
350.72	77.56
350.947	95.56
351.174	80.56
351.402	83.56
351.629	80.56
351.856	84.56
352.083	72.56
352.311	87.56
352.538	91.56
352.765	88.56
352.992	82.56
353.22	78.56
353.447	99.56
353.674	94.56
353.901	90.56
354.128	80.56
354.355	73.56
354.583	85.56
354.81	95.56
355.037	80.56
355.264	86.56
355.491	75.56
355.718	86.56
355.945	79.56
356.172	76.56
356.399	66.56
356.626	88.56
356.853	80.56
357.08	76.56
357.307	89.56
357.534	80.56
357.761	88.56
357.988	77.56
358.215	84.56
358.441	94.56
358.668	79.56
358.895	87.56
359.122	92.56
359.349	89.56
359.576	84.56
359.802	86.56
360.029	78.56
360.256	89.56
360.483	74.56
360.709	82.56
360.936	78.56
361.163	91.56
361.39	80.56
361.616	77.56
361.843	83.56
362.07	79.56
362.296	81.56
362.523	76.56
362.749	80.56
362.976	84.56
363.203	86.56
363.429	81.56
363.656	86.56
363.882	85.56
364.109	81.56
364.335	95.56
364.562	85.56
364.788	85.56
365.015	89.56
365.241	93.56
365.468	81.56
365.694	88.56
365.92	84.56
366.147	68.56
366.373	82.56
366.599	75.56
366.826	89.56
367.052	78.56
367.278	89.56
367.505	85.56
367.731	88.56
367.957	82.56
368.184	81.56
368.41	84.56
368.636	76.56
368.862	86.56
369.089	90.56
369.315	66.56
369.541	86.56
369.767	76.56
369.993	85.56
370.219	71.56
370.445	82.56
370.672	85.56
370.898	79.56
371.124	86.56
371.35	93.56
371.576	101.56
371.802	85.56
372.028	70.56
372.254	79.56
372.48	77.56
372.706	79.56
372.932	71.56
373.158	70.56
373.384	92.56
373.61	100.56
373.835	83.56
374.061	92.56
374.287	93.56
374.513	78.56
374.739	74.56
374.965	75.56
375.191	79.56
375.416	87.56
375.642	79.56
375.868	85.56
376.094	86.56
376.319	77.56
376.545	73.56
376.771	89.56
376.997	81.56
377.222	70.56
377.448	85.56
377.674	78.56
377.899	78.56
378.125	94.56
378.35	78.56
378.576	80.56
378.802	86.56
379.027	78.56
379.253	78.56
379.478	87.56
379.704	80.56
379.929	81.56
380.155	73.56
380.38	72.56
380.606	86.56
380.831	82.56
381.057	89.56
381.282	89.56
381.507	91.56
381.733	73.56
381.958	81.56
382.184	82.56
382.409	77.56
382.634	91.56
382.86	85.56
383.085	79.56
383.31	62.56
383.535	89.56
383.761	82.56
383.986	85.56
384.211	84.56
384.436	80.56
384.662	76.56
384.887	67.56
385.112	82.56
385.337	92.56
385.562	92.56
385.787	66.56
386.013	80.56
386.238	72.56
386.463	89.56
386.688	104.56
386.913	68.56
387.138	70.56
387.363	85.56
387.588	90.56
387.813	79.56
388.038	74.56
388.263	82.56
388.488	87.56
388.713	90.56
388.938	72.56
389.163	93.56
389.387	71.56
389.612	86.56
389.837	86.56
390.062	87.56
390.287	65.56
390.512	71.56
390.736	70.56
390.961	82.56
391.186	88.56
391.411	81.56
391.636	89.56
391.86	99.56
392.085	82.56
392.31	80.56
392.534	75.56
392.759	84.56
392.984	89.56
393.208	89.56
393.433	90.56
393.658	93.56
393.882	82.56
394.107	64.56
394.331	89.56
394.556	75.56
394.78	88.56
395.005	74.56
395.229	85.56
395.454	85.56
395.678	82.56
395.903	84.56
396.127	70.56
396.352	85.56
396.576	65.56
396.801	77.56
397.025	84.56
397.249	74.56
397.474	58.56
397.698	83.56
397.922	86.56
398.147	80.56
398.371	84.56
398.595	75.56
398.82	91.56
399.044	79.56
399.268	82.56
399.492	62.56
399.717	94.56
399.941	87.56
400.165	74.56
400.389	84.56
400.613	75.56
400.837	76.56
401.062	82.56
401.286	84.56
401.51	70.56
401.734	94.56
401.958	86.56
402.182	86.56
402.406	94.56
402.63	73.56
402.854	91.56
403.078	80.56
403.302	78.56
403.526	80.56
403.75	79.56
403.974	78.56
404.198	86.56
404.422	85.56
404.645	86.56
404.869	75.56
405.093	81.56
405.317	76.56
405.541	76.56
405.765	79.56
405.988	74.56
406.212	75.56
406.436	69.56
406.66	78.56
406.883	74.56
407.107	76.56
407.331	93.56
407.555	101.56
407.778	78.56
408.002	74.56
408.226	79.56
408.449	83.56
408.673	76.56
408.896	79.56
409.12	81.56
409.344	80.56
409.567	62.56
409.791	78.56
410.014	60.56
410.238	76.56
410.461	74.56
410.685	73.56
410.908	85.56
411.132	88.56
411.355	86.56
411.578	78.56
411.802	96.56
412.025	92.56
412.249	77.56
412.472	89.56
412.695	90.56
412.919	83.56
413.142	84.56
413.365	91.56
413.589	77.56
413.812	82.56
414.035	89.56
414.258	80.56
414.482	83.56
414.705	91.56
414.928	78.56
415.151	71.56
415.374	74.56
415.597	75.56
415.821	66.56
416.044	92.56
416.267	82.56
416.49	79.56
416.713	73.56
416.936	90.56
417.159	74.56
417.382	71.56
417.605	80.56
417.828	85.56
418.051	76.56
418.274	82.56
418.497	81.56
418.72	66.56
418.943	81.56
419.166	85.56
419.389	78.56
419.611	66.56
419.834	83.56
420.057	80.56
420.28	71.56
420.503	111.56
420.726	72.56
420.948	88.56
421.171	85.56
421.394	76.56
421.617	94.56
421.839	82.56
422.062	71.56
422.285	92.56
422.507	100.56
422.73	71.56
422.953	85.56
423.175	65.56
423.398	73.56
423.621	80.56
423.843	82.56
424.066	71.56
424.288	73.56
424.511	71.56
424.733	92.56
424.956	67.56
425.178	69.56
425.401	87.56
425.623	85.56
425.846	90.56
426.068	69.56
426.291	71.56
426.513	78.56
426.735	81.56
426.958	69.56
427.18	92.56
427.402	74.56
427.625	81.56
427.847	89.56
428.069	79.56
428.292	80.56
428.514	76.56
428.736	61.56
428.958	77.56
429.181	78.56
429.403	82.56
429.625	68.56
429.847	82.56
430.069	75.56
430.292	83.56
430.514	82.56
430.736	88.56
430.958	79.56
431.18	82.56
431.402	90.56
431.624	79.56
431.846	78.56
432.068	82.56
432.29	78.56
432.512	92.56
432.734	70.56
432.956	85.56
433.178	98.56
433.4	93.56
433.622	89.56
433.844	80.56
434.066	84.56
434.287	83.56
434.509	76.56
434.731	67.56
434.953	66.56
435.175	90.56
435.397	75.56
435.618	85.56
435.84	85.56
436.062	78.56
436.284	71.56
436.505	92.56
436.727	78.56
436.949	75.56
437.17	74.56
437.392	78.56
437.614	87.56
437.835	80.56
438.057	80.56
438.278	86.56
438.5	85.56
438.721	83.56
438.943	81.56
439.165	83.56
439.386	90.56
439.608	77.56
439.829	74.56
440.05	81.56
440.272	71.56
440.493	77.56
440.715	77.56
440.936	89.56
441.158	68.56
441.379	74.56
441.6	76.56
441.822	76.56
442.043	70.56
442.264	61.56
442.486	81.56
442.707	75.56
442.928	74.56
443.149	74.56
443.371	75.56
443.592	79.56
443.813	78.56
444.034	84.56
444.255	79.56
444.476	89.56
444.698	84.56
444.919	68.56
445.14	165.56
445.361	117.56
445.582	93.56
445.803	64.56
446.024	80.56
446.245	81.56
446.466	87.56
446.687	72.56
446.908	82.56
447.129	66.56
447.35	84.56
447.571	85.56
447.792	73.56
448.013	84.56
448.234	78.56
448.455	78.56
448.675	76.56
448.896	79.56
449.117	82.56
449.338	76.56
449.559	82.56
449.779	84.56
450	85.56
450.221	70.56
450.442	71.56
450.662	72.56
450.883	80.56
451.104	81.56
451.324	91.56
451.545	70.56
451.766	88.56
451.986	86.56
452.207	80.56
452.428	70.56
452.648	90.56
452.869	87.56
453.089	77.56
453.31	78.56
453.53	75.56
453.751	77.56
453.971	73.56
454.192	74.56
454.412	78.56
454.633	71.56
454.853	94.56
455.073	77.56
455.294	81.56
455.514	91.56
455.734	73.56
455.955	79.56
456.175	74.56
456.395	88.56
456.616	75.56
456.836	69.56
457.056	91.56
457.276	91.56
457.497	84.56
457.717	68.56
457.937	88.56
458.157	78.56
458.377	69.56
458.598	85.56
458.818	76.56
459.038	82.56
459.258	64.56
459.478	78.56
459.698	76.56
459.918	79.56
460.138	83.56
460.358	82.56
460.578	85.56
460.798	76.56
461.018	84.56
461.238	79.56
461.458	77.56
461.678	90.56
461.898	70.56
462.118	84.56
462.338	78.56
462.558	91.56
462.777	82.56
462.997	74.56
463.217	74.56
463.437	80.56
463.657	73.56
463.876	73.56
464.096	86.56
464.316	71.56
464.536	89.56
464.755	75.56
464.975	78.56
465.195	80.56
465.414	77.56
465.634	82.56
465.854	72.56
466.073	86.56
466.293	86.56
466.512	80.56
466.732	84.56
466.951	79.56
467.171	85.56
467.391	80.56
467.61	71.56
467.829	83.56
468.049	73.56
468.268	86.56
468.488	75.56
468.707	88.56
468.927	90.56
469.146	82.56
469.365	86.56
469.585	75.56
469.804	85.56
470.023	84.56
470.243	80.56
470.462	93.56
470.681	104.56
470.901	75.56
471.12	71.56
471.339	89.56
471.558	84.56
471.777	84.56
471.997	85.56
472.216	83.56
472.435	76.56
472.654	77.56
472.873	84.56
473.092	79.56
473.311	81.56
473.53	82.56
473.749	86.56
473.968	86.56
474.187	77.56
474.406	78.56
474.625	84.56
474.844	89.56
475.063	69.56
475.282	88.56
475.501	84.56
475.72	80.56
475.939	85.56
476.158	85.56
476.377	76.56
476.596	74.56
476.814	76.56
477.033	78.56
477.252	82.56
477.471	79.56
477.69	77.56
477.908	82.56
478.127	80.56
478.346	86.56
478.564	78.56
478.783	84.56
479.002	94.56
479.22	70.56
479.439	87.56
479.658	77.56
479.876	75.56
480.095	80.56
480.313	75.56
480.532	84.56
480.751	92.56
480.969	85.56
481.188	77.56
481.406	96.56
481.624	84.56
481.843	72.56
482.061	78.56
482.28	86.56
482.498	69.56
482.717	82.56
482.935	97.56
483.153	79.56
483.372	66.56
483.59	85.56
483.808	79.56
484.027	70.56
484.245	74.56
484.463	89.56
484.681	95.56
484.9	81.56
485.118	87.56
485.336	84.56
485.554	72.56
485.772	72.56
485.99	80.56
486.209	70.56
486.427	96.56
486.645	72.56
486.863	92.56
487.081	87.56
487.299	83.56
487.517	74.56
487.735	78.56
487.953	87.56
488.171	80.56
488.389	84.56
488.607	91.56
488.825	84.56
489.043	77.56
489.261	95.56
489.479	94.56
489.696	75.56
489.914	100.56
490.132	82.56
490.35	78.56
490.568	80.56
490.786	84.56
491.003	80.56
491.221	78.56
491.439	74.56
491.657	70.56
491.874	83.56
492.092	69.56
492.31	79.56
492.527	82.56
492.745	91.56
492.963	83.56
493.18	93.56
493.398	70.56
493.615	82.56
493.833	85.56
494.05	89.56
494.268	78.56
494.485	81.56
494.703	92.56
494.92	82.56
495.138	77.56
495.355	81.56
495.573	82.56
495.79	83.56
496.008	84.56
496.225	81.56
496.442	90.56
496.66	85.56
496.877	90.56
497.094	95.56
497.312	78.56
497.529	73.56
497.746	82.56
497.963	84.56
498.181	80.56
498.398	76.56
498.615	69.56
498.832	80.56
499.049	85.56
499.267	92.56
499.484	85.56
499.701	71.56
499.918	79.56
500.135	83.56
500.352	89.56
500.569	88.56
500.786	85.56
501.003	90.56
501.22	88.56
501.437	82.56
501.654	93.56
501.871	75.56
502.088	79.56
502.305	97.56
502.522	84.56
502.739	87.56
502.956	92.56
503.172	77.56
503.389	73.56
503.606	80.56
503.823	96.56
504.04	70.56
504.256	90.56
504.473	89.56
504.69	91.56
504.907	74.56
505.123	70.56
505.34	80.56
505.557	92.56
505.773	73.56
505.99	78.56
506.207	90.56
506.423	82.56
506.64	76.56
506.856	73.56
507.073	81.56
507.289	88.56
507.506	83.56
507.722	64.56
507.939	69.56
508.155	63.56
508.372	98.56
508.588	82.56
508.805	103.56
509.021	79.56
509.238	90.56
509.454	85.56
509.67	82.56
509.887	72.56
510.103	85.56
510.319	74.56
510.536	85.56
510.752	86.56
510.968	89.56
511.184	74.56
511.401	72.56
511.617	70.56
511.833	99.56
512.049	74.56
512.265	94.56
512.481	80.56
512.698	89.56
512.914	69.56
513.13	71.56
513.346	78.56
513.562	89.56
513.778	83.56
513.994	82.56
514.21	80.56
514.426	87.56
514.642	71.56
514.858	80.56
515.074	86.56
515.29	78.56
515.506	81.56
515.721	82.56
515.937	86.56
516.153	74.56
516.369	95.56
516.585	88.56
516.801	93.56
517.016	81.56
517.232	76.56
517.448	85.56
517.664	74.56
517.879	76.56
518.095	71.56
518.311	90.56
518.527	78.56
518.742	88.56
518.958	82.56
519.173	95.56
519.389	79.56
519.605	73.56
519.82	74.56
520.036	79.56
520.251	88.56
520.467	83.56
520.682	80.56
520.898	86.56
521.113	70.56
521.329	77.56
521.544	78.56
521.76	87.56
521.975	73.56
522.19	65.56
522.406	91.56
522.621	80.56
522.836	91.56
523.052	79.56
523.267	90.56
523.482	92.56
523.698	82.56
523.913	74.56
524.128	83.56
524.343	95.56
524.559	85.56
524.774	80.56
524.989	74.56
525.204	81.56
525.419	74.56
525.634	79.56
525.849	91.56
526.064	88.56
526.28	102.56
526.495	82.56
526.71	89.56
526.925	90.56
527.14	86.56
527.355	84.56
527.57	75.56
527.785	85.56
527.999	93.56
528.214	80.56
528.429	91.56
528.644	74.56
528.859	83.56
529.074	77.56
529.289	96.56
529.503	82.56
529.718	83.56
529.933	91.56
530.148	78.56
530.363	83.56
530.577	82.56
530.792	85.56
531.007	97.56
531.221	85.56
531.436	77.56
531.651	90.56
531.865	89.56
532.08	78.56
532.295	92.56
532.509	81.56
532.724	84.56
532.938	88.56
533.153	88.56
533.367	82.56
533.582	90.56
533.796	85.56
534.011	96.56
534.225	78.56
534.44	74.56
534.654	75.56
534.868	68.56
535.083	77.56
535.297	82.56
535.511	75.56
535.726	88.56
535.94	77.56
536.154	78.56
536.369	74.56
536.583	82.56
536.797	84.56
537.011	76.56
537.225	82.56
537.44	95.56
537.654	77.56
537.868	74.56
538.082	88.56
538.296	78.56
538.51	78.56
538.724	86.56
538.938	80.56
539.153	89.56
539.367	91.56
539.581	89.56
539.795	92.56
540.009	84.56
540.222	88.56
540.436	92.56
540.65	87.56
540.864	85.56
541.078	71.56
541.292	90.56
541.506	88.56
541.72	90.56
541.934	88.56
542.147	80.56
542.361	84.56
542.575	85.56
542.789	81.56
543.002	87.56
543.216	81.56
543.43	74.56
543.644	88.56
543.857	87.56
544.071	86.56
544.285	90.56
544.498	82.56
544.712	84.56
544.925	97.56
545.139	86.56
545.352	82.56
545.566	83.56
545.779	72.56
545.993	85.56
546.206	76.56
546.42	77.56
546.633	99.56
546.847	80.56
547.06	91.56
547.274	85.56
547.487	90.56
547.7	72.56
547.914	93.56
548.127	90.56
548.34	81.56
548.554	77.56
548.767	77.56
548.98	86.56
549.193	90.56
549.407	108.56
549.62	93.56
549.833	80.56
550.046	67.56
550.259	74.56
550.473	89.56
550.686	89.56
550.899	89.56
551.112	96.56
551.325	88.56
551.538	80.56
551.751	82.56
551.964	68.56
552.177	73.56
552.39	80.56
552.603	89.56
552.816	74.56
553.029	80.56
553.242	83.56
553.455	68.56
553.667	73.56
553.88	74.56
554.093	79.56
554.306	96.56
554.519	80.56
554.732	86.56
554.944	83.56
555.157	84.56
555.37	80.56
555.583	89.56
555.795	74.56
556.008	72.56
556.221	75.56
556.433	82.56
556.646	88.56
556.859	86.56
557.071	97.56
557.284	74.56
557.496	90.56
557.709	88.56
557.921	66.56
558.134	96.56
558.346	85.56
558.559	91.56
558.771	89.56
558.984	69.56
559.196	78.56
559.409	79.56
559.621	77.56
559.833	82.56
560.046	80.56
560.258	74.56
560.47	86.56
560.683	70.56
560.895	89.56
561.107	93.56
561.32	91.56
561.532	88.56
561.744	76.56
561.956	86.56
562.168	85.56
562.381	85.56
562.593	90.56
562.805	80.56
563.017	75.56
563.229	84.56
563.441	85.56
563.653	73.56
563.865	80.56
564.077	89.56
564.289	90.56
564.501	84.56
564.713	94.56
564.925	93.56
565.137	83.56
565.349	97.56
565.561	81.56
565.773	95.56
565.985	80.56
566.197	93.56
566.408	88.56
566.62	90.56
566.832	96.56
567.044	70.56
567.255	72.56
567.467	78.56
567.679	80.56
567.891	78.56
568.102	87.56
568.314	90.56
568.526	85.56
568.737	96.56
568.949	84.56
569.161	81.56
569.372	78.56
569.584	88.56
569.795	88.56
570.007	92.56
570.218	84.56
570.43	80.56
570.641	85.56
570.853	87.56
571.064	85.56
571.276	80.56
571.487	87.56
571.698	92.56
571.91	77.56
572.121	92.56
572.333	91.56
572.544	89.56
572.755	74.56
572.966	82.56
573.178	88.56
573.389	97.56
573.6	83.56
573.811	85.56
574.023	81.56
574.234	73.56
574.445	83.56
574.656	88.56
574.867	81.56
575.078	79.56
575.289	80.56
575.501	84.56
575.712	85.56
575.923	73.56
576.134	87.56
576.345	84.56
576.556	91.56
576.767	107.56
576.978	91.56
577.188	85.56
577.399	94.56
577.61	76.56
577.821	81.56
578.032	97.56
578.243	81.56
578.454	75.56
578.665	81.56
578.875	88.56
579.086	81.56
579.297	80.56
579.508	77.56
579.718	84.56
579.929	81.56
580.14	83.56
580.35	91.56
580.561	86.56
580.772	94.56
580.982	71.56
581.193	85.56
581.403	96.56
581.614	84.56
581.825	93.56
582.035	83.56
582.246	82.56
582.456	83.56
582.667	98.56
582.877	88.56
583.087	82.56
583.298	77.56
583.508	71.56
583.719	83.56
583.929	95.56
584.139	78.56
584.35	77.56
584.56	70.56
584.77	74.56
584.981	94.56
585.191	84.56
585.401	86.56
585.611	78.56
585.821	73.56
586.032	81.56
586.242	89.56
586.452	79.56
586.662	78.56
586.872	84.56
587.082	79.56
587.292	79.56
587.502	73.56
587.713	68.56
587.923	88.56
588.133	84.56
588.343	69.56
588.553	78.56
588.762	78.56
588.972	89.56
589.182	93.56
589.392	69.56
589.602	96.56
589.812	85.56
590.022	70.56
590.232	88.56
590.441	80.56
590.651	91.56
590.861	88.56
591.071	79.56
591.281	71.56
591.49	88.56
591.7	74.56
591.91	85.56
592.119	76.56
592.329	81.56
592.539	78.56
592.748	88.56
592.958	74.56
593.167	83.56
593.377	81.56
593.587	78.56
593.796	88.56
594.006	83.56
594.215	80.56
594.424	86.56
594.634	97.56
594.843	81.56
595.053	79.56
595.262	84.56
595.472	77.56
595.681	71.56
595.89	79.56
596.1	80.56
596.309	84.56
596.518	85.56
596.727	86.56
596.937	93.56
597.146	76.56
597.355	101.56
597.564	84.56
597.774	85.56
597.983	84.56
598.192	81.56
598.401	87.56
598.61	77.56
598.819	87.56
599.028	90.56
599.237	95.56
599.446	80.56
599.655	79.56
599.864	70.56
600.073	80.56
600.282	86.56
600.491	92.56
600.7	86.56
600.909	77.56
601.118	86.56
601.327	82.56
601.536	87.56
601.745	88.56
601.953	64.56
602.162	82.56
602.371	91.56
602.58	88.56
602.789	90.56
602.997	85.56
603.206	82.56
603.415	86.56
603.623	68.56
603.832	89.56
604.041	83.56
604.249	90.56
604.458	87.56
604.666	85.56
604.875	77.56
605.084	92.56
605.292	93.56
605.501	85.56
605.709	89.56
605.918	86.56
606.126	89.56
606.334	72.56
606.543	72.56
606.751	92.56
606.96	84.56
607.168	80.56
607.376	85.56
607.585	88.56
607.793	100.56
608.001	72.56
608.21	80.56
608.418	71.56
608.626	96.56
608.834	85.56
609.043	90.56
609.251	85.56
609.459	84.56
609.667	95.56
609.875	83.56
610.083	88.56
610.291	90.56
610.499	78.56
610.707	73.56
610.916	81.56
611.124	85.56
611.332	76.56
611.54	78.56
611.748	97.56
611.955	77.56
612.163	84.56
612.371	78.56
612.579	81.56
612.787	76.56
612.995	86.56
613.203	91.56
613.411	77.56
613.618	92.56
613.826	91.56
614.034	80.56
614.242	80.56
614.449	98.56
614.657	88.56
614.865	78.56
615.072	95.56
615.28	92.56
615.488	80.56
615.695	92.56
615.903	77.56
616.111	83.56
616.318	90.56
616.526	77.56
616.733	84.56
616.941	89.56
617.148	90.56
617.356	81.56
617.563	74.56
617.771	93.56
617.978	79.56
618.185	86.56
618.393	78.56
618.6	82.56
618.807	95.56
619.015	79.56
619.222	85.56
619.429	73.56
619.637	82.56
619.844	84.56
620.051	83.56
620.258	78.56
620.466	83.56
620.673	72.56
620.88	94.56
621.087	89.56
621.294	90.56
621.501	84.56
621.708	79.56
621.915	81.56
622.122	94.56
622.329	77.56
622.536	67.56
622.743	77.56
622.95	76.56
623.157	84.56
623.364	97.56
623.571	85.56
623.778	89.56
623.985	85.56
624.192	76.56
624.399	73.56
624.606	89.56
624.812	90.56
625.019	92.56
625.226	86.56
625.433	84.56
625.639	68.56
625.846	80.56
626.053	77.56
626.259	84.56
626.466	92.56
626.673	76.56
626.879	99.56
627.086	74.56
627.293	83.56
627.499	81.56
627.706	71.56
627.912	84.56
628.119	82.56
628.325	96.56
628.532	88.56
628.738	91.56
628.945	71.56
629.151	91.56
629.357	86.56
629.564	88.56
629.77	75.56
629.976	81.56
630.183	64.56
630.389	81.56
630.595	90.56
630.802	83.56
631.008	81.56
631.214	74.56
631.42	80.56
631.627	85.56
631.833	74.56
632.039	76.56
632.245	85.56
632.451	78.56
632.657	88.56
632.863	74.56
633.069	86.56
633.275	79.56
633.481	90.56
633.688	84.56
633.893	81.56
634.099	86.56
634.305	84.56
634.511	77.56
634.717	70.56
634.923	79.56
635.129	84.56
635.335	85.56
635.541	78.56
635.747	83.56
635.952	93.56
636.158	78.56
636.364	92.56
636.57	81.56
636.775	84.56
636.981	77.56
637.187	77.56
637.392	85.56
637.598	79.56
637.804	81.56
638.009	88.56
638.215	83.56
638.421	79.56
638.626	70.56
638.832	97.56
639.037	79.56
639.243	84.56
639.448	81.56
639.654	79.56
639.859	75.56
640.065	97.56
640.27	82.56
640.475	88.56
640.681	77.56
640.886	87.56
641.091	80.56
641.297	87.56
641.502	78.56
641.707	91.56
641.913	82.56
642.118	78.56
642.323	81.56
642.528	77.56
642.733	85.56
642.939	90.56
643.144	88.56
643.349	81.56
643.554	91.56
643.759	84.56
643.964	95.56
644.169	84.56
644.374	84.56
644.579	83.56
644.784	77.56
644.989	82.56
645.194	72.56
645.399	67.56
645.604	90.56
645.809	83.56
646.014	78.56
646.219	89.56
646.423	79.56
646.628	75.56
646.833	79.56
647.038	81.56
647.243	80.56
647.447	69.56
647.652	85.56
647.857	86.56
648.062	69.56
648.266	86.56
648.471	79.56
648.676	82.56
648.88	81.56
649.085	84.56
649.289	83.56
649.494	95.56
649.698	90.56
649.903	80.56
650.107	80.56
650.312	92.56
650.516	68.56
650.721	81.56
650.925	90.56
651.13	82.56
651.334	81.56
651.539	92.56
651.743	93.56
651.947	75.56
652.152	70.56
652.356	86.56
652.56	85.56
652.764	78.56
652.969	69.56
653.173	88.56
653.377	76.56
653.581	93.56
653.785	76.56
653.99	98.56
654.194	80.56
654.398	94.56
654.602	84.56
654.806	80.56
655.01	89.56
655.214	84.56
655.418	94.56
655.622	90.56
655.826	80.56
656.03	78.56
656.234	89.56
656.438	73.56
656.642	85.56
656.846	96.56
657.049	86.56
657.253	80.56
657.457	78.56
657.661	81.56
657.865	68.56
658.068	80.56
658.272	65.56
658.476	80.56
658.68	90.56
658.883	82.56
659.087	81.56
659.291	94.56
659.494	89.56
659.698	83.56
659.901	74.56
660.105	86.56
660.309	82.56
660.512	85.56
660.716	89.56
660.919	79.56
661.123	93.56
661.326	77.56
661.53	72.56
661.733	80.56
661.936	81.56
662.14	81.56
662.343	90.56
662.546	96.56
662.75	73.56
662.953	94.56
663.156	88.56
663.36	93.56
663.563	94.56
663.766	85.56
663.969	73.56
664.173	75.56
664.376	88.56
664.579	84.56
664.782	67.56
664.985	76.56
665.188	84.56
665.391	74.56
665.594	79.56
665.797	76.56
666	82.56
666.203	83.56
666.406	83.56
666.609	62.56
666.812	76.56
667.015	76.56
667.218	78.56
667.421	81.56
667.624	62.56
667.827	70.56
668.03	74.56
668.232	66.56
668.435	87.56
668.638	84.56
668.841	81.56
669.043	87.56
669.246	83.56
669.449	86.56
669.651	75.56
669.854	93.56
670.057	97.56
670.259	85.56
670.462	84.56
670.665	76.56
670.867	85.56
671.07	80.56
671.272	83.56
671.475	84.56
671.677	88.56
671.88	81.56
672.082	72.56
672.284	75.56
672.487	73.56
672.689	87.56
672.892	80.56
