Data from Background_1_HRD10591_00062.txt Node
Date: Wed Nov 05 14:39:28 EST 2025
User: Yrep
Spectrometer: HR+D1059
Trigger mode: 1
Integration Time (sec): 1.000000E-1
Scans to average: 1
Electric dark correction enabled: true
Nonlinearity correction enabled: false
Boxcar width: 0
XAxis mode: Wavelengths
Number of Pixels in Spectrum: 2048
>>>>>Begin Spectral Data<<<<<
223.165	-22.88
223.4	-22.88
223.635	-22.88
223.869	-28.88
224.104	-10.88
224.338	-10.88
224.573	-21.88
224.808	-5.88
225.042	-15.88
225.277	-0.88
225.511	5.12
225.746	-1.88
225.98	22.12
226.215	3.12
226.449	17.12
226.683	22.12
226.918	18.12
227.152	32.12
227.387	28.12
227.621	35.12
227.856	35.12
228.09	44.12
228.324	42.12
228.559	55.12
228.793	56.12
229.027	68.12
229.262	74.12
229.496	64.12
229.73	56.12
229.964	57.12
230.199	82.12
230.433	90.12
230.667	73.12
230.901	91.12
231.136	86.12
231.37	84.12
231.604	87.12
231.838	80.12
232.072	71.12
232.306	68.12
232.541	77.12
232.775	86.12
233.009	75.12
233.243	75.12
233.477	92.12
233.711	79.12
233.945	80.12
234.179	97.12
234.413	73.12
234.647	79.12
234.881	73.12
235.115	70.12
235.349	81.12
235.583	81.12
235.817	78.12
236.051	77.12
236.285	71.12
236.519	66.12
236.753	81.12
236.987	76.12
237.221	71.12
237.455	89.12
237.689	78.12
237.922	81.12
238.156	86.12
238.39	76.12
238.624	71.12
238.858	67.12
239.091	67.12
239.325	85.12
239.559	73.12
239.793	76.12
240.027	85.12
240.26	66.12
240.494	71.12
240.728	77.12
240.961	69.12
241.195	72.12
241.429	64.12
241.662	70.12
241.896	67.12
242.13	70.12
242.363	79.12
242.597	79.12
242.83	81.12
243.064	67.12
243.298	72.12
243.531	78.12
243.765	83.12
243.998	83.12
244.232	87.12
244.465	75.12
244.699	65.12
244.932	84.12
245.166	71.12
245.399	62.12
245.633	73.12
245.866	77.12
246.099	85.12
246.333	86.12
246.566	69.12
246.8	83.12
247.033	71.12
247.266	79.12
247.5	84.12
247.733	70.12
247.966	85.12
248.2	75.12
248.433	69.12
248.666	68.12
248.899	84.12
249.133	80.12
249.366	71.12
249.599	59.12
249.832	68.12
250.066	75.12
250.299	77.12
250.532	80.12
250.765	77.12
250.998	85.12
251.231	73.12
251.465	80.12
251.698	78.12
251.931	82.12
252.164	73.12
252.397	58.12
252.63	74.12
252.863	94.12
253.096	89.12
253.329	88.12
253.562	78.12
253.795	80.12
254.028	62.12
254.261	77.12
254.494	76.12
254.727	78.12
254.96	86.12
255.193	77.12
255.426	74.12
255.659	82.12
255.892	93.12
256.124	81.12
256.357	71.12
256.59	77.12
256.823	74.12
257.056	79.12
257.289	77.12
257.521	77.12
257.754	63.12
257.987	77.12
258.22	93.12
258.452	75.12
258.685	91.12
258.918	86.12
259.151	71.12
259.383	68.12
259.616	73.12
259.849	65.12
260.081	80.12
260.314	75.12
260.547	85.12
260.779	88.12
261.012	70.12
261.244	72.12
261.477	103.12
261.71	86.12
261.942	83.12
262.175	87.12
262.407	77.12
262.64	76.12
262.872	79.12
263.105	65.12
263.337	83.12
263.57	72.12
263.802	71.12
264.035	77.12
264.267	85.12
264.499	78.12
264.732	90.12
264.964	76.12
265.197	84.12
265.429	89.12
265.661	75.12
265.894	78.12
266.126	89.12
266.358	83.12
266.591	69.12
266.823	77.12
267.055	75.12
267.287	91.12
267.52	85.12
267.752	87.12
267.984	70.12
268.216	83.12
268.448	75.12
268.681	75.12
268.913	72.12
269.145	79.12
269.377	87.12
269.609	71.12
269.841	82.12
270.073	83.12
270.306	84.12
270.538	68.12
270.77	83.12
271.002	79.12
271.234	88.12
271.466	79.12
271.698	75.12
271.93	81.12
272.162	77.12
272.394	97.12
272.626	82.12
272.858	93.12
273.09	77.12
273.322	82.12
273.553	89.12
273.785	83.12
274.017	97.12
274.249	93.12
274.481	81.12
274.713	102.12
274.945	90.12
275.176	74.12
275.408	84.12
275.64	79.12
275.872	78.12
276.104	93.12
276.335	86.12
276.567	88.12
276.799	77.12
277.031	90.12
277.262	89.12
277.494	78.12
277.726	85.12
277.957	76.12
278.189	72.12
278.421	85.12
278.652	86.12
278.884	86.12
279.115	84.12
279.347	81.12
279.579	90.12
279.81	83.12
280.042	75.12
280.273	85.12
280.505	73.12
280.736	73.12
280.968	70.12
281.199	90.12
281.431	93.12
281.662	70.12
281.894	81.12
282.125	94.12
282.356	88.12
282.588	68.12
282.819	82.12
283.051	85.12
283.282	75.12
283.513	80.12
283.745	77.12
283.976	84.12
284.207	84.12
284.439	78.12
284.67	89.12
284.901	83.12
285.132	81.12
285.364	88.12
285.595	89.12
285.826	74.12
286.057	88.12
286.288	82.12
286.52	93.12
286.751	87.12
286.982	67.12
287.213	82.12
287.444	92.12
287.675	87.12
287.906	90.12
288.138	57.12
288.369	79.12
288.6	82.12
288.831	81.12
289.062	68.12
289.293	85.12
289.524	75.12
289.755	87.12
289.986	78.12
290.217	73.12
290.448	79.12
290.679	85.12
290.91	82.12
291.141	68.12
291.371	74.12
291.602	75.12
291.833	76.12
292.064	77.12
292.295	92.12
292.526	82.12
292.757	82.12
292.987	75.12
293.218	89.12
293.449	87.12
293.68	85.12
293.91	73.12
294.141	75.12
294.372	79.12
294.603	86.12
294.833	89.12
295.064	87.12
295.295	72.12
295.525	73.12
295.756	75.12
295.987	83.12
296.217	82.12
296.448	70.12
296.679	75.12
296.909	72.12
297.14	88.12
297.37	88.12
297.601	73.12
297.831	90.12
298.062	75.12
298.292	77.12
298.523	76.12
298.753	95.12
298.984	83.12
299.214	87.12
299.445	80.12
299.675	87.12
299.905	73.12
300.136	79.12
300.366	94.12
300.597	96.12
300.827	91.12
301.057	96.12
301.288	90.12
301.518	69.12
301.748	73.12
301.979	94.12
302.209	86.12
302.439	89.12
302.669	86.12
302.9	85.12
303.13	82.12
303.36	63.12
303.59	70.12
303.82	83.12
304.051	80.12
304.281	67.12
304.511	85.12
304.741	91.12
304.971	82.12
305.201	85.12
305.431	77.12
305.661	90.12
305.891	77.12
306.121	87.12
306.352	79.12
306.582	90.12
306.812	68.12
307.042	96.12
307.272	91.12
307.502	94.12
307.731	74.12
307.961	72.12
308.191	80.12
308.421	89.12
308.651	87.12
308.881	69.12
309.111	77.12
309.341	86.12
309.571	77.12
309.8	77.12
310.03	85.12
310.26	70.12
310.49	89.12
310.72	85.12
310.949	73.12
311.179	93.12
311.409	92.12
311.639	90.12
311.868	81.12
312.098	75.12
312.328	87.12
312.557	78.12
312.787	85.12
313.017	74.12
313.246	67.12
313.476	88.12
313.706	75.12
313.935	73.12
314.165	76.12
314.394	67.12
314.624	95.12
314.853	69.12
315.083	83.12
315.312	77.12
315.542	78.12
315.771	80.12
316.001	82.12
316.23	86.12
316.46	86.12
316.689	93.12
316.919	92.12
317.148	77.12
317.377	79.12
317.607	85.12
317.836	106.12
318.065	84.12
318.295	77.12
318.524	73.12
318.753	90.12
318.983	78.12
319.212	81.12
319.441	82.12
319.67	78.12
319.9	85.12
320.129	70.12
320.358	59.12
320.587	98.12
320.816	87.12
321.046	86.12
321.275	87.12
321.504	90.12
321.733	76.12
321.962	82.12
322.191	76.12
322.42	87.12
322.649	87.12
322.878	105.12
323.108	90.12
323.337	78.12
323.566	95.12
323.795	75.12
324.024	76.12
324.253	61.12
324.482	83.12
324.71	87.12
324.939	73.12
325.168	87.12
325.397	77.12
325.626	79.12
325.855	91.12
326.084	77.12
326.313	83.12
326.542	84.12
326.77	81.12
326.999	86.12
327.228	105.12
327.457	88.12
327.686	74.12
327.914	88.12
328.143	90.12
328.372	78.12
328.6	94.12
328.829	84.12
329.058	84.12
329.287	82.12
329.515	85.12
329.744	74.12
329.972	87.12
330.201	91.12
330.43	79.12
330.658	79.12
330.887	68.12
331.115	88.12
331.344	69.12
331.572	79.12
331.801	92.12
332.03	103.12
332.258	80.12
332.486	82.12
332.715	95.12
332.943	74.12
333.172	79.12
333.4	101.12
333.629	89.12
333.857	85.12
334.085	81.12
334.314	82.12
334.542	87.12
334.771	76.12
334.999	86.12
335.227	79.12
335.455	73.12
335.684	71.12
335.912	88.12
336.14	91.12
336.369	78.12
336.597	96.12
336.825	82.12
337.053	85.12
337.281	80.12
337.51	90.12
337.738	78.12
337.966	86.12
338.194	80.12
338.422	90.12
338.65	91.12
338.878	90.12
339.106	87.12
339.334	64.12
339.562	82.12
339.79	78.12
340.018	76.12
340.246	81.12
340.474	81.12
340.702	78.12
340.93	87.12
341.158	87.12
341.386	82.12
341.614	72.12
341.842	80.12
342.07	84.12
342.298	84.12
342.526	86.12
342.754	88.12
342.981	82.12
343.209	93.12
343.437	87.12
343.665	75.12
343.893	87.12
344.12	89.12
344.348	87.12
344.576	82.12
344.804	82.12
345.031	76.12
345.259	83.12
345.487	80.12
345.714	75.12
345.942	93.12
346.17	86.12
346.397	87.12
346.625	90.12
346.853	92.12
347.08	82.12
347.308	92.12
347.535	86.12
347.763	86.12
347.99	75.12
348.218	84.12
348.445	83.12
348.673	76.12
348.9	85.12
349.128	81.12
349.355	89.12
349.583	61.12
349.81	86.12
350.037	89.12
350.265	76.12
350.492	80.12
350.72	80.12
350.947	73.12
351.174	96.12
351.402	73.12
351.629	72.12
351.856	79.12
352.083	85.12
352.311	90.12
352.538	81.12
352.765	73.12
352.992	72.12
353.22	76.12
353.447	92.12
353.674	81.12
353.901	98.12
354.128	85.12
354.355	79.12
354.583	75.12
354.81	85.12
355.037	86.12
355.264	88.12
355.491	87.12
355.718	68.12
355.945	85.12
356.172	79.12
356.399	76.12
356.626	80.12
356.853	78.12
357.08	77.12
357.307	73.12
357.534	88.12
357.761	83.12
357.988	88.12
358.215	78.12
358.441	57.12
358.668	73.12
358.895	90.12
359.122	90.12
359.349	96.12
359.576	101.12
359.802	89.12
360.029	87.12
360.256	80.12
360.483	81.12
360.709	79.12
360.936	80.12
361.163	85.12
361.39	92.12
361.616	74.12
361.843	70.12
362.07	77.12
362.296	73.12
362.523	87.12
362.749	106.12
362.976	87.12
363.203	81.12
363.429	75.12
363.656	82.12
363.882	79.12
364.109	75.12
364.335	88.12
364.562	85.12
364.788	76.12
365.015	90.12
365.241	83.12
365.468	93.12
365.694	79.12
365.92	87.12
366.147	85.12
366.373	85.12
366.599	93.12
366.826	70.12
367.052	97.12
367.278	76.12
367.505	72.12
367.731	78.12
367.957	78.12
368.184	77.12
368.41	94.12
368.636	75.12
368.862	79.12
369.089	89.12
369.315	73.12
369.541	83.12
369.767	81.12
369.993	82.12
370.219	86.12
370.445	64.12
370.672	74.12
370.898	74.12
371.124	77.12
371.35	75.12
371.576	75.12
371.802	72.12
372.028	92.12
372.254	96.12
372.48	82.12
372.706	82.12
372.932	86.12
373.158	82.12
373.384	87.12
373.61	90.12
373.835	75.12
374.061	87.12
374.287	64.12
374.513	71.12
374.739	81.12
374.965	90.12
375.191	63.12
375.416	73.12
375.642	75.12
375.868	71.12
376.094	75.12
376.319	90.12
376.545	85.12
376.771	88.12
376.997	67.12
377.222	79.12
377.448	97.12
377.674	75.12
377.899	81.12
378.125	85.12
378.35	86.12
378.576	78.12
378.802	76.12
379.027	70.12
379.253	76.12
379.478	81.12
379.704	58.12
379.929	69.12
380.155	75.12
380.38	80.12
380.606	78.12
380.831	77.12
381.057	93.12
381.282	87.12
381.507	87.12
381.733	86.12
381.958	90.12
382.184	58.12
382.409	84.12
382.634	85.12
382.86	76.12
383.085	85.12
383.31	70.12
383.535	83.12
383.761	102.12
383.986	81.12
384.211	77.12
384.436	72.12
384.662	78.12
384.887	81.12
385.112	86.12
385.337	84.12
385.562	81.12
385.787	89.12
386.013	79.12
386.238	78.12
386.463	89.12
386.688	90.12
386.913	73.12
387.138	82.12
387.363	89.12
387.588	77.12
387.813	89.12
388.038	83.12
388.263	76.12
388.488	84.12
388.713	99.12
388.938	96.12
389.163	92.12
389.387	83.12
389.612	77.12
389.837	83.12
390.062	85.12
390.287	73.12
390.512	82.12
390.736	80.12
390.961	75.12
391.186	83.12
391.411	83.12
391.636	86.12
391.86	80.12
392.085	80.12
392.31	77.12
392.534	88.12
392.759	82.12
392.984	79.12
393.208	80.12
393.433	75.12
393.658	76.12
393.882	95.12
394.107	80.12
394.331	78.12
394.556	70.12
394.78	72.12
395.005	81.12
395.229	86.12
395.454	81.12
395.678	67.12
395.903	73.12
396.127	69.12
396.352	82.12
396.576	68.12
396.801	90.12
397.025	71.12
397.249	80.12
397.474	85.12
397.698	79.12
397.922	73.12
398.147	88.12
398.371	77.12
398.595	86.12
398.82	83.12
399.044	74.12
399.268	79.12
399.492	93.12
399.717	94.12
399.941	78.12
400.165	90.12
400.389	73.12
400.613	103.12
400.837	83.12
401.062	76.12
401.286	87.12
401.51	83.12
401.734	64.12
401.958	81.12
402.182	80.12
402.406	82.12
402.63	82.12
402.854	81.12
403.078	75.12
403.302	82.12
403.526	78.12
403.75	81.12
403.974	88.12
404.198	71.12
404.422	90.12
404.645	88.12
404.869	90.12
405.093	85.12
405.317	75.12
405.541	83.12
405.765	74.12
405.988	80.12
406.212	88.12
406.436	74.12
406.66	77.12
406.883	74.12
407.107	75.12
407.331	76.12
407.555	85.12
407.778	73.12
408.002	81.12
408.226	78.12
408.449	79.12
408.673	90.12
408.896	76.12
409.12	84.12
409.344	98.12
409.567	65.12
409.791	73.12
410.014	89.12
410.238	85.12
410.461	78.12
410.685	78.12
410.908	83.12
411.132	82.12
411.355	75.12
411.578	77.12
411.802	68.12
412.025	75.12
412.249	74.12
412.472	82.12
412.695	89.12
412.919	74.12
413.142	78.12
413.365	71.12
413.589	85.12
413.812	86.12
414.035	88.12
414.258	77.12
414.482	89.12
414.705	81.12
414.928	87.12
415.151	77.12
415.374	94.12
415.597	90.12
415.821	91.12
416.044	94.12
416.267	76.12
416.49	74.12
416.713	86.12
416.936	76.12
417.159	81.12
417.382	85.12
417.605	76.12
417.828	69.12
418.051	73.12
418.274	75.12
418.497	75.12
418.72	67.12
418.943	95.12
419.166	92.12
419.389	81.12
419.611	86.12
419.834	95.12
420.057	85.12
420.28	79.12
420.503	74.12
420.726	77.12
420.948	79.12
421.171	81.12
421.394	86.12
421.617	80.12
421.839	74.12
422.062	82.12
422.285	84.12
422.507	90.12
422.73	75.12
422.953	65.12
423.175	76.12
423.398	75.12
423.621	88.12
423.843	86.12
424.066	92.12
424.288	78.12
424.511	82.12
424.733	77.12
424.956	89.12
425.178	74.12
425.401	81.12
425.623	86.12
425.846	65.12
426.068	88.12
426.291	87.12
426.513	73.12
426.735	73.12
426.958	76.12
427.18	78.12
427.402	78.12
427.625	78.12
427.847	77.12
428.069	86.12
428.292	87.12
428.514	77.12
428.736	79.12
428.958	72.12
429.181	87.12
429.403	98.12
429.625	88.12
429.847	79.12
430.069	69.12
430.292	77.12
430.514	79.12
430.736	70.12
430.958	85.12
431.18	77.12
431.402	87.12
431.624	87.12
431.846	76.12
432.068	93.12
432.29	77.12
432.512	54.12
432.734	81.12
432.956	81.12
433.178	79.12
433.4	71.12
433.622	88.12
433.844	74.12
434.066	73.12
434.287	64.12
434.509	80.12
434.731	87.12
434.953	84.12
435.175	78.12
435.397	90.12
435.618	87.12
435.84	71.12
436.062	92.12
436.284	83.12
436.505	70.12
436.727	80.12
436.949	76.12
437.17	78.12
437.392	87.12
437.614	79.12
437.835	76.12
438.057	69.12
438.278	73.12
438.5	73.12
438.721	92.12
438.943	93.12
439.165	70.12
439.386	81.12
439.608	86.12
439.829	76.12
440.05	75.12
440.272	86.12
440.493	72.12
440.715	77.12
440.936	80.12
441.158	83.12
441.379	93.12
441.6	86.12
441.822	84.12
442.043	82.12
442.264	73.12
442.486	71.12
442.707	73.12
442.928	79.12
443.149	81.12
443.371	90.12
443.592	69.12
443.813	88.12
444.034	85.12
444.255	67.12
444.476	98.12
444.698	94.12
444.919	79.12
445.14	161.12
445.361	104.12
445.582	81.12
445.803	75.12
446.024	71.12
446.245	85.12
446.466	74.12
446.687	86.12
446.908	73.12
447.129	79.12
447.35	75.12
447.571	83.12
447.792	102.12
448.013	87.12
448.234	80.12
448.455	82.12
448.675	75.12
448.896	75.12
449.117	79.12
449.338	78.12
449.559	84.12
449.779	82.12
450	71.12
450.221	82.12
450.442	83.12
450.662	77.12
450.883	81.12
451.104	82.12
451.324	89.12
451.545	86.12
451.766	87.12
451.986	73.12
452.207	81.12
452.428	78.12
452.648	83.12
452.869	88.12
453.089	85.12
453.31	102.12
453.53	82.12
453.751	100.12
453.971	91.12
454.192	79.12
454.412	73.12
454.633	87.12
454.853	77.12
455.073	59.12
455.294	95.12
455.514	81.12
455.734	73.12
455.955	69.12
456.175	79.12
456.395	76.12
456.616	75.12
456.836	70.12
457.056	79.12
457.276	73.12
457.497	71.12
457.717	73.12
457.937	74.12
458.157	75.12
458.377	76.12
458.598	88.12
458.818	64.12
459.038	84.12
459.258	75.12
459.478	79.12
459.698	78.12
459.918	75.12
460.138	81.12
460.358	86.12
460.578	99.12
460.798	80.12
461.018	75.12
461.238	92.12
461.458	75.12
461.678	80.12
461.898	65.12
462.118	73.12
462.338	81.12
462.558	91.12
462.777	85.12
462.997	88.12
463.217	75.12
463.437	74.12
463.657	78.12
463.876	83.12
464.096	79.12
464.316	65.12
464.536	83.12
464.755	92.12
464.975	91.12
465.195	87.12
465.414	67.12
465.634	72.12
465.854	71.12
466.073	77.12
466.293	82.12
466.512	66.12
466.732	85.12
466.951	73.12
467.171	71.12
467.391	84.12
467.61	86.12
467.829	82.12
468.049	88.12
468.268	90.12
468.488	84.12
468.707	81.12
468.927	91.12
469.146	79.12
469.365	87.12
469.585	90.12
469.804	92.12
470.023	82.12
470.243	85.12
470.462	86.12
470.681	79.12
470.901	87.12
471.12	92.12
471.339	66.12
471.558	72.12
471.777	80.12
471.997	88.12
472.216	88.12
472.435	96.12
472.654	74.12
472.873	95.12
473.092	101.12
473.311	76.12
473.53	75.12
473.749	77.12
473.968	89.12
474.187	76.12
474.406	71.12
474.625	81.12
474.844	68.12
475.063	68.12
475.282	85.12
475.501	81.12
475.72	88.12
475.939	85.12
476.158	71.12
476.377	78.12
476.596	81.12
476.814	88.12
477.033	73.12
477.252	100.12
477.471	73.12
477.69	73.12
477.908	82.12
478.127	79.12
478.346	90.12
478.564	84.12
478.783	84.12
479.002	82.12
479.22	76.12
479.439	70.12
479.658	73.12
479.876	87.12
480.095	74.12
480.313	82.12
480.532	82.12
480.751	82.12
480.969	94.12
481.188	88.12
481.406	77.12
481.624	77.12
481.843	62.12
482.061	88.12
482.28	85.12
482.498	67.12
482.717	75.12
482.935	75.12
483.153	79.12
483.372	79.12
483.59	74.12
483.808	83.12
484.027	90.12
484.245	81.12
484.463	89.12
484.681	83.12
484.9	82.12
485.118	74.12
485.336	78.12
485.554	78.12
485.772	67.12
485.99	73.12
486.209	76.12
486.427	78.12
486.645	89.12
486.863	93.12
487.081	69.12
487.299	74.12
487.517	85.12
487.735	87.12
487.953	85.12
488.171	76.12
488.389	70.12
488.607	82.12
488.825	79.12
489.043	80.12
489.261	65.12
489.479	85.12
489.696	91.12
489.914	77.12
490.132	78.12
490.35	98.12
490.568	76.12
490.786	81.12
491.003	69.12
491.221	73.12
491.439	80.12
491.657	87.12
491.874	86.12
492.092	80.12
492.31	83.12
492.527	68.12
492.745	89.12
492.963	77.12
493.18	71.12
493.398	80.12
493.615	91.12
493.833	73.12
494.05	85.12
494.268	81.12
494.485	77.12
494.703	92.12
494.92	83.12
495.138	76.12
495.355	81.12
495.573	90.12
495.79	96.12
496.008	93.12
496.225	75.12
496.442	70.12
496.66	81.12
496.877	90.12
497.094	84.12
497.312	74.12
497.529	80.12
497.746	77.12
497.963	84.12
498.181	75.12
498.398	83.12
498.615	83.12
498.832	84.12
499.049	85.12
499.267	93.12
499.484	73.12
499.701	77.12
499.918	74.12
500.135	90.12
500.352	81.12
500.569	67.12
500.786	68.12
501.003	79.12
501.22	65.12
501.437	93.12
501.654	75.12
501.871	81.12
502.088	72.12
502.305	69.12
502.522	83.12
502.739	85.12
502.956	80.12
503.172	81.12
503.389	74.12
503.606	79.12
503.823	68.12
504.04	86.12
504.256	82.12
504.473	74.12
504.69	76.12
504.907	62.12
505.123	79.12
505.34	80.12
505.557	74.12
505.773	91.12
505.99	85.12
506.207	85.12
506.423	82.12
506.64	67.12
506.856	65.12
507.073	70.12
507.289	66.12
507.506	85.12
507.722	85.12
507.939	80.12
508.155	71.12
508.372	96.12
508.588	83.12
508.805	69.12
509.021	81.12
509.238	83.12
509.454	69.12
509.67	77.12
509.887	77.12
510.103	82.12
510.319	89.12
510.536	83.12
510.752	73.12
510.968	77.12
511.184	76.12
511.401	78.12
511.617	79.12
511.833	80.12
512.049	81.12
512.265	86.12
512.481	76.12
512.698	67.12
512.914	94.12
513.13	93.12
513.346	84.12
513.562	74.12
513.778	79.12
513.994	71.12
514.21	79.12
514.426	88.12
514.642	72.12
514.858	89.12
515.074	81.12
515.29	93.12
515.506	107.12
515.721	82.12
515.937	75.12
516.153	77.12
516.369	65.12
516.585	77.12
516.801	79.12
517.016	79.12
517.232	82.12
517.448	81.12
517.664	87.12
517.879	82.12
518.095	83.12
518.311	84.12
518.527	79.12
518.742	66.12
518.958	80.12
519.173	96.12
519.389	91.12
519.605	105.12
519.82	83.12
520.036	91.12
520.251	78.12
520.467	68.12
520.682	84.12
520.898	87.12
521.113	75.12
521.329	89.12
521.544	73.12
521.76	79.12
521.975	78.12
522.19	85.12
522.406	76.12
522.621	90.12
522.836	85.12
523.052	82.12
523.267	81.12
523.482	61.12
523.698	94.12
523.913	82.12
524.128	64.12
524.343	66.12
524.559	91.12
524.774	81.12
524.989	92.12
525.204	65.12
525.419	92.12
525.634	86.12
525.849	80.12
526.064	85.12
526.28	88.12
526.495	85.12
526.71	75.12
526.925	91.12
527.14	80.12
527.355	71.12
527.57	93.12
527.785	99.12
527.999	109.12
528.214	85.12
528.429	85.12
528.644	74.12
528.859	70.12
529.074	83.12
529.289	86.12
529.503	77.12
529.718	83.12
529.933	78.12
530.148	83.12
530.363	86.12
530.577	70.12
530.792	74.12
531.007	81.12
531.221	90.12
531.436	89.12
531.651	86.12
531.865	73.12
532.08	73.12
532.295	81.12
532.509	81.12
532.724	82.12
532.938	64.12
533.153	78.12
533.367	87.12
533.582	78.12
533.796	83.12
534.011	78.12
534.225	89.12
534.44	85.12
534.654	92.12
534.868	90.12
535.083	90.12
535.297	81.12
535.511	105.12
535.726	99.12
535.94	75.12
536.154	97.12
536.369	70.12
536.583	86.12
536.797	87.12
537.011	78.12
537.225	85.12
537.44	89.12
537.654	69.12
537.868	83.12
538.082	77.12
538.296	89.12
538.51	91.12
538.724	82.12
538.938	72.12
539.153	89.12
539.367	100.12
539.581	75.12
539.795	68.12
540.009	89.12
540.222	82.12
540.436	85.12
540.65	94.12
540.864	79.12
541.078	80.12
541.292	97.12
541.506	86.12
541.72	73.12
541.934	90.12
542.147	87.12
542.361	85.12
542.575	77.12
542.789	68.12
543.002	78.12
543.216	88.12
543.43	82.12
543.644	79.12
543.857	81.12
544.071	73.12
544.285	85.12
544.498	77.12
544.712	82.12
544.925	82.12
545.139	89.12
545.352	87.12
545.566	73.12
545.779	85.12
545.993	77.12
546.206	76.12
546.42	90.12
546.633	91.12
546.847	96.12
547.06	85.12
547.274	75.12
547.487	72.12
547.7	70.12
547.914	89.12
548.127	71.12
548.34	97.12
548.554	75.12
548.767	91.12
548.98	78.12
549.193	72.12
549.407	75.12
549.62	77.12
549.833	75.12
550.046	65.12
550.259	75.12
550.473	82.12
550.686	83.12
550.899	95.12
551.112	77.12
551.325	60.12
551.538	75.12
551.751	70.12
551.964	87.12
552.177	82.12
552.39	63.12
552.603	79.12
552.816	71.12
553.029	93.12
553.242	80.12
553.455	70.12
553.667	90.12
553.88	87.12
554.093	71.12
554.306	79.12
554.519	81.12
554.732	94.12
554.944	84.12
555.157	85.12
555.37	97.12
555.583	75.12
555.795	93.12
556.008	87.12
556.221	81.12
556.433	81.12
556.646	91.12
556.859	87.12
557.071	85.12
557.284	82.12
557.496	89.12
557.709	84.12
557.921	77.12
558.134	83.12
558.346	106.12
558.559	77.12
558.771	85.12
558.984	76.12
559.196	74.12
559.409	65.12
559.621	105.12
559.833	70.12
560.046	94.12
560.258	78.12
560.47	81.12
560.683	77.12
560.895	73.12
561.107	91.12
561.32	85.12
561.532	84.12
561.744	71.12
561.956	99.12
562.168	79.12
562.381	85.12
562.593	91.12
562.805	65.12
563.017	86.12
563.229	86.12
563.441	90.12
563.653	92.12
563.865	66.12
564.077	85.12
564.289	69.12
564.501	76.12
564.713	78.12
564.925	87.12
565.137	77.12
565.349	73.12
565.561	81.12
565.773	86.12
565.985	68.12
566.197	66.12
566.408	83.12
566.62	80.12
566.832	86.12
567.044	77.12
567.255	79.12
567.467	78.12
567.679	95.12
567.891	85.12
568.102	74.12
568.314	73.12
568.526	73.12
568.737	92.12
568.949	90.12
569.161	81.12
569.372	82.12
569.584	89.12
569.795	87.12
570.007	78.12
570.218	82.12
570.43	67.12
570.641	84.12
570.853	83.12
571.064	85.12
571.276	86.12
571.487	86.12
571.698	80.12
571.91	92.12
572.121	72.12
572.333	74.12
572.544	80.12
572.755	76.12
572.966	97.12
573.178	71.12
573.389	86.12
573.6	91.12
573.811	81.12
574.023	89.12
574.234	86.12
574.445	78.12
574.656	77.12
574.867	92.12
575.078	93.12
575.289	94.12
575.501	85.12
575.712	71.12
575.923	80.12
576.134	88.12
576.345	85.12
576.556	78.12
576.767	81.12
576.978	91.12
577.188	87.12
577.399	77.12
577.61	69.12
577.821	90.12
578.032	59.12
578.243	85.12
578.454	73.12
578.665	75.12
578.875	75.12
579.086	84.12
579.297	85.12
579.508	69.12
579.718	75.12
579.929	89.12
580.14	81.12
580.35	82.12
580.561	67.12
580.772	86.12
580.982	95.12
581.193	85.12
581.403	94.12
581.614	73.12
581.825	73.12
582.035	85.12
582.246	85.12
582.456	99.12
582.667	86.12
582.877	80.12
583.087	80.12
583.298	92.12
583.508	70.12
583.719	91.12
583.929	84.12
584.139	85.12
584.35	81.12
584.56	89.12
584.77	85.12
584.981	82.12
585.191	75.12
585.401	88.12
585.611	79.12
585.821	90.12
586.032	95.12
586.242	87.12
586.452	94.12
586.662	82.12
586.872	82.12
587.082	70.12
587.292	85.12
587.502	73.12
587.713	90.12
587.923	93.12
588.133	87.12
588.343	78.12
588.553	82.12
588.762	95.12
588.972	76.12
589.182	80.12
589.392	84.12
589.602	85.12
589.812	74.12
590.022	79.12
590.232	99.12
590.441	85.12
590.651	105.12
590.861	87.12
591.071	87.12
591.281	87.12
591.49	73.12
591.7	85.12
591.91	87.12
592.119	86.12
592.329	84.12
592.539	78.12
592.748	84.12
592.958	76.12
593.167	74.12
593.377	81.12
593.587	97.12
593.796	77.12
594.006	79.12
594.215	88.12
594.424	80.12
594.634	81.12
594.843	82.12
595.053	75.12
595.262	79.12
595.472	81.12
595.681	81.12
595.89	73.12
596.1	81.12
596.309	90.12
596.518	85.12
596.727	85.12
596.937	60.12
597.146	78.12
597.355	67.12
597.564	86.12
597.774	81.12
597.983	94.12
598.192	85.12
598.401	88.12
598.61	89.12
598.819	77.12
599.028	84.12
599.237	87.12
599.446	80.12
599.655	93.12
599.864	89.12
600.073	81.12
600.282	87.12
600.491	90.12
600.7	75.12
600.909	84.12
601.118	73.12
601.327	93.12
601.536	88.12
601.745	73.12
601.953	72.12
602.162	73.12
602.371	74.12
602.58	89.12
602.789	88.12
602.997	75.12
603.206	85.12
603.415	89.12
603.623	89.12
603.832	79.12
604.041	79.12
604.249	83.12
604.458	74.12
604.666	67.12
604.875	85.12
605.084	77.12
605.292	72.12
605.501	85.12
605.709	81.12
605.918	84.12
606.126	67.12
606.334	82.12
606.543	72.12
606.751	82.12
606.96	67.12
607.168	79.12
607.376	83.12
607.585	86.12
607.793	74.12
608.001	84.12
608.21	74.12
608.418	83.12
608.626	82.12
608.834	76.12
609.043	75.12
609.251	79.12
609.459	89.12
609.667	87.12
609.875	85.12
610.083	83.12
610.291	91.12
610.499	107.12
610.707	87.12
610.916	84.12
611.124	82.12
611.332	75.12
611.54	78.12
611.748	82.12
611.955	75.12
612.163	84.12
612.371	75.12
612.579	85.12
612.787	89.12
612.995	86.12
613.203	90.12
613.411	74.12
613.618	76.12
613.826	90.12
614.034	93.12
614.242	82.12
614.449	86.12
614.657	83.12
614.865	77.12
615.072	81.12
615.28	86.12
615.488	87.12
615.695	72.12
615.903	81.12
616.111	85.12
616.318	87.12
616.526	85.12
616.733	66.12
616.941	75.12
617.148	85.12
617.356	74.12
617.563	89.12
617.771	79.12
617.978	76.12
618.185	93.12
618.393	73.12
618.6	95.12
618.807	89.12
619.015	104.12
619.222	81.12
619.429	82.12
619.637	89.12
619.844	74.12
620.051	81.12
620.258	75.12
620.466	80.12
620.673	78.12
620.88	66.12
621.087	83.12
621.294	83.12
621.501	80.12
621.708	79.12
621.915	81.12
622.122	74.12
622.329	77.12
622.536	78.12
622.743	85.12
622.95	85.12
623.157	75.12
623.364	70.12
623.571	94.12
623.778	65.12
623.985	77.12
624.192	94.12
624.399	68.12
624.606	90.12
624.812	87.12
625.019	73.12
625.226	77.12
625.433	75.12
625.639	82.12
625.846	97.12
626.053	85.12
626.259	83.12
626.466	74.12
626.673	86.12
626.879	58.12
627.086	72.12
627.293	90.12
627.499	82.12
627.706	79.12
627.912	86.12
628.119	70.12
628.325	86.12
628.532	72.12
628.738	63.12
628.945	98.12
629.151	89.12
629.357	82.12
629.564	71.12
629.77	74.12
629.976	81.12
630.183	82.12
630.389	103.12
630.595	65.12
630.802	73.12
631.008	67.12
631.214	86.12
631.42	83.12
631.627	86.12
631.833	87.12
632.039	84.12
632.245	85.12
632.451	88.12
632.657	73.12
632.863	84.12
633.069	66.12
633.275	78.12
633.481	89.12
633.688	88.12
633.893	76.12
634.099	81.12
634.305	69.12
634.511	91.12
634.717	77.12
634.923	87.12
635.129	83.12
635.335	81.12
635.541	89.12
635.747	94.12
635.952	85.12
636.158	79.12
636.364	91.12
636.57	81.12
636.775	90.12
636.981	82.12
637.187	85.12
637.392	79.12
637.598	81.12
637.804	86.12
638.009	66.12
638.215	81.12
638.421	85.12
638.626	80.12
638.832	94.12
639.037	91.12
639.243	80.12
639.448	83.12
639.654	78.12
639.859	65.12
640.065	89.12
640.27	65.12
640.475	85.12
640.681	78.12
640.886	90.12
641.091	83.12
641.297	96.12
641.502	90.12
641.707	78.12
641.913	72.12
642.118	87.12
642.323	78.12
642.528	85.12
642.733	103.12
642.939	71.12
643.144	94.12
643.349	87.12
643.554	79.12
643.759	84.12
643.964	87.12
644.169	94.12
644.374	84.12
644.579	77.12
644.784	67.12
644.989	73.12
645.194	87.12
645.399	65.12
645.604	71.12
645.809	87.12
646.014	82.12
646.219	78.12
646.423	97.12
646.628	88.12
646.833	92.12
647.038	81.12
647.243	73.12
647.447	82.12
647.652	71.12
647.857	73.12
648.062	82.12
648.266	71.12
648.471	77.12
648.676	81.12
648.88	73.12
649.085	66.12
649.289	87.12
649.494	82.12
649.698	86.12
649.903	87.12
650.107	86.12
650.312	85.12
650.516	85.12
650.721	87.12
650.925	69.12
651.13	70.12
651.334	82.12
651.539	81.12
651.743	75.12
651.947	93.12
652.152	85.12
652.356	89.12
652.56	83.12
652.764	81.12
652.969	82.12
653.173	87.12
653.377	77.12
653.581	83.12
653.785	90.12
653.99	68.12
654.194	74.12
654.398	73.12
654.602	75.12
654.806	83.12
655.01	79.12
655.214	72.12
655.418	92.12
655.622	86.12
655.826	72.12
656.03	79.12
656.234	74.12
656.438	57.12
656.642	81.12
656.846	79.12
657.049	73.12
657.253	81.12
657.457	89.12
657.661	82.12
657.865	82.12
658.068	85.12
658.272	77.12
658.476	86.12
658.68	89.12
658.883	74.12
659.087	74.12
659.291	76.12
659.494	74.12
659.698	76.12
659.901	87.12
660.105	80.12
660.309	75.12
660.512	87.12
660.716	89.12
660.919	90.12
661.123	66.12
661.326	83.12
661.53	71.12
661.733	79.12
661.936	86.12
662.14	77.12
662.343	76.12
662.546	85.12
662.75	81.12
662.953	81.12
663.156	94.12
663.36	79.12
663.563	79.12
663.766	71.12
663.969	79.12
664.173	79.12
664.376	80.12
664.579	74.12
664.782	67.12
664.985	84.12
665.188	79.12
665.391	86.12
665.594	70.12
665.797	79.12
666	78.12
666.203	58.12
666.406	83.12
666.609	69.12
666.812	103.12
667.015	76.12
667.218	82.12
667.421	61.12
667.624	84.12
667.827	93.12
668.03	91.12
668.232	75.12
668.435	93.12
668.638	75.12
668.841	90.12
669.043	95.12
669.246	65.12
669.449	83.12
669.651	72.12
669.854	87.12
670.057	70.12
670.259	79.12
670.462	82.12
670.665	81.12
670.867	88.12
671.07	68.12
671.272	87.12
671.475	102.12
671.677	90.12
671.88	77.12
672.082	82.12
672.284	85.12
672.487	78.12
672.689	77.12
672.892	81.12
