Data from Background_1_HRD10591_00055.txt Node
Date: Wed Nov 05 14:39:25 EST 2025
User: Yrep
Spectrometer: HR+D1059
Trigger mode: 1
Integration Time (sec): 1.000000E-1
Scans to average: 1
Electric dark correction enabled: true
Nonlinearity correction enabled: false
Boxcar width: 0
XAxis mode: Wavelengths
Number of Pixels in Spectrum: 2048
>>>>>Begin Spectral Data<<<<<
223.165	-13.62
223.4	-13.62
223.635	-13.62
223.869	-20.62
224.104	-30.62
224.338	-30.62
224.573	-11.62
224.808	-20.62
225.042	-5.62
225.277	-5.62
225.511	-7.62
225.746	8.38
225.98	3.38
226.215	21.38
226.449	15.38
226.683	19.38
226.918	47.38
227.152	31.38
227.387	23.38
227.621	38.38
227.856	40.38
228.09	43.38
228.324	51.38
228.559	28.38
228.793	64.38
229.027	62.38
229.262	65.38
229.496	62.38
229.73	71.38
229.964	78.38
230.199	81.38
230.433	70.38
230.667	79.38
230.901	88.38
231.136	69.38
231.37	71.38
231.604	87.38
231.838	82.38
232.072	55.38
232.306	75.38
232.541	75.38
232.775	66.38
233.009	77.38
233.243	77.38
233.477	80.38
233.711	89.38
233.945	98.38
234.179	87.38
234.413	99.38
234.647	81.38
234.881	83.38
235.115	90.38
235.349	75.38
235.583	84.38
235.817	74.38
236.051	81.38
236.285	77.38
236.519	62.38
236.753	81.38
236.987	63.38
237.221	72.38
237.455	66.38
237.689	74.38
237.922	76.38
238.156	77.38
238.39	63.38
238.624	73.38
238.858	71.38
239.091	76.38
239.325	72.38
239.559	81.38
239.793	69.38
240.027	66.38
240.26	74.38
240.494	76.38
240.728	91.38
240.961	68.38
241.195	63.38
241.429	83.38
241.662	69.38
241.896	83.38
242.13	63.38
242.363	81.38
242.597	78.38
242.83	73.38
243.064	77.38
243.298	69.38
243.531	73.38
243.765	61.38
243.998	75.38
244.232	85.38
244.465	81.38
244.699	83.38
244.932	67.38
245.166	73.38
245.399	69.38
245.633	81.38
245.866	87.38
246.099	80.38
246.333	69.38
246.566	75.38
246.8	83.38
247.033	79.38
247.266	83.38
247.5	75.38
247.733	80.38
247.966	73.38
248.2	71.38
248.433	61.38
248.666	72.38
248.899	85.38
249.133	84.38
249.366	72.38
249.599	67.38
249.832	76.38
250.066	69.38
250.299	70.38
250.532	85.38
250.765	80.38
250.998	63.38
251.231	71.38
251.465	87.38
251.698	89.38
251.931	79.38
252.164	84.38
252.397	64.38
252.63	77.38
252.863	74.38
253.096	76.38
253.329	83.38
253.562	72.38
253.795	68.38
254.028	89.38
254.261	72.38
254.494	75.38
254.727	79.38
254.96	76.38
255.193	83.38
255.426	73.38
255.659	95.38
255.892	82.38
256.124	63.38
256.357	81.38
256.59	82.38
256.823	76.38
257.056	85.38
257.289	76.38
257.521	83.38
257.754	77.38
257.987	65.38
258.22	75.38
258.452	80.38
258.685	93.38
258.918	86.38
259.151	79.38
259.383	84.38
259.616	77.38
259.849	87.38
260.081	84.38
260.314	87.38
260.547	76.38
260.779	77.38
261.012	91.38
261.244	75.38
261.477	84.38
261.71	72.38
261.942	81.38
262.175	57.38
262.407	79.38
262.64	81.38
262.872	85.38
263.105	80.38
263.337	78.38
263.57	93.38
263.802	77.38
264.035	72.38
264.267	77.38
264.499	80.38
264.732	83.38
264.964	76.38
265.197	72.38
265.429	86.38
265.661	82.38
265.894	79.38
266.126	80.38
266.358	69.38
266.591	83.38
266.823	75.38
267.055	79.38
267.287	87.38
267.52	84.38
267.752	73.38
267.984	79.38
268.216	74.38
268.448	93.38
268.681	79.38
268.913	87.38
269.145	75.38
269.377	64.38
269.609	80.38
269.841	77.38
270.073	77.38
270.306	72.38
270.538	75.38
270.77	76.38
271.002	94.38
271.234	93.38
271.466	84.38
271.698	81.38
271.93	75.38
272.162	74.38
272.394	70.38
272.626	92.38
272.858	77.38
273.09	83.38
273.322	67.38
273.553	76.38
273.785	97.38
274.017	73.38
274.249	93.38
274.481	68.38
274.713	85.38
274.945	96.38
275.176	77.38
275.408	90.38
275.64	78.38
275.872	81.38
276.104	91.38
276.335	79.38
276.567	100.38
276.799	91.38
277.031	83.38
277.262	80.38
277.494	93.38
277.726	74.38
277.957	84.38
278.189	84.38
278.421	83.38
278.652	89.38
278.884	79.38
279.115	94.38
279.347	70.38
279.579	83.38
279.81	77.38
280.042	76.38
280.273	84.38
280.505	85.38
280.736	67.38
280.968	82.38
281.199	79.38
281.431	74.38
281.662	83.38
281.894	73.38
282.125	71.38
282.356	64.38
282.588	71.38
282.819	93.38
283.051	78.38
283.282	76.38
283.513	89.38
283.745	77.38
283.976	85.38
284.207	91.38
284.439	78.38
284.67	63.38
284.901	77.38
285.132	76.38
285.364	82.38
285.595	85.38
285.826	74.38
286.057	94.38
286.288	69.38
286.52	80.38
286.751	85.38
286.982	85.38
287.213	72.38
287.444	89.38
287.675	80.38
287.906	90.38
288.138	95.38
288.369	71.38
288.6	81.38
288.831	83.38
289.062	86.38
289.293	89.38
289.524	95.38
289.755	79.38
289.986	64.38
290.217	79.38
290.448	79.38
290.679	78.38
290.91	84.38
291.141	89.38
291.371	75.38
291.602	80.38
291.833	88.38
292.064	87.38
292.295	79.38
292.526	74.38
292.757	76.38
292.987	73.38
293.218	93.38
293.449	78.38
293.68	86.38
293.91	84.38
294.141	84.38
294.372	88.38
294.603	83.38
294.833	75.38
295.064	75.38
295.295	86.38
295.525	65.38
295.756	88.38
295.987	93.38
296.217	79.38
296.448	76.38
296.679	85.38
296.909	75.38
297.14	70.38
297.37	82.38
297.601	73.38
297.831	83.38
298.062	73.38
298.292	72.38
298.523	83.38
298.753	84.38
298.984	89.38
299.214	71.38
299.445	82.38
299.675	79.38
299.905	72.38
300.136	76.38
300.366	82.38
300.597	84.38
300.827	80.38
301.057	80.38
301.288	80.38
301.518	82.38
301.748	72.38
301.979	91.38
302.209	85.38
302.439	79.38
302.669	81.38
302.9	85.38
303.13	90.38
303.36	79.38
303.59	94.38
303.82	67.38
304.051	77.38
304.281	86.38
304.511	87.38
304.741	89.38
304.971	80.38
305.201	87.38
305.431	87.38
305.661	88.38
305.891	91.38
306.121	83.38
306.352	74.38
306.582	80.38
306.812	86.38
307.042	76.38
307.272	79.38
307.502	82.38
307.731	91.38
307.961	73.38
308.191	73.38
308.421	75.38
308.651	78.38
308.881	84.38
309.111	86.38
309.341	77.38
309.571	79.38
309.8	94.38
310.03	86.38
310.26	89.38
310.49	90.38
310.72	85.38
310.949	73.38
311.179	80.38
311.409	88.38
311.639	88.38
311.868	84.38
312.098	78.38
312.328	77.38
312.557	60.38
312.787	74.38
313.017	89.38
313.246	90.38
313.476	83.38
313.706	87.38
313.935	81.38
314.165	92.38
314.394	75.38
314.624	85.38
314.853	75.38
315.083	82.38
315.312	83.38
315.542	82.38
315.771	77.38
316.001	80.38
316.23	78.38
316.46	83.38
316.689	85.38
316.919	84.38
317.148	77.38
317.377	94.38
317.607	84.38
317.836	78.38
318.065	89.38
318.295	78.38
318.524	85.38
318.753	97.38
318.983	80.38
319.212	84.38
319.441	92.38
319.67	89.38
319.9	76.38
320.129	76.38
320.358	78.38
320.587	93.38
320.816	83.38
321.046	82.38
321.275	85.38
321.504	92.38
321.733	83.38
321.962	89.38
322.191	75.38
322.42	72.38
322.649	98.38
322.878	86.38
323.108	88.38
323.337	97.38
323.566	89.38
323.795	81.38
324.024	95.38
324.253	82.38
324.482	71.38
324.71	76.38
324.939	83.38
325.168	82.38
325.397	76.38
325.626	85.38
325.855	82.38
326.084	96.38
326.313	77.38
326.542	81.38
326.77	107.38
326.999	92.38
327.228	97.38
327.457	77.38
327.686	83.38
327.914	80.38
328.143	85.38
328.372	98.38
328.6	96.38
328.829	78.38
329.058	79.38
329.287	75.38
329.515	83.38
329.744	76.38
329.972	83.38
330.201	75.38
330.43	84.38
330.658	83.38
330.887	82.38
331.115	81.38
331.344	85.38
331.572	95.38
331.801	82.38
332.03	83.38
332.258	91.38
332.486	93.38
332.715	85.38
332.943	84.38
333.172	88.38
333.4	79.38
333.629	72.38
333.857	99.38
334.085	89.38
334.314	80.38
334.542	89.38
334.771	80.38
334.999	78.38
335.227	92.38
335.455	86.38
335.684	74.38
335.912	83.38
336.14	92.38
336.369	85.38
336.597	83.38
336.825	73.38
337.053	80.38
337.281	64.38
337.51	88.38
337.738	77.38
337.966	85.38
338.194	87.38
338.422	85.38
338.65	89.38
338.878	75.38
339.106	83.38
339.334	87.38
339.562	92.38
339.79	76.38
340.018	80.38
340.246	89.38
340.474	80.38
340.702	77.38
340.93	73.38
341.158	94.38
341.386	77.38
341.614	77.38
341.842	76.38
342.07	74.38
342.298	74.38
342.526	75.38
342.754	88.38
342.981	73.38
343.209	77.38
343.437	76.38
343.665	85.38
343.893	79.38
344.12	83.38
344.348	79.38
344.576	82.38
344.804	81.38
345.031	74.38
345.259	104.38
345.487	67.38
345.714	86.38
345.942	84.38
346.17	91.38
346.397	89.38
346.625	80.38
346.853	85.38
347.08	68.38
347.308	83.38
347.535	89.38
347.763	85.38
347.99	89.38
348.218	85.38
348.445	93.38
348.673	81.38
348.9	79.38
349.128	75.38
349.355	92.38
349.583	87.38
349.81	72.38
350.037	80.38
350.265	99.38
350.492	66.38
350.72	75.38
350.947	88.38
351.174	83.38
351.402	77.38
351.629	75.38
351.856	96.38
352.083	87.38
352.311	93.38
352.538	83.38
352.765	90.38
352.992	107.38
353.22	81.38
353.447	94.38
353.674	92.38
353.901	84.38
354.128	95.38
354.355	73.38
354.583	81.38
354.81	82.38
355.037	84.38
355.264	80.38
355.491	88.38
355.718	98.38
355.945	84.38
356.172	79.38
356.399	83.38
356.626	59.38
356.853	81.38
357.08	87.38
357.307	75.38
357.534	80.38
357.761	88.38
357.988	98.38
358.215	93.38
358.441	75.38
358.668	87.38
358.895	88.38
359.122	90.38
359.349	75.38
359.576	75.38
359.802	78.38
360.029	88.38
360.256	92.38
360.483	72.38
360.709	69.38
360.936	85.38
361.163	92.38
361.39	71.38
361.616	87.38
361.843	69.38
362.07	81.38
362.296	89.38
362.523	60.38
362.749	84.38
362.976	79.38
363.203	104.38
363.429	65.38
363.656	76.38
363.882	87.38
364.109	85.38
364.335	83.38
364.562	72.38
364.788	94.38
365.015	92.38
365.241	76.38
365.468	82.38
365.694	67.38
365.92	91.38
366.147	82.38
366.373	84.38
366.599	66.38
366.826	88.38
367.052	79.38
367.278	85.38
367.505	71.38
367.731	92.38
367.957	78.38
368.184	87.38
368.41	84.38
368.636	78.38
368.862	91.38
369.089	76.38
369.315	76.38
369.541	84.38
369.767	96.38
369.993	89.38
370.219	81.38
370.445	79.38
370.672	89.38
370.898	81.38
371.124	91.38
371.35	80.38
371.576	69.38
371.802	79.38
372.028	99.38
372.254	96.38
372.48	59.38
372.706	79.38
372.932	103.38
373.158	84.38
373.384	78.38
373.61	71.38
373.835	89.38
374.061	74.38
374.287	73.38
374.513	86.38
374.739	95.38
374.965	80.38
375.191	83.38
375.416	77.38
375.642	90.38
375.868	80.38
376.094	80.38
376.319	73.38
376.545	83.38
376.771	84.38
376.997	96.38
377.222	80.38
377.448	78.38
377.674	70.38
377.899	81.38
378.125	69.38
378.35	92.38
378.576	85.38
378.802	63.38
379.027	75.38
379.253	74.38
379.478	81.38
379.704	76.38
379.929	89.38
380.155	96.38
380.38	75.38
380.606	72.38
380.831	81.38
381.057	81.38
381.282	77.38
381.507	77.38
381.733	84.38
381.958	74.38
382.184	84.38
382.409	93.38
382.634	90.38
382.86	85.38
383.085	81.38
383.31	82.38
383.535	78.38
383.761	96.38
383.986	90.38
384.211	69.38
384.436	86.38
384.662	91.38
384.887	72.38
385.112	87.38
385.337	91.38
385.562	79.38
385.787	87.38
386.013	81.38
386.238	72.38
386.463	75.38
386.688	96.38
386.913	88.38
387.138	80.38
387.363	70.38
387.588	88.38
387.813	87.38
388.038	93.38
388.263	73.38
388.488	67.38
388.713	95.38
388.938	72.38
389.163	83.38
389.387	67.38
389.612	77.38
389.837	61.38
390.062	85.38
390.287	81.38
390.512	84.38
390.736	79.38
390.961	81.38
391.186	68.38
391.411	73.38
391.636	87.38
391.86	76.38
392.085	78.38
392.31	81.38
392.534	75.38
392.759	79.38
392.984	89.38
393.208	84.38
393.433	77.38
393.658	76.38
393.882	63.38
394.107	81.38
394.331	94.38
394.556	85.38
394.78	84.38
395.005	81.38
395.229	71.38
395.454	78.38
395.678	65.38
395.903	78.38
396.127	88.38
396.352	80.38
396.576	74.38
396.801	77.38
397.025	78.38
397.249	91.38
397.474	76.38
397.698	89.38
397.922	63.38
398.147	92.38
398.371	74.38
398.595	83.38
398.82	95.38
399.044	75.38
399.268	86.38
399.492	83.38
399.717	96.38
399.941	96.38
400.165	82.38
400.389	74.38
400.613	74.38
400.837	87.38
401.062	83.38
401.286	73.38
401.51	75.38
401.734	76.38
401.958	87.38
402.182	89.38
402.406	77.38
402.63	77.38
402.854	78.38
403.078	83.38
403.302	68.38
403.526	84.38
403.75	65.38
403.974	80.38
404.198	87.38
404.422	72.38
404.645	77.38
404.869	82.38
405.093	88.38
405.317	76.38
405.541	89.38
405.765	82.38
405.988	70.38
406.212	77.38
406.436	68.38
406.66	78.38
406.883	73.38
407.107	82.38
407.331	78.38
407.555	71.38
407.778	93.38
408.002	94.38
408.226	79.38
408.449	73.38
408.673	69.38
408.896	79.38
409.12	86.38
409.344	87.38
409.567	91.38
409.791	93.38
410.014	63.38
410.238	67.38
410.461	88.38
410.685	85.38
410.908	69.38
411.132	83.38
411.355	67.38
411.578	79.38
411.802	88.38
412.025	84.38
412.249	87.38
412.472	93.38
412.695	82.38
412.919	77.38
413.142	81.38
413.365	87.38
413.589	95.38
413.812	85.38
414.035	75.38
414.258	89.38
414.482	76.38
414.705	78.38
414.928	85.38
415.151	103.38
415.374	82.38
415.597	75.38
415.821	79.38
416.044	75.38
416.267	81.38
416.49	80.38
416.713	83.38
416.936	90.38
417.159	80.38
417.382	93.38
417.605	64.38
417.828	87.38
418.051	80.38
418.274	82.38
418.497	83.38
418.72	88.38
418.943	70.38
419.166	87.38
419.389	86.38
419.611	93.38
419.834	68.38
420.057	84.38
420.28	76.38
420.503	82.38
420.726	85.38
420.948	87.38
421.171	93.38
421.394	77.38
421.617	86.38
421.839	82.38
422.062	63.38
422.285	81.38
422.507	65.38
422.73	79.38
422.953	81.38
423.175	67.38
423.398	75.38
423.621	82.38
423.843	84.38
424.066	78.38
424.288	86.38
424.511	79.38
424.733	96.38
424.956	73.38
425.178	71.38
425.401	74.38
425.623	69.38
425.846	67.38
426.068	89.38
426.291	83.38
426.513	91.38
426.735	94.38
426.958	85.38
427.18	84.38
427.402	72.38
427.625	77.38
427.847	84.38
428.069	89.38
428.292	75.38
428.514	84.38
428.736	85.38
428.958	74.38
429.181	82.38
429.403	70.38
429.625	81.38
429.847	75.38
430.069	73.38
430.292	75.38
430.514	99.38
430.736	81.38
430.958	85.38
431.18	83.38
431.402	68.38
431.624	80.38
431.846	87.38
432.068	74.38
432.29	67.38
432.512	84.38
432.734	86.38
432.956	83.38
433.178	96.38
433.4	67.38
433.622	83.38
433.844	78.38
434.066	70.38
434.287	63.38
434.509	89.38
434.731	87.38
434.953	80.38
435.175	76.38
435.397	85.38
435.618	84.38
435.84	84.38
436.062	80.38
436.284	77.38
436.505	77.38
436.727	70.38
436.949	79.38
437.17	82.38
437.392	80.38
437.614	84.38
437.835	82.38
438.057	75.38
438.278	77.38
438.5	77.38
438.721	89.38
438.943	60.38
439.165	77.38
439.386	80.38
439.608	80.38
439.829	82.38
440.05	81.38
440.272	85.38
440.493	71.38
440.715	77.38
440.936	73.38
441.158	81.38
441.379	82.38
441.6	87.38
441.822	83.38
442.043	73.38
442.264	95.38
442.486	73.38
442.707	93.38
442.928	76.38
443.149	80.38
443.371	97.38
443.592	69.38
443.813	91.38
444.034	71.38
444.255	76.38
444.476	86.38
444.698	84.38
444.919	71.38
445.14	174.38
445.361	103.38
445.582	71.38
445.803	82.38
446.024	68.38
446.245	91.38
446.466	81.38
446.687	82.38
446.908	83.38
447.129	82.38
447.35	79.38
447.571	87.38
447.792	88.38
448.013	88.38
448.234	83.38
448.455	79.38
448.675	67.38
448.896	68.38
449.117	89.38
449.338	90.38
449.559	91.38
449.779	78.38
450	80.38
450.221	81.38
450.442	81.38
450.662	88.38
450.883	77.38
451.104	77.38
451.324	87.38
451.545	86.38
451.766	76.38
451.986	92.38
452.207	82.38
452.428	91.38
452.648	90.38
452.869	91.38
453.089	72.38
453.31	94.38
453.53	74.38
453.751	84.38
453.971	67.38
454.192	76.38
454.412	71.38
454.633	74.38
454.853	74.38
455.073	80.38
455.294	81.38
455.514	81.38
455.734	85.38
455.955	90.38
456.175	79.38
456.395	77.38
456.616	77.38
456.836	79.38
457.056	86.38
457.276	84.38
457.497	81.38
457.717	77.38
457.937	53.38
458.157	82.38
458.377	80.38
458.598	80.38
458.818	74.38
459.038	67.38
459.258	61.38
459.478	72.38
459.698	86.38
459.918	88.38
460.138	83.38
460.358	81.38
460.578	82.38
460.798	80.38
461.018	83.38
461.238	68.38
461.458	75.38
461.678	81.38
461.898	82.38
462.118	81.38
462.338	71.38
462.558	67.38
462.777	78.38
462.997	87.38
463.217	77.38
463.437	76.38
463.657	89.38
463.876	68.38
464.096	68.38
464.316	83.38
464.536	96.38
464.755	78.38
464.975	73.38
465.195	93.38
465.414	79.38
465.634	80.38
465.854	52.38
466.073	73.38
466.293	81.38
466.512	72.38
466.732	89.38
466.951	84.38
467.171	71.38
467.391	77.38
467.61	76.38
467.829	66.38
468.049	92.38
468.268	86.38
468.488	83.38
468.707	84.38
468.927	77.38
469.146	89.38
469.365	93.38
469.585	82.38
469.804	76.38
470.023	65.38
470.243	83.38
470.462	70.38
470.681	71.38
470.901	74.38
471.12	93.38
471.339	83.38
471.558	77.38
471.777	83.38
471.997	79.38
472.216	104.38
472.435	75.38
472.654	77.38
472.873	70.38
473.092	69.38
473.311	96.38
473.53	91.38
473.749	67.38
473.968	97.38
474.187	89.38
474.406	79.38
474.625	86.38
474.844	80.38
475.063	62.38
475.282	84.38
475.501	87.38
475.72	98.38
475.939	75.38
476.158	87.38
476.377	78.38
476.596	81.38
476.814	74.38
477.033	77.38
477.252	73.38
477.471	87.38
477.69	71.38
477.908	77.38
478.127	91.38
478.346	70.38
478.564	67.38
478.783	84.38
479.002	76.38
479.22	75.38
479.439	83.38
479.658	69.38
479.876	54.38
480.095	87.38
480.313	70.38
480.532	88.38
480.751	77.38
480.969	82.38
481.188	67.38
481.406	68.38
481.624	71.38
481.843	81.38
482.061	70.38
482.28	81.38
482.498	79.38
482.717	84.38
482.935	83.38
483.153	82.38
483.372	90.38
483.59	89.38
483.808	82.38
484.027	91.38
484.245	84.38
484.463	75.38
484.681	95.38
484.9	81.38
485.118	97.38
485.336	79.38
485.554	78.38
485.772	98.38
485.99	83.38
486.209	89.38
486.427	76.38
486.645	88.38
486.863	79.38
487.081	90.38
487.299	84.38
487.517	83.38
487.735	73.38
487.953	91.38
488.171	87.38
488.389	92.38
488.607	87.38
488.825	96.38
489.043	79.38
489.261	74.38
489.479	69.38
489.696	71.38
489.914	80.38
490.132	80.38
490.35	75.38
490.568	76.38
490.786	82.38
491.003	79.38
491.221	75.38
491.439	76.38
491.657	84.38
491.874	85.38
492.092	85.38
492.31	92.38
492.527	96.38
492.745	74.38
492.963	87.38
493.18	97.38
493.398	79.38
493.615	69.38
493.833	83.38
494.05	80.38
494.268	74.38
494.485	75.38
494.703	84.38
494.92	84.38
495.138	77.38
495.355	75.38
495.573	77.38
495.79	88.38
496.008	85.38
496.225	85.38
496.442	83.38
496.66	80.38
496.877	80.38
497.094	87.38
497.312	69.38
497.529	84.38
497.746	87.38
497.963	90.38
498.181	76.38
498.398	86.38
498.615	84.38
498.832	94.38
499.049	83.38
499.267	83.38
499.484	84.38
499.701	72.38
499.918	86.38
500.135	73.38
500.352	79.38
500.569	91.38
500.786	81.38
501.003	78.38
501.22	72.38
501.437	73.38
501.654	74.38
501.871	83.38
502.088	57.38
502.305	77.38
502.522	84.38
502.739	75.38
502.956	74.38
503.172	88.38
503.389	82.38
503.606	73.38
503.823	87.38
504.04	66.38
504.256	81.38
504.473	77.38
504.69	78.38
504.907	81.38
505.123	67.38
505.34	70.38
505.557	78.38
505.773	81.38
505.99	80.38
506.207	83.38
506.423	75.38
506.64	88.38
506.856	96.38
507.073	65.38
507.289	69.38
507.506	77.38
507.722	88.38
507.939	90.38
508.155	77.38
508.372	80.38
508.588	89.38
508.805	88.38
509.021	86.38
509.238	72.38
509.454	74.38
509.67	80.38
509.887	81.38
510.103	83.38
510.319	78.38
510.536	95.38
510.752	75.38
510.968	73.38
511.184	90.38
511.401	71.38
511.617	73.38
511.833	76.38
512.049	86.38
512.265	80.38
512.481	81.38
512.698	73.38
512.914	67.38
513.13	80.38
513.346	95.38
513.562	79.38
513.778	83.38
513.994	81.38
514.21	84.38
514.426	89.38
514.642	96.38
514.858	87.38
515.074	79.38
515.29	80.38
515.506	79.38
515.721	80.38
515.937	69.38
516.153	88.38
516.369	77.38
516.585	88.38
516.801	70.38
517.016	87.38
517.232	89.38
517.448	70.38
517.664	84.38
517.879	93.38
518.095	85.38
518.311	72.38
518.527	71.38
518.742	80.38
518.958	83.38
519.173	92.38
519.389	71.38
519.605	89.38
519.82	67.38
520.036	88.38
520.251	82.38
520.467	85.38
520.682	75.38
520.898	73.38
521.113	83.38
521.329	68.38
521.544	75.38
521.76	93.38
521.975	81.38
522.19	88.38
522.406	96.38
522.621	75.38
522.836	81.38
523.052	82.38
523.267	84.38
523.482	74.38
523.698	77.38
523.913	88.38
524.128	96.38
524.343	89.38
524.559	83.38
524.774	97.38
524.989	73.38
525.204	91.38
525.419	81.38
525.634	73.38
525.849	83.38
526.064	83.38
526.28	92.38
526.495	92.38
526.71	93.38
526.925	92.38
527.14	86.38
527.355	87.38
527.57	83.38
527.785	83.38
527.999	93.38
528.214	87.38
528.429	63.38
528.644	81.38
528.859	85.38
529.074	83.38
529.289	96.38
529.503	92.38
529.718	81.38
529.933	90.38
530.148	85.38
530.363	82.38
530.577	85.38
530.792	80.38
531.007	75.38
531.221	67.38
531.436	74.38
531.651	81.38
531.865	81.38
532.08	78.38
532.295	81.38
532.509	80.38
532.724	74.38
532.938	82.38
533.153	91.38
533.367	72.38
533.582	90.38
533.796	78.38
534.011	84.38
534.225	82.38
534.44	88.38
534.654	88.38
534.868	75.38
535.083	84.38
535.297	87.38
535.511	89.38
535.726	81.38
535.94	71.38
536.154	60.38
536.369	77.38
536.583	79.38
536.797	82.38
537.011	81.38
537.225	84.38
537.44	82.38
537.654	95.38
537.868	61.38
538.082	85.38
538.296	89.38
538.51	69.38
538.724	90.38
538.938	78.38
539.153	108.38
539.367	93.38
539.581	93.38
539.795	83.38
540.009	81.38
540.222	77.38
540.436	90.38
540.65	84.38
540.864	86.38
541.078	84.38
541.292	90.38
541.506	83.38
541.72	87.38
541.934	81.38
542.147	74.38
542.361	81.38
542.575	79.38
542.789	78.38
543.002	88.38
543.216	85.38
543.43	75.38
543.644	68.38
543.857	77.38
544.071	87.38
544.285	92.38
544.498	85.38
544.712	83.38
544.925	69.38
545.139	66.38
545.352	83.38
545.566	83.38
545.779	80.38
545.993	78.38
546.206	90.38
546.42	82.38
546.633	80.38
546.847	87.38
547.06	73.38
547.274	88.38
547.487	80.38
547.7	87.38
547.914	82.38
548.127	89.38
548.34	94.38
548.554	82.38
548.767	85.38
548.98	81.38
549.193	82.38
549.407	79.38
549.62	92.38
549.833	103.38
550.046	84.38
550.259	86.38
550.473	77.38
550.686	82.38
550.899	91.38
551.112	87.38
551.325	83.38
551.538	83.38
551.751	79.38
551.964	81.38
552.177	96.38
552.39	82.38
552.603	96.38
552.816	92.38
553.029	98.38
553.242	96.38
553.455	85.38
553.667	76.38
553.88	83.38
554.093	87.38
554.306	81.38
554.519	75.38
554.732	89.38
554.944	84.38
555.157	84.38
555.37	77.38
555.583	99.38
555.795	82.38
556.008	88.38
556.221	84.38
556.433	84.38
556.646	80.38
556.859	102.38
557.071	93.38
557.284	85.38
557.496	77.38
557.709	91.38
557.921	80.38
558.134	79.38
558.346	84.38
558.559	75.38
558.771	80.38
558.984	91.38
559.196	76.38
559.409	69.38
559.621	86.38
559.833	85.38
560.046	93.38
560.258	98.38
560.47	90.38
560.683	81.38
560.895	89.38
561.107	91.38
561.32	97.38
561.532	80.38
561.744	88.38
561.956	84.38
562.168	89.38
562.381	89.38
562.593	77.38
562.805	101.38
563.017	88.38
563.229	89.38
563.441	88.38
563.653	98.38
563.865	75.38
564.077	83.38
564.289	79.38
564.501	85.38
564.713	79.38
564.925	80.38
565.137	89.38
565.349	74.38
565.561	89.38
565.773	83.38
565.985	87.38
566.197	91.38
566.408	87.38
566.62	71.38
566.832	79.38
567.044	88.38
567.255	92.38
567.467	75.38
567.679	91.38
567.891	76.38
568.102	92.38
568.314	87.38
568.526	71.38
568.737	78.38
568.949	80.38
569.161	80.38
569.372	78.38
569.584	82.38
569.795	100.38
570.007	73.38
570.218	83.38
570.43	87.38
570.641	84.38
570.853	79.38
571.064	79.38
571.276	88.38
571.487	89.38
571.698	83.38
571.91	83.38
572.121	78.38
572.333	83.38
572.544	83.38
572.755	90.38
572.966	81.38
573.178	88.38
573.389	84.38
573.6	73.38
573.811	82.38
574.023	85.38
574.234	77.38
574.445	78.38
574.656	70.38
574.867	93.38
575.078	86.38
575.289	89.38
575.501	83.38
575.712	76.38
575.923	74.38
576.134	80.38
576.345	86.38
576.556	87.38
576.767	77.38
576.978	87.38
577.188	80.38
577.399	88.38
577.61	97.38
577.821	72.38
578.032	89.38
578.243	79.38
578.454	67.38
578.665	73.38
578.875	91.38
579.086	92.38
579.297	85.38
579.508	93.38
579.718	91.38
579.929	80.38
580.14	89.38
580.35	75.38
580.561	82.38
580.772	92.38
580.982	88.38
581.193	93.38
581.403	90.38
581.614	79.38
581.825	81.38
582.035	82.38
582.246	81.38
582.456	86.38
582.667	65.38
582.877	77.38
583.087	91.38
583.298	89.38
583.508	85.38
583.719	80.38
583.929	96.38
584.139	80.38
584.35	83.38
584.56	73.38
584.77	90.38
584.981	87.38
585.191	77.38
585.401	89.38
585.611	88.38
585.821	80.38
586.032	65.38
586.242	93.38
586.452	82.38
586.662	81.38
586.872	89.38
587.082	74.38
587.292	88.38
587.502	82.38
587.713	87.38
587.923	85.38
588.133	104.38
588.343	75.38
588.553	83.38
588.762	92.38
588.972	84.38
589.182	77.38
589.392	68.38
589.602	89.38
589.812	80.38
590.022	94.38
590.232	87.38
590.441	79.38
590.651	84.38
590.861	97.38
591.071	97.38
591.281	86.38
591.49	81.38
591.7	74.38
591.91	83.38
592.119	83.38
592.329	90.38
592.539	82.38
592.748	73.38
592.958	84.38
593.167	86.38
593.377	85.38
593.587	73.38
593.796	95.38
594.006	87.38
594.215	106.38
594.424	91.38
594.634	96.38
594.843	94.38
595.053	101.38
595.262	96.38
595.472	89.38
595.681	81.38
595.89	83.38
596.1	80.38
596.309	85.38
596.518	79.38
596.727	99.38
596.937	101.38
597.146	73.38
597.355	84.38
597.564	87.38
597.774	83.38
597.983	84.38
598.192	85.38
598.401	77.38
598.61	81.38
598.819	80.38
599.028	76.38
599.237	88.38
599.446	81.38
599.655	88.38
599.864	83.38
600.073	90.38
600.282	84.38
600.491	78.38
600.7	94.38
600.909	87.38
601.118	78.38
601.327	71.38
601.536	75.38
601.745	87.38
601.953	88.38
602.162	88.38
602.371	80.38
602.58	85.38
602.789	77.38
602.997	76.38
603.206	89.38
603.415	78.38
603.623	84.38
603.832	88.38
604.041	82.38
604.249	83.38
604.458	81.38
604.666	73.38
604.875	80.38
605.084	86.38
605.292	87.38
605.501	78.38
605.709	85.38
605.918	88.38
606.126	91.38
606.334	98.38
606.543	76.38
606.751	80.38
606.96	88.38
607.168	88.38
607.376	87.38
607.585	93.38
607.793	85.38
608.001	84.38
608.21	94.38
608.418	84.38
608.626	87.38
608.834	95.38
609.043	83.38
609.251	87.38
609.459	87.38
609.667	85.38
609.875	69.38
610.083	88.38
610.291	84.38
610.499	81.38
610.707	81.38
610.916	83.38
611.124	69.38
611.332	81.38
611.54	74.38
611.748	81.38
611.955	90.38
612.163	83.38
612.371	75.38
612.579	69.38
612.787	73.38
612.995	90.38
613.203	91.38
613.411	80.38
613.618	79.38
613.826	81.38
614.034	82.38
614.242	85.38
614.449	81.38
614.657	80.38
614.865	87.38
615.072	90.38
615.28	82.38
615.488	91.38
615.695	95.38
615.903	83.38
616.111	88.38
616.318	85.38
616.526	74.38
616.733	94.38
616.941	82.38
617.148	79.38
617.356	101.38
617.563	88.38
617.771	88.38
617.978	94.38
618.185	83.38
618.393	84.38
618.6	80.38
618.807	76.38
619.015	86.38
619.222	90.38
619.429	82.38
619.637	82.38
619.844	88.38
620.051	86.38
620.258	95.38
620.466	76.38
620.673	85.38
620.88	84.38
621.087	78.38
621.294	98.38
621.501	82.38
621.708	88.38
621.915	83.38
622.122	89.38
622.329	84.38
622.536	74.38
622.743	86.38
622.95	91.38
623.157	74.38
623.364	74.38
623.571	76.38
623.778	83.38
623.985	87.38
624.192	81.38
624.399	96.38
624.606	83.38
624.812	72.38
625.019	94.38
625.226	86.38
625.433	81.38
625.639	81.38
625.846	78.38
626.053	97.38
626.259	95.38
626.466	87.38
626.673	75.38
626.879	91.38
627.086	99.38
627.293	83.38
627.499	81.38
627.706	87.38
627.912	86.38
628.119	89.38
628.325	69.38
628.532	65.38
628.738	89.38
628.945	85.38
629.151	73.38
629.357	70.38
629.564	77.38
629.77	81.38
629.976	93.38
630.183	79.38
630.389	81.38
630.595	92.38
630.802	76.38
631.008	90.38
631.214	84.38
631.42	83.38
631.627	93.38
631.833	82.38
632.039	74.38
632.245	79.38
632.451	81.38
632.657	72.38
632.863	104.38
633.069	93.38
633.275	83.38
633.481	82.38
633.688	76.38
633.893	85.38
634.099	83.38
634.305	90.38
634.511	75.38
634.717	84.38
634.923	83.38
635.129	78.38
635.335	81.38
635.541	85.38
635.747	84.38
635.952	87.38
636.158	83.38
636.364	69.38
636.57	78.38
636.775	79.38
636.981	74.38
637.187	87.38
637.392	84.38
637.598	79.38
637.804	77.38
638.009	79.38
638.215	63.38
638.421	80.38
638.626	89.38
638.832	88.38
639.037	80.38
639.243	81.38
639.448	93.38
639.654	84.38
639.859	83.38
640.065	86.38
640.27	95.38
640.475	80.38
640.681	83.38
640.886	93.38
641.091	93.38
641.297	86.38
641.502	77.38
641.707	84.38
641.913	82.38
642.118	89.38
642.323	76.38
642.528	89.38
642.733	91.38
642.939	66.38
643.144	91.38
643.349	83.38
643.554	76.38
643.759	77.38
643.964	80.38
644.169	95.38
644.374	84.38
644.579	73.38
644.784	91.38
644.989	71.38
645.194	82.38
645.399	67.38
645.604	88.38
645.809	80.38
646.014	69.38
646.219	79.38
646.423	80.38
646.628	80.38
646.833	68.38
647.038	98.38
647.243	88.38
647.447	86.38
647.652	90.38
647.857	76.38
648.062	88.38
648.266	90.38
648.471	79.38
648.676	99.38
648.88	75.38
649.085	82.38
649.289	83.38
649.494	79.38
649.698	92.38
649.903	90.38
650.107	92.38
650.312	87.38
650.516	86.38
650.721	89.38
650.925	75.38
651.13	87.38
651.334	75.38
651.539	87.38
651.743	93.38
651.947	76.38
652.152	80.38
652.356	74.38
652.56	91.38
652.764	65.38
652.969	82.38
653.173	85.38
653.377	82.38
653.581	80.38
653.785	81.38
653.99	89.38
654.194	92.38
654.398	76.38
654.602	88.38
654.806	94.38
655.01	85.38
655.214	93.38
655.418	80.38
655.622	91.38
655.826	75.38
656.03	86.38
656.234	88.38
656.438	82.38
656.642	86.38
656.846	70.38
657.049	77.38
657.253	83.38
657.457	98.38
657.661	90.38
657.865	67.38
658.068	81.38
658.272	66.38
658.476	88.38
658.68	92.38
658.883	79.38
659.087	89.38
659.291	69.38
659.494	82.38
659.698	85.38
659.901	76.38
660.105	77.38
660.309	86.38
660.512	77.38
660.716	74.38
660.919	83.38
661.123	97.38
661.326	88.38
661.53	77.38
661.733	86.38
661.936	82.38
662.14	73.38
662.343	56.38
662.546	79.38
662.75	84.38
662.953	95.38
663.156	98.38
663.36	79.38
663.563	84.38
663.766	88.38
663.969	75.38
664.173	76.38
664.376	82.38
664.579	84.38
664.782	88.38
664.985	67.38
665.188	75.38
665.391	90.38
665.594	75.38
665.797	69.38
666	86.38
666.203	80.38
666.406	79.38
666.609	77.38
666.812	68.38
667.015	73.38
667.218	87.38
667.421	78.38
667.624	78.38
667.827	95.38
668.03	83.38
668.232	93.38
668.435	91.38
668.638	82.38
668.841	81.38
669.043	84.38
669.246	90.38
669.449	92.38
669.651	79.38
669.854	99.38
670.057	68.38
670.259	76.38
670.462	74.38
670.665	83.38
670.867	70.38
671.07	77.38
671.272	78.38
671.475	69.38
671.677	79.38
671.88	71.38
672.082	82.38
672.284	80.38
672.487	80.38
672.689	69.38
672.892	82.38
