Data from Background_1_HRD10591_00035.txt Node
Date: Wed Nov 05 14:39:15 EST 2025
User: Yrep
Spectrometer: HR+D1059
Trigger mode: 1
Integration Time (sec): 1.000000E-1
Scans to average: 1
Electric dark correction enabled: true
Nonlinearity correction enabled: false
Boxcar width: 0
XAxis mode: Wavelengths
Number of Pixels in Spectrum: 2048
>>>>>Begin Spectral Data<<<<<
223.165	-30.12
223.4	-30.12
223.635	-30.12
223.869	-23.12
224.104	-17.12
224.338	-20.12
224.573	-13.12
224.808	-4.12
225.042	-2.12
225.277	-18.12
225.511	-8.12
225.746	-9.12
225.98	12.88
226.215	20.88
226.449	26.88
226.683	25.88
226.918	37.88
227.152	20.88
227.387	38.88
227.621	46.88
227.856	57.88
228.09	43.88
228.324	44.88
228.559	52.88
228.793	57.88
229.027	60.88
229.262	60.88
229.496	64.88
229.73	73.88
229.964	82.88
230.199	69.88
230.433	73.88
230.667	86.88
230.901	67.88
231.136	87.88
231.37	76.88
231.604	77.88
231.838	76.88
232.072	84.88
232.306	86.88
232.541	88.88
232.775	80.88
233.009	79.88
233.243	73.88
233.477	81.88
233.711	68.88
233.945	56.88
234.179	72.88
234.413	81.88
234.647	78.88
234.881	87.88
235.115	62.88
235.349	75.88
235.583	75.88
235.817	72.88
236.051	70.88
236.285	68.88
236.519	81.88
236.753	90.88
236.987	70.88
237.221	75.88
237.455	72.88
237.689	70.88
237.922	64.88
238.156	67.88
238.39	71.88
238.624	70.88
238.858	73.88
239.091	72.88
239.325	75.88
239.559	75.88
239.793	72.88
240.027	84.88
240.26	70.88
240.494	81.88
240.728	80.88
240.961	66.88
241.195	84.88
241.429	76.88
241.662	81.88
241.896	63.88
242.13	77.88
242.363	76.88
242.597	72.88
242.83	76.88
243.064	86.88
243.298	80.88
243.531	87.88
243.765	62.88
243.998	70.88
244.232	76.88
244.465	76.88
244.699	71.88
244.932	62.88
245.166	69.88
245.399	91.88
245.633	83.88
245.866	80.88
246.099	75.88
246.333	68.88
246.566	75.88
246.8	73.88
247.033	68.88
247.266	83.88
247.5	71.88
247.733	77.88
247.966	70.88
248.2	64.88
248.433	78.88
248.666	72.88
248.899	64.88
249.133	74.88
249.366	78.88
249.599	94.88
249.832	84.88
250.066	70.88
250.299	77.88
250.532	89.88
250.765	79.88
250.998	79.88
251.231	78.88
251.465	68.88
251.698	82.88
251.931	86.88
252.164	77.88
252.397	72.88
252.63	80.88
252.863	68.88
253.096	75.88
253.329	92.88
253.562	88.88
253.795	85.88
254.028	75.88
254.261	85.88
254.494	67.88
254.727	79.88
254.96	70.88
255.193	74.88
255.426	81.88
255.659	69.88
255.892	72.88
256.124	67.88
256.357	76.88
256.59	63.88
256.823	78.88
257.056	82.88
257.289	80.88
257.521	73.88
257.754	84.88
257.987	81.88
258.22	62.88
258.452	76.88
258.685	69.88
258.918	81.88
259.151	80.88
259.383	79.88
259.616	75.88
259.849	86.88
260.081	78.88
260.314	79.88
260.547	80.88
260.779	85.88
261.012	78.88
261.244	86.88
261.477	54.88
261.71	81.88
261.942	75.88
262.175	70.88
262.407	85.88
262.64	73.88
262.872	79.88
263.105	74.88
263.337	81.88
263.57	70.88
263.802	81.88
264.035	88.88
264.267	80.88
264.499	71.88
264.732	77.88
264.964	85.88
265.197	64.88
265.429	74.88
265.661	57.88
265.894	85.88
266.126	73.88
266.358	72.88
266.591	82.88
266.823	77.88
267.055	83.88
267.287	72.88
267.52	70.88
267.752	62.88
267.984	89.88
268.216	85.88
268.448	75.88
268.681	76.88
268.913	79.88
269.145	79.88
269.377	84.88
269.609	79.88
269.841	78.88
270.073	94.88
270.306	80.88
270.538	83.88
270.77	80.88
271.002	75.88
271.234	85.88
271.466	83.88
271.698	82.88
271.93	53.88
272.162	75.88
272.394	81.88
272.626	73.88
272.858	88.88
273.09	79.88
273.322	88.88
273.553	78.88
273.785	90.88
274.017	78.88
274.249	75.88
274.481	73.88
274.713	73.88
274.945	71.88
275.176	77.88
275.408	76.88
275.64	90.88
275.872	76.88
276.104	86.88
276.335	81.88
276.567	71.88
276.799	75.88
277.031	75.88
277.262	72.88
277.494	80.88
277.726	76.88
277.957	93.88
278.189	74.88
278.421	86.88
278.652	90.88
278.884	92.88
279.115	93.88
279.347	77.88
279.579	78.88
279.81	71.88
280.042	87.88
280.273	67.88
280.505	76.88
280.736	82.88
280.968	72.88
281.199	71.88
281.431	78.88
281.662	86.88
281.894	73.88
282.125	78.88
282.356	82.88
282.588	65.88
282.819	77.88
283.051	81.88
283.282	69.88
283.513	91.88
283.745	81.88
283.976	81.88
284.207	84.88
284.439	78.88
284.67	95.88
284.901	80.88
285.132	90.88
285.364	97.88
285.595	90.88
285.826	93.88
286.057	78.88
286.288	88.88
286.52	73.88
286.751	72.88
286.982	81.88
287.213	95.88
287.444	85.88
287.675	92.88
287.906	75.88
288.138	77.88
288.369	81.88
288.6	70.88
288.831	76.88
289.062	71.88
289.293	75.88
289.524	61.88
289.755	69.88
289.986	68.88
290.217	80.88
290.448	57.88
290.679	76.88
290.91	80.88
291.141	83.88
291.371	77.88
291.602	93.88
291.833	92.88
292.064	82.88
292.295	79.88
292.526	87.88
292.757	78.88
292.987	78.88
293.218	92.88
293.449	93.88
293.68	90.88
293.91	85.88
294.141	86.88
294.372	71.88
294.603	69.88
294.833	86.88
295.064	79.88
295.295	78.88
295.525	79.88
295.756	80.88
295.987	85.88
296.217	88.88
296.448	76.88
296.679	75.88
296.909	78.88
297.14	80.88
297.37	86.88
297.601	74.88
297.831	79.88
298.062	78.88
298.292	65.88
298.523	70.88
298.753	66.88
298.984	82.88
299.214	84.88
299.445	95.88
299.675	72.88
299.905	94.88
300.136	78.88
300.366	76.88
300.597	95.88
300.827	76.88
301.057	77.88
301.288	72.88
301.518	94.88
301.748	87.88
301.979	91.88
302.209	84.88
302.439	84.88
302.669	72.88
302.9	76.88
303.13	78.88
303.36	77.88
303.59	82.88
303.82	87.88
304.051	88.88
304.281	76.88
304.511	89.88
304.741	91.88
304.971	93.88
305.201	93.88
305.431	77.88
305.661	81.88
305.891	92.88
306.121	84.88
306.352	77.88
306.582	97.88
306.812	88.88
307.042	82.88
307.272	85.88
307.502	80.88
307.731	84.88
307.961	82.88
308.191	73.88
308.421	76.88
308.651	76.88
308.881	76.88
309.111	89.88
309.341	76.88
309.571	90.88
309.8	87.88
310.03	82.88
310.26	77.88
310.49	84.88
310.72	83.88
310.949	70.88
311.179	76.88
311.409	88.88
311.639	101.88
311.868	91.88
312.098	74.88
312.328	73.88
312.557	93.88
312.787	89.88
313.017	77.88
313.246	89.88
313.476	92.88
313.706	70.88
313.935	68.88
314.165	75.88
314.394	84.88
314.624	78.88
314.853	83.88
315.083	78.88
315.312	62.88
315.542	90.88
315.771	75.88
316.001	92.88
316.23	82.88
316.46	75.88
316.689	79.88
316.919	79.88
317.148	83.88
317.377	78.88
317.607	79.88
317.836	75.88
318.065	73.88
318.295	82.88
318.524	86.88
318.753	83.88
318.983	79.88
319.212	69.88
319.441	66.88
319.67	80.88
319.9	69.88
320.129	92.88
320.358	86.88
320.587	78.88
320.816	78.88
321.046	81.88
321.275	70.88
321.504	91.88
321.733	84.88
321.962	79.88
322.191	77.88
322.42	80.88
322.649	87.88
322.878	76.88
323.108	92.88
323.337	81.88
323.566	68.88
323.795	80.88
324.024	76.88
324.253	88.88
324.482	79.88
324.71	90.88
324.939	85.88
325.168	80.88
325.397	86.88
325.626	79.88
325.855	80.88
326.084	83.88
326.313	90.88
326.542	90.88
326.77	92.88
326.999	80.88
327.228	77.88
327.457	72.88
327.686	70.88
327.914	89.88
328.143	72.88
328.372	68.88
328.6	76.88
328.829	77.88
329.058	87.88
329.287	67.88
329.515	82.88
329.744	81.88
329.972	80.88
330.201	66.88
330.43	98.88
330.658	66.88
330.887	86.88
331.115	88.88
331.344	74.88
331.572	84.88
331.801	80.88
332.03	75.88
332.258	93.88
332.486	84.88
332.715	98.88
332.943	86.88
333.172	90.88
333.4	93.88
333.629	87.88
333.857	91.88
334.085	79.88
334.314	74.88
334.542	80.88
334.771	78.88
334.999	83.88
335.227	69.88
335.455	84.88
335.684	64.88
335.912	77.88
336.14	89.88
336.369	74.88
336.597	75.88
336.825	77.88
337.053	82.88
337.281	80.88
337.51	72.88
337.738	80.88
337.966	74.88
338.194	84.88
338.422	83.88
338.65	98.88
338.878	80.88
339.106	83.88
339.334	93.88
339.562	80.88
339.79	82.88
340.018	82.88
340.246	73.88
340.474	84.88
340.702	69.88
340.93	86.88
341.158	78.88
341.386	89.88
341.614	74.88
341.842	73.88
342.07	71.88
342.298	76.88
342.526	85.88
342.754	77.88
342.981	82.88
343.209	72.88
343.437	89.88
343.665	86.88
343.893	66.88
344.12	69.88
344.348	66.88
344.576	72.88
344.804	63.88
345.031	77.88
345.259	66.88
345.487	75.88
345.714	89.88
345.942	93.88
346.17	91.88
346.397	90.88
346.625	85.88
346.853	90.88
347.08	93.88
347.308	90.88
347.535	84.88
347.763	79.88
347.99	80.88
348.218	88.88
348.445	89.88
348.673	85.88
348.9	75.88
349.128	83.88
349.355	57.88
349.583	78.88
349.81	82.88
350.037	84.88
350.265	70.88
350.492	81.88
350.72	77.88
350.947	81.88
351.174	86.88
351.402	88.88
351.629	84.88
351.856	80.88
352.083	68.88
352.311	76.88
352.538	75.88
352.765	90.88
352.992	82.88
353.22	86.88
353.447	75.88
353.674	69.88
353.901	84.88
354.128	96.88
354.355	93.88
354.583	78.88
354.81	69.88
355.037	79.88
355.264	86.88
355.491	70.88
355.718	78.88
355.945	81.88
356.172	74.88
356.399	81.88
356.626	80.88
356.853	75.88
357.08	82.88
357.307	93.88
357.534	65.88
357.761	96.88
357.988	85.88
358.215	80.88
358.441	79.88
358.668	73.88
358.895	85.88
359.122	89.88
359.349	96.88
359.576	79.88
359.802	85.88
360.029	75.88
360.256	81.88
360.483	52.88
360.709	80.88
360.936	95.88
361.163	89.88
361.39	75.88
361.616	86.88
361.843	96.88
362.07	86.88
362.296	81.88
362.523	77.88
362.749	78.88
362.976	86.88
363.203	99.88
363.429	85.88
363.656	74.88
363.882	83.88
364.109	79.88
364.335	78.88
364.562	80.88
364.788	73.88
365.015	73.88
365.241	90.88
365.468	69.88
365.694	74.88
365.92	81.88
366.147	82.88
366.373	71.88
366.599	93.88
366.826	81.88
367.052	94.88
367.278	86.88
367.505	87.88
367.731	97.88
367.957	88.88
368.184	82.88
368.41	70.88
368.636	76.88
368.862	72.88
369.089	87.88
369.315	80.88
369.541	68.88
369.767	73.88
369.993	79.88
370.219	74.88
370.445	82.88
370.672	77.88
370.898	68.88
371.124	67.88
371.35	92.88
371.576	78.88
371.802	78.88
372.028	67.88
372.254	71.88
372.48	69.88
372.706	85.88
372.932	63.88
373.158	83.88
373.384	69.88
373.61	76.88
373.835	78.88
374.061	81.88
374.287	85.88
374.513	79.88
374.739	85.88
374.965	76.88
375.191	70.88
375.416	84.88
375.642	70.88
375.868	69.88
376.094	79.88
376.319	80.88
376.545	86.88
376.771	72.88
376.997	70.88
377.222	70.88
377.448	77.88
377.674	82.88
377.899	85.88
378.125	86.88
378.35	69.88
378.576	71.88
378.802	95.88
379.027	70.88
379.253	72.88
379.478	85.88
379.704	73.88
379.929	82.88
380.155	81.88
380.38	85.88
380.606	72.88
380.831	71.88
381.057	79.88
381.282	77.88
381.507	89.88
381.733	66.88
381.958	70.88
382.184	90.88
382.409	74.88
382.634	70.88
382.86	82.88
383.085	80.88
383.31	66.88
383.535	75.88
383.761	65.88
383.986	86.88
384.211	70.88
384.436	75.88
384.662	64.88
384.887	75.88
385.112	76.88
385.337	66.88
385.562	72.88
385.787	88.88
386.013	96.88
386.238	93.88
386.463	71.88
386.688	88.88
386.913	76.88
387.138	92.88
387.363	84.88
387.588	73.88
387.813	86.88
388.038	79.88
388.263	76.88
388.488	88.88
388.713	71.88
388.938	85.88
389.163	74.88
389.387	73.88
389.612	78.88
389.837	79.88
390.062	85.88
390.287	65.88
390.512	70.88
390.736	83.88
390.961	79.88
391.186	84.88
391.411	74.88
391.636	74.88
391.86	76.88
392.085	88.88
392.31	73.88
392.534	73.88
392.759	72.88
392.984	60.88
393.208	76.88
393.433	73.88
393.658	88.88
393.882	73.88
394.107	72.88
394.331	77.88
394.556	76.88
394.78	78.88
395.005	82.88
395.229	57.88
395.454	77.88
395.678	80.88
395.903	70.88
396.127	70.88
396.352	79.88
396.576	59.88
396.801	91.88
397.025	77.88
397.249	80.88
397.474	87.88
397.698	76.88
397.922	74.88
398.147	76.88
398.371	69.88
398.595	80.88
398.82	86.88
399.044	80.88
399.268	71.88
399.492	60.88
399.717	73.88
399.941	72.88
400.165	88.88
400.389	89.88
400.613	72.88
400.837	69.88
401.062	69.88
401.286	84.88
401.51	69.88
401.734	73.88
401.958	69.88
402.182	80.88
402.406	71.88
402.63	79.88
402.854	78.88
403.078	72.88
403.302	82.88
403.526	92.88
403.75	75.88
403.974	84.88
404.198	77.88
404.422	89.88
404.645	79.88
404.869	59.88
405.093	81.88
405.317	82.88
405.541	84.88
405.765	74.88
405.988	71.88
406.212	75.88
406.436	68.88
406.66	77.88
406.883	68.88
407.107	67.88
407.331	85.88
407.555	79.88
407.778	68.88
408.002	90.88
408.226	88.88
408.449	81.88
408.673	76.88
408.896	73.88
409.12	77.88
409.344	92.88
409.567	71.88
409.791	77.88
410.014	67.88
410.238	82.88
410.461	84.88
410.685	82.88
410.908	81.88
411.132	93.88
411.355	74.88
411.578	82.88
411.802	78.88
412.025	79.88
412.249	84.88
412.472	73.88
412.695	86.88
412.919	74.88
413.142	84.88
413.365	78.88
413.589	81.88
413.812	70.88
414.035	83.88
414.258	79.88
414.482	82.88
414.705	74.88
414.928	76.88
415.151	79.88
415.374	82.88
415.597	67.88
415.821	75.88
416.044	77.88
416.267	75.88
416.49	75.88
416.713	84.88
416.936	73.88
417.159	76.88
417.382	72.88
417.605	86.88
417.828	70.88
418.051	72.88
418.274	75.88
418.497	97.88
418.72	86.88
418.943	78.88
419.166	70.88
419.389	72.88
419.611	66.88
419.834	81.88
420.057	80.88
420.28	101.88
420.503	86.88
420.726	69.88
420.948	72.88
421.171	71.88
421.394	80.88
421.617	71.88
421.839	74.88
422.062	75.88
422.285	78.88
422.507	90.88
422.73	79.88
422.953	74.88
423.175	63.88
423.398	72.88
423.621	71.88
423.843	65.88
424.066	72.88
424.288	74.88
424.511	72.88
424.733	70.88
424.956	70.88
425.178	90.88
425.401	87.88
425.623	76.88
425.846	72.88
426.068	72.88
426.291	87.88
426.513	74.88
426.735	79.88
426.958	74.88
427.18	69.88
427.402	63.88
427.625	87.88
427.847	76.88
428.069	71.88
428.292	72.88
428.514	77.88
428.736	71.88
428.958	60.88
429.181	78.88
429.403	78.88
429.625	89.88
429.847	74.88
430.069	79.88
430.292	64.88
430.514	80.88
430.736	58.88
430.958	81.88
431.18	76.88
431.402	80.88
431.624	88.88
431.846	71.88
432.068	92.88
432.29	67.88
432.512	81.88
432.734	76.88
432.956	63.88
433.178	78.88
433.4	65.88
433.622	70.88
433.844	65.88
434.066	77.88
434.287	85.88
434.509	79.88
434.731	78.88
434.953	77.88
435.175	70.88
435.397	86.88
435.618	81.88
435.84	92.88
436.062	75.88
436.284	78.88
436.505	70.88
436.727	66.88
436.949	65.88
437.17	69.88
437.392	86.88
437.614	76.88
437.835	69.88
438.057	79.88
438.278	74.88
438.5	65.88
438.721	78.88
438.943	73.88
439.165	86.88
439.386	69.88
439.608	71.88
439.829	71.88
440.05	79.88
440.272	74.88
440.493	83.88
440.715	79.88
440.936	81.88
441.158	74.88
441.379	80.88
441.6	69.88
441.822	72.88
442.043	79.88
442.264	73.88
442.486	76.88
442.707	81.88
442.928	78.88
443.149	78.88
443.371	85.88
443.592	70.88
443.813	73.88
444.034	75.88
444.255	72.88
444.476	71.88
444.698	90.88
444.919	65.88
445.14	134.88
445.361	110.88
445.582	96.88
445.803	76.88
446.024	81.88
446.245	68.88
446.466	74.88
446.687	72.88
446.908	71.88
447.129	78.88
447.35	76.88
447.571	66.88
447.792	70.88
448.013	91.88
448.234	65.88
448.455	80.88
448.675	90.88
448.896	71.88
449.117	81.88
449.338	77.88
449.559	67.88
449.779	86.88
450	71.88
450.221	76.88
450.442	86.88
450.662	87.88
450.883	83.88
451.104	78.88
451.324	67.88
451.545	81.88
451.766	60.88
451.986	81.88
452.207	83.88
452.428	90.88
452.648	77.88
452.869	76.88
453.089	75.88
453.31	84.88
453.53	65.88
453.751	82.88
453.971	75.88
454.192	77.88
454.412	82.88
454.633	90.88
454.853	88.88
455.073	67.88
455.294	88.88
455.514	68.88
455.734	66.88
455.955	70.88
456.175	78.88
456.395	71.88
456.616	70.88
456.836	74.88
457.056	73.88
457.276	72.88
457.497	73.88
457.717	87.88
457.937	79.88
458.157	74.88
458.377	77.88
458.598	76.88
458.818	83.88
459.038	70.88
459.258	72.88
459.478	80.88
459.698	68.88
459.918	91.88
460.138	70.88
460.358	66.88
460.578	88.88
460.798	83.88
461.018	65.88
461.238	74.88
461.458	59.88
461.678	70.88
461.898	80.88
462.118	77.88
462.338	82.88
462.558	68.88
462.777	75.88
462.997	70.88
463.217	85.88
463.437	74.88
463.657	76.88
463.876	80.88
464.096	75.88
464.316	69.88
464.536	80.88
464.755	80.88
464.975	90.88
465.195	74.88
465.414	84.88
465.634	74.88
465.854	71.88
466.073	85.88
466.293	78.88
466.512	78.88
466.732	60.88
466.951	83.88
467.171	81.88
467.391	97.88
467.61	73.88
467.829	73.88
468.049	76.88
468.268	81.88
468.488	80.88
468.707	84.88
468.927	76.88
469.146	79.88
469.365	73.88
469.585	75.88
469.804	75.88
470.023	71.88
470.243	81.88
470.462	87.88
470.681	77.88
470.901	74.88
471.12	76.88
471.339	79.88
471.558	85.88
471.777	66.88
471.997	69.88
472.216	76.88
472.435	81.88
472.654	78.88
472.873	93.88
473.092	71.88
473.311	89.88
473.53	80.88
473.749	88.88
473.968	86.88
474.187	87.88
474.406	73.88
474.625	86.88
474.844	80.88
475.063	80.88
475.282	74.88
475.501	69.88
475.72	80.88
475.939	89.88
476.158	82.88
476.377	63.88
476.596	72.88
476.814	80.88
477.033	69.88
477.252	94.88
477.471	87.88
477.69	71.88
477.908	80.88
478.127	80.88
478.346	82.88
478.564	70.88
478.783	72.88
479.002	88.88
479.22	91.88
479.439	71.88
479.658	76.88
479.876	70.88
480.095	80.88
480.313	96.88
480.532	76.88
480.751	73.88
480.969	85.88
481.188	88.88
481.406	77.88
481.624	76.88
481.843	59.88
482.061	62.88
482.28	73.88
482.498	80.88
482.717	83.88
482.935	77.88
483.153	84.88
483.372	80.88
483.59	86.88
483.808	84.88
484.027	84.88
484.245	93.88
484.463	69.88
484.681	95.88
484.9	86.88
485.118	86.88
485.336	82.88
485.554	80.88
485.772	70.88
485.99	83.88
486.209	77.88
486.427	84.88
486.645	91.88
486.863	85.88
487.081	72.88
487.299	84.88
487.517	76.88
487.735	74.88
487.953	77.88
488.171	76.88
488.389	73.88
488.607	79.88
488.825	74.88
489.043	83.88
489.261	72.88
489.479	76.88
489.696	76.88
489.914	66.88
490.132	76.88
490.35	79.88
490.568	77.88
490.786	95.88
491.003	81.88
491.221	72.88
491.439	71.88
491.657	74.88
491.874	75.88
492.092	79.88
492.31	73.88
492.527	81.88
492.745	87.88
492.963	78.88
493.18	75.88
493.398	72.88
493.615	72.88
493.833	87.88
494.05	65.88
494.268	65.88
494.485	85.88
494.703	93.88
494.92	79.88
495.138	79.88
495.355	77.88
495.573	66.88
495.79	75.88
496.008	76.88
496.225	78.88
496.442	72.88
496.66	95.88
496.877	90.88
497.094	80.88
497.312	77.88
497.529	69.88
497.746	76.88
497.963	69.88
498.181	76.88
498.398	78.88
498.615	82.88
498.832	71.88
499.049	65.88
499.267	68.88
499.484	86.88
499.701	65.88
499.918	82.88
500.135	80.88
500.352	74.88
500.569	84.88
500.786	84.88
501.003	74.88
501.22	75.88
501.437	85.88
501.654	61.88
501.871	75.88
502.088	79.88
502.305	80.88
502.522	84.88
502.739	68.88
502.956	82.88
503.172	76.88
503.389	86.88
503.606	72.88
503.823	69.88
504.04	85.88
504.256	72.88
504.473	69.88
504.69	81.88
504.907	88.88
505.123	67.88
505.34	76.88
505.557	80.88
505.773	79.88
505.99	76.88
506.207	75.88
506.423	77.88
506.64	87.88
506.856	76.88
507.073	84.88
507.289	78.88
507.506	74.88
507.722	85.88
507.939	87.88
508.155	70.88
508.372	80.88
508.588	82.88
508.805	68.88
509.021	82.88
509.238	72.88
509.454	74.88
509.67	81.88
509.887	79.88
510.103	72.88
510.319	91.88
510.536	82.88
510.752	83.88
510.968	84.88
511.184	75.88
511.401	73.88
511.617	61.88
511.833	96.88
512.049	91.88
512.265	67.88
512.481	78.88
512.698	82.88
512.914	72.88
513.13	85.88
513.346	80.88
513.562	82.88
513.778	84.88
513.994	70.88
514.21	78.88
514.426	78.88
514.642	84.88
514.858	85.88
515.074	87.88
515.29	82.88
515.506	78.88
515.721	82.88
515.937	79.88
516.153	84.88
516.369	72.88
516.585	81.88
516.801	72.88
517.016	70.88
517.232	75.88
517.448	89.88
517.664	75.88
517.879	77.88
518.095	81.88
518.311	88.88
518.527	86.88
518.742	86.88
518.958	78.88
519.173	80.88
519.389	98.88
519.605	78.88
519.82	85.88
520.036	65.88
520.251	80.88
520.467	79.88
520.682	82.88
520.898	81.88
521.113	79.88
521.329	85.88
521.544	80.88
521.76	82.88
521.975	64.88
522.19	91.88
522.406	74.88
522.621	70.88
522.836	95.88
523.052	91.88
523.267	67.88
523.482	76.88
523.698	72.88
523.913	69.88
524.128	74.88
524.343	70.88
524.559	81.88
524.774	64.88
524.989	68.88
525.204	85.88
525.419	79.88
525.634	81.88
525.849	61.88
526.064	70.88
526.28	88.88
526.495	90.88
526.71	79.88
526.925	80.88
527.14	74.88
527.355	92.88
527.57	74.88
527.785	81.88
527.999	84.88
528.214	82.88
528.429	95.88
528.644	69.88
528.859	72.88
529.074	78.88
529.289	103.88
529.503	75.88
529.718	76.88
529.933	84.88
530.148	84.88
530.363	79.88
530.577	88.88
530.792	84.88
531.007	81.88
531.221	87.88
531.436	82.88
531.651	87.88
531.865	68.88
532.08	87.88
532.295	73.88
532.509	76.88
532.724	81.88
532.938	79.88
533.153	78.88
533.367	73.88
533.582	93.88
533.796	77.88
534.011	80.88
534.225	76.88
534.44	84.88
534.654	87.88
534.868	89.88
535.083	78.88
535.297	72.88
535.511	70.88
535.726	79.88
535.94	81.88
536.154	79.88
536.369	67.88
536.583	79.88
536.797	87.88
537.011	68.88
537.225	94.88
537.44	73.88
537.654	75.88
537.868	93.88
538.082	84.88
538.296	79.88
538.51	90.88
538.724	71.88
538.938	86.88
539.153	86.88
539.367	83.88
539.581	58.88
539.795	73.88
540.009	89.88
540.222	78.88
540.436	86.88
540.65	86.88
540.864	72.88
541.078	92.88
541.292	89.88
541.506	81.88
541.72	72.88
541.934	86.88
542.147	68.88
542.361	81.88
542.575	84.88
542.789	82.88
543.002	66.88
543.216	88.88
543.43	71.88
543.644	81.88
543.857	79.88
544.071	81.88
544.285	84.88
544.498	72.88
544.712	86.88
544.925	74.88
545.139	92.88
545.352	72.88
545.566	77.88
545.779	77.88
545.993	89.88
546.206	89.88
546.42	80.88
546.633	72.88
546.847	82.88
547.06	82.88
547.274	79.88
547.487	84.88
547.7	87.88
547.914	87.88
548.127	78.88
548.34	96.88
548.554	86.88
548.767	84.88
548.98	83.88
549.193	74.88
549.407	84.88
549.62	66.88
549.833	76.88
550.046	84.88
550.259	96.88
550.473	83.88
550.686	80.88
550.899	80.88
551.112	72.88
551.325	88.88
551.538	76.88
551.751	76.88
551.964	97.88
552.177	84.88
552.39	69.88
552.603	83.88
552.816	80.88
553.029	59.88
553.242	78.88
553.455	89.88
553.667	74.88
553.88	81.88
554.093	89.88
554.306	83.88
554.519	77.88
554.732	76.88
554.944	77.88
555.157	85.88
555.37	84.88
555.583	67.88
555.795	89.88
556.008	62.88
556.221	64.88
556.433	71.88
556.646	90.88
556.859	73.88
557.071	95.88
557.284	79.88
557.496	96.88
557.709	76.88
557.921	91.88
558.134	77.88
558.346	80.88
558.559	71.88
558.771	87.88
558.984	74.88
559.196	69.88
559.409	71.88
559.621	85.88
559.833	91.88
560.046	92.88
560.258	59.88
560.47	93.88
560.683	82.88
560.895	91.88
561.107	85.88
561.32	89.88
561.532	100.88
561.744	89.88
561.956	83.88
562.168	92.88
562.381	68.88
562.593	79.88
562.805	88.88
563.017	96.88
563.229	81.88
563.441	92.88
563.653	94.88
563.865	89.88
564.077	73.88
564.289	82.88
564.501	94.88
564.713	86.88
564.925	81.88
565.137	77.88
565.349	87.88
565.561	81.88
565.773	88.88
565.985	74.88
566.197	76.88
566.408	91.88
566.62	87.88
566.832	72.88
567.044	65.88
567.255	75.88
567.467	78.88
567.679	89.88
567.891	84.88
568.102	71.88
568.314	92.88
568.526	86.88
568.737	96.88
568.949	88.88
569.161	74.88
569.372	80.88
569.584	95.88
569.795	84.88
570.007	84.88
570.218	77.88
570.43	84.88
570.641	82.88
570.853	74.88
571.064	79.88
571.276	80.88
571.487	86.88
571.698	87.88
571.91	102.88
572.121	88.88
572.333	79.88
572.544	74.88
572.755	82.88
572.966	95.88
573.178	93.88
573.389	78.88
573.6	70.88
573.811	89.88
574.023	83.88
574.234	88.88
574.445	84.88
574.656	76.88
574.867	91.88
575.078	79.88
575.289	87.88
575.501	83.88
575.712	72.88
575.923	71.88
576.134	77.88
576.345	84.88
576.556	70.88
576.767	72.88
576.978	83.88
577.188	73.88
577.399	72.88
577.61	87.88
577.821	82.88
578.032	62.88
578.243	82.88
578.454	87.88
578.665	74.88
578.875	85.88
579.086	80.88
579.297	92.88
579.508	89.88
579.718	72.88
579.929	73.88
580.14	83.88
580.35	86.88
580.561	78.88
580.772	90.88
580.982	77.88
581.193	83.88
581.403	81.88
581.614	88.88
581.825	88.88
582.035	95.88
582.246	89.88
582.456	85.88
582.667	98.88
582.877	90.88
583.087	78.88
583.298	84.88
583.508	68.88
583.719	69.88
583.929	90.88
584.139	89.88
584.35	89.88
584.56	85.88
584.77	65.88
584.981	82.88
585.191	86.88
585.401	77.88
585.611	85.88
585.821	85.88
586.032	93.88
586.242	95.88
586.452	88.88
586.662	68.88
586.872	82.88
587.082	74.88
587.292	83.88
587.502	86.88
587.713	68.88
587.923	96.88
588.133	87.88
588.343	80.88
588.553	80.88
588.762	87.88
588.972	85.88
589.182	70.88
589.392	92.88
589.602	87.88
589.812	72.88
590.022	90.88
590.232	93.88
590.441	78.88
590.651	79.88
590.861	83.88
591.071	82.88
591.281	83.88
591.49	77.88
591.7	95.88
591.91	68.88
592.119	80.88
592.329	77.88
592.539	77.88
592.748	86.88
592.958	85.88
593.167	74.88
593.377	84.88
593.587	79.88
593.796	81.88
594.006	77.88
594.215	87.88
594.424	77.88
594.634	68.88
594.843	78.88
595.053	85.88
595.262	90.88
595.472	94.88
595.681	64.88
595.89	84.88
596.1	80.88
596.309	81.88
596.518	89.88
596.727	92.88
596.937	79.88
597.146	89.88
597.355	94.88
597.564	78.88
597.774	72.88
597.983	81.88
598.192	72.88
598.401	79.88
598.61	71.88
598.819	84.88
599.028	85.88
599.237	81.88
599.446	68.88
599.655	70.88
599.864	85.88
600.073	90.88
600.282	78.88
600.491	81.88
600.7	86.88
600.909	75.88
601.118	81.88
601.327	69.88
601.536	90.88
601.745	93.88
601.953	80.88
602.162	84.88
602.371	81.88
602.58	82.88
602.789	86.88
602.997	84.88
603.206	89.88
603.415	91.88
603.623	87.88
603.832	82.88
604.041	81.88
604.249	85.88
604.458	83.88
604.666	78.88
604.875	80.88
605.084	77.88
605.292	80.88
605.501	81.88
605.709	85.88
605.918	92.88
606.126	80.88
606.334	77.88
606.543	96.88
606.751	77.88
606.96	89.88
607.168	82.88
607.376	76.88
607.585	89.88
607.793	95.88
608.001	85.88
608.21	74.88
608.418	86.88
608.626	70.88
608.834	81.88
609.043	76.88
609.251	82.88
609.459	73.88
609.667	89.88
609.875	87.88
610.083	84.88
610.291	89.88
610.499	75.88
610.707	86.88
610.916	86.88
611.124	72.88
611.332	93.88
611.54	73.88
611.748	85.88
611.955	65.88
612.163	68.88
612.371	80.88
612.579	81.88
612.787	75.88
612.995	88.88
613.203	93.88
613.411	80.88
613.618	70.88
613.826	68.88
614.034	72.88
614.242	83.88
614.449	88.88
614.657	74.88
614.865	86.88
615.072	82.88
615.28	85.88
615.488	78.88
615.695	80.88
615.903	72.88
616.111	74.88
616.318	61.88
616.526	79.88
616.733	84.88
616.941	75.88
617.148	77.88
617.356	78.88
617.563	84.88
617.771	88.88
617.978	73.88
618.185	76.88
618.393	89.88
618.6	87.88
618.807	70.88
619.015	69.88
619.222	94.88
619.429	84.88
619.637	81.88
619.844	75.88
620.051	74.88
620.258	77.88
620.466	66.88
620.673	61.88
620.88	83.88
621.087	79.88
621.294	82.88
621.501	90.88
621.708	89.88
621.915	80.88
622.122	77.88
622.329	83.88
622.536	77.88
622.743	77.88
622.95	87.88
623.157	85.88
623.364	91.88
623.571	79.88
623.778	80.88
623.985	85.88
624.192	76.88
624.399	72.88
624.606	69.88
624.812	81.88
625.019	88.88
625.226	76.88
625.433	80.88
625.639	84.88
625.846	82.88
626.053	72.88
626.259	79.88
626.466	78.88
626.673	84.88
626.879	94.88
627.086	83.88
627.293	79.88
627.499	69.88
627.706	90.88
627.912	73.88
628.119	73.88
628.325	73.88
628.532	84.88
628.738	87.88
628.945	92.88
629.151	86.88
629.357	85.88
629.564	78.88
629.77	80.88
629.976	66.88
630.183	79.88
630.389	71.88
630.595	92.88
630.802	81.88
631.008	85.88
631.214	73.88
631.42	85.88
631.627	66.88
631.833	79.88
632.039	88.88
632.245	92.88
632.451	80.88
632.657	77.88
632.863	82.88
633.069	67.88
633.275	67.88
633.481	91.88
633.688	80.88
633.893	85.88
634.099	90.88
634.305	75.88
634.511	78.88
634.717	64.88
634.923	88.88
635.129	77.88
635.335	89.88
635.541	70.88
635.747	72.88
635.952	85.88
636.158	76.88
636.364	74.88
636.57	74.88
636.775	59.88
636.981	80.88
637.187	71.88
637.392	69.88
637.598	68.88
637.804	87.88
638.009	80.88
638.215	77.88
638.421	86.88
638.626	65.88
638.832	88.88
639.037	66.88
639.243	80.88
639.448	75.88
639.654	89.88
639.859	74.88
640.065	90.88
640.27	89.88
640.475	76.88
640.681	69.88
640.886	85.88
641.091	82.88
641.297	83.88
641.502	94.88
641.707	77.88
641.913	96.88
642.118	79.88
642.323	86.88
642.528	75.88
642.733	80.88
642.939	83.88
643.144	88.88
643.349	91.88
643.554	82.88
643.759	71.88
643.964	86.88
644.169	66.88
644.374	85.88
644.579	89.88
644.784	87.88
644.989	78.88
645.194	76.88
645.399	73.88
645.604	74.88
645.809	80.88
646.014	68.88
646.219	95.88
646.423	76.88
646.628	77.88
646.833	77.88
647.038	82.88
647.243	76.88
647.447	81.88
647.652	87.88
647.857	81.88
648.062	78.88
648.266	79.88
648.471	86.88
648.676	86.88
648.88	76.88
649.085	76.88
649.289	88.88
649.494	75.88
649.698	74.88
649.903	76.88
650.107	63.88
650.312	73.88
650.516	84.88
650.721	88.88
650.925	79.88
651.13	88.88
651.334	84.88
651.539	77.88
651.743	77.88
651.947	81.88
652.152	86.88
652.356	79.88
652.56	87.88
652.764	61.88
652.969	76.88
653.173	84.88
653.377	82.88
653.581	72.88
653.785	82.88
653.99	66.88
654.194	72.88
654.398	70.88
654.602	72.88
654.806	86.88
655.01	73.88
655.214	74.88
655.418	77.88
655.622	78.88
655.826	81.88
656.03	85.88
656.234	71.88
656.438	80.88
656.642	92.88
656.846	90.88
657.049	77.88
657.253	84.88
657.457	70.88
657.661	73.88
657.865	75.88
658.068	78.88
658.272	82.88
658.476	89.88
658.68	77.88
658.883	76.88
659.087	73.88
659.291	71.88
659.494	76.88
659.698	85.88
659.901	76.88
660.105	78.88
660.309	65.88
660.512	81.88
660.716	72.88
660.919	70.88
661.123	80.88
661.326	79.88
661.53	75.88
661.733	62.88
661.936	88.88
662.14	74.88
662.343	81.88
662.546	68.88
662.75	88.88
662.953	72.88
663.156	81.88
663.36	65.88
663.563	67.88
663.766	75.88
663.969	88.88
664.173	88.88
664.376	74.88
664.579	83.88
664.782	76.88
664.985	78.88
665.188	90.88
665.391	86.88
665.594	84.88
665.797	73.88
666	70.88
666.203	62.88
666.406	77.88
666.609	86.88
666.812	77.88
667.015	89.88
667.218	82.88
667.421	72.88
667.624	65.88
667.827	80.88
668.03	74.88
668.232	84.88
668.435	78.88
668.638	81.88
668.841	79.88
669.043	70.88
669.246	94.88
669.449	85.88
669.651	76.88
669.854	88.88
670.057	81.88
670.259	70.88
670.462	65.88
670.665	84.88
670.867	86.88
671.07	84.88
671.272	80.88
671.475	81.88
671.677	92.88
671.88	88.88
672.082	62.88
672.284	73.88
672.487	64.88
672.689	84.88
672.892	92.88
