Data from Background_1_HRD10591_00063.txt Node
Date: Wed Nov 05 14:39:29 EST 2025
User: Yrep
Spectrometer: HR+D1059
Trigger mode: 1
Integration Time (sec): 1.000000E-1
Scans to average: 1
Electric dark correction enabled: true
Nonlinearity correction enabled: false
Boxcar width: 0
XAxis mode: Wavelengths
Number of Pixels in Spectrum: 2048
>>>>>Begin Spectral Data<<<<<
223.165	-29.19
223.4	-29.19
223.635	-29.19
223.869	-19.19
224.104	-17.19
224.338	-5.19
224.573	-15.19
224.808	-18.19
225.042	-6.19
225.277	-4.19
225.511	6.81
225.746	3.81
225.98	5.81
226.215	15.81
226.449	1.81
226.683	16.81
226.918	26.81
227.152	36.81
227.387	47.81
227.621	53.81
227.856	45.81
228.09	48.81
228.324	45.81
228.559	64.81
228.793	53.81
229.027	71.81
229.262	82.81
229.496	69.81
229.73	68.81
229.964	77.81
230.199	71.81
230.433	78.81
230.667	72.81
230.901	69.81
231.136	82.81
231.37	62.81
231.604	90.81
231.838	87.81
232.072	75.81
232.306	84.81
232.541	90.81
232.775	84.81
233.009	86.81
233.243	84.81
233.477	69.81
233.711	76.81
233.945	72.81
234.179	86.81
234.413	81.81
234.647	82.81
234.881	82.81
235.115	81.81
235.349	75.81
235.583	95.81
235.817	73.81
236.051	85.81
236.285	85.81
236.519	66.81
236.753	88.81
236.987	68.81
237.221	80.81
237.455	88.81
237.689	90.81
237.922	65.81
238.156	71.81
238.39	86.81
238.624	76.81
238.858	76.81
239.091	86.81
239.325	82.81
239.559	75.81
239.793	66.81
240.027	70.81
240.26	77.81
240.494	69.81
240.728	73.81
240.961	83.81
241.195	77.81
241.429	85.81
241.662	78.81
241.896	77.81
242.13	81.81
242.363	93.81
242.597	78.81
242.83	79.81
243.064	80.81
243.298	66.81
243.531	84.81
243.765	75.81
243.998	87.81
244.232	75.81
244.465	84.81
244.699	64.81
244.932	79.81
245.166	80.81
245.399	89.81
245.633	79.81
245.866	67.81
246.099	94.81
246.333	81.81
246.566	84.81
246.8	80.81
247.033	75.81
247.266	68.81
247.5	79.81
247.733	75.81
247.966	79.81
248.2	94.81
248.433	67.81
248.666	72.81
248.899	85.81
249.133	83.81
249.366	74.81
249.599	87.81
249.832	71.81
250.066	84.81
250.299	93.81
250.532	89.81
250.765	91.81
250.998	74.81
251.231	78.81
251.465	90.81
251.698	60.81
251.931	81.81
252.164	65.81
252.397	78.81
252.63	77.81
252.863	89.81
253.096	89.81
253.329	84.81
253.562	82.81
253.795	87.81
254.028	86.81
254.261	80.81
254.494	97.81
254.727	80.81
254.96	81.81
255.193	66.81
255.426	65.81
255.659	70.81
255.892	69.81
256.124	89.81
256.357	70.81
256.59	77.81
256.823	70.81
257.056	85.81
257.289	84.81
257.521	82.81
257.754	90.81
257.987	93.81
258.22	70.81
258.452	81.81
258.685	81.81
258.918	86.81
259.151	84.81
259.383	101.81
259.616	95.81
259.849	88.81
260.081	86.81
260.314	85.81
260.547	59.81
260.779	86.81
261.012	79.81
261.244	68.81
261.477	94.81
261.71	89.81
261.942	78.81
262.175	65.81
262.407	87.81
262.64	85.81
262.872	74.81
263.105	79.81
263.337	80.81
263.57	74.81
263.802	84.81
264.035	84.81
264.267	74.81
264.499	80.81
264.732	80.81
264.964	86.81
265.197	88.81
265.429	95.81
265.661	83.81
265.894	94.81
266.126	73.81
266.358	95.81
266.591	90.81
266.823	89.81
267.055	84.81
267.287	92.81
267.52	87.81
267.752	92.81
267.984	73.81
268.216	79.81
268.448	89.81
268.681	95.81
268.913	87.81
269.145	86.81
269.377	87.81
269.609	85.81
269.841	82.81
270.073	96.81
270.306	82.81
270.538	83.81
270.77	81.81
271.002	86.81
271.234	94.81
271.466	78.81
271.698	89.81
271.93	84.81
272.162	81.81
272.394	89.81
272.626	87.81
272.858	95.81
273.09	87.81
273.322	68.81
273.553	85.81
273.785	95.81
274.017	76.81
274.249	85.81
274.481	86.81
274.713	85.81
274.945	88.81
275.176	81.81
275.408	81.81
275.64	75.81
275.872	84.81
276.104	88.81
276.335	93.81
276.567	85.81
276.799	93.81
277.031	79.81
277.262	90.81
277.494	78.81
277.726	83.81
277.957	82.81
278.189	83.81
278.421	84.81
278.652	87.81
278.884	86.81
279.115	90.81
279.347	97.81
279.579	76.81
279.81	95.81
280.042	99.81
280.273	87.81
280.505	87.81
280.736	80.81
280.968	77.81
281.199	92.81
281.431	71.81
281.662	79.81
281.894	90.81
282.125	87.81
282.356	75.81
282.588	73.81
282.819	79.81
283.051	71.81
283.282	83.81
283.513	93.81
283.745	76.81
283.976	89.81
284.207	77.81
284.439	92.81
284.67	83.81
284.901	81.81
285.132	91.81
285.364	87.81
285.595	92.81
285.826	91.81
286.057	89.81
286.288	93.81
286.52	89.81
286.751	79.81
286.982	86.81
287.213	83.81
287.444	86.81
287.675	89.81
287.906	86.81
288.138	82.81
288.369	95.81
288.6	92.81
288.831	75.81
289.062	73.81
289.293	77.81
289.524	79.81
289.755	82.81
289.986	76.81
290.217	76.81
290.448	97.81
290.679	87.81
290.91	99.81
291.141	93.81
291.371	77.81
291.602	83.81
291.833	103.81
292.064	70.81
292.295	76.81
292.526	79.81
292.757	86.81
292.987	78.81
293.218	79.81
293.449	76.81
293.68	89.81
293.91	83.81
294.141	89.81
294.372	83.81
294.603	76.81
294.833	71.81
295.064	93.81
295.295	81.81
295.525	84.81
295.756	86.81
295.987	76.81
296.217	73.81
296.448	77.81
296.679	86.81
296.909	76.81
297.14	89.81
297.37	85.81
297.601	82.81
297.831	75.81
298.062	76.81
298.292	80.81
298.523	89.81
298.753	74.81
298.984	93.81
299.214	82.81
299.445	77.81
299.675	78.81
299.905	93.81
300.136	85.81
300.366	92.81
300.597	84.81
300.827	94.81
301.057	83.81
301.288	86.81
301.518	108.81
301.748	84.81
301.979	97.81
302.209	85.81
302.439	74.81
302.669	78.81
302.9	87.81
303.13	90.81
303.36	82.81
303.59	91.81
303.82	99.81
304.051	82.81
304.281	87.81
304.511	95.81
304.741	84.81
304.971	79.81
305.201	94.81
305.431	86.81
305.661	77.81
305.891	82.81
306.121	92.81
306.352	91.81
306.582	82.81
306.812	77.81
307.042	84.81
307.272	100.81
307.502	82.81
307.731	91.81
307.961	79.81
308.191	83.81
308.421	92.81
308.651	88.81
308.881	92.81
309.111	76.81
309.341	97.81
309.571	79.81
309.8	83.81
310.03	74.81
310.26	94.81
310.49	77.81
310.72	90.81
310.949	87.81
311.179	90.81
311.409	86.81
311.639	86.81
311.868	97.81
312.098	85.81
312.328	81.81
312.557	90.81
312.787	89.81
313.017	87.81
313.246	82.81
313.476	74.81
313.706	89.81
313.935	79.81
314.165	69.81
314.394	79.81
314.624	84.81
314.853	94.81
315.083	76.81
315.312	82.81
315.542	90.81
315.771	97.81
316.001	78.81
316.23	89.81
316.46	97.81
316.689	78.81
316.919	89.81
317.148	89.81
317.377	77.81
317.607	84.81
317.836	86.81
318.065	87.81
318.295	69.81
318.524	97.81
318.753	84.81
318.983	81.81
319.212	92.81
319.441	95.81
319.67	89.81
319.9	81.81
320.129	79.81
320.358	92.81
320.587	86.81
320.816	91.81
321.046	76.81
321.275	92.81
321.504	93.81
321.733	96.81
321.962	80.81
322.191	70.81
322.42	77.81
322.649	87.81
322.878	84.81
323.108	89.81
323.337	99.81
323.566	93.81
323.795	70.81
324.024	81.81
324.253	81.81
324.482	87.81
324.71	84.81
324.939	76.81
325.168	83.81
325.397	73.81
325.626	85.81
325.855	92.81
326.084	87.81
326.313	90.81
326.542	73.81
326.77	82.81
326.999	94.81
327.228	67.81
327.457	84.81
327.686	91.81
327.914	91.81
328.143	80.81
328.372	85.81
328.6	87.81
328.829	74.81
329.058	91.81
329.287	78.81
329.515	79.81
329.744	87.81
329.972	94.81
330.201	93.81
330.43	87.81
330.658	83.81
330.887	90.81
331.115	83.81
331.344	86.81
331.572	87.81
331.801	90.81
332.03	90.81
332.258	85.81
332.486	101.81
332.715	74.81
332.943	91.81
333.172	90.81
333.4	96.81
333.629	90.81
333.857	92.81
334.085	74.81
334.314	80.81
334.542	78.81
334.771	91.81
334.999	81.81
335.227	82.81
335.455	77.81
335.684	83.81
335.912	85.81
336.14	83.81
336.369	90.81
336.597	94.81
336.825	77.81
337.053	95.81
337.281	77.81
337.51	81.81
337.738	76.81
337.966	94.81
338.194	93.81
338.422	79.81
338.65	82.81
338.878	86.81
339.106	91.81
339.334	81.81
339.562	84.81
339.79	85.81
340.018	94.81
340.246	66.81
340.474	78.81
340.702	82.81
340.93	83.81
341.158	74.81
341.386	83.81
341.614	75.81
341.842	75.81
342.07	94.81
342.298	80.81
342.526	78.81
342.754	84.81
342.981	81.81
343.209	97.81
343.437	91.81
343.665	86.81
343.893	89.81
344.12	82.81
344.348	81.81
344.576	84.81
344.804	64.81
345.031	77.81
345.259	84.81
345.487	93.81
345.714	85.81
345.942	81.81
346.17	95.81
346.397	85.81
346.625	86.81
346.853	98.81
347.08	70.81
347.308	95.81
347.535	91.81
347.763	83.81
347.99	77.81
348.218	83.81
348.445	75.81
348.673	91.81
348.9	93.81
349.128	95.81
349.355	84.81
349.583	96.81
349.81	78.81
350.037	87.81
350.265	83.81
350.492	82.81
350.72	84.81
350.947	87.81
351.174	78.81
351.402	84.81
351.629	84.81
351.856	76.81
352.083	79.81
352.311	88.81
352.538	79.81
352.765	82.81
352.992	93.81
353.22	77.81
353.447	87.81
353.674	93.81
353.901	84.81
354.128	88.81
354.355	92.81
354.583	81.81
354.81	81.81
355.037	92.81
355.264	79.81
355.491	96.81
355.718	85.81
355.945	88.81
356.172	85.81
356.399	72.81
356.626	76.81
356.853	80.81
357.08	71.81
357.307	72.81
357.534	79.81
357.761	85.81
357.988	73.81
358.215	88.81
358.441	81.81
358.668	81.81
358.895	91.81
359.122	82.81
359.349	67.81
359.576	84.81
359.802	72.81
360.029	100.81
360.256	86.81
360.483	83.81
360.709	81.81
360.936	99.81
361.163	90.81
361.39	77.81
361.616	79.81
361.843	73.81
362.07	90.81
362.296	86.81
362.523	90.81
362.749	85.81
362.976	93.81
363.203	79.81
363.429	78.81
363.656	74.81
363.882	86.81
364.109	92.81
364.335	84.81
364.562	91.81
364.788	83.81
365.015	94.81
365.241	84.81
365.468	87.81
365.694	80.81
365.92	87.81
366.147	75.81
366.373	68.81
366.599	75.81
366.826	86.81
367.052	72.81
367.278	82.81
367.505	61.81
367.731	78.81
367.957	91.81
368.184	94.81
368.41	94.81
368.636	92.81
368.862	87.81
369.089	89.81
369.315	88.81
369.541	95.81
369.767	72.81
369.993	75.81
370.219	73.81
370.445	88.81
370.672	83.81
370.898	81.81
371.124	100.81
371.35	75.81
371.576	79.81
371.802	90.81
372.028	86.81
372.254	98.81
372.48	85.81
372.706	93.81
372.932	79.81
373.158	87.81
373.384	87.81
373.61	92.81
373.835	76.81
374.061	82.81
374.287	91.81
374.513	84.81
374.739	84.81
374.965	97.81
375.191	78.81
375.416	75.81
375.642	79.81
375.868	90.81
376.094	77.81
376.319	77.81
376.545	79.81
376.771	72.81
376.997	85.81
377.222	88.81
377.448	82.81
377.674	88.81
377.899	71.81
378.125	81.81
378.35	97.81
378.576	77.81
378.802	86.81
379.027	93.81
379.253	85.81
379.478	84.81
379.704	72.81
379.929	90.81
380.155	71.81
380.38	83.81
380.606	86.81
380.831	69.81
381.057	94.81
381.282	79.81
381.507	73.81
381.733	87.81
381.958	99.81
382.184	89.81
382.409	91.81
382.634	77.81
382.86	78.81
383.085	86.81
383.31	95.81
383.535	87.81
383.761	70.81
383.986	89.81
384.211	84.81
384.436	80.81
384.662	89.81
384.887	81.81
385.112	85.81
385.337	82.81
385.562	76.81
385.787	83.81
386.013	77.81
386.238	91.81
386.463	90.81
386.688	88.81
386.913	85.81
387.138	83.81
387.363	82.81
387.588	80.81
387.813	69.81
388.038	78.81
388.263	89.81
388.488	73.81
388.713	77.81
388.938	100.81
389.163	79.81
389.387	77.81
389.612	84.81
389.837	94.81
390.062	78.81
390.287	84.81
390.512	75.81
390.736	79.81
390.961	66.81
391.186	90.81
391.411	78.81
391.636	75.81
391.86	66.81
392.085	70.81
392.31	82.81
392.534	86.81
392.759	91.81
392.984	77.81
393.208	83.81
393.433	85.81
393.658	83.81
393.882	76.81
394.107	83.81
394.331	83.81
394.556	89.81
394.78	73.81
395.005	86.81
395.229	88.81
395.454	69.81
395.678	81.81
395.903	76.81
396.127	70.81
396.352	70.81
396.576	83.81
396.801	85.81
397.025	77.81
397.249	78.81
397.474	79.81
397.698	78.81
397.922	82.81
398.147	79.81
398.371	91.81
398.595	85.81
398.82	89.81
399.044	85.81
399.268	78.81
399.492	73.81
399.717	79.81
399.941	67.81
400.165	65.81
400.389	75.81
400.613	78.81
400.837	77.81
401.062	91.81
401.286	86.81
401.51	83.81
401.734	79.81
401.958	91.81
402.182	84.81
402.406	79.81
402.63	83.81
402.854	74.81
403.078	67.81
403.302	82.81
403.526	66.81
403.75	84.81
403.974	77.81
404.198	78.81
404.422	86.81
404.645	83.81
404.869	89.81
405.093	82.81
405.317	79.81
405.541	92.81
405.765	90.81
405.988	80.81
406.212	81.81
406.436	82.81
406.66	84.81
406.883	69.81
407.107	71.81
407.331	83.81
407.555	87.81
407.778	76.81
408.002	76.81
408.226	84.81
408.449	81.81
408.673	85.81
408.896	70.81
409.12	85.81
409.344	89.81
409.567	83.81
409.791	93.81
410.014	81.81
410.238	77.81
410.461	82.81
410.685	87.81
410.908	79.81
411.132	84.81
411.355	71.81
411.578	82.81
411.802	79.81
412.025	65.81
412.249	82.81
412.472	61.81
412.695	82.81
412.919	65.81
413.142	81.81
413.365	89.81
413.589	67.81
413.812	87.81
414.035	88.81
414.258	83.81
414.482	85.81
414.705	94.81
414.928	94.81
415.151	80.81
415.374	85.81
415.597	80.81
415.821	82.81
416.044	74.81
416.267	67.81
416.49	84.81
416.713	85.81
416.936	86.81
417.159	83.81
417.382	85.81
417.605	87.81
417.828	93.81
418.051	97.81
418.274	89.81
418.497	90.81
418.72	82.81
418.943	85.81
419.166	87.81
419.389	78.81
419.611	92.81
419.834	77.81
420.057	80.81
420.28	85.81
420.503	93.81
420.726	81.81
420.948	84.81
421.171	89.81
421.394	92.81
421.617	74.81
421.839	84.81
422.062	77.81
422.285	83.81
422.507	84.81
422.73	72.81
422.953	84.81
423.175	87.81
423.398	74.81
423.621	68.81
423.843	87.81
424.066	59.81
424.288	82.81
424.511	72.81
424.733	84.81
424.956	91.81
425.178	92.81
425.401	81.81
425.623	78.81
425.846	83.81
426.068	78.81
426.291	80.81
426.513	69.81
426.735	75.81
426.958	87.81
427.18	91.81
427.402	83.81
427.625	96.81
427.847	100.81
428.069	75.81
428.292	81.81
428.514	95.81
428.736	75.81
428.958	83.81
429.181	77.81
429.403	85.81
429.625	79.81
429.847	90.81
430.069	70.81
430.292	83.81
430.514	93.81
430.736	84.81
430.958	85.81
431.18	89.81
431.402	83.81
431.624	82.81
431.846	84.81
432.068	81.81
432.29	82.81
432.512	75.81
432.734	93.81
432.956	85.81
433.178	90.81
433.4	77.81
433.622	82.81
433.844	83.81
434.066	102.81
434.287	89.81
434.509	89.81
434.731	86.81
434.953	77.81
435.175	84.81
435.397	82.81
435.618	79.81
435.84	61.81
436.062	76.81
436.284	71.81
436.505	77.81
436.727	90.81
436.949	99.81
437.17	85.81
437.392	77.81
437.614	76.81
437.835	78.81
438.057	87.81
438.278	89.81
438.5	89.81
438.721	72.81
438.943	75.81
439.165	91.81
439.386	88.81
439.608	81.81
439.829	86.81
440.05	71.81
440.272	86.81
440.493	76.81
440.715	80.81
440.936	85.81
441.158	76.81
441.379	61.81
441.6	74.81
441.822	68.81
442.043	69.81
442.264	79.81
442.486	87.81
442.707	75.81
442.928	75.81
443.149	76.81
443.371	82.81
443.592	93.81
443.813	79.81
444.034	62.81
444.255	84.81
444.476	72.81
444.698	75.81
444.919	78.81
445.14	151.81
445.361	109.81
445.582	87.81
445.803	84.81
446.024	88.81
446.245	85.81
446.466	75.81
446.687	66.81
446.908	79.81
447.129	83.81
447.35	87.81
447.571	82.81
447.792	69.81
448.013	59.81
448.234	83.81
448.455	87.81
448.675	83.81
448.896	86.81
449.117	86.81
449.338	70.81
449.559	85.81
449.779	76.81
450	77.81
450.221	61.81
450.442	83.81
450.662	98.81
450.883	93.81
451.104	87.81
451.324	75.81
451.545	76.81
451.766	76.81
451.986	51.81
452.207	75.81
452.428	77.81
452.648	86.81
452.869	91.81
453.089	69.81
453.31	83.81
453.53	80.81
453.751	79.81
453.971	89.81
454.192	79.81
454.412	88.81
454.633	86.81
454.853	64.81
455.073	73.81
455.294	78.81
455.514	92.81
455.734	86.81
455.955	74.81
456.175	78.81
456.395	84.81
456.616	85.81
456.836	88.81
457.056	93.81
457.276	84.81
457.497	75.81
457.717	78.81
457.937	66.81
458.157	85.81
458.377	85.81
458.598	85.81
458.818	70.81
459.038	85.81
459.258	89.81
459.478	88.81
459.698	75.81
459.918	71.81
460.138	86.81
460.358	86.81
460.578	79.81
460.798	96.81
461.018	78.81
461.238	72.81
461.458	90.81
461.678	88.81
461.898	64.81
462.118	85.81
462.338	85.81
462.558	79.81
462.777	76.81
462.997	90.81
463.217	76.81
463.437	82.81
463.657	87.81
463.876	60.81
464.096	77.81
464.316	84.81
464.536	73.81
464.755	79.81
464.975	85.81
465.195	76.81
465.414	77.81
465.634	76.81
465.854	66.81
466.073	84.81
466.293	81.81
466.512	79.81
466.732	99.81
466.951	84.81
467.171	94.81
467.391	90.81
467.61	83.81
467.829	65.81
468.049	77.81
468.268	81.81
468.488	97.81
468.707	86.81
468.927	70.81
469.146	80.81
469.365	68.81
469.585	93.81
469.804	82.81
470.023	78.81
470.243	79.81
470.462	76.81
470.681	80.81
470.901	85.81
471.12	88.81
471.339	77.81
471.558	82.81
471.777	62.81
471.997	78.81
472.216	72.81
472.435	93.81
472.654	83.81
472.873	93.81
473.092	83.81
473.311	88.81
473.53	74.81
473.749	93.81
473.968	79.81
474.187	82.81
474.406	74.81
474.625	76.81
474.844	84.81
475.063	79.81
475.282	72.81
475.501	73.81
475.72	72.81
475.939	83.81
476.158	70.81
476.377	73.81
476.596	89.81
476.814	74.81
477.033	84.81
477.252	67.81
477.471	73.81
477.69	69.81
477.908	86.81
478.127	69.81
478.346	91.81
478.564	86.81
478.783	87.81
479.002	76.81
479.22	91.81
479.439	68.81
479.658	74.81
479.876	72.81
480.095	82.81
480.313	85.81
480.532	62.81
480.751	79.81
480.969	72.81
481.188	70.81
481.406	82.81
481.624	89.81
481.843	77.81
482.061	69.81
482.28	77.81
482.498	87.81
482.717	86.81
482.935	82.81
483.153	76.81
483.372	85.81
483.59	85.81
483.808	84.81
484.027	86.81
484.245	91.81
484.463	95.81
484.681	92.81
484.9	87.81
485.118	90.81
485.336	82.81
485.554	88.81
485.772	89.81
485.99	96.81
486.209	76.81
486.427	82.81
486.645	87.81
486.863	82.81
487.081	70.81
487.299	88.81
487.517	83.81
487.735	83.81
487.953	76.81
488.171	88.81
488.389	91.81
488.607	81.81
488.825	70.81
489.043	87.81
489.261	63.81
489.479	91.81
489.696	73.81
489.914	80.81
490.132	73.81
490.35	98.81
490.568	89.81
490.786	68.81
491.003	93.81
491.221	79.81
491.439	65.81
491.657	89.81
491.874	88.81
492.092	79.81
492.31	90.81
492.527	94.81
492.745	80.81
492.963	83.81
493.18	83.81
493.398	91.81
493.615	92.81
493.833	83.81
494.05	83.81
494.268	85.81
494.485	79.81
494.703	75.81
494.92	75.81
495.138	77.81
495.355	91.81
495.573	71.81
495.79	53.81
496.008	92.81
496.225	82.81
496.442	92.81
496.66	85.81
496.877	89.81
497.094	75.81
497.312	95.81
497.529	76.81
497.746	82.81
497.963	84.81
498.181	83.81
498.398	84.81
498.615	93.81
498.832	100.81
499.049	80.81
499.267	82.81
499.484	84.81
499.701	86.81
499.918	95.81
500.135	83.81
500.352	85.81
500.569	82.81
500.786	84.81
501.003	79.81
501.22	83.81
501.437	84.81
501.654	75.81
501.871	79.81
502.088	68.81
502.305	87.81
502.522	88.81
502.739	95.81
502.956	82.81
503.172	71.81
503.389	70.81
503.606	84.81
503.823	86.81
504.04	80.81
504.256	83.81
504.473	92.81
504.69	75.81
504.907	79.81
505.123	88.81
505.34	81.81
505.557	80.81
505.773	94.81
505.99	99.81
506.207	77.81
506.423	86.81
506.64	88.81
506.856	90.81
507.073	75.81
507.289	71.81
507.506	94.81
507.722	87.81
507.939	74.81
508.155	84.81
508.372	76.81
508.588	90.81
508.805	80.81
509.021	79.81
509.238	82.81
509.454	78.81
509.67	89.81
509.887	81.81
510.103	90.81
510.319	86.81
510.536	80.81
510.752	84.81
510.968	79.81
511.184	83.81
511.401	91.81
511.617	85.81
511.833	77.81
512.049	84.81
512.265	82.81
512.481	78.81
512.698	78.81
512.914	82.81
513.13	85.81
513.346	81.81
513.562	91.81
513.778	95.81
513.994	82.81
514.21	75.81
514.426	83.81
514.642	79.81
514.858	85.81
515.074	89.81
515.29	96.81
515.506	83.81
515.721	94.81
515.937	90.81
516.153	86.81
516.369	85.81
516.585	69.81
516.801	80.81
517.016	89.81
517.232	79.81
517.448	79.81
517.664	76.81
517.879	75.81
518.095	80.81
518.311	84.81
518.527	83.81
518.742	74.81
518.958	80.81
519.173	71.81
519.389	77.81
519.605	85.81
519.82	86.81
520.036	75.81
520.251	86.81
520.467	78.81
520.682	82.81
520.898	72.81
521.113	81.81
521.329	72.81
521.544	97.81
521.76	87.81
521.975	74.81
522.19	91.81
522.406	75.81
522.621	79.81
522.836	85.81
523.052	74.81
523.267	79.81
523.482	83.81
523.698	87.81
523.913	65.81
524.128	92.81
524.343	97.81
524.559	82.81
524.774	81.81
524.989	96.81
525.204	92.81
525.419	89.81
525.634	86.81
525.849	95.81
526.064	89.81
526.28	79.81
526.495	79.81
526.71	69.81
526.925	84.81
527.14	85.81
527.355	88.81
527.57	97.81
527.785	69.81
527.999	90.81
528.214	83.81
528.429	79.81
528.644	87.81
528.859	83.81
529.074	89.81
529.289	86.81
529.503	93.81
529.718	87.81
529.933	65.81
530.148	96.81
530.363	73.81
530.577	79.81
530.792	81.81
531.007	81.81
531.221	77.81
531.436	83.81
531.651	73.81
531.865	97.81
532.08	79.81
532.295	75.81
532.509	81.81
532.724	98.81
532.938	90.81
533.153	83.81
533.367	81.81
533.582	87.81
533.796	75.81
534.011	91.81
534.225	78.81
534.44	95.81
534.654	89.81
534.868	84.81
535.083	101.81
535.297	79.81
535.511	83.81
535.726	92.81
535.94	72.81
536.154	89.81
536.369	91.81
536.583	76.81
536.797	77.81
537.011	74.81
537.225	77.81
537.44	85.81
537.654	98.81
537.868	87.81
538.082	91.81
538.296	86.81
538.51	78.81
538.724	72.81
538.938	78.81
539.153	82.81
539.367	79.81
539.581	102.81
539.795	84.81
540.009	77.81
540.222	82.81
540.436	90.81
540.65	83.81
540.864	98.81
541.078	79.81
541.292	95.81
541.506	87.81
541.72	90.81
541.934	72.81
542.147	82.81
542.361	87.81
542.575	81.81
542.789	84.81
543.002	82.81
543.216	93.81
543.43	87.81
543.644	95.81
543.857	87.81
544.071	83.81
544.285	86.81
544.498	80.81
544.712	76.81
544.925	81.81
545.139	76.81
545.352	84.81
545.566	83.81
545.779	74.81
545.993	79.81
546.206	94.81
546.42	88.81
546.633	89.81
546.847	99.81
547.06	76.81
547.274	79.81
547.487	79.81
547.7	74.81
547.914	82.81
548.127	76.81
548.34	86.81
548.554	84.81
548.767	80.81
548.98	93.81
549.193	89.81
549.407	87.81
549.62	69.81
549.833	83.81
550.046	85.81
550.259	97.81
550.473	71.81
550.686	111.81
550.899	82.81
551.112	78.81
551.325	83.81
551.538	90.81
551.751	76.81
551.964	75.81
552.177	71.81
552.39	83.81
552.603	75.81
552.816	78.81
553.029	85.81
553.242	84.81
553.455	78.81
553.667	86.81
553.88	81.81
554.093	102.81
554.306	85.81
554.519	81.81
554.732	81.81
554.944	89.81
555.157	83.81
555.37	71.81
555.583	75.81
555.795	82.81
556.008	81.81
556.221	83.81
556.433	73.81
556.646	83.81
556.859	84.81
557.071	87.81
557.284	77.81
557.496	77.81
557.709	82.81
557.921	84.81
558.134	93.81
558.346	92.81
558.559	96.81
558.771	83.81
558.984	99.81
559.196	75.81
559.409	88.81
559.621	81.81
559.833	71.81
560.046	82.81
560.258	88.81
560.47	75.81
560.683	89.81
560.895	89.81
561.107	74.81
561.32	69.81
561.532	76.81
561.744	89.81
561.956	77.81
562.168	92.81
562.381	77.81
562.593	78.81
562.805	92.81
563.017	89.81
563.229	83.81
563.441	98.81
563.653	70.81
563.865	72.81
564.077	85.81
564.289	88.81
564.501	81.81
564.713	101.81
564.925	89.81
565.137	95.81
565.349	84.81
565.561	85.81
565.773	79.81
565.985	91.81
566.197	79.81
566.408	80.81
566.62	84.81
566.832	79.81
567.044	79.81
567.255	98.81
567.467	77.81
567.679	84.81
567.891	92.81
568.102	89.81
568.314	96.81
568.526	76.81
568.737	65.81
568.949	92.81
569.161	93.81
569.372	97.81
569.584	100.81
569.795	77.81
570.007	77.81
570.218	88.81
570.43	88.81
570.641	81.81
570.853	85.81
571.064	93.81
571.276	82.81
571.487	89.81
571.698	69.81
571.91	90.81
572.121	99.81
572.333	82.81
572.544	79.81
572.755	89.81
572.966	78.81
573.178	81.81
573.389	85.81
573.6	79.81
573.811	97.81
574.023	84.81
574.234	81.81
574.445	80.81
574.656	87.81
574.867	92.81
575.078	89.81
575.289	84.81
575.501	99.81
575.712	86.81
575.923	85.81
576.134	90.81
576.345	89.81
576.556	77.81
576.767	81.81
576.978	91.81
577.188	88.81
577.399	86.81
577.61	81.81
577.821	82.81
578.032	98.81
578.243	84.81
578.454	86.81
578.665	87.81
578.875	90.81
579.086	84.81
579.297	84.81
579.508	81.81
579.718	71.81
579.929	83.81
580.14	84.81
580.35	85.81
580.561	85.81
580.772	80.81
580.982	91.81
581.193	88.81
581.403	99.81
581.614	82.81
581.825	91.81
582.035	72.81
582.246	80.81
582.456	99.81
582.667	90.81
582.877	82.81
583.087	88.81
583.298	102.81
583.508	92.81
583.719	72.81
583.929	77.81
584.139	87.81
584.35	74.81
584.56	87.81
584.77	79.81
584.981	89.81
585.191	86.81
585.401	79.81
585.611	71.81
585.821	81.81
586.032	71.81
586.242	86.81
586.452	78.81
586.662	87.81
586.872	86.81
587.082	85.81
587.292	79.81
587.502	85.81
587.713	71.81
587.923	91.81
588.133	89.81
588.343	88.81
588.553	83.81
588.762	86.81
588.972	90.81
589.182	77.81
589.392	93.81
589.602	75.81
589.812	80.81
590.022	77.81
590.232	72.81
590.441	77.81
590.651	78.81
590.861	75.81
591.071	95.81
591.281	98.81
591.49	77.81
591.7	98.81
591.91	88.81
592.119	94.81
592.329	85.81
592.539	74.81
592.748	83.81
592.958	81.81
593.167	86.81
593.377	84.81
593.587	74.81
593.796	83.81
594.006	77.81
594.215	83.81
594.424	89.81
594.634	75.81
594.843	92.81
595.053	81.81
595.262	70.81
595.472	97.81
595.681	81.81
595.89	68.81
596.1	85.81
596.309	77.81
596.518	82.81
596.727	80.81
596.937	95.81
597.146	75.81
597.355	81.81
597.564	94.81
597.774	80.81
597.983	85.81
598.192	92.81
598.401	83.81
598.61	75.81
598.819	63.81
599.028	66.81
599.237	85.81
599.446	81.81
599.655	94.81
599.864	85.81
600.073	67.81
600.282	94.81
600.491	87.81
600.7	83.81
600.909	84.81
601.118	83.81
601.327	85.81
601.536	85.81
601.745	84.81
601.953	100.81
602.162	70.81
602.371	94.81
602.58	84.81
602.789	81.81
602.997	79.81
603.206	86.81
603.415	92.81
603.623	85.81
603.832	82.81
604.041	81.81
604.249	83.81
604.458	83.81
604.666	87.81
604.875	90.81
605.084	94.81
605.292	95.81
605.501	85.81
605.709	89.81
605.918	78.81
606.126	96.81
606.334	84.81
606.543	68.81
606.751	75.81
606.96	101.81
607.168	81.81
607.376	87.81
607.585	89.81
607.793	74.81
608.001	97.81
608.21	83.81
608.418	86.81
608.626	76.81
608.834	95.81
609.043	85.81
609.251	96.81
609.459	81.81
609.667	85.81
609.875	87.81
610.083	87.81
610.291	71.81
610.499	73.81
610.707	69.81
610.916	73.81
611.124	76.81
611.332	80.81
611.54	73.81
611.748	84.81
611.955	94.81
612.163	86.81
612.371	82.81
612.579	87.81
612.787	96.81
612.995	79.81
613.203	90.81
613.411	74.81
613.618	98.81
613.826	85.81
614.034	84.81
614.242	85.81
614.449	82.81
614.657	109.81
614.865	69.81
615.072	86.81
615.28	82.81
615.488	74.81
615.695	85.81
615.903	83.81
616.111	81.81
616.318	89.81
616.526	77.81
616.733	87.81
616.941	80.81
617.148	84.81
617.356	92.81
617.563	97.81
617.771	87.81
617.978	76.81
618.185	82.81
618.393	91.81
618.6	81.81
618.807	72.81
619.015	81.81
619.222	88.81
619.429	74.81
619.637	87.81
619.844	79.81
620.051	71.81
620.258	83.81
620.466	81.81
620.673	83.81
620.88	90.81
621.087	85.81
621.294	87.81
621.501	85.81
621.708	76.81
621.915	94.81
622.122	78.81
622.329	89.81
622.536	96.81
622.743	90.81
622.95	89.81
623.157	84.81
623.364	82.81
623.571	86.81
623.778	85.81
623.985	86.81
624.192	84.81
624.399	99.81
624.606	95.81
624.812	99.81
625.019	79.81
625.226	77.81
625.433	89.81
625.639	86.81
625.846	92.81
626.053	89.81
626.259	70.81
626.466	93.81
626.673	86.81
626.879	71.81
627.086	84.81
627.293	97.81
627.499	89.81
627.706	95.81
627.912	70.81
628.119	81.81
628.325	79.81
628.532	83.81
628.738	86.81
628.945	76.81
629.151	79.81
629.357	91.81
629.564	99.81
629.77	85.81
629.976	86.81
630.183	86.81
630.389	85.81
630.595	84.81
630.802	78.81
631.008	85.81
631.214	91.81
631.42	93.81
631.627	84.81
631.833	93.81
632.039	78.81
632.245	81.81
632.451	99.81
632.657	82.81
632.863	90.81
633.069	84.81
633.275	78.81
633.481	93.81
633.688	79.81
633.893	91.81
634.099	82.81
634.305	90.81
634.511	72.81
634.717	77.81
634.923	79.81
635.129	75.81
635.335	71.81
635.541	91.81
635.747	94.81
635.952	89.81
636.158	79.81
636.364	79.81
636.57	82.81
636.775	98.81
636.981	85.81
637.187	83.81
637.392	76.81
637.598	85.81
637.804	91.81
638.009	86.81
638.215	80.81
638.421	91.81
638.626	87.81
638.832	77.81
639.037	91.81
639.243	70.81
639.448	92.81
639.654	97.81
639.859	78.81
640.065	82.81
640.27	85.81
640.475	89.81
640.681	89.81
640.886	80.81
641.091	83.81
641.297	87.81
641.502	101.81
641.707	83.81
641.913	86.81
642.118	92.81
642.323	92.81
642.528	89.81
642.733	98.81
642.939	101.81
643.144	91.81
643.349	82.81
643.554	76.81
643.759	76.81
643.964	85.81
644.169	89.81
644.374	85.81
644.579	90.81
644.784	83.81
644.989	92.81
645.194	89.81
645.399	86.81
645.604	71.81
645.809	100.81
646.014	93.81
646.219	79.81
646.423	85.81
646.628	80.81
646.833	99.81
647.038	90.81
647.243	90.81
647.447	89.81
647.652	84.81
647.857	82.81
648.062	68.81
648.266	90.81
648.471	87.81
648.676	73.81
648.88	89.81
649.085	82.81
649.289	89.81
649.494	87.81
649.698	99.81
649.903	98.81
650.107	90.81
650.312	91.81
650.516	79.81
650.721	69.81
650.925	80.81
651.13	71.81
651.334	86.81
651.539	88.81
651.743	86.81
651.947	97.81
652.152	84.81
652.356	81.81
652.56	98.81
652.764	81.81
652.969	84.81
653.173	85.81
653.377	84.81
653.581	79.81
653.785	83.81
653.99	86.81
654.194	86.81
654.398	80.81
654.602	86.81
654.806	92.81
655.01	89.81
655.214	89.81
655.418	80.81
655.622	83.81
655.826	86.81
656.03	89.81
656.234	91.81
656.438	82.81
656.642	75.81
656.846	96.81
657.049	89.81
657.253	80.81
657.457	77.81
657.661	90.81
657.865	89.81
658.068	83.81
658.272	85.81
658.476	93.81
658.68	90.81
658.883	70.81
659.087	82.81
659.291	89.81
659.494	87.81
659.698	91.81
659.901	86.81
660.105	78.81
660.309	74.81
660.512	90.81
660.716	87.81
660.919	82.81
661.123	95.81
661.326	77.81
661.53	83.81
661.733	85.81
661.936	97.81
662.14	76.81
662.343	71.81
662.546	94.81
662.75	81.81
662.953	85.81
663.156	85.81
663.36	91.81
663.563	60.81
663.766	86.81
663.969	81.81
664.173	87.81
664.376	79.81
664.579	88.81
664.782	86.81
664.985	65.81
665.188	94.81
665.391	79.81
665.594	88.81
665.797	82.81
666	85.81
666.203	86.81
666.406	79.81
666.609	79.81
666.812	80.81
667.015	75.81
667.218	82.81
667.421	75.81
667.624	81.81
667.827	81.81
668.03	81.81
668.232	85.81
668.435	79.81
668.638	85.81
668.841	90.81
669.043	71.81
669.246	95.81
669.449	76.81
669.651	74.81
669.854	95.81
670.057	94.81
670.259	86.81
670.462	77.81
670.665	71.81
670.867	82.81
671.07	82.81
671.272	86.81
671.475	91.81
671.677	86.81
671.88	89.81
672.082	83.81
672.284	91.81
672.487	94.81
672.689	70.81
672.892	84.81
