Data from Background_1_HRD10591_00004.txt Node
Date: Wed Nov 05 14:39:00 EST 2025
User: Yrep
Spectrometer: HR+D1059
Trigger mode: 1
Integration Time (sec): 1.000000E-1
Scans to average: 1
Electric dark correction enabled: true
Nonlinearity correction enabled: false
Boxcar width: 0
XAxis mode: Wavelengths
Number of Pixels in Spectrum: 2048
>>>>>Begin Spectral Data<<<<<
223.165	-21.06
223.4	-21.06
223.635	-21.06
223.869	-13.06
224.104	-27.06
224.338	-7.06
224.573	-15.06
224.808	-21.06
225.042	-12.06
225.277	-6.06
225.511	-4.06
225.746	12.94
225.98	9.94
226.215	16.94
226.449	14.94
226.683	7.94
226.918	34.94
227.152	28.94
227.387	37.94
227.621	35.94
227.856	48.94
228.09	52.94
228.324	46.94
228.559	60.94
228.793	60.94
229.027	69.94
229.262	79.94
229.496	77.94
229.73	68.94
229.964	74.94
230.199	62.94
230.433	81.94
230.667	88.94
230.901	88.94
231.136	74.94
231.37	69.94
231.604	89.94
231.838	69.94
232.072	67.94
232.306	69.94
232.541	73.94
232.775	81.94
233.009	86.94
233.243	84.94
233.477	89.94
233.711	98.94
233.945	79.94
234.179	84.94
234.413	89.94
234.647	78.94
234.881	81.94
235.115	80.94
235.349	70.94
235.583	85.94
235.817	67.94
236.051	80.94
236.285	74.94
236.519	87.94
236.753	85.94
236.987	92.94
237.221	78.94
237.455	77.94
237.689	64.94
237.922	63.94
238.156	78.94
238.39	84.94
238.624	87.94
238.858	76.94
239.091	68.94
239.325	78.94
239.559	66.94
239.793	78.94
240.027	81.94
240.26	69.94
240.494	77.94
240.728	69.94
240.961	85.94
241.195	84.94
241.429	77.94
241.662	68.94
241.896	78.94
242.13	82.94
242.363	73.94
242.597	71.94
242.83	84.94
243.064	65.94
243.298	77.94
243.531	76.94
243.765	76.94
243.998	81.94
244.232	76.94
244.465	73.94
244.699	81.94
244.932	82.94
245.166	91.94
245.399	91.94
245.633	74.94
245.866	86.94
246.099	69.94
246.333	82.94
246.566	90.94
246.8	68.94
247.033	76.94
247.266	61.94
247.5	88.94
247.733	57.94
247.966	74.94
248.2	92.94
248.433	71.94
248.666	75.94
248.899	74.94
249.133	81.94
249.366	79.94
249.599	84.94
249.832	93.94
250.066	79.94
250.299	76.94
250.532	65.94
250.765	75.94
250.998	93.94
251.231	67.94
251.465	82.94
251.698	91.94
251.931	66.94
252.164	62.94
252.397	83.94
252.63	88.94
252.863	76.94
253.096	62.94
253.329	74.94
253.562	62.94
253.795	84.94
254.028	74.94
254.261	88.94
254.494	72.94
254.727	72.94
254.96	78.94
255.193	80.94
255.426	81.94
255.659	98.94
255.892	91.94
256.124	90.94
256.357	79.94
256.59	81.94
256.823	83.94
257.056	71.94
257.289	57.94
257.521	71.94
257.754	80.94
257.987	71.94
258.22	80.94
258.452	80.94
258.685	73.94
258.918	69.94
259.151	83.94
259.383	76.94
259.616	76.94
259.849	77.94
260.081	88.94
260.314	82.94
260.547	71.94
260.779	97.94
261.012	74.94
261.244	73.94
261.477	81.94
261.71	74.94
261.942	92.94
262.175	88.94
262.407	78.94
262.64	92.94
262.872	83.94
263.105	90.94
263.337	89.94
263.57	83.94
263.802	81.94
264.035	77.94
264.267	74.94
264.499	90.94
264.732	92.94
264.964	73.94
265.197	82.94
265.429	83.94
265.661	81.94
265.894	86.94
266.126	89.94
266.358	72.94
266.591	69.94
266.823	87.94
267.055	98.94
267.287	81.94
267.52	78.94
267.752	75.94
267.984	99.94
268.216	73.94
268.448	86.94
268.681	80.94
268.913	82.94
269.145	78.94
269.377	92.94
269.609	98.94
269.841	88.94
270.073	86.94
270.306	77.94
270.538	86.94
270.77	76.94
271.002	86.94
271.234	76.94
271.466	77.94
271.698	94.94
271.93	72.94
272.162	72.94
272.394	86.94
272.626	86.94
272.858	70.94
273.09	78.94
273.322	83.94
273.553	96.94
273.785	79.94
274.017	69.94
274.249	83.94
274.481	75.94
274.713	80.94
274.945	77.94
275.176	77.94
275.408	82.94
275.64	70.94
275.872	76.94
276.104	71.94
276.335	92.94
276.567	84.94
276.799	80.94
277.031	90.94
277.262	86.94
277.494	91.94
277.726	78.94
277.957	80.94
278.189	85.94
278.421	90.94
278.652	86.94
278.884	81.94
279.115	100.94
279.347	80.94
279.579	76.94
279.81	78.94
280.042	89.94
280.273	90.94
280.505	84.94
280.736	89.94
280.968	100.94
281.199	82.94
281.431	81.94
281.662	71.94
281.894	78.94
282.125	82.94
282.356	73.94
282.588	84.94
282.819	90.94
283.051	79.94
283.282	88.94
283.513	82.94
283.745	81.94
283.976	76.94
284.207	85.94
284.439	60.94
284.67	82.94
284.901	68.94
285.132	88.94
285.364	76.94
285.595	84.94
285.826	87.94
286.057	82.94
286.288	82.94
286.52	87.94
286.751	84.94
286.982	81.94
287.213	73.94
287.444	86.94
287.675	86.94
287.906	82.94
288.138	85.94
288.369	78.94
288.6	87.94
288.831	87.94
289.062	97.94
289.293	81.94
289.524	87.94
289.755	88.94
289.986	80.94
290.217	76.94
290.448	91.94
290.679	88.94
290.91	75.94
291.141	80.94
291.371	91.94
291.602	82.94
291.833	64.94
292.064	81.94
292.295	76.94
292.526	64.94
292.757	109.94
292.987	89.94
293.218	91.94
293.449	86.94
293.68	86.94
293.91	82.94
294.141	81.94
294.372	73.94
294.603	92.94
294.833	88.94
295.064	87.94
295.295	89.94
295.525	79.94
295.756	76.94
295.987	96.94
296.217	92.94
296.448	87.94
296.679	84.94
296.909	88.94
297.14	81.94
297.37	87.94
297.601	93.94
297.831	80.94
298.062	85.94
298.292	82.94
298.523	69.94
298.753	85.94
298.984	80.94
299.214	76.94
299.445	80.94
299.675	85.94
299.905	93.94
300.136	79.94
300.366	83.94
300.597	80.94
300.827	74.94
301.057	91.94
301.288	88.94
301.518	78.94
301.748	83.94
301.979	104.94
302.209	85.94
302.439	73.94
302.669	82.94
302.9	89.94
303.13	92.94
303.36	84.94
303.59	82.94
303.82	83.94
304.051	82.94
304.281	75.94
304.511	92.94
304.741	84.94
304.971	88.94
305.201	82.94
305.431	89.94
305.661	83.94
305.891	83.94
306.121	90.94
306.352	91.94
306.582	94.94
306.812	98.94
307.042	90.94
307.272	88.94
307.502	96.94
307.731	76.94
307.961	78.94
308.191	85.94
308.421	65.94
308.651	81.94
308.881	89.94
309.111	87.94
309.341	81.94
309.571	98.94
309.8	88.94
310.03	89.94
310.26	78.94
310.49	84.94
310.72	91.94
310.949	83.94
311.179	93.94
311.409	81.94
311.639	83.94
311.868	83.94
312.098	89.94
312.328	79.94
312.557	76.94
312.787	60.94
313.017	81.94
313.246	84.94
313.476	84.94
313.706	97.94
313.935	83.94
314.165	88.94
314.394	82.94
314.624	85.94
314.853	92.94
315.083	79.94
315.312	76.94
315.542	81.94
315.771	70.94
316.001	84.94
316.23	95.94
316.46	70.94
316.689	89.94
316.919	84.94
317.148	88.94
317.377	83.94
317.607	87.94
317.836	92.94
318.065	81.94
318.295	88.94
318.524	81.94
318.753	90.94
318.983	76.94
319.212	89.94
319.441	86.94
319.67	76.94
319.9	85.94
320.129	79.94
320.358	105.94
320.587	87.94
320.816	84.94
321.046	85.94
321.275	97.94
321.504	98.94
321.733	92.94
321.962	72.94
322.191	70.94
322.42	73.94
322.649	89.94
322.878	82.94
323.108	88.94
323.337	79.94
323.566	74.94
323.795	88.94
324.024	95.94
324.253	77.94
324.482	80.94
324.71	75.94
324.939	84.94
325.168	76.94
325.397	84.94
325.626	90.94
325.855	71.94
326.084	74.94
326.313	72.94
326.542	93.94
326.77	90.94
326.999	84.94
327.228	88.94
327.457	72.94
327.686	73.94
327.914	77.94
328.143	97.94
328.372	74.94
328.6	97.94
328.829	70.94
329.058	78.94
329.287	77.94
329.515	81.94
329.744	102.94
329.972	69.94
330.201	84.94
330.43	76.94
330.658	74.94
330.887	91.94
331.115	80.94
331.344	80.94
331.572	85.94
331.801	94.94
332.03	82.94
332.258	93.94
332.486	78.94
332.715	86.94
332.943	83.94
333.172	88.94
333.4	70.94
333.629	86.94
333.857	70.94
334.085	103.94
334.314	96.94
334.542	85.94
334.771	79.94
334.999	86.94
335.227	85.94
335.455	86.94
335.684	76.94
335.912	78.94
336.14	83.94
336.369	80.94
336.597	82.94
336.825	94.94
337.053	89.94
337.281	80.94
337.51	78.94
337.738	78.94
337.966	80.94
338.194	76.94
338.422	79.94
338.65	81.94
338.878	82.94
339.106	92.94
339.334	80.94
339.562	80.94
339.79	75.94
340.018	81.94
340.246	77.94
340.474	89.94
340.702	93.94
340.93	91.94
341.158	89.94
341.386	93.94
341.614	80.94
341.842	100.94
342.07	97.94
342.298	86.94
342.526	78.94
342.754	88.94
342.981	83.94
343.209	79.94
343.437	101.94
343.665	85.94
343.893	83.94
344.12	96.94
344.348	75.94
344.576	88.94
344.804	87.94
345.031	77.94
345.259	86.94
345.487	78.94
345.714	86.94
345.942	74.94
346.17	86.94
346.397	89.94
346.625	92.94
346.853	89.94
347.08	84.94
347.308	81.94
347.535	82.94
347.763	99.94
347.99	88.94
348.218	82.94
348.445	88.94
348.673	82.94
348.9	70.94
349.128	85.94
349.355	79.94
349.583	89.94
349.81	79.94
350.037	67.94
350.265	84.94
350.492	90.94
350.72	76.94
350.947	82.94
351.174	84.94
351.402	90.94
351.629	80.94
351.856	77.94
352.083	78.94
352.311	69.94
352.538	76.94
352.765	83.94
352.992	78.94
353.22	83.94
353.447	71.94
353.674	69.94
353.901	81.94
354.128	69.94
354.355	92.94
354.583	82.94
354.81	82.94
355.037	88.94
355.264	83.94
355.491	104.94
355.718	82.94
355.945	84.94
356.172	83.94
356.399	89.94
356.626	72.94
356.853	81.94
357.08	84.94
357.307	87.94
357.534	86.94
357.761	80.94
357.988	90.94
358.215	81.94
358.441	83.94
358.668	69.94
358.895	89.94
359.122	82.94
359.349	87.94
359.576	89.94
359.802	73.94
360.029	77.94
360.256	99.94
360.483	74.94
360.709	88.94
360.936	96.94
361.163	90.94
361.39	70.94
361.616	76.94
361.843	84.94
362.07	94.94
362.296	101.94
362.523	79.94
362.749	80.94
362.976	81.94
363.203	100.94
363.429	73.94
363.656	88.94
363.882	82.94
364.109	70.94
364.335	71.94
364.562	80.94
364.788	86.94
365.015	82.94
365.241	90.94
365.468	85.94
365.694	79.94
365.92	76.94
366.147	84.94
366.373	68.94
366.599	95.94
366.826	80.94
367.052	76.94
367.278	76.94
367.505	75.94
367.731	75.94
367.957	82.94
368.184	83.94
368.41	82.94
368.636	69.94
368.862	96.94
369.089	83.94
369.315	79.94
369.541	84.94
369.767	82.94
369.993	75.94
370.219	86.94
370.445	79.94
370.672	94.94
370.898	89.94
371.124	90.94
371.35	76.94
371.576	78.94
371.802	80.94
372.028	66.94
372.254	74.94
372.48	76.94
372.706	77.94
372.932	100.94
373.158	83.94
373.384	87.94
373.61	75.94
373.835	78.94
374.061	74.94
374.287	91.94
374.513	82.94
374.739	89.94
374.965	74.94
375.191	83.94
375.416	78.94
375.642	81.94
375.868	85.94
376.094	82.94
376.319	75.94
376.545	84.94
376.771	66.94
376.997	78.94
377.222	74.94
377.448	83.94
377.674	96.94
377.899	92.94
378.125	84.94
378.35	83.94
378.576	76.94
378.802	88.94
379.027	81.94
379.253	78.94
379.478	81.94
379.704	88.94
379.929	77.94
380.155	81.94
380.38	83.94
380.606	89.94
380.831	82.94
381.057	81.94
381.282	84.94
381.507	88.94
381.733	77.94
381.958	77.94
382.184	66.94
382.409	77.94
382.634	92.94
382.86	91.94
383.085	81.94
383.31	84.94
383.535	78.94
383.761	80.94
383.986	77.94
384.211	62.94
384.436	85.94
384.662	80.94
384.887	89.94
385.112	88.94
385.337	72.94
385.562	86.94
385.787	65.94
386.013	80.94
386.238	85.94
386.463	93.94
386.688	99.94
386.913	59.94
387.138	63.94
387.363	76.94
387.588	71.94
387.813	84.94
388.038	77.94
388.263	89.94
388.488	77.94
388.713	88.94
388.938	78.94
389.163	85.94
389.387	81.94
389.612	74.94
389.837	79.94
390.062	85.94
390.287	90.94
390.512	76.94
390.736	89.94
390.961	80.94
391.186	86.94
391.411	89.94
391.636	71.94
391.86	92.94
392.085	87.94
392.31	86.94
392.534	84.94
392.759	64.94
392.984	72.94
393.208	85.94
393.433	79.94
393.658	87.94
393.882	86.94
394.107	88.94
394.331	76.94
394.556	88.94
394.78	86.94
395.005	80.94
395.229	89.94
395.454	79.94
395.678	76.94
395.903	88.94
396.127	73.94
396.352	87.94
396.576	77.94
396.801	73.94
397.025	86.94
397.249	88.94
397.474	90.94
397.698	82.94
397.922	81.94
398.147	77.94
398.371	83.94
398.595	82.94
398.82	78.94
399.044	81.94
399.268	91.94
399.492	81.94
399.717	76.94
399.941	76.94
400.165	68.94
400.389	63.94
400.613	85.94
400.837	87.94
401.062	84.94
401.286	78.94
401.51	89.94
401.734	83.94
401.958	96.94
402.182	86.94
402.406	84.94
402.63	89.94
402.854	78.94
403.078	65.94
403.302	78.94
403.526	77.94
403.75	89.94
403.974	68.94
404.198	80.94
404.422	81.94
404.645	76.94
404.869	79.94
405.093	75.94
405.317	88.94
405.541	88.94
405.765	102.94
405.988	77.94
406.212	82.94
406.436	80.94
406.66	68.94
406.883	83.94
407.107	79.94
407.331	85.94
407.555	76.94
407.778	76.94
408.002	75.94
408.226	88.94
408.449	76.94
408.673	82.94
408.896	86.94
409.12	70.94
409.344	76.94
409.567	85.94
409.791	97.94
410.014	89.94
410.238	77.94
410.461	78.94
410.685	61.94
410.908	71.94
411.132	76.94
411.355	72.94
411.578	76.94
411.802	81.94
412.025	92.94
412.249	70.94
412.472	87.94
412.695	84.94
412.919	82.94
413.142	85.94
413.365	84.94
413.589	80.94
413.812	86.94
414.035	83.94
414.258	84.94
414.482	86.94
414.705	97.94
414.928	81.94
415.151	77.94
415.374	77.94
415.597	77.94
415.821	66.94
416.044	77.94
416.267	90.94
416.49	75.94
416.713	67.94
416.936	76.94
417.159	74.94
417.382	91.94
417.605	88.94
417.828	88.94
418.051	77.94
418.274	88.94
418.497	76.94
418.72	69.94
418.943	80.94
419.166	72.94
419.389	81.94
419.611	73.94
419.834	87.94
420.057	78.94
420.28	82.94
420.503	74.94
420.726	67.94
420.948	74.94
421.171	88.94
421.394	84.94
421.617	73.94
421.839	71.94
422.062	73.94
422.285	78.94
422.507	70.94
422.73	63.94
422.953	81.94
423.175	80.94
423.398	96.94
423.621	80.94
423.843	79.94
424.066	79.94
424.288	65.94
424.511	75.94
424.733	91.94
424.956	85.94
425.178	67.94
425.401	84.94
425.623	86.94
425.846	80.94
426.068	76.94
426.291	73.94
426.513	73.94
426.735	77.94
426.958	68.94
427.18	78.94
427.402	70.94
427.625	78.94
427.847	64.94
428.069	80.94
428.292	70.94
428.514	78.94
428.736	76.94
428.958	82.94
429.181	78.94
429.403	83.94
429.625	90.94
429.847	88.94
430.069	79.94
430.292	88.94
430.514	85.94
430.736	88.94
430.958	76.94
431.18	84.94
431.402	81.94
431.624	67.94
431.846	79.94
432.068	82.94
432.29	90.94
432.512	79.94
432.734	73.94
432.956	67.94
433.178	78.94
433.4	88.94
433.622	80.94
433.844	95.94
434.066	88.94
434.287	61.94
434.509	70.94
434.731	83.94
434.953	80.94
435.175	89.94
435.397	90.94
435.618	84.94
435.84	80.94
436.062	75.94
436.284	72.94
436.505	86.94
436.727	84.94
436.949	88.94
437.17	69.94
437.392	68.94
437.614	89.94
437.835	93.94
438.057	103.94
438.278	82.94
438.5	76.94
438.721	84.94
438.943	78.94
439.165	76.94
439.386	77.94
439.608	82.94
439.829	90.94
440.05	77.94
440.272	84.94
440.493	56.94
440.715	73.94
440.936	78.94
441.158	83.94
441.379	72.94
441.6	78.94
441.822	96.94
442.043	72.94
442.264	83.94
442.486	82.94
442.707	94.94
442.928	93.94
443.149	85.94
443.371	74.94
443.592	73.94
443.813	96.94
444.034	91.94
444.255	94.94
444.476	91.94
444.698	91.94
444.919	69.94
445.14	130.94
445.361	112.94
445.582	88.94
445.803	72.94
446.024	86.94
446.245	99.94
446.466	73.94
446.687	73.94
446.908	71.94
447.129	81.94
447.35	86.94
447.571	88.94
447.792	74.94
448.013	80.94
448.234	83.94
448.455	76.94
448.675	86.94
448.896	83.94
449.117	88.94
449.338	94.94
449.559	94.94
449.779	84.94
450	79.94
450.221	86.94
450.442	68.94
450.662	65.94
450.883	72.94
451.104	81.94
451.324	74.94
451.545	83.94
451.766	84.94
451.986	83.94
452.207	78.94
452.428	68.94
452.648	77.94
452.869	80.94
453.089	77.94
453.31	70.94
453.53	77.94
453.751	81.94
453.971	77.94
454.192	89.94
454.412	79.94
454.633	87.94
454.853	88.94
455.073	87.94
455.294	88.94
455.514	88.94
455.734	82.94
455.955	85.94
456.175	86.94
456.395	70.94
456.616	79.94
456.836	104.94
457.056	88.94
457.276	81.94
457.497	72.94
457.717	88.94
457.937	81.94
458.157	85.94
458.377	78.94
458.598	85.94
458.818	60.94
459.038	81.94
459.258	97.94
459.478	85.94
459.698	91.94
459.918	100.94
460.138	70.94
460.358	73.94
460.578	76.94
460.798	88.94
461.018	80.94
461.238	77.94
461.458	76.94
461.678	81.94
461.898	81.94
462.118	91.94
462.338	77.94
462.558	83.94
462.777	73.94
462.997	81.94
463.217	71.94
463.437	84.94
463.657	87.94
463.876	85.94
464.096	84.94
464.316	77.94
464.536	71.94
464.755	69.94
464.975	71.94
465.195	86.94
465.414	80.94
465.634	88.94
465.854	94.94
466.073	65.94
466.293	92.94
466.512	85.94
466.732	76.94
466.951	79.94
467.171	90.94
467.391	85.94
467.61	75.94
467.829	68.94
468.049	83.94
468.268	71.94
468.488	73.94
468.707	88.94
468.927	90.94
469.146	85.94
469.365	76.94
469.585	70.94
469.804	83.94
470.023	78.94
470.243	91.94
470.462	97.94
470.681	77.94
470.901	78.94
471.12	75.94
471.339	86.94
471.558	80.94
471.777	77.94
471.997	74.94
472.216	69.94
472.435	72.94
472.654	84.94
472.873	78.94
473.092	72.94
473.311	88.94
473.53	88.94
473.749	85.94
473.968	96.94
474.187	69.94
474.406	93.94
474.625	73.94
474.844	80.94
475.063	80.94
475.282	85.94
475.501	80.94
475.72	84.94
475.939	74.94
476.158	69.94
476.377	85.94
476.596	76.94
476.814	88.94
477.033	75.94
477.252	90.94
477.471	82.94
477.69	83.94
477.908	75.94
478.127	79.94
478.346	80.94
478.564	81.94
478.783	82.94
479.002	86.94
479.22	83.94
479.439	87.94
479.658	87.94
479.876	70.94
480.095	69.94
480.313	74.94
480.532	93.94
480.751	82.94
480.969	85.94
481.188	77.94
481.406	87.94
481.624	88.94
481.843	83.94
482.061	73.94
482.28	88.94
482.498	82.94
482.717	89.94
482.935	74.94
483.153	86.94
483.372	71.94
483.59	76.94
483.808	84.94
484.027	91.94
484.245	81.94
484.463	80.94
484.681	81.94
484.9	80.94
485.118	82.94
485.336	67.94
485.554	80.94
485.772	81.94
485.99	69.94
486.209	82.94
486.427	76.94
486.645	77.94
486.863	74.94
487.081	88.94
487.299	71.94
487.517	79.94
487.735	79.94
487.953	90.94
488.171	75.94
488.389	72.94
488.607	66.94
488.825	88.94
489.043	79.94
489.261	105.94
489.479	86.94
489.696	84.94
489.914	74.94
490.132	92.94
490.35	71.94
490.568	80.94
490.786	90.94
491.003	91.94
491.221	81.94
491.439	86.94
491.657	82.94
491.874	80.94
492.092	66.94
492.31	94.94
492.527	74.94
492.745	80.94
492.963	85.94
493.18	84.94
493.398	84.94
493.615	89.94
493.833	85.94
494.05	89.94
494.268	76.94
494.485	93.94
494.703	80.94
494.92	85.94
495.138	95.94
495.355	79.94
495.573	90.94
495.79	93.94
496.008	91.94
496.225	84.94
496.442	74.94
496.66	68.94
496.877	74.94
497.094	82.94
497.312	80.94
497.529	92.94
497.746	86.94
497.963	84.94
498.181	86.94
498.398	69.94
498.615	77.94
498.832	76.94
499.049	83.94
499.267	93.94
499.484	83.94
499.701	68.94
499.918	83.94
500.135	86.94
500.352	91.94
500.569	90.94
500.786	82.94
501.003	76.94
501.22	88.94
501.437	98.94
501.654	83.94
501.871	82.94
502.088	74.94
502.305	83.94
502.522	79.94
502.739	87.94
502.956	74.94
503.172	89.94
503.389	89.94
503.606	69.94
503.823	90.94
504.04	88.94
504.256	88.94
504.473	81.94
504.69	80.94
504.907	93.94
505.123	99.94
505.34	80.94
505.557	73.94
505.773	77.94
505.99	87.94
506.207	90.94
506.423	85.94
506.64	77.94
506.856	83.94
507.073	63.94
507.289	76.94
507.506	80.94
507.722	92.94
507.939	84.94
508.155	76.94
508.372	90.94
508.588	90.94
508.805	77.94
509.021	84.94
509.238	81.94
509.454	75.94
509.67	87.94
509.887	88.94
510.103	76.94
510.319	78.94
510.536	92.94
510.752	96.94
510.968	90.94
511.184	85.94
511.401	78.94
511.617	97.94
511.833	92.94
512.049	80.94
512.265	89.94
512.481	71.94
512.698	80.94
512.914	81.94
513.13	73.94
513.346	85.94
513.562	78.94
513.778	68.94
513.994	85.94
514.21	77.94
514.426	88.94
514.642	99.94
514.858	91.94
515.074	90.94
515.29	86.94
515.506	89.94
515.721	86.94
515.937	96.94
516.153	106.94
516.369	76.94
516.585	92.94
516.801	75.94
517.016	89.94
517.232	69.94
517.448	91.94
517.664	80.94
517.879	68.94
518.095	76.94
518.311	92.94
518.527	80.94
518.742	84.94
518.958	85.94
519.173	62.94
519.389	84.94
519.605	94.94
519.82	92.94
520.036	82.94
520.251	81.94
520.467	76.94
520.682	85.94
520.898	70.94
521.113	73.94
521.329	84.94
521.544	79.94
521.76	78.94
521.975	87.94
522.19	80.94
522.406	83.94
522.621	70.94
522.836	80.94
523.052	84.94
523.267	84.94
523.482	74.94
523.698	76.94
523.913	82.94
524.128	82.94
524.343	81.94
524.559	94.94
524.774	77.94
524.989	76.94
525.204	70.94
525.419	76.94
525.634	74.94
525.849	78.94
526.064	84.94
526.28	82.94
526.495	85.94
526.71	81.94
526.925	72.94
527.14	91.94
527.355	67.94
527.57	69.94
527.785	92.94
527.999	81.94
528.214	90.94
528.429	86.94
528.644	80.94
528.859	65.94
529.074	68.94
529.289	82.94
529.503	82.94
529.718	95.94
529.933	88.94
530.148	75.94
530.363	76.94
530.577	85.94
530.792	81.94
531.007	84.94
531.221	67.94
531.436	93.94
531.651	94.94
531.865	73.94
532.08	84.94
532.295	86.94
532.509	97.94
532.724	88.94
532.938	84.94
533.153	70.94
533.367	85.94
533.582	85.94
533.796	82.94
534.011	88.94
534.225	80.94
534.44	74.94
534.654	74.94
534.868	86.94
535.083	86.94
535.297	85.94
535.511	97.94
535.726	83.94
535.94	95.94
536.154	88.94
536.369	75.94
536.583	84.94
536.797	96.94
537.011	92.94
537.225	84.94
537.44	69.94
537.654	67.94
537.868	85.94
538.082	89.94
538.296	92.94
538.51	79.94
538.724	84.94
538.938	95.94
539.153	79.94
539.367	84.94
539.581	87.94
539.795	76.94
540.009	88.94
540.222	95.94
540.436	70.94
540.65	85.94
540.864	90.94
541.078	81.94
541.292	94.94
541.506	92.94
541.72	92.94
541.934	96.94
542.147	81.94
542.361	83.94
542.575	78.94
542.789	83.94
543.002	78.94
543.216	80.94
543.43	85.94
543.644	81.94
543.857	73.94
544.071	86.94
544.285	89.94
544.498	73.94
544.712	82.94
544.925	71.94
545.139	88.94
545.352	78.94
545.566	84.94
545.779	88.94
545.993	80.94
546.206	85.94
546.42	93.94
546.633	95.94
546.847	88.94
547.06	90.94
547.274	87.94
547.487	93.94
547.7	73.94
547.914	96.94
548.127	88.94
548.34	83.94
548.554	84.94
548.767	87.94
548.98	78.94
549.193	78.94
549.407	81.94
549.62	87.94
549.833	77.94
550.046	87.94
550.259	79.94
550.473	67.94
550.686	77.94
550.899	83.94
551.112	82.94
551.325	88.94
551.538	92.94
551.751	82.94
551.964	82.94
552.177	83.94
552.39	75.94
552.603	87.94
552.816	82.94
553.029	84.94
553.242	77.94
553.455	77.94
553.667	100.94
553.88	86.94
554.093	99.94
554.306	83.94
554.519	97.94
554.732	86.94
554.944	91.94
555.157	94.94
555.37	90.94
555.583	85.94
555.795	87.94
556.008	69.94
556.221	78.94
556.433	89.94
556.646	74.94
556.859	84.94
557.071	93.94
557.284	84.94
557.496	80.94
557.709	75.94
557.921	84.94
558.134	76.94
558.346	78.94
558.559	99.94
558.771	91.94
558.984	92.94
559.196	86.94
559.409	75.94
559.621	78.94
559.833	99.94
560.046	78.94
560.258	79.94
560.47	68.94
560.683	96.94
560.895	96.94
561.107	74.94
561.32	96.94
561.532	87.94
561.744	85.94
561.956	94.94
562.168	93.94
562.381	100.94
562.593	79.94
562.805	87.94
563.017	89.94
563.229	69.94
563.441	76.94
563.653	83.94
563.865	85.94
564.077	85.94
564.289	89.94
564.501	90.94
564.713	84.94
564.925	86.94
565.137	69.94
565.349	78.94
565.561	84.94
565.773	66.94
565.985	80.94
566.197	100.94
566.408	65.94
566.62	79.94
566.832	82.94
567.044	98.94
567.255	90.94
567.467	81.94
567.679	94.94
567.891	83.94
568.102	80.94
568.314	78.94
568.526	77.94
568.737	91.94
568.949	91.94
569.161	85.94
569.372	78.94
569.584	91.94
569.795	93.94
570.007	85.94
570.218	90.94
570.43	84.94
570.641	88.94
570.853	78.94
571.064	74.94
571.276	95.94
571.487	70.94
571.698	80.94
571.91	84.94
572.121	90.94
572.333	82.94
572.544	95.94
572.755	75.94
572.966	88.94
573.178	84.94
573.389	86.94
573.6	69.94
573.811	95.94
574.023	88.94
574.234	73.94
574.445	86.94
574.656	80.94
574.867	80.94
575.078	85.94
575.289	83.94
575.501	84.94
575.712	90.94
575.923	72.94
576.134	78.94
576.345	94.94
576.556	86.94
576.767	95.94
576.978	85.94
577.188	99.94
577.399	98.94
577.61	92.94
577.821	85.94
578.032	90.94
578.243	106.94
578.454	71.94
578.665	88.94
578.875	88.94
579.086	90.94
579.297	74.94
579.508	91.94
579.718	93.94
579.929	76.94
580.14	79.94
580.35	79.94
580.561	89.94
580.772	100.94
580.982	91.94
581.193	66.94
581.403	92.94
581.614	81.94
581.825	81.94
582.035	77.94
582.246	71.94
582.456	84.94
582.667	89.94
582.877	95.94
583.087	89.94
583.298	90.94
583.508	62.94
583.719	68.94
583.929	96.94
584.139	85.94
584.35	85.94
584.56	94.94
584.77	70.94
584.981	78.94
585.191	83.94
585.401	88.94
585.611	76.94
585.821	92.94
586.032	88.94
586.242	79.94
586.452	92.94
586.662	88.94
586.872	76.94
587.082	90.94
587.292	79.94
587.502	65.94
587.713	78.94
587.923	80.94
588.133	87.94
588.343	88.94
588.553	80.94
588.762	98.94
588.972	94.94
589.182	78.94
589.392	80.94
589.602	84.94
589.812	83.94
590.022	80.94
590.232	80.94
590.441	108.94
590.651	94.94
590.861	88.94
591.071	86.94
591.281	81.94
591.49	85.94
591.7	70.94
591.91	93.94
592.119	92.94
592.329	82.94
592.539	75.94
592.748	87.94
592.958	85.94
593.167	87.94
593.377	73.94
593.587	82.94
593.796	84.94
594.006	76.94
594.215	79.94
594.424	83.94
594.634	81.94
594.843	83.94
595.053	90.94
595.262	91.94
595.472	83.94
595.681	82.94
595.89	89.94
596.1	104.94
596.309	84.94
596.518	80.94
596.727	93.94
596.937	83.94
597.146	88.94
597.355	82.94
597.564	81.94
597.774	73.94
597.983	79.94
598.192	85.94
598.401	83.94
598.61	85.94
598.819	81.94
599.028	78.94
599.237	89.94
599.446	80.94
599.655	90.94
599.864	88.94
600.073	72.94
600.282	94.94
600.491	91.94
600.7	81.94
600.909	79.94
601.118	89.94
601.327	75.94
601.536	83.94
601.745	81.94
601.953	78.94
602.162	85.94
602.371	83.94
602.58	93.94
602.789	85.94
602.997	74.94
603.206	83.94
603.415	95.94
603.623	76.94
603.832	88.94
604.041	90.94
604.249	80.94
604.458	86.94
604.666	84.94
604.875	88.94
605.084	71.94
605.292	81.94
605.501	75.94
605.709	97.94
605.918	78.94
606.126	87.94
606.334	88.94
606.543	84.94
606.751	99.94
606.96	85.94
607.168	80.94
607.376	78.94
607.585	86.94
607.793	92.94
608.001	78.94
608.21	79.94
608.418	85.94
608.626	91.94
608.834	97.94
609.043	76.94
609.251	93.94
609.459	90.94
609.667	84.94
609.875	90.94
610.083	77.94
610.291	82.94
610.499	79.94
610.707	81.94
610.916	91.94
611.124	77.94
611.332	65.94
611.54	92.94
611.748	96.94
611.955	78.94
612.163	85.94
612.371	84.94
612.579	72.94
612.787	67.94
612.995	68.94
613.203	85.94
613.411	73.94
613.618	76.94
613.826	69.94
614.034	88.94
614.242	78.94
614.449	83.94
614.657	88.94
614.865	82.94
615.072	76.94
615.28	85.94
615.488	92.94
615.695	82.94
615.903	86.94
616.111	85.94
616.318	78.94
616.526	79.94
616.733	85.94
616.941	74.94
617.148	76.94
617.356	90.94
617.563	80.94
617.771	93.94
617.978	92.94
618.185	93.94
618.393	86.94
618.6	76.94
618.807	86.94
619.015	95.94
619.222	86.94
619.429	83.94
619.637	74.94
619.844	84.94
620.051	81.94
620.258	80.94
620.466	78.94
620.673	84.94
620.88	69.94
621.087	80.94
621.294	86.94
621.501	87.94
621.708	82.94
621.915	82.94
622.122	82.94
622.329	77.94
622.536	92.94
622.743	86.94
622.95	68.94
623.157	77.94
623.364	81.94
623.571	82.94
623.778	89.94
623.985	98.94
624.192	80.94
624.399	89.94
624.606	86.94
624.812	89.94
625.019	83.94
625.226	88.94
625.433	98.94
625.639	93.94
625.846	88.94
626.053	84.94
626.259	78.94
626.466	95.94
626.673	81.94
626.879	75.94
627.086	83.94
627.293	74.94
627.499	91.94
627.706	80.94
627.912	90.94
628.119	81.94
628.325	97.94
628.532	81.94
628.738	69.94
628.945	73.94
629.151	85.94
629.357	85.94
629.564	80.94
629.77	79.94
629.976	89.94
630.183	101.94
630.389	90.94
630.595	99.94
630.802	74.94
631.008	88.94
631.214	70.94
631.42	94.94
631.627	93.94
631.833	93.94
632.039	73.94
632.245	88.94
632.451	87.94
632.657	77.94
632.863	72.94
633.069	81.94
633.275	92.94
633.481	78.94
633.688	68.94
633.893	84.94
634.099	73.94
634.305	74.94
634.511	79.94
634.717	62.94
634.923	75.94
635.129	78.94
635.335	72.94
635.541	67.94
635.747	84.94
635.952	85.94
636.158	90.94
636.364	77.94
636.57	87.94
636.775	92.94
636.981	85.94
637.187	70.94
637.392	83.94
637.598	82.94
637.804	97.94
638.009	85.94
638.215	80.94
638.421	84.94
638.626	85.94
638.832	68.94
639.037	77.94
639.243	75.94
639.448	91.94
639.654	83.94
639.859	85.94
640.065	76.94
640.27	94.94
640.475	82.94
640.681	79.94
640.886	74.94
641.091	92.94
641.297	91.94
641.502	90.94
641.707	77.94
641.913	87.94
642.118	76.94
642.323	81.94
642.528	85.94
642.733	71.94
642.939	69.94
643.144	67.94
643.349	79.94
643.554	76.94
643.759	92.94
643.964	91.94
644.169	82.94
644.374	92.94
644.579	84.94
644.784	72.94
644.989	86.94
645.194	91.94
645.399	85.94
645.604	75.94
645.809	97.94
646.014	79.94
646.219	78.94
646.423	79.94
646.628	92.94
646.833	76.94
647.038	80.94
647.243	92.94
647.447	91.94
647.652	78.94
647.857	88.94
648.062	81.94
648.266	91.94
648.471	79.94
648.676	84.94
648.88	82.94
649.085	82.94
649.289	89.94
649.494	81.94
649.698	87.94
649.903	78.94
650.107	80.94
650.312	74.94
650.516	81.94
650.721	81.94
650.925	61.94
651.13	77.94
651.334	81.94
651.539	91.94
651.743	76.94
651.947	77.94
652.152	78.94
652.356	93.94
652.56	84.94
652.764	98.94
652.969	89.94
653.173	94.94
653.377	86.94
653.581	73.94
653.785	79.94
653.99	70.94
654.194	82.94
654.398	91.94
654.602	74.94
654.806	84.94
655.01	79.94
655.214	87.94
655.418	82.94
655.622	82.94
655.826	80.94
656.03	80.94
656.234	89.94
656.438	79.94
656.642	81.94
656.846	75.94
657.049	90.94
657.253	79.94
657.457	83.94
657.661	95.94
657.865	97.94
658.068	84.94
658.272	96.94
658.476	90.94
658.68	83.94
658.883	72.94
659.087	77.94
659.291	84.94
659.494	79.94
659.698	92.94
659.901	82.94
660.105	68.94
660.309	84.94
660.512	65.94
660.716	69.94
660.919	82.94
661.123	89.94
661.326	77.94
661.53	71.94
661.733	73.94
661.936	82.94
662.14	83.94
662.343	83.94
662.546	81.94
662.75	73.94
662.953	86.94
663.156	96.94
663.36	84.94
663.563	85.94
663.766	98.94
663.969	86.94
664.173	70.94
664.376	81.94
664.579	86.94
664.782	88.94
664.985	93.94
665.188	85.94
665.391	79.94
665.594	68.94
665.797	89.94
666	88.94
666.203	85.94
666.406	80.94
666.609	88.94
666.812	68.94
667.015	80.94
667.218	88.94
667.421	81.94
667.624	69.94
667.827	88.94
668.03	88.94
668.232	79.94
668.435	84.94
668.638	81.94
668.841	84.94
669.043	74.94
669.246	99.94
669.449	82.94
669.651	75.94
669.854	84.94
670.057	64.94
670.259	93.94
670.462	83.94
670.665	85.94
670.867	73.94
671.07	89.94
671.272	88.94
671.475	83.94
671.677	74.94
671.88	75.94
672.082	70.94
672.284	87.94
672.487	81.94
672.689	93.94
672.892	72.94
