Data from Background_1_HRD10591_00008.txt Node
Date: Wed Nov 05 14:39:02 EST 2025
User: Yrep
Spectrometer: HR+D1059
Trigger mode: 1
Integration Time (sec): 1.000000E-1
Scans to average: 1
Electric dark correction enabled: true
Nonlinearity correction enabled: false
Boxcar width: 0
XAxis mode: Wavelengths
Number of Pixels in Spectrum: 2048
>>>>>Begin Spectral Data<<<<<
223.165	-19.12
223.4	-19.12
223.635	-19.12
223.869	-20.12
224.104	-8.12
224.338	1.88
224.573	-19.12
224.808	-14.12
225.042	-12.12
225.277	4.88
225.511	-16.12
225.746	14.88
225.98	-1.12
226.215	11.88
226.449	5.88
226.683	9.88
226.918	27.88
227.152	32.88
227.387	41.88
227.621	42.88
227.856	46.88
228.09	39.88
228.324	55.88
228.559	66.88
228.793	61.88
229.027	51.88
229.262	53.88
229.496	69.88
229.73	59.88
229.964	69.88
230.199	69.88
230.433	61.88
230.667	65.88
230.901	77.88
231.136	77.88
231.37	75.88
231.604	79.88
231.838	76.88
232.072	69.88
232.306	78.88
232.541	75.88
232.775	72.88
233.009	72.88
233.243	73.88
233.477	74.88
233.711	87.88
233.945	83.88
234.179	86.88
234.413	79.88
234.647	65.88
234.881	72.88
235.115	66.88
235.349	81.88
235.583	73.88
235.817	69.88
236.051	75.88
236.285	63.88
236.519	71.88
236.753	90.88
236.987	83.88
237.221	61.88
237.455	53.88
237.689	76.88
237.922	68.88
238.156	75.88
238.39	69.88
238.624	64.88
238.858	72.88
239.091	71.88
239.325	72.88
239.559	69.88
239.793	70.88
240.027	71.88
240.26	78.88
240.494	82.88
240.728	78.88
240.961	79.88
241.195	85.88
241.429	85.88
241.662	73.88
241.896	73.88
242.13	68.88
242.363	66.88
242.597	73.88
242.83	79.88
243.064	78.88
243.298	66.88
243.531	69.88
243.765	65.88
243.998	87.88
244.232	83.88
244.465	81.88
244.699	74.88
244.932	78.88
245.166	80.88
245.399	92.88
245.633	68.88
245.866	62.88
246.099	76.88
246.333	73.88
246.566	71.88
246.8	57.88
247.033	75.88
247.266	77.88
247.5	80.88
247.733	62.88
247.966	80.88
248.2	87.88
248.433	71.88
248.666	80.88
248.899	89.88
249.133	72.88
249.366	68.88
249.599	69.88
249.832	72.88
250.066	68.88
250.299	81.88
250.532	57.88
250.765	82.88
250.998	75.88
251.231	61.88
251.465	80.88
251.698	81.88
251.931	78.88
252.164	61.88
252.397	76.88
252.63	82.88
252.863	77.88
253.096	80.88
253.329	82.88
253.562	64.88
253.795	81.88
254.028	77.88
254.261	67.88
254.494	72.88
254.727	83.88
254.96	76.88
255.193	80.88
255.426	71.88
255.659	68.88
255.892	78.88
256.124	83.88
256.357	70.88
256.59	88.88
256.823	77.88
257.056	59.88
257.289	70.88
257.521	67.88
257.754	79.88
257.987	80.88
258.22	70.88
258.452	64.88
258.685	64.88
258.918	76.88
259.151	64.88
259.383	79.88
259.616	67.88
259.849	69.88
260.081	81.88
260.314	91.88
260.547	80.88
260.779	72.88
261.012	66.88
261.244	78.88
261.477	81.88
261.71	63.88
261.942	68.88
262.175	85.88
262.407	72.88
262.64	78.88
262.872	75.88
263.105	71.88
263.337	82.88
263.57	83.88
263.802	75.88
264.035	73.88
264.267	86.88
264.499	66.88
264.732	53.88
264.964	61.88
265.197	87.88
265.429	92.88
265.661	78.88
265.894	77.88
266.126	93.88
266.358	77.88
266.591	80.88
266.823	83.88
267.055	75.88
267.287	78.88
267.52	76.88
267.752	79.88
267.984	78.88
268.216	68.88
268.448	75.88
268.681	69.88
268.913	88.88
269.145	80.88
269.377	78.88
269.609	79.88
269.841	88.88
270.073	84.88
270.306	79.88
270.538	73.88
270.77	75.88
271.002	77.88
271.234	84.88
271.466	78.88
271.698	63.88
271.93	83.88
272.162	87.88
272.394	63.88
272.626	71.88
272.858	72.88
273.09	85.88
273.322	83.88
273.553	77.88
273.785	73.88
274.017	87.88
274.249	84.88
274.481	78.88
274.713	75.88
274.945	78.88
275.176	74.88
275.408	63.88
275.64	71.88
275.872	68.88
276.104	64.88
276.335	75.88
276.567	71.88
276.799	86.88
277.031	81.88
277.262	67.88
277.494	81.88
277.726	86.88
277.957	80.88
278.189	81.88
278.421	85.88
278.652	85.88
278.884	80.88
279.115	69.88
279.347	73.88
279.579	85.88
279.81	72.88
280.042	85.88
280.273	79.88
280.505	78.88
280.736	86.88
280.968	77.88
281.199	71.88
281.431	72.88
281.662	88.88
281.894	65.88
282.125	79.88
282.356	75.88
282.588	69.88
282.819	95.88
283.051	86.88
283.282	78.88
283.513	79.88
283.745	79.88
283.976	74.88
284.207	87.88
284.439	87.88
284.67	80.88
284.901	71.88
285.132	69.88
285.364	78.88
285.595	91.88
285.826	87.88
286.057	76.88
286.288	79.88
286.52	71.88
286.751	79.88
286.982	86.88
287.213	80.88
287.444	81.88
287.675	74.88
287.906	87.88
288.138	73.88
288.369	80.88
288.6	92.88
288.831	80.88
289.062	82.88
289.293	79.88
289.524	87.88
289.755	68.88
289.986	76.88
290.217	80.88
290.448	77.88
290.679	76.88
290.91	88.88
291.141	73.88
291.371	77.88
291.602	83.88
291.833	83.88
292.064	82.88
292.295	75.88
292.526	81.88
292.757	71.88
292.987	82.88
293.218	77.88
293.449	85.88
293.68	72.88
293.91	69.88
294.141	87.88
294.372	83.88
294.603	81.88
294.833	94.88
295.064	81.88
295.295	81.88
295.525	77.88
295.756	75.88
295.987	78.88
296.217	80.88
296.448	87.88
296.679	77.88
296.909	81.88
297.14	80.88
297.37	79.88
297.601	78.88
297.831	79.88
298.062	79.88
298.292	77.88
298.523	76.88
298.753	91.88
298.984	99.88
299.214	76.88
299.445	75.88
299.675	75.88
299.905	68.88
300.136	77.88
300.366	81.88
300.597	77.88
300.827	77.88
301.057	71.88
301.288	77.88
301.518	79.88
301.748	81.88
301.979	88.88
302.209	83.88
302.439	71.88
302.669	76.88
302.9	96.88
303.13	87.88
303.36	83.88
303.59	89.88
303.82	82.88
304.051	87.88
304.281	84.88
304.511	86.88
304.741	70.88
304.971	85.88
305.201	103.88
305.431	78.88
305.661	73.88
305.891	71.88
306.121	79.88
306.352	78.88
306.582	84.88
306.812	81.88
307.042	77.88
307.272	84.88
307.502	76.88
307.731	79.88
307.961	88.88
308.191	61.88
308.421	71.88
308.651	82.88
308.881	69.88
309.111	87.88
309.341	87.88
309.571	83.88
309.8	82.88
310.03	89.88
310.26	75.88
310.49	68.88
310.72	80.88
310.949	78.88
311.179	70.88
311.409	89.88
311.639	72.88
311.868	81.88
312.098	75.88
312.328	70.88
312.557	79.88
312.787	80.88
313.017	70.88
313.246	81.88
313.476	65.88
313.706	79.88
313.935	70.88
314.165	83.88
314.394	72.88
314.624	84.88
314.853	71.88
315.083	80.88
315.312	80.88
315.542	76.88
315.771	71.88
316.001	80.88
316.23	75.88
316.46	97.88
316.689	90.88
316.919	75.88
317.148	83.88
317.377	83.88
317.607	69.88
317.836	92.88
318.065	81.88
318.295	71.88
318.524	75.88
318.753	93.88
318.983	93.88
319.212	79.88
319.441	80.88
319.67	71.88
319.9	92.88
320.129	77.88
320.358	67.88
320.587	82.88
320.816	61.88
321.046	84.88
321.275	77.88
321.504	78.88
321.733	74.88
321.962	80.88
322.191	71.88
322.42	81.88
322.649	87.88
322.878	95.88
323.108	88.88
323.337	74.88
323.566	72.88
323.795	86.88
324.024	87.88
324.253	79.88
324.482	84.88
324.71	83.88
324.939	81.88
325.168	87.88
325.397	70.88
325.626	79.88
325.855	79.88
326.084	77.88
326.313	75.88
326.542	76.88
326.77	73.88
326.999	78.88
327.228	92.88
327.457	74.88
327.686	80.88
327.914	89.88
328.143	88.88
328.372	96.88
328.6	93.88
328.829	76.88
329.058	86.88
329.287	85.88
329.515	74.88
329.744	66.88
329.972	81.88
330.201	90.88
330.43	69.88
330.658	90.88
330.887	73.88
331.115	75.88
331.344	85.88
331.572	81.88
331.801	80.88
332.03	75.88
332.258	79.88
332.486	87.88
332.715	76.88
332.943	90.88
333.172	68.88
333.4	85.88
333.629	76.88
333.857	90.88
334.085	91.88
334.314	77.88
334.542	77.88
334.771	85.88
334.999	82.88
335.227	61.88
335.455	88.88
335.684	73.88
335.912	92.88
336.14	87.88
336.369	84.88
336.597	83.88
336.825	87.88
337.053	72.88
337.281	80.88
337.51	85.88
337.738	75.88
337.966	78.88
338.194	83.88
338.422	71.88
338.65	74.88
338.878	75.88
339.106	75.88
339.334	88.88
339.562	73.88
339.79	79.88
340.018	75.88
340.246	83.88
340.474	96.88
340.702	78.88
340.93	77.88
341.158	73.88
341.386	76.88
341.614	86.88
341.842	74.88
342.07	79.88
342.298	69.88
342.526	81.88
342.754	77.88
342.981	81.88
343.209	73.88
343.437	73.88
343.665	75.88
343.893	72.88
344.12	80.88
344.348	87.88
344.576	76.88
344.804	75.88
345.031	83.88
345.259	76.88
345.487	88.88
345.714	70.88
345.942	78.88
346.17	79.88
346.397	73.88
346.625	77.88
346.853	73.88
347.08	74.88
347.308	76.88
347.535	78.88
347.763	80.88
347.99	81.88
348.218	85.88
348.445	76.88
348.673	92.88
348.9	80.88
349.128	71.88
349.355	69.88
349.583	73.88
349.81	88.88
350.037	78.88
350.265	57.88
350.492	89.88
350.72	85.88
350.947	71.88
351.174	90.88
351.402	70.88
351.629	78.88
351.856	80.88
352.083	78.88
352.311	71.88
352.538	82.88
352.765	99.88
352.992	83.88
353.22	93.88
353.447	62.88
353.674	75.88
353.901	76.88
354.128	83.88
354.355	94.88
354.583	85.88
354.81	91.88
355.037	77.88
355.264	75.88
355.491	69.88
355.718	67.88
355.945	83.88
356.172	70.88
356.399	74.88
356.626	75.88
356.853	76.88
357.08	86.88
357.307	78.88
357.534	61.88
357.761	75.88
357.988	90.88
358.215	76.88
358.441	65.88
358.668	82.88
358.895	67.88
359.122	84.88
359.349	77.88
359.576	79.88
359.802	87.88
360.029	86.88
360.256	78.88
360.483	73.88
360.709	81.88
360.936	85.88
361.163	78.88
361.39	59.88
361.616	59.88
361.843	79.88
362.07	74.88
362.296	86.88
362.523	78.88
362.749	89.88
362.976	87.88
363.203	69.88
363.429	73.88
363.656	87.88
363.882	91.88
364.109	77.88
364.335	94.88
364.562	65.88
364.788	81.88
365.015	73.88
365.241	80.88
365.468	75.88
365.694	77.88
365.92	66.88
366.147	87.88
366.373	78.88
366.599	83.88
366.826	74.88
367.052	79.88
367.278	78.88
367.505	92.88
367.731	80.88
367.957	77.88
368.184	71.88
368.41	60.88
368.636	79.88
368.862	87.88
369.089	77.88
369.315	89.88
369.541	76.88
369.767	80.88
369.993	83.88
370.219	74.88
370.445	94.88
370.672	90.88
370.898	85.88
371.124	82.88
371.35	76.88
371.576	80.88
371.802	86.88
372.028	89.88
372.254	78.88
372.48	88.88
372.706	85.88
372.932	81.88
373.158	72.88
373.384	63.88
373.61	76.88
373.835	89.88
374.061	78.88
374.287	88.88
374.513	82.88
374.739	94.88
374.965	69.88
375.191	91.88
375.416	77.88
375.642	82.88
375.868	90.88
376.094	83.88
376.319	74.88
376.545	75.88
376.771	86.88
376.997	83.88
377.222	80.88
377.448	86.88
377.674	83.88
377.899	68.88
378.125	91.88
378.35	77.88
378.576	73.88
378.802	89.88
379.027	83.88
379.253	88.88
379.478	73.88
379.704	66.88
379.929	72.88
380.155	69.88
380.38	79.88
380.606	84.88
380.831	64.88
381.057	84.88
381.282	99.88
381.507	83.88
381.733	91.88
381.958	68.88
382.184	55.88
382.409	65.88
382.634	68.88
382.86	76.88
383.085	72.88
383.31	96.88
383.535	80.88
383.761	78.88
383.986	89.88
384.211	64.88
384.436	84.88
384.662	88.88
384.887	93.88
385.112	80.88
385.337	78.88
385.562	76.88
385.787	92.88
386.013	84.88
386.238	70.88
386.463	60.88
386.688	87.88
386.913	77.88
387.138	89.88
387.363	78.88
387.588	51.88
387.813	81.88
388.038	91.88
388.263	77.88
388.488	69.88
388.713	84.88
388.938	89.88
389.163	70.88
389.387	73.88
389.612	60.88
389.837	90.88
390.062	93.88
390.287	84.88
390.512	88.88
390.736	77.88
390.961	80.88
391.186	76.88
391.411	68.88
391.636	89.88
391.86	80.88
392.085	69.88
392.31	77.88
392.534	84.88
392.759	71.88
392.984	75.88
393.208	83.88
393.433	77.88
393.658	79.88
393.882	77.88
394.107	83.88
394.331	87.88
394.556	73.88
394.78	75.88
395.005	73.88
395.229	83.88
395.454	72.88
395.678	77.88
395.903	80.88
396.127	73.88
396.352	75.88
396.576	91.88
396.801	75.88
397.025	76.88
397.249	64.88
397.474	92.88
397.698	88.88
397.922	83.88
398.147	74.88
398.371	61.88
398.595	76.88
398.82	73.88
399.044	68.88
399.268	75.88
399.492	86.88
399.717	73.88
399.941	61.88
400.165	84.88
400.389	65.88
400.613	74.88
400.837	66.88
401.062	80.88
401.286	88.88
401.51	84.88
401.734	74.88
401.958	71.88
402.182	83.88
402.406	60.88
402.63	86.88
402.854	63.88
403.078	79.88
403.302	78.88
403.526	84.88
403.75	69.88
403.974	82.88
404.198	75.88
404.422	84.88
404.645	73.88
404.869	80.88
405.093	77.88
405.317	71.88
405.541	77.88
405.765	69.88
405.988	79.88
406.212	82.88
406.436	61.88
406.66	93.88
406.883	81.88
407.107	82.88
407.331	82.88
407.555	71.88
407.778	85.88
408.002	73.88
408.226	69.88
408.449	71.88
408.673	85.88
408.896	77.88
409.12	72.88
409.344	80.88
409.567	99.88
409.791	64.88
410.014	69.88
410.238	67.88
410.461	65.88
410.685	91.88
410.908	74.88
411.132	89.88
411.355	74.88
411.578	78.88
411.802	69.88
412.025	89.88
412.249	78.88
412.472	75.88
412.695	73.88
412.919	79.88
413.142	65.88
413.365	68.88
413.589	78.88
413.812	67.88
414.035	85.88
414.258	65.88
414.482	82.88
414.705	94.88
414.928	85.88
415.151	75.88
415.374	66.88
415.597	89.88
415.821	73.88
416.044	79.88
416.267	81.88
416.49	71.88
416.713	81.88
416.936	85.88
417.159	62.88
417.382	75.88
417.605	68.88
417.828	78.88
418.051	74.88
418.274	84.88
418.497	74.88
418.72	78.88
418.943	86.88
419.166	76.88
419.389	75.88
419.611	72.88
419.834	84.88
420.057	81.88
420.28	83.88
420.503	83.88
420.726	70.88
420.948	69.88
421.171	64.88
421.394	81.88
421.617	73.88
421.839	76.88
422.062	92.88
422.285	73.88
422.507	74.88
422.73	69.88
422.953	76.88
423.175	77.88
423.398	78.88
423.621	65.88
423.843	74.88
424.066	77.88
424.288	75.88
424.511	73.88
424.733	90.88
424.956	82.88
425.178	77.88
425.401	86.88
425.623	87.88
425.846	55.88
426.068	88.88
426.291	69.88
426.513	72.88
426.735	87.88
426.958	70.88
427.18	78.88
427.402	62.88
427.625	75.88
427.847	86.88
428.069	86.88
428.292	61.88
428.514	79.88
428.736	74.88
428.958	72.88
429.181	74.88
429.403	65.88
429.625	91.88
429.847	88.88
430.069	78.88
430.292	80.88
430.514	74.88
430.736	78.88
430.958	75.88
431.18	79.88
431.402	72.88
431.624	75.88
431.846	83.88
432.068	75.88
432.29	73.88
432.512	83.88
432.734	82.88
432.956	84.88
433.178	88.88
433.4	65.88
433.622	73.88
433.844	75.88
434.066	62.88
434.287	70.88
434.509	61.88
434.731	86.88
434.953	79.88
435.175	73.88
435.397	81.88
435.618	75.88
435.84	89.88
436.062	99.88
436.284	79.88
436.505	77.88
436.727	89.88
436.949	69.88
437.17	81.88
437.392	65.88
437.614	73.88
437.835	83.88
438.057	70.88
438.278	57.88
438.5	69.88
438.721	76.88
438.943	76.88
439.165	74.88
439.386	79.88
439.608	88.88
439.829	74.88
440.05	83.88
440.272	71.88
440.493	69.88
440.715	76.88
440.936	78.88
441.158	83.88
441.379	79.88
441.6	89.88
441.822	71.88
442.043	75.88
442.264	85.88
442.486	78.88
442.707	86.88
442.928	70.88
443.149	74.88
443.371	70.88
443.592	82.88
443.813	73.88
444.034	79.88
444.255	81.88
444.476	69.88
444.698	81.88
444.919	74.88
445.14	135.88
445.361	104.88
445.582	74.88
445.803	81.88
446.024	73.88
446.245	77.88
446.466	82.88
446.687	77.88
446.908	75.88
447.129	78.88
447.35	72.88
447.571	63.88
447.792	70.88
448.013	87.88
448.234	77.88
448.455	75.88
448.675	70.88
448.896	81.88
449.117	66.88
449.338	85.88
449.559	63.88
449.779	62.88
450	66.88
450.221	76.88
450.442	71.88
450.662	75.88
450.883	83.88
451.104	74.88
451.324	74.88
451.545	80.88
451.766	70.88
451.986	80.88
452.207	69.88
452.428	71.88
452.648	74.88
452.869	75.88
453.089	71.88
453.31	78.88
453.53	75.88
453.751	84.88
453.971	80.88
454.192	71.88
454.412	68.88
454.633	71.88
454.853	71.88
455.073	65.88
455.294	79.88
455.514	79.88
455.734	90.88
455.955	79.88
456.175	75.88
456.395	80.88
456.616	67.88
456.836	76.88
457.056	74.88
457.276	87.88
457.497	73.88
457.717	80.88
457.937	76.88
458.157	73.88
458.377	72.88
458.598	67.88
458.818	73.88
459.038	87.88
459.258	81.88
459.478	72.88
459.698	70.88
459.918	78.88
460.138	75.88
460.358	81.88
460.578	82.88
460.798	78.88
461.018	87.88
461.238	84.88
461.458	61.88
461.678	78.88
461.898	83.88
462.118	69.88
462.338	69.88
462.558	90.88
462.777	75.88
462.997	66.88
463.217	77.88
463.437	80.88
463.657	73.88
463.876	78.88
464.096	86.88
464.316	87.88
464.536	89.88
464.755	89.88
464.975	72.88
465.195	83.88
465.414	84.88
465.634	80.88
465.854	70.88
466.073	70.88
466.293	80.88
466.512	79.88
466.732	63.88
466.951	87.88
467.171	71.88
467.391	79.88
467.61	70.88
467.829	77.88
468.049	75.88
468.268	71.88
468.488	63.88
468.707	77.88
468.927	72.88
469.146	73.88
469.365	93.88
469.585	85.88
469.804	70.88
470.023	67.88
470.243	90.88
470.462	78.88
470.681	72.88
470.901	86.88
471.12	80.88
471.339	89.88
471.558	82.88
471.777	76.88
471.997	81.88
472.216	80.88
472.435	77.88
472.654	77.88
472.873	67.88
473.092	71.88
473.311	78.88
473.53	83.88
473.749	72.88
473.968	92.88
474.187	62.88
474.406	75.88
474.625	73.88
474.844	83.88
475.063	74.88
475.282	78.88
475.501	80.88
475.72	75.88
475.939	84.88
476.158	75.88
476.377	77.88
476.596	89.88
476.814	75.88
477.033	80.88
477.252	77.88
477.471	78.88
477.69	66.88
477.908	77.88
478.127	68.88
478.346	77.88
478.564	77.88
478.783	66.88
479.002	79.88
479.22	86.88
479.439	68.88
479.658	69.88
479.876	80.88
480.095	86.88
480.313	73.88
480.532	88.88
480.751	91.88
480.969	75.88
481.188	79.88
481.406	85.88
481.624	75.88
481.843	72.88
482.061	62.88
482.28	71.88
482.498	88.88
482.717	69.88
482.935	77.88
483.153	73.88
483.372	61.88
483.59	79.88
483.808	89.88
484.027	84.88
484.245	71.88
484.463	67.88
484.681	80.88
484.9	60.88
485.118	78.88
485.336	89.88
485.554	79.88
485.772	72.88
485.99	66.88
486.209	81.88
486.427	71.88
486.645	75.88
486.863	72.88
487.081	77.88
487.299	76.88
487.517	59.88
487.735	77.88
487.953	87.88
488.171	77.88
488.389	77.88
488.607	72.88
488.825	73.88
489.043	75.88
489.261	87.88
489.479	86.88
489.696	75.88
489.914	71.88
490.132	74.88
490.35	76.88
490.568	73.88
490.786	69.88
491.003	88.88
491.221	77.88
491.439	73.88
491.657	79.88
491.874	84.88
492.092	67.88
492.31	81.88
492.527	82.88
492.745	82.88
492.963	73.88
493.18	75.88
493.398	71.88
493.615	71.88
493.833	59.88
494.05	64.88
494.268	71.88
494.485	76.88
494.703	89.88
494.92	87.88
495.138	88.88
495.355	78.88
495.573	75.88
495.79	53.88
496.008	75.88
496.225	75.88
496.442	77.88
496.66	74.88
496.877	90.88
497.094	91.88
497.312	85.88
497.529	72.88
497.746	61.88
497.963	83.88
498.181	74.88
498.398	83.88
498.615	84.88
498.832	70.88
499.049	85.88
499.267	83.88
499.484	83.88
499.701	83.88
499.918	79.88
500.135	87.88
500.352	84.88
500.569	81.88
500.786	83.88
501.003	76.88
501.22	77.88
501.437	85.88
501.654	63.88
501.871	83.88
502.088	84.88
502.305	81.88
502.522	74.88
502.739	92.88
502.956	80.88
503.172	72.88
503.389	78.88
503.606	64.88
503.823	97.88
504.04	86.88
504.256	71.88
504.473	64.88
504.69	71.88
504.907	79.88
505.123	78.88
505.34	66.88
505.557	89.88
505.773	72.88
505.99	81.88
506.207	84.88
506.423	74.88
506.64	64.88
506.856	88.88
507.073	75.88
507.289	83.88
507.506	73.88
507.722	71.88
507.939	73.88
508.155	91.88
508.372	81.88
508.588	85.88
508.805	86.88
509.021	77.88
509.238	83.88
509.454	83.88
509.67	69.88
509.887	79.88
510.103	86.88
510.319	83.88
510.536	68.88
510.752	83.88
510.968	75.88
511.184	81.88
511.401	72.88
511.617	71.88
511.833	76.88
512.049	76.88
512.265	94.88
512.481	89.88
512.698	84.88
512.914	79.88
513.13	75.88
513.346	80.88
513.562	83.88
513.778	71.88
513.994	74.88
514.21	78.88
514.426	83.88
514.642	77.88
514.858	67.88
515.074	76.88
515.29	82.88
515.506	87.88
515.721	86.88
515.937	83.88
516.153	89.88
516.369	86.88
516.585	84.88
516.801	88.88
517.016	90.88
517.232	68.88
517.448	86.88
517.664	75.88
517.879	80.88
518.095	73.88
518.311	83.88
518.527	66.88
518.742	73.88
518.958	78.88
519.173	83.88
519.389	77.88
519.605	70.88
519.82	76.88
520.036	79.88
520.251	83.88
520.467	81.88
520.682	77.88
520.898	84.88
521.113	78.88
521.329	84.88
521.544	60.88
521.76	80.88
521.975	72.88
522.19	74.88
522.406	70.88
522.621	88.88
522.836	77.88
523.052	93.88
523.267	85.88
523.482	80.88
523.698	78.88
523.913	83.88
524.128	87.88
524.343	102.88
524.559	88.88
524.774	79.88
524.989	71.88
525.204	80.88
525.419	72.88
525.634	73.88
525.849	81.88
526.064	63.88
526.28	85.88
526.495	73.88
526.71	83.88
526.925	83.88
527.14	79.88
527.355	95.88
527.57	79.88
527.785	89.88
527.999	88.88
528.214	71.88
528.429	80.88
528.644	96.88
528.859	77.88
529.074	95.88
529.289	68.88
529.503	73.88
529.718	88.88
529.933	86.88
530.148	85.88
530.363	84.88
530.577	81.88
530.792	66.88
531.007	79.88
531.221	74.88
531.436	77.88
531.651	92.88
531.865	84.88
532.08	84.88
532.295	83.88
532.509	79.88
532.724	62.88
532.938	64.88
533.153	69.88
533.367	73.88
533.582	80.88
533.796	83.88
534.011	90.88
534.225	92.88
534.44	87.88
534.654	83.88
534.868	88.88
535.083	68.88
535.297	80.88
535.511	78.88
535.726	84.88
535.94	99.88
536.154	87.88
536.369	75.88
536.583	88.88
536.797	85.88
537.011	73.88
537.225	80.88
537.44	88.88
537.654	82.88
537.868	82.88
538.082	86.88
538.296	80.88
538.51	89.88
538.724	68.88
538.938	89.88
539.153	83.88
539.367	79.88
539.581	80.88
539.795	80.88
540.009	78.88
540.222	76.88
540.436	84.88
540.65	78.88
540.864	78.88
541.078	89.88
541.292	77.88
541.506	83.88
541.72	74.88
541.934	88.88
542.147	74.88
542.361	84.88
542.575	91.88
542.789	68.88
543.002	67.88
543.216	87.88
543.43	77.88
543.644	85.88
543.857	91.88
544.071	87.88
544.285	64.88
544.498	83.88
544.712	75.88
544.925	94.88
545.139	87.88
545.352	71.88
545.566	73.88
545.779	77.88
545.993	73.88
546.206	74.88
546.42	78.88
546.633	83.88
546.847	83.88
547.06	87.88
547.274	77.88
547.487	86.88
547.7	85.88
547.914	79.88
548.127	66.88
548.34	77.88
548.554	75.88
548.767	69.88
548.98	89.88
549.193	83.88
549.407	76.88
549.62	81.88
549.833	84.88
550.046	76.88
550.259	81.88
550.473	74.88
550.686	85.88
550.899	75.88
551.112	84.88
551.325	71.88
551.538	80.88
551.751	70.88
551.964	56.88
552.177	79.88
552.39	73.88
552.603	77.88
552.816	89.88
553.029	91.88
553.242	70.88
553.455	85.88
553.667	97.88
553.88	76.88
554.093	80.88
554.306	81.88
554.519	79.88
554.732	94.88
554.944	89.88
555.157	91.88
555.37	80.88
555.583	75.88
555.795	89.88
556.008	77.88
556.221	69.88
556.433	81.88
556.646	75.88
556.859	79.88
557.071	82.88
557.284	75.88
557.496	84.88
557.709	54.88
557.921	72.88
558.134	88.88
558.346	89.88
558.559	84.88
558.771	92.88
558.984	85.88
559.196	88.88
559.409	73.88
559.621	85.88
559.833	87.88
560.046	78.88
560.258	71.88
560.47	70.88
560.683	71.88
560.895	62.88
561.107	85.88
561.32	69.88
561.532	83.88
561.744	74.88
561.956	80.88
562.168	59.88
562.381	69.88
562.593	84.88
562.805	75.88
563.017	73.88
563.229	68.88
563.441	64.88
563.653	68.88
563.865	64.88
564.077	74.88
564.289	76.88
564.501	66.88
564.713	80.88
564.925	85.88
565.137	83.88
565.349	79.88
565.561	82.88
565.773	85.88
565.985	71.88
566.197	77.88
566.408	72.88
566.62	76.88
566.832	87.88
567.044	82.88
567.255	87.88
567.467	84.88
567.679	83.88
567.891	77.88
568.102	78.88
568.314	87.88
568.526	80.88
568.737	85.88
568.949	70.88
569.161	75.88
569.372	74.88
569.584	88.88
569.795	79.88
570.007	87.88
570.218	71.88
570.43	87.88
570.641	91.88
570.853	92.88
571.064	74.88
571.276	80.88
571.487	92.88
571.698	85.88
571.91	72.88
572.121	73.88
572.333	76.88
572.544	66.88
572.755	79.88
572.966	67.88
573.178	79.88
573.389	76.88
573.6	80.88
573.811	79.88
574.023	80.88
574.234	96.88
574.445	75.88
574.656	78.88
574.867	73.88
575.078	73.88
575.289	73.88
575.501	82.88
575.712	81.88
575.923	86.88
576.134	79.88
576.345	82.88
576.556	89.88
576.767	83.88
576.978	87.88
577.188	76.88
577.399	75.88
577.61	88.88
577.821	98.88
578.032	67.88
578.243	87.88
578.454	75.88
578.665	86.88
578.875	80.88
579.086	71.88
579.297	93.88
579.508	79.88
579.718	83.88
579.929	76.88
580.14	83.88
580.35	67.88
580.561	71.88
580.772	76.88
580.982	87.88
581.193	78.88
581.403	93.88
581.614	75.88
581.825	84.88
582.035	76.88
582.246	77.88
582.456	69.88
582.667	69.88
582.877	72.88
583.087	77.88
583.298	78.88
583.508	87.88
583.719	83.88
583.929	83.88
584.139	76.88
584.35	83.88
584.56	88.88
584.77	75.88
584.981	77.88
585.191	90.88
585.401	69.88
585.611	81.88
585.821	94.88
586.032	79.88
586.242	76.88
586.452	80.88
586.662	74.88
586.872	88.88
587.082	79.88
587.292	77.88
587.502	66.88
587.713	87.88
587.923	78.88
588.133	85.88
588.343	78.88
588.553	73.88
588.762	80.88
588.972	80.88
589.182	76.88
589.392	77.88
589.602	78.88
589.812	72.88
590.022	82.88
590.232	86.88
590.441	77.88
590.651	85.88
590.861	76.88
591.071	77.88
591.281	72.88
591.49	82.88
591.7	76.88
591.91	72.88
592.119	83.88
592.329	83.88
592.539	88.88
592.748	87.88
592.958	91.88
593.167	89.88
593.377	73.88
593.587	93.88
593.796	82.88
594.006	79.88
594.215	76.88
594.424	89.88
594.634	85.88
594.843	101.88
595.053	76.88
595.262	83.88
595.472	75.88
595.681	76.88
595.89	78.88
596.1	77.88
596.309	67.88
596.518	80.88
596.727	83.88
596.937	69.88
597.146	69.88
597.355	88.88
597.564	69.88
597.774	88.88
597.983	88.88
598.192	81.88
598.401	74.88
598.61	64.88
598.819	67.88
599.028	90.88
599.237	79.88
599.446	81.88
599.655	74.88
599.864	85.88
600.073	75.88
600.282	92.88
600.491	91.88
600.7	83.88
600.909	79.88
601.118	73.88
601.327	72.88
601.536	79.88
601.745	71.88
601.953	85.88
602.162	87.88
602.371	72.88
602.58	67.88
602.789	66.88
602.997	72.88
603.206	72.88
603.415	77.88
603.623	76.88
603.832	85.88
604.041	81.88
604.249	59.88
604.458	76.88
604.666	85.88
604.875	65.88
605.084	69.88
605.292	63.88
605.501	69.88
605.709	88.88
605.918	71.88
606.126	80.88
606.334	76.88
606.543	75.88
606.751	74.88
606.96	75.88
607.168	100.88
607.376	85.88
607.585	80.88
607.793	87.88
608.001	86.88
608.21	72.88
608.418	83.88
608.626	76.88
608.834	79.88
609.043	80.88
609.251	84.88
609.459	93.88
609.667	86.88
609.875	93.88
610.083	70.88
610.291	89.88
610.499	77.88
610.707	81.88
610.916	75.88
611.124	69.88
611.332	75.88
611.54	86.88
611.748	91.88
611.955	88.88
612.163	79.88
612.371	72.88
612.579	87.88
612.787	78.88
612.995	78.88
613.203	73.88
613.411	67.88
613.618	88.88
613.826	85.88
614.034	71.88
614.242	65.88
614.449	77.88
614.657	75.88
614.865	71.88
615.072	78.88
615.28	87.88
615.488	71.88
615.695	78.88
615.903	94.88
616.111	74.88
616.318	99.88
616.526	83.88
616.733	75.88
616.941	75.88
617.148	92.88
617.356	81.88
617.563	83.88
617.771	81.88
617.978	83.88
618.185	70.88
618.393	83.88
618.6	91.88
618.807	79.88
619.015	82.88
619.222	86.88
619.429	76.88
619.637	99.88
619.844	92.88
620.051	80.88
620.258	71.88
620.466	81.88
620.673	79.88
620.88	69.88
621.087	85.88
621.294	80.88
621.501	82.88
621.708	81.88
621.915	75.88
622.122	77.88
622.329	76.88
622.536	95.88
622.743	70.88
622.95	84.88
623.157	80.88
623.364	90.88
623.571	72.88
623.778	67.88
623.985	71.88
624.192	71.88
624.399	91.88
624.606	69.88
624.812	63.88
625.019	65.88
625.226	77.88
625.433	83.88
625.639	89.88
625.846	89.88
626.053	79.88
626.259	75.88
626.466	87.88
626.673	76.88
626.879	79.88
627.086	82.88
627.293	80.88
627.499	82.88
627.706	94.88
627.912	78.88
628.119	75.88
628.325	85.88
628.532	72.88
628.738	74.88
628.945	83.88
629.151	81.88
629.357	63.88
629.564	78.88
629.77	84.88
629.976	78.88
630.183	74.88
630.389	73.88
630.595	65.88
630.802	77.88
631.008	95.88
631.214	64.88
631.42	86.88
631.627	84.88
631.833	94.88
632.039	78.88
632.245	77.88
632.451	87.88
632.657	72.88
632.863	78.88
633.069	73.88
633.275	88.88
633.481	72.88
633.688	75.88
633.893	73.88
634.099	63.88
634.305	73.88
634.511	92.88
634.717	78.88
634.923	71.88
635.129	66.88
635.335	95.88
635.541	75.88
635.747	81.88
635.952	88.88
636.158	77.88
636.364	89.88
636.57	76.88
636.775	72.88
636.981	87.88
637.187	63.88
637.392	80.88
637.598	83.88
637.804	80.88
638.009	88.88
638.215	78.88
638.421	75.88
638.626	66.88
638.832	66.88
639.037	62.88
639.243	75.88
639.448	64.88
639.654	78.88
639.859	68.88
640.065	88.88
640.27	96.88
640.475	66.88
640.681	78.88
640.886	78.88
641.091	64.88
641.297	89.88
641.502	85.88
641.707	65.88
641.913	85.88
642.118	94.88
642.323	87.88
642.528	85.88
642.733	84.88
642.939	89.88
643.144	80.88
643.349	91.88
643.554	57.88
643.759	77.88
643.964	81.88
644.169	81.88
644.374	90.88
644.579	96.88
644.784	64.88
644.989	86.88
645.194	75.88
645.399	78.88
645.604	71.88
645.809	83.88
646.014	71.88
646.219	69.88
646.423	62.88
646.628	87.88
646.833	92.88
647.038	79.88
647.243	85.88
647.447	84.88
647.652	86.88
647.857	78.88
648.062	72.88
648.266	75.88
648.471	77.88
648.676	91.88
648.88	86.88
649.085	77.88
649.289	64.88
649.494	63.88
649.698	84.88
649.903	83.88
650.107	78.88
650.312	78.88
650.516	79.88
650.721	83.88
650.925	75.88
651.13	81.88
651.334	76.88
651.539	95.88
651.743	73.88
651.947	64.88
652.152	77.88
652.356	60.88
652.56	91.88
652.764	77.88
652.969	92.88
653.173	84.88
653.377	63.88
653.581	72.88
653.785	77.88
653.99	83.88
654.194	81.88
654.398	75.88
654.602	77.88
654.806	65.88
655.01	70.88
655.214	85.88
655.418	78.88
655.622	76.88
655.826	81.88
656.03	70.88
656.234	88.88
656.438	86.88
656.642	85.88
656.846	70.88
657.049	71.88
657.253	75.88
657.457	69.88
657.661	76.88
657.865	87.88
658.068	75.88
658.272	76.88
658.476	83.88
658.68	80.88
658.883	87.88
659.087	68.88
659.291	84.88
659.494	84.88
659.698	65.88
659.901	77.88
660.105	71.88
660.309	68.88
660.512	83.88
660.716	72.88
660.919	97.88
661.123	69.88
661.326	80.88
661.53	78.88
661.733	74.88
661.936	76.88
662.14	70.88
662.343	71.88
662.546	64.88
662.75	73.88
662.953	85.88
663.156	103.88
663.36	85.88
663.563	73.88
663.766	76.88
663.969	69.88
664.173	60.88
664.376	75.88
664.579	70.88
664.782	101.88
664.985	83.88
665.188	86.88
665.391	89.88
665.594	80.88
665.797	69.88
666	75.88
666.203	73.88
666.406	59.88
666.609	83.88
666.812	73.88
667.015	96.88
667.218	83.88
667.421	63.88
667.624	65.88
667.827	72.88
668.03	78.88
668.232	85.88
668.435	83.88
668.638	83.88
668.841	80.88
669.043	90.88
669.246	73.88
669.449	80.88
669.651	75.88
669.854	75.88
670.057	88.88
670.259	89.88
670.462	84.88
670.665	72.88
670.867	78.88
671.07	77.88
671.272	80.88
671.475	80.88
671.677	67.88
671.88	64.88
672.082	71.88
672.284	103.88
672.487	75.88
672.689	73.88
672.892	75.88
