Data from Background_1_HRD10591_00039.txt Node
Date: Wed Nov 05 14:39:17 EST 2025
User: Yrep
Spectrometer: HR+D1059
Trigger mode: 1
Integration Time (sec): 1.000000E-1
Scans to average: 1
Electric dark correction enabled: true
Nonlinearity correction enabled: false
Boxcar width: 0
XAxis mode: Wavelengths
Number of Pixels in Spectrum: 2048
>>>>>Begin Spectral Data<<<<<
223.165	-23.88
223.4	-23.88
223.635	-23.88
223.869	-11.88
224.104	-18.88
224.338	-2.88
224.573	-4.88
224.808	-19.88
225.042	-11.88
225.277	-2.88
225.511	-3.88
225.746	14.12
225.98	8.12
226.215	3.12
226.449	6.12
226.683	22.12
226.918	13.12
227.152	34.12
227.387	38.12
227.621	40.12
227.856	48.12
228.09	47.12
228.324	56.12
228.559	58.12
228.793	59.12
229.027	70.12
229.262	56.12
229.496	76.12
229.73	59.12
229.964	74.12
230.199	62.12
230.433	81.12
230.667	90.12
230.901	77.12
231.136	87.12
231.37	61.12
231.604	84.12
231.838	75.12
232.072	93.12
232.306	83.12
232.541	67.12
232.775	83.12
233.009	83.12
233.243	88.12
233.477	76.12
233.711	75.12
233.945	77.12
234.179	81.12
234.413	81.12
234.647	81.12
234.881	92.12
235.115	72.12
235.349	84.12
235.583	86.12
235.817	84.12
236.051	77.12
236.285	90.12
236.519	83.12
236.753	74.12
236.987	79.12
237.221	73.12
237.455	79.12
237.689	75.12
237.922	82.12
238.156	78.12
238.39	70.12
238.624	71.12
238.858	64.12
239.091	68.12
239.325	86.12
239.559	88.12
239.793	87.12
240.027	78.12
240.26	72.12
240.494	79.12
240.728	84.12
240.961	80.12
241.195	70.12
241.429	76.12
241.662	62.12
241.896	84.12
242.13	92.12
242.363	79.12
242.597	57.12
242.83	76.12
243.064	85.12
243.298	79.12
243.531	77.12
243.765	83.12
243.998	72.12
244.232	85.12
244.465	76.12
244.699	70.12
244.932	85.12
245.166	80.12
245.399	70.12
245.633	80.12
245.866	76.12
246.099	76.12
246.333	66.12
246.566	79.12
246.8	78.12
247.033	80.12
247.266	67.12
247.5	80.12
247.733	77.12
247.966	81.12
248.2	69.12
248.433	82.12
248.666	82.12
248.899	81.12
249.133	86.12
249.366	79.12
249.599	86.12
249.832	86.12
250.066	77.12
250.299	64.12
250.532	78.12
250.765	79.12
250.998	67.12
251.231	70.12
251.465	91.12
251.698	85.12
251.931	80.12
252.164	71.12
252.397	83.12
252.63	80.12
252.863	91.12
253.096	91.12
253.329	89.12
253.562	68.12
253.795	77.12
254.028	70.12
254.261	74.12
254.494	75.12
254.727	84.12
254.96	82.12
255.193	88.12
255.426	77.12
255.659	79.12
255.892	84.12
256.124	83.12
256.357	80.12
256.59	87.12
256.823	83.12
257.056	77.12
257.289	97.12
257.521	80.12
257.754	85.12
257.987	80.12
258.22	78.12
258.452	74.12
258.685	83.12
258.918	96.12
259.151	78.12
259.383	83.12
259.616	68.12
259.849	77.12
260.081	92.12
260.314	89.12
260.547	68.12
260.779	88.12
261.012	80.12
261.244	83.12
261.477	91.12
261.71	83.12
261.942	82.12
262.175	76.12
262.407	69.12
262.64	76.12
262.872	88.12
263.105	88.12
263.337	73.12
263.57	69.12
263.802	70.12
264.035	84.12
264.267	77.12
264.499	78.12
264.732	79.12
264.964	75.12
265.197	80.12
265.429	83.12
265.661	98.12
265.894	85.12
266.126	90.12
266.358	86.12
266.591	86.12
266.823	61.12
267.055	87.12
267.287	89.12
267.52	81.12
267.752	87.12
267.984	75.12
268.216	81.12
268.448	82.12
268.681	77.12
268.913	93.12
269.145	78.12
269.377	91.12
269.609	91.12
269.841	79.12
270.073	89.12
270.306	85.12
270.538	93.12
270.77	74.12
271.002	64.12
271.234	66.12
271.466	77.12
271.698	81.12
271.93	79.12
272.162	78.12
272.394	86.12
272.626	84.12
272.858	77.12
273.09	81.12
273.322	99.12
273.553	90.12
273.785	92.12
274.017	86.12
274.249	78.12
274.481	85.12
274.713	68.12
274.945	90.12
275.176	79.12
275.408	88.12
275.64	78.12
275.872	82.12
276.104	93.12
276.335	85.12
276.567	81.12
276.799	78.12
277.031	85.12
277.262	81.12
277.494	92.12
277.726	78.12
277.957	85.12
278.189	78.12
278.421	82.12
278.652	69.12
278.884	74.12
279.115	77.12
279.347	92.12
279.579	65.12
279.81	86.12
280.042	72.12
280.273	78.12
280.505	90.12
280.736	87.12
280.968	78.12
281.199	86.12
281.431	86.12
281.662	89.12
281.894	88.12
282.125	79.12
282.356	101.12
282.588	97.12
282.819	88.12
283.051	77.12
283.282	89.12
283.513	98.12
283.745	83.12
283.976	91.12
284.207	82.12
284.439	76.12
284.67	90.12
284.901	92.12
285.132	80.12
285.364	89.12
285.595	93.12
285.826	89.12
286.057	81.12
286.288	84.12
286.52	82.12
286.751	79.12
286.982	78.12
287.213	85.12
287.444	86.12
287.675	98.12
287.906	85.12
288.138	92.12
288.369	88.12
288.6	94.12
288.831	94.12
289.062	92.12
289.293	83.12
289.524	61.12
289.755	90.12
289.986	99.12
290.217	82.12
290.448	68.12
290.679	82.12
290.91	90.12
291.141	87.12
291.371	85.12
291.602	96.12
291.833	86.12
292.064	96.12
292.295	85.12
292.526	78.12
292.757	77.12
292.987	90.12
293.218	78.12
293.449	92.12
293.68	93.12
293.91	81.12
294.141	89.12
294.372	80.12
294.603	71.12
294.833	84.12
295.064	82.12
295.295	89.12
295.525	85.12
295.756	97.12
295.987	96.12
296.217	80.12
296.448	85.12
296.679	86.12
296.909	89.12
297.14	90.12
297.37	88.12
297.601	84.12
297.831	94.12
298.062	93.12
298.292	94.12
298.523	90.12
298.753	94.12
298.984	80.12
299.214	71.12
299.445	77.12
299.675	87.12
299.905	104.12
300.136	89.12
300.366	69.12
300.597	86.12
300.827	93.12
301.057	84.12
301.288	89.12
301.518	86.12
301.748	88.12
301.979	88.12
302.209	90.12
302.439	95.12
302.669	76.12
302.9	88.12
303.13	92.12
303.36	100.12
303.59	80.12
303.82	86.12
304.051	87.12
304.281	66.12
304.511	89.12
304.741	80.12
304.971	92.12
305.201	87.12
305.431	92.12
305.661	77.12
305.891	92.12
306.121	90.12
306.352	79.12
306.582	91.12
306.812	93.12
307.042	84.12
307.272	94.12
307.502	94.12
307.731	71.12
307.961	98.12
308.191	78.12
308.421	72.12
308.651	81.12
308.881	90.12
309.111	93.12
309.341	83.12
309.571	78.12
309.8	88.12
310.03	90.12
310.26	76.12
310.49	80.12
310.72	79.12
310.949	84.12
311.179	84.12
311.409	94.12
311.639	75.12
311.868	96.12
312.098	86.12
312.328	70.12
312.557	95.12
312.787	92.12
313.017	78.12
313.246	76.12
313.476	91.12
313.706	85.12
313.935	80.12
314.165	93.12
314.394	90.12
314.624	93.12
314.853	84.12
315.083	82.12
315.312	85.12
315.542	85.12
315.771	73.12
316.001	84.12
316.23	98.12
316.46	90.12
316.689	85.12
316.919	88.12
317.148	82.12
317.377	85.12
317.607	83.12
317.836	96.12
318.065	86.12
318.295	81.12
318.524	85.12
318.753	76.12
318.983	84.12
319.212	95.12
319.441	88.12
319.67	111.12
319.9	84.12
320.129	80.12
320.358	85.12
320.587	80.12
320.816	71.12
321.046	83.12
321.275	88.12
321.504	78.12
321.733	100.12
321.962	85.12
322.191	89.12
322.42	93.12
322.649	90.12
322.878	77.12
323.108	88.12
323.337	88.12
323.566	87.12
323.795	86.12
324.024	68.12
324.253	76.12
324.482	72.12
324.71	86.12
324.939	83.12
325.168	80.12
325.397	92.12
325.626	100.12
325.855	95.12
326.084	94.12
326.313	85.12
326.542	82.12
326.77	80.12
326.999	81.12
327.228	98.12
327.457	88.12
327.686	82.12
327.914	80.12
328.143	74.12
328.372	85.12
328.6	93.12
328.829	76.12
329.058	84.12
329.287	85.12
329.515	94.12
329.744	81.12
329.972	68.12
330.201	85.12
330.43	89.12
330.658	89.12
330.887	82.12
331.115	100.12
331.344	101.12
331.572	94.12
331.801	86.12
332.03	88.12
332.258	79.12
332.486	73.12
332.715	85.12
332.943	79.12
333.172	86.12
333.4	72.12
333.629	85.12
333.857	70.12
334.085	86.12
334.314	97.12
334.542	81.12
334.771	84.12
334.999	101.12
335.227	90.12
335.455	84.12
335.684	106.12
335.912	82.12
336.14	83.12
336.369	83.12
336.597	80.12
336.825	78.12
337.053	87.12
337.281	80.12
337.51	86.12
337.738	83.12
337.966	90.12
338.194	81.12
338.422	92.12
338.65	70.12
338.878	77.12
339.106	80.12
339.334	86.12
339.562	68.12
339.79	90.12
340.018	82.12
340.246	75.12
340.474	82.12
340.702	86.12
340.93	78.12
341.158	92.12
341.386	71.12
341.614	84.12
341.842	82.12
342.07	82.12
342.298	80.12
342.526	93.12
342.754	79.12
342.981	75.12
343.209	96.12
343.437	98.12
343.665	85.12
343.893	91.12
344.12	88.12
344.348	90.12
344.576	84.12
344.804	80.12
345.031	76.12
345.259	88.12
345.487	89.12
345.714	78.12
345.942	79.12
346.17	87.12
346.397	78.12
346.625	97.12
346.853	83.12
347.08	77.12
347.308	93.12
347.535	90.12
347.763	77.12
347.99	99.12
348.218	78.12
348.445	74.12
348.673	93.12
348.9	94.12
349.128	77.12
349.355	76.12
349.583	81.12
349.81	93.12
350.037	94.12
350.265	77.12
350.492	73.12
350.72	80.12
350.947	92.12
351.174	86.12
351.402	87.12
351.629	76.12
351.856	92.12
352.083	82.12
352.311	84.12
352.538	74.12
352.765	88.12
352.992	80.12
353.22	87.12
353.447	108.12
353.674	74.12
353.901	96.12
354.128	83.12
354.355	82.12
354.583	83.12
354.81	82.12
355.037	87.12
355.264	76.12
355.491	92.12
355.718	92.12
355.945	74.12
356.172	86.12
356.399	79.12
356.626	82.12
356.853	78.12
357.08	90.12
357.307	80.12
357.534	74.12
357.761	89.12
357.988	87.12
358.215	82.12
358.441	96.12
358.668	98.12
358.895	90.12
359.122	94.12
359.349	81.12
359.576	90.12
359.802	88.12
360.029	81.12
360.256	92.12
360.483	97.12
360.709	83.12
360.936	91.12
361.163	84.12
361.39	90.12
361.616	92.12
361.843	82.12
362.07	85.12
362.296	79.12
362.523	90.12
362.749	82.12
362.976	89.12
363.203	94.12
363.429	86.12
363.656	82.12
363.882	91.12
364.109	80.12
364.335	98.12
364.562	81.12
364.788	93.12
365.015	84.12
365.241	84.12
365.468	92.12
365.694	81.12
365.92	76.12
366.147	83.12
366.373	81.12
366.599	89.12
366.826	88.12
367.052	75.12
367.278	77.12
367.505	82.12
367.731	96.12
367.957	91.12
368.184	85.12
368.41	84.12
368.636	88.12
368.862	82.12
369.089	83.12
369.315	76.12
369.541	87.12
369.767	83.12
369.993	87.12
370.219	86.12
370.445	93.12
370.672	90.12
370.898	75.12
371.124	89.12
371.35	82.12
371.576	72.12
371.802	87.12
372.028	84.12
372.254	77.12
372.48	74.12
372.706	89.12
372.932	82.12
373.158	77.12
373.384	89.12
373.61	90.12
373.835	86.12
374.061	82.12
374.287	92.12
374.513	73.12
374.739	77.12
374.965	82.12
375.191	80.12
375.416	65.12
375.642	72.12
375.868	96.12
376.094	82.12
376.319	86.12
376.545	85.12
376.771	81.12
376.997	76.12
377.222	80.12
377.448	87.12
377.674	80.12
377.899	94.12
378.125	85.12
378.35	82.12
378.576	89.12
378.802	88.12
379.027	73.12
379.253	94.12
379.478	88.12
379.704	83.12
379.929	86.12
380.155	93.12
380.38	90.12
380.606	84.12
380.831	77.12
381.057	78.12
381.282	85.12
381.507	78.12
381.733	73.12
381.958	78.12
382.184	77.12
382.409	75.12
382.634	91.12
382.86	90.12
383.085	76.12
383.31	80.12
383.535	80.12
383.761	86.12
383.986	83.12
384.211	97.12
384.436	76.12
384.662	86.12
384.887	81.12
385.112	92.12
385.337	78.12
385.562	80.12
385.787	79.12
386.013	77.12
386.238	92.12
386.463	80.12
386.688	101.12
386.913	82.12
387.138	90.12
387.363	88.12
387.588	95.12
387.813	79.12
388.038	84.12
388.263	82.12
388.488	90.12
388.713	81.12
388.938	74.12
389.163	85.12
389.387	84.12
389.612	94.12
389.837	91.12
390.062	82.12
390.287	97.12
390.512	73.12
390.736	81.12
390.961	75.12
391.186	74.12
391.411	81.12
391.636	80.12
391.86	80.12
392.085	92.12
392.31	85.12
392.534	80.12
392.759	91.12
392.984	90.12
393.208	86.12
393.433	92.12
393.658	86.12
393.882	74.12
394.107	76.12
394.331	85.12
394.556	84.12
394.78	70.12
395.005	94.12
395.229	82.12
395.454	100.12
395.678	92.12
395.903	78.12
396.127	75.12
396.352	79.12
396.576	84.12
396.801	88.12
397.025	73.12
397.249	81.12
397.474	82.12
397.698	86.12
397.922	90.12
398.147	84.12
398.371	86.12
398.595	82.12
398.82	86.12
399.044	82.12
399.268	83.12
399.492	83.12
399.717	79.12
399.941	101.12
400.165	84.12
400.389	74.12
400.613	84.12
400.837	74.12
401.062	69.12
401.286	74.12
401.51	81.12
401.734	75.12
401.958	85.12
402.182	79.12
402.406	88.12
402.63	90.12
402.854	88.12
403.078	91.12
403.302	79.12
403.526	79.12
403.75	83.12
403.974	81.12
404.198	101.12
404.422	75.12
404.645	90.12
404.869	84.12
405.093	86.12
405.317	79.12
405.541	91.12
405.765	84.12
405.988	86.12
406.212	88.12
406.436	90.12
406.66	79.12
406.883	69.12
407.107	83.12
407.331	83.12
407.555	92.12
407.778	78.12
408.002	84.12
408.226	100.12
408.449	69.12
408.673	78.12
408.896	78.12
409.12	89.12
409.344	86.12
409.567	87.12
409.791	74.12
410.014	68.12
410.238	86.12
410.461	92.12
410.685	76.12
410.908	85.12
411.132	105.12
411.355	76.12
411.578	88.12
411.802	92.12
412.025	82.12
412.249	88.12
412.472	78.12
412.695	89.12
412.919	75.12
413.142	78.12
413.365	74.12
413.589	82.12
413.812	71.12
414.035	77.12
414.258	78.12
414.482	88.12
414.705	84.12
414.928	76.12
415.151	84.12
415.374	82.12
415.597	74.12
415.821	93.12
416.044	82.12
416.267	68.12
416.49	84.12
416.713	86.12
416.936	84.12
417.159	75.12
417.382	76.12
417.605	83.12
417.828	95.12
418.051	89.12
418.274	93.12
418.497	91.12
418.72	92.12
418.943	95.12
419.166	75.12
419.389	84.12
419.611	95.12
419.834	70.12
420.057	78.12
420.28	94.12
420.503	84.12
420.726	96.12
420.948	70.12
421.171	97.12
421.394	86.12
421.617	80.12
421.839	70.12
422.062	85.12
422.285	82.12
422.507	85.12
422.73	78.12
422.953	82.12
423.175	84.12
423.398	73.12
423.621	90.12
423.843	86.12
424.066	86.12
424.288	96.12
424.511	82.12
424.733	82.12
424.956	85.12
425.178	76.12
425.401	82.12
425.623	82.12
425.846	71.12
426.068	75.12
426.291	75.12
426.513	70.12
426.735	85.12
426.958	86.12
427.18	74.12
427.402	96.12
427.625	80.12
427.847	95.12
428.069	90.12
428.292	85.12
428.514	68.12
428.736	84.12
428.958	91.12
429.181	90.12
429.403	65.12
429.625	79.12
429.847	77.12
430.069	80.12
430.292	87.12
430.514	90.12
430.736	89.12
430.958	84.12
431.18	74.12
431.402	85.12
431.624	84.12
431.846	82.12
432.068	91.12
432.29	89.12
432.512	105.12
432.734	71.12
432.956	94.12
433.178	79.12
433.4	78.12
433.622	68.12
433.844	82.12
434.066	106.12
434.287	84.12
434.509	86.12
434.731	78.12
434.953	73.12
435.175	81.12
435.397	82.12
435.618	95.12
435.84	82.12
436.062	89.12
436.284	94.12
436.505	83.12
436.727	102.12
436.949	85.12
437.17	86.12
437.392	84.12
437.614	75.12
437.835	74.12
438.057	85.12
438.278	82.12
438.5	93.12
438.721	70.12
438.943	75.12
439.165	76.12
439.386	81.12
439.608	86.12
439.829	93.12
440.05	69.12
440.272	81.12
440.493	90.12
440.715	82.12
440.936	88.12
441.158	96.12
441.379	86.12
441.6	77.12
441.822	84.12
442.043	82.12
442.264	91.12
442.486	78.12
442.707	81.12
442.928	84.12
443.149	86.12
443.371	92.12
443.592	77.12
443.813	91.12
444.034	80.12
444.255	95.12
444.476	72.12
444.698	78.12
444.919	95.12
445.14	158.12
445.361	113.12
445.582	87.12
445.803	94.12
446.024	84.12
446.245	79.12
446.466	84.12
446.687	87.12
446.908	95.12
447.129	80.12
447.35	85.12
447.571	85.12
447.792	94.12
448.013	72.12
448.234	79.12
448.455	92.12
448.675	88.12
448.896	95.12
449.117	74.12
449.338	77.12
449.559	78.12
449.779	82.12
450	96.12
450.221	86.12
450.442	65.12
450.662	77.12
450.883	84.12
451.104	84.12
451.324	80.12
451.545	86.12
451.766	81.12
451.986	77.12
452.207	91.12
452.428	74.12
452.648	91.12
452.869	95.12
453.089	76.12
453.31	84.12
453.53	89.12
453.751	60.12
453.971	84.12
454.192	77.12
454.412	80.12
454.633	69.12
454.853	74.12
455.073	78.12
455.294	90.12
455.514	93.12
455.734	86.12
455.955	81.12
456.175	93.12
456.395	80.12
456.616	90.12
456.836	89.12
457.056	100.12
457.276	85.12
457.497	80.12
457.717	81.12
457.937	78.12
458.157	81.12
458.377	81.12
458.598	95.12
458.818	82.12
459.038	79.12
459.258	77.12
459.478	81.12
459.698	88.12
459.918	88.12
460.138	72.12
460.358	78.12
460.578	79.12
460.798	89.12
461.018	81.12
461.238	91.12
461.458	94.12
461.678	81.12
461.898	83.12
462.118	79.12
462.338	68.12
462.558	76.12
462.777	78.12
462.997	89.12
463.217	76.12
463.437	79.12
463.657	96.12
463.876	89.12
464.096	78.12
464.316	74.12
464.536	87.12
464.755	78.12
464.975	78.12
465.195	92.12
465.414	88.12
465.634	82.12
465.854	94.12
466.073	92.12
466.293	87.12
466.512	83.12
466.732	84.12
466.951	78.12
467.171	84.12
467.391	77.12
467.61	92.12
467.829	87.12
468.049	84.12
468.268	84.12
468.488	92.12
468.707	79.12
468.927	82.12
469.146	81.12
469.365	74.12
469.585	86.12
469.804	81.12
470.023	79.12
470.243	96.12
470.462	73.12
470.681	75.12
470.901	81.12
471.12	84.12
471.339	71.12
471.558	96.12
471.777	92.12
471.997	93.12
472.216	96.12
472.435	82.12
472.654	83.12
472.873	88.12
473.092	82.12
473.311	94.12
473.53	86.12
473.749	67.12
473.968	78.12
474.187	86.12
474.406	76.12
474.625	83.12
474.844	79.12
475.063	86.12
475.282	88.12
475.501	79.12
475.72	83.12
475.939	86.12
476.158	87.12
476.377	82.12
476.596	75.12
476.814	81.12
477.033	78.12
477.252	85.12
477.471	73.12
477.69	90.12
477.908	68.12
478.127	84.12
478.346	74.12
478.564	88.12
478.783	92.12
479.002	64.12
479.22	80.12
479.439	82.12
479.658	82.12
479.876	86.12
480.095	78.12
480.313	92.12
480.532	88.12
480.751	97.12
480.969	71.12
481.188	77.12
481.406	76.12
481.624	85.12
481.843	80.12
482.061	79.12
482.28	92.12
482.498	83.12
482.717	97.12
482.935	89.12
483.153	85.12
483.372	67.12
483.59	72.12
483.808	90.12
484.027	104.12
484.245	94.12
484.463	92.12
484.681	84.12
484.9	76.12
485.118	94.12
485.336	93.12
485.554	89.12
485.772	83.12
485.99	108.12
486.209	78.12
486.427	83.12
486.645	80.12
486.863	76.12
487.081	101.12
487.299	78.12
487.517	87.12
487.735	87.12
487.953	84.12
488.171	100.12
488.389	91.12
488.607	75.12
488.825	92.12
489.043	79.12
489.261	84.12
489.479	85.12
489.696	90.12
489.914	96.12
490.132	95.12
490.35	101.12
490.568	83.12
490.786	86.12
491.003	84.12
491.221	89.12
491.439	85.12
491.657	89.12
491.874	92.12
492.092	100.12
492.31	77.12
492.527	72.12
492.745	67.12
492.963	88.12
493.18	78.12
493.398	92.12
493.615	98.12
493.833	81.12
494.05	96.12
494.268	82.12
494.485	93.12
494.703	92.12
494.92	76.12
495.138	79.12
495.355	85.12
495.573	89.12
495.79	96.12
496.008	89.12
496.225	77.12
496.442	78.12
496.66	83.12
496.877	82.12
497.094	82.12
497.312	88.12
497.529	93.12
497.746	72.12
497.963	81.12
498.181	95.12
498.398	82.12
498.615	80.12
498.832	83.12
499.049	84.12
499.267	81.12
499.484	88.12
499.701	98.12
499.918	81.12
500.135	74.12
500.352	89.12
500.569	93.12
500.786	81.12
501.003	69.12
501.22	83.12
501.437	72.12
501.654	75.12
501.871	83.12
502.088	109.12
502.305	79.12
502.522	86.12
502.739	86.12
502.956	94.12
503.172	97.12
503.389	86.12
503.606	90.12
503.823	77.12
504.04	83.12
504.256	92.12
504.473	74.12
504.69	67.12
504.907	87.12
505.123	76.12
505.34	93.12
505.557	80.12
505.773	80.12
505.99	80.12
506.207	90.12
506.423	96.12
506.64	84.12
506.856	91.12
507.073	90.12
507.289	96.12
507.506	82.12
507.722	67.12
507.939	78.12
508.155	84.12
508.372	99.12
508.588	85.12
508.805	79.12
509.021	86.12
509.238	91.12
509.454	93.12
509.67	89.12
509.887	75.12
510.103	86.12
510.319	86.12
510.536	86.12
510.752	97.12
510.968	88.12
511.184	94.12
511.401	91.12
511.617	84.12
511.833	78.12
512.049	87.12
512.265	84.12
512.481	79.12
512.698	88.12
512.914	82.12
513.13	78.12
513.346	74.12
513.562	78.12
513.778	73.12
513.994	101.12
514.21	86.12
514.426	82.12
514.642	81.12
514.858	88.12
515.074	75.12
515.29	68.12
515.506	91.12
515.721	84.12
515.937	84.12
516.153	61.12
516.369	93.12
516.585	94.12
516.801	90.12
517.016	91.12
517.232	80.12
517.448	81.12
517.664	91.12
517.879	76.12
518.095	83.12
518.311	70.12
518.527	85.12
518.742	94.12
518.958	90.12
519.173	81.12
519.389	87.12
519.605	93.12
519.82	84.12
520.036	92.12
520.251	76.12
520.467	82.12
520.682	78.12
520.898	89.12
521.113	90.12
521.329	82.12
521.544	89.12
521.76	96.12
521.975	83.12
522.19	84.12
522.406	86.12
522.621	86.12
522.836	97.12
523.052	81.12
523.267	88.12
523.482	77.12
523.698	77.12
523.913	71.12
524.128	76.12
524.343	87.12
524.559	90.12
524.774	104.12
524.989	86.12
525.204	82.12
525.419	82.12
525.634	75.12
525.849	101.12
526.064	73.12
526.28	82.12
526.495	89.12
526.71	83.12
526.925	67.12
527.14	86.12
527.355	93.12
527.57	92.12
527.785	81.12
527.999	84.12
528.214	88.12
528.429	90.12
528.644	83.12
528.859	92.12
529.074	86.12
529.289	88.12
529.503	95.12
529.718	100.12
529.933	92.12
530.148	78.12
530.363	85.12
530.577	75.12
530.792	86.12
531.007	80.12
531.221	98.12
531.436	82.12
531.651	92.12
531.865	85.12
532.08	70.12
532.295	88.12
532.509	92.12
532.724	77.12
532.938	76.12
533.153	78.12
533.367	77.12
533.582	94.12
533.796	82.12
534.011	92.12
534.225	89.12
534.44	78.12
534.654	98.12
534.868	92.12
535.083	106.12
535.297	84.12
535.511	77.12
535.726	86.12
535.94	81.12
536.154	85.12
536.369	93.12
536.583	89.12
536.797	85.12
537.011	88.12
537.225	86.12
537.44	79.12
537.654	85.12
537.868	102.12
538.082	80.12
538.296	99.12
538.51	81.12
538.724	101.12
538.938	87.12
539.153	76.12
539.367	74.12
539.581	90.12
539.795	73.12
540.009	83.12
540.222	91.12
540.436	90.12
540.65	80.12
540.864	98.12
541.078	88.12
541.292	81.12
541.506	79.12
541.72	100.12
541.934	81.12
542.147	90.12
542.361	86.12
542.575	75.12
542.789	65.12
543.002	87.12
543.216	80.12
543.43	74.12
543.644	92.12
543.857	90.12
544.071	75.12
544.285	86.12
544.498	85.12
544.712	93.12
544.925	85.12
545.139	67.12
545.352	83.12
545.566	80.12
545.779	78.12
545.993	90.12
546.206	88.12
546.42	79.12
546.633	85.12
546.847	106.12
547.06	68.12
547.274	82.12
547.487	88.12
547.7	92.12
547.914	77.12
548.127	93.12
548.34	77.12
548.554	83.12
548.767	82.12
548.98	81.12
549.193	69.12
549.407	88.12
549.62	99.12
549.833	100.12
550.046	84.12
550.259	83.12
550.473	80.12
550.686	84.12
550.899	84.12
551.112	93.12
551.325	100.12
551.538	64.12
551.751	92.12
551.964	71.12
552.177	82.12
552.39	88.12
552.603	84.12
552.816	68.12
553.029	84.12
553.242	77.12
553.455	79.12
553.667	93.12
553.88	101.12
554.093	93.12
554.306	84.12
554.519	66.12
554.732	88.12
554.944	87.12
555.157	91.12
555.37	74.12
555.583	84.12
555.795	80.12
556.008	81.12
556.221	64.12
556.433	81.12
556.646	78.12
556.859	82.12
557.071	91.12
557.284	91.12
557.496	95.12
557.709	84.12
557.921	90.12
558.134	92.12
558.346	86.12
558.559	88.12
558.771	82.12
558.984	88.12
559.196	80.12
559.409	78.12
559.621	83.12
559.833	92.12
560.046	75.12
560.258	87.12
560.47	88.12
560.683	95.12
560.895	74.12
561.107	80.12
561.32	89.12
561.532	71.12
561.744	98.12
561.956	83.12
562.168	95.12
562.381	71.12
562.593	91.12
562.805	84.12
563.017	86.12
563.229	86.12
563.441	86.12
563.653	79.12
563.865	71.12
564.077	94.12
564.289	88.12
564.501	81.12
564.713	93.12
564.925	79.12
565.137	83.12
565.349	77.12
565.561	88.12
565.773	80.12
565.985	82.12
566.197	77.12
566.408	83.12
566.62	83.12
566.832	89.12
567.044	87.12
567.255	92.12
567.467	83.12
567.679	82.12
567.891	89.12
568.102	78.12
568.314	83.12
568.526	77.12
568.737	93.12
568.949	85.12
569.161	89.12
569.372	77.12
569.584	80.12
569.795	74.12
570.007	80.12
570.218	71.12
570.43	79.12
570.641	87.12
570.853	90.12
571.064	72.12
571.276	85.12
571.487	86.12
571.698	97.12
571.91	84.12
572.121	89.12
572.333	76.12
572.544	77.12
572.755	87.12
572.966	88.12
573.178	91.12
573.389	88.12
573.6	81.12
573.811	76.12
574.023	85.12
574.234	84.12
574.445	91.12
574.656	81.12
574.867	92.12
575.078	91.12
575.289	83.12
575.501	88.12
575.712	101.12
575.923	71.12
576.134	100.12
576.345	87.12
576.556	87.12
576.767	89.12
576.978	85.12
577.188	89.12
577.399	84.12
577.61	88.12
577.821	96.12
578.032	89.12
578.243	80.12
578.454	84.12
578.665	83.12
578.875	83.12
579.086	87.12
579.297	83.12
579.508	89.12
579.718	81.12
579.929	79.12
580.14	73.12
580.35	78.12
580.561	79.12
580.772	91.12
580.982	81.12
581.193	89.12
581.403	81.12
581.614	90.12
581.825	78.12
582.035	78.12
582.246	102.12
582.456	86.12
582.667	94.12
582.877	77.12
583.087	93.12
583.298	89.12
583.508	92.12
583.719	87.12
583.929	74.12
584.139	89.12
584.35	98.12
584.56	83.12
584.77	91.12
584.981	97.12
585.191	94.12
585.401	92.12
585.611	84.12
585.821	70.12
586.032	104.12
586.242	83.12
586.452	91.12
586.662	92.12
586.872	71.12
587.082	96.12
587.292	94.12
587.502	80.12
587.713	91.12
587.923	87.12
588.133	95.12
588.343	87.12
588.553	83.12
588.762	90.12
588.972	88.12
589.182	90.12
589.392	91.12
589.602	87.12
589.812	93.12
590.022	88.12
590.232	84.12
590.441	88.12
590.651	75.12
590.861	84.12
591.071	83.12
591.281	83.12
591.49	83.12
591.7	98.12
591.91	94.12
592.119	90.12
592.329	99.12
592.539	88.12
592.748	94.12
592.958	87.12
593.167	88.12
593.377	94.12
593.587	98.12
593.796	80.12
594.006	83.12
594.215	81.12
594.424	84.12
594.634	78.12
594.843	85.12
595.053	85.12
595.262	83.12
595.472	91.12
595.681	88.12
595.89	84.12
596.1	80.12
596.309	79.12
596.518	84.12
596.727	90.12
596.937	76.12
597.146	89.12
597.355	85.12
597.564	76.12
597.774	95.12
597.983	93.12
598.192	89.12
598.401	93.12
598.61	82.12
598.819	96.12
599.028	78.12
599.237	82.12
599.446	98.12
599.655	89.12
599.864	90.12
600.073	86.12
600.282	80.12
600.491	79.12
600.7	93.12
600.909	86.12
601.118	82.12
601.327	86.12
601.536	92.12
601.745	92.12
601.953	93.12
602.162	88.12
602.371	87.12
602.58	97.12
602.789	86.12
602.997	85.12
603.206	78.12
603.415	100.12
603.623	88.12
603.832	90.12
604.041	80.12
604.249	85.12
604.458	80.12
604.666	100.12
604.875	86.12
605.084	84.12
605.292	86.12
605.501	94.12
605.709	83.12
605.918	77.12
606.126	93.12
606.334	75.12
606.543	89.12
606.751	92.12
606.96	80.12
607.168	79.12
607.376	77.12
607.585	92.12
607.793	92.12
608.001	74.12
608.21	76.12
608.418	84.12
608.626	86.12
608.834	74.12
609.043	74.12
609.251	79.12
609.459	83.12
609.667	98.12
609.875	101.12
610.083	73.12
610.291	96.12
610.499	88.12
610.707	82.12
610.916	85.12
611.124	84.12
611.332	91.12
611.54	66.12
611.748	92.12
611.955	88.12
612.163	85.12
612.371	89.12
612.579	76.12
612.787	77.12
612.995	104.12
613.203	90.12
613.411	89.12
613.618	88.12
613.826	86.12
614.034	90.12
614.242	90.12
614.449	78.12
614.657	81.12
614.865	101.12
615.072	80.12
615.28	76.12
615.488	93.12
615.695	85.12
615.903	78.12
616.111	84.12
616.318	70.12
616.526	73.12
616.733	93.12
616.941	88.12
617.148	66.12
617.356	73.12
617.563	77.12
617.771	78.12
617.978	91.12
618.185	76.12
618.393	78.12
618.6	101.12
618.807	86.12
619.015	76.12
619.222	99.12
619.429	80.12
619.637	84.12
619.844	69.12
620.051	78.12
620.258	88.12
620.466	86.12
620.673	106.12
620.88	78.12
621.087	80.12
621.294	78.12
621.501	68.12
621.708	85.12
621.915	79.12
622.122	82.12
622.329	89.12
622.536	85.12
622.743	78.12
622.95	93.12
623.157	93.12
623.364	90.12
623.571	102.12
623.778	79.12
623.985	81.12
624.192	83.12
624.399	98.12
624.606	92.12
624.812	80.12
625.019	90.12
625.226	81.12
625.433	90.12
625.639	92.12
625.846	82.12
626.053	84.12
626.259	81.12
626.466	75.12
626.673	72.12
626.879	75.12
627.086	94.12
627.293	92.12
627.499	78.12
627.706	76.12
627.912	87.12
628.119	82.12
628.325	85.12
628.532	80.12
628.738	91.12
628.945	77.12
629.151	99.12
629.357	98.12
629.564	89.12
629.77	83.12
629.976	88.12
630.183	84.12
630.389	78.12
630.595	90.12
630.802	82.12
631.008	77.12
631.214	89.12
631.42	88.12
631.627	95.12
631.833	88.12
632.039	67.12
632.245	79.12
632.451	95.12
632.657	77.12
632.863	91.12
633.069	95.12
633.275	77.12
633.481	86.12
633.688	74.12
633.893	82.12
634.099	104.12
634.305	90.12
634.511	90.12
634.717	86.12
634.923	97.12
635.129	84.12
635.335	88.12
635.541	67.12
635.747	77.12
635.952	93.12
636.158	85.12
636.364	76.12
636.57	80.12
636.775	85.12
636.981	75.12
637.187	76.12
637.392	84.12
637.598	76.12
637.804	73.12
638.009	84.12
638.215	89.12
638.421	73.12
638.626	86.12
638.832	70.12
639.037	82.12
639.243	83.12
639.448	82.12
639.654	94.12
639.859	81.12
640.065	84.12
640.27	99.12
640.475	99.12
640.681	79.12
640.886	90.12
641.091	72.12
641.297	94.12
641.502	90.12
641.707	84.12
641.913	76.12
642.118	81.12
642.323	95.12
642.528	84.12
642.733	95.12
642.939	95.12
643.144	88.12
643.349	80.12
643.554	101.12
643.759	77.12
643.964	88.12
644.169	86.12
644.374	93.12
644.579	89.12
644.784	85.12
644.989	88.12
645.194	90.12
645.399	91.12
645.604	94.12
645.809	82.12
646.014	83.12
646.219	74.12
646.423	88.12
646.628	75.12
646.833	79.12
647.038	80.12
647.243	78.12
647.447	91.12
647.652	79.12
647.857	88.12
648.062	95.12
648.266	80.12
648.471	92.12
648.676	76.12
648.88	93.12
649.085	92.12
649.289	86.12
649.494	77.12
649.698	85.12
649.903	85.12
650.107	96.12
650.312	88.12
650.516	83.12
650.721	90.12
650.925	89.12
651.13	78.12
651.334	90.12
651.539	79.12
651.743	79.12
651.947	93.12
652.152	89.12
652.356	87.12
652.56	86.12
652.764	80.12
652.969	82.12
653.173	89.12
653.377	81.12
653.581	80.12
653.785	96.12
653.99	85.12
654.194	82.12
654.398	88.12
654.602	78.12
654.806	88.12
655.01	65.12
655.214	91.12
655.418	86.12
655.622	83.12
655.826	74.12
656.03	80.12
656.234	83.12
656.438	86.12
656.642	90.12
656.846	89.12
657.049	86.12
657.253	88.12
657.457	84.12
657.661	92.12
657.865	78.12
658.068	90.12
658.272	89.12
658.476	100.12
658.68	86.12
658.883	93.12
659.087	88.12
659.291	82.12
659.494	82.12
659.698	76.12
659.901	81.12
660.105	82.12
660.309	80.12
660.512	67.12
660.716	88.12
660.919	89.12
661.123	86.12
661.326	87.12
661.53	76.12
661.733	76.12
661.936	88.12
662.14	83.12
662.343	72.12
662.546	82.12
662.75	87.12
662.953	95.12
663.156	90.12
663.36	82.12
663.563	90.12
663.766	77.12
663.969	81.12
664.173	87.12
664.376	78.12
664.579	72.12
664.782	86.12
664.985	82.12
665.188	65.12
665.391	84.12
665.594	86.12
665.797	90.12
666	70.12
666.203	88.12
666.406	80.12
666.609	98.12
666.812	84.12
667.015	73.12
667.218	90.12
667.421	76.12
667.624	70.12
667.827	93.12
668.03	79.12
668.232	81.12
668.435	80.12
668.638	88.12
668.841	74.12
669.043	81.12
669.246	80.12
669.449	80.12
669.651	72.12
669.854	70.12
670.057	82.12
670.259	87.12
670.462	84.12
670.665	74.12
670.867	94.12
671.07	83.12
671.272	94.12
671.475	66.12
671.677	88.12
671.88	87.12
672.082	81.12
672.284	88.12
672.487	87.12
672.689	82.12
672.892	97.12
