Data from Super_Dry_Prop_75_2_HRD10591_00011.txt Node
Date: Wed Dec 03 15:02:01 EST 2025
User: Yrep
Spectrometer: HR+D1059
Trigger mode: 1
Integration Time (sec): 1.000000E-1
Scans to average: 1
Electric dark correction enabled: true
Nonlinearity correction enabled: false
Boxcar width: 0
XAxis mode: Wavelengths
Number of Pixels in Spectrum: 2048
>>>>>Begin Spectral Data<<<<<
223.165	-9.5
223.4	-9.5
223.635	-9.5
223.869	-19.5
224.104	-14.5
224.338	-21.5
224.573	-21.5
224.808	-25.5
225.042	-20.5
225.277	-6.5
225.511	-2.5
225.746	4.5
225.98	20.5
226.215	12.5
226.449	23.5
226.683	20.5
226.918	13.5
227.152	46.5
227.387	28.5
227.621	39.5
227.856	40.5
228.09	41.5
228.324	58.5
228.559	54.5
228.793	81.5
229.027	53.5
229.262	58.5
229.496	65.5
229.73	72.5
229.964	80.5
230.199	57.5
230.433	75.5
230.667	83.5
230.901	71.5
231.136	83.5
231.37	72.5
231.604	81.5
231.838	84.5
232.072	88.5
232.306	72.5
232.541	83.5
232.775	91.5
233.009	77.5
233.243	67.5
233.477	81.5
233.711	69.5
233.945	88.5
234.179	86.5
234.413	80.5
234.647	83.5
234.881	63.5
235.115	75.5
235.349	78.5
235.583	83.5
235.817	78.5
236.051	82.5
236.285	74.5
236.519	69.5
236.753	78.5
236.987	76.5
237.221	68.5
237.455	80.5
237.689	81.5
237.922	73.5
238.156	80.5
238.39	79.5
238.624	70.5
238.858	87.5
239.091	82.5
239.325	70.5
239.559	70.5
239.793	66.5
240.027	87.5
240.26	76.5
240.494	80.5
240.728	75.5
240.961	83.5
241.195	75.5
241.429	57.5
241.662	70.5
241.896	63.5
242.13	80.5
242.363	73.5
242.597	72.5
242.83	73.5
243.064	65.5
243.298	65.5
243.531	76.5
243.765	76.5
243.998	75.5
244.232	69.5
244.465	61.5
244.699	65.5
244.932	72.5
245.166	73.5
245.399	82.5
245.633	72.5
245.866	71.5
246.099	78.5
246.333	82.5
246.566	86.5
246.8	70.5
247.033	80.5
247.266	78.5
247.5	66.5
247.733	74.5
247.966	87.5
248.2	70.5
248.433	85.5
248.666	76.5
248.899	82.5
249.133	85.5
249.366	92.5
249.599	79.5
249.832	77.5
250.066	83.5
250.299	71.5
250.532	76.5
250.765	70.5
250.998	79.5
251.231	71.5
251.465	68.5
251.698	73.5
251.931	71.5
252.164	71.5
252.397	72.5
252.63	66.5
252.863	78.5
253.096	68.5
253.329	68.5
253.562	78.5
253.795	81.5
254.028	84.5
254.261	67.5
254.494	75.5
254.727	84.5
254.96	75.5
255.193	84.5
255.426	83.5
255.659	79.5
255.892	68.5
256.124	73.5
256.357	69.5
256.59	78.5
256.823	65.5
257.056	73.5
257.289	63.5
257.521	81.5
257.754	85.5
257.987	84.5
258.22	97.5
258.452	78.5
258.685	77.5
258.918	80.5
259.151	71.5
259.383	71.5
259.616	81.5
259.849	72.5
260.081	67.5
260.314	78.5
260.547	77.5
260.779	93.5
261.012	75.5
261.244	82.5
261.477	80.5
261.71	89.5
261.942	96.5
262.175	88.5
262.407	77.5
262.64	96.5
262.872	84.5
263.105	79.5
263.337	76.5
263.57	80.5
263.802	83.5
264.035	83.5
264.267	85.5
264.499	62.5
264.732	80.5
264.964	72.5
265.197	73.5
265.429	70.5
265.661	64.5
265.894	80.5
266.126	87.5
266.358	78.5
266.591	89.5
266.823	79.5
267.055	71.5
267.287	82.5
267.52	82.5
267.752	78.5
267.984	73.5
268.216	86.5
268.448	83.5
268.681	77.5
268.913	83.5
269.145	77.5
269.377	84.5
269.609	83.5
269.841	99.5
270.073	83.5
270.306	78.5
270.538	76.5
270.77	77.5
271.002	79.5
271.234	89.5
271.466	80.5
271.698	77.5
271.93	73.5
272.162	80.5
272.394	71.5
272.626	72.5
272.858	88.5
273.09	72.5
273.322	74.5
273.553	81.5
273.785	84.5
274.017	78.5
274.249	92.5
274.481	90.5
274.713	83.5
274.945	93.5
275.176	83.5
275.408	88.5
275.64	87.5
275.872	65.5
276.104	79.5
276.335	94.5
276.567	93.5
276.799	86.5
277.031	75.5
277.262	85.5
277.494	71.5
277.726	89.5
277.957	79.5
278.189	75.5
278.421	77.5
278.652	87.5
278.884	72.5
279.115	84.5
279.347	71.5
279.579	97.5
279.81	72.5
280.042	85.5
280.273	74.5
280.505	81.5
280.736	81.5
280.968	77.5
281.199	79.5
281.431	67.5
281.662	69.5
281.894	84.5
282.125	95.5
282.356	87.5
282.588	73.5
282.819	78.5
283.051	81.5
283.282	88.5
283.513	84.5
283.745	88.5
283.976	73.5
284.207	82.5
284.439	76.5
284.67	79.5
284.901	82.5
285.132	91.5
285.364	78.5
285.595	84.5
285.826	79.5
286.057	94.5
286.288	75.5
286.52	83.5
286.751	78.5
286.982	89.5
287.213	84.5
287.444	72.5
287.675	73.5
287.906	79.5
288.138	75.5
288.369	91.5
288.6	87.5
288.831	97.5
289.062	90.5
289.293	91.5
289.524	70.5
289.755	98.5
289.986	66.5
290.217	80.5
290.448	78.5
290.679	92.5
290.91	84.5
291.141	75.5
291.371	79.5
291.602	89.5
291.833	86.5
292.064	83.5
292.295	93.5
292.526	61.5
292.757	75.5
292.987	95.5
293.218	82.5
293.449	93.5
293.68	91.5
293.91	78.5
294.141	85.5
294.372	95.5
294.603	95.5
294.833	91.5
295.064	74.5
295.295	83.5
295.525	82.5
295.756	85.5
295.987	84.5
296.217	81.5
296.448	82.5
296.679	61.5
296.909	83.5
297.14	89.5
297.37	77.5
297.601	85.5
297.831	78.5
298.062	79.5
298.292	87.5
298.523	91.5
298.753	77.5
298.984	91.5
299.214	89.5
299.445	90.5
299.675	84.5
299.905	84.5
300.136	76.5
300.366	87.5
300.597	66.5
300.827	85.5
301.057	88.5
301.288	80.5
301.518	80.5
301.748	83.5
301.979	75.5
302.209	83.5
302.439	88.5
302.669	80.5
302.9	87.5
303.13	91.5
303.36	85.5
303.59	91.5
303.82	95.5
304.051	91.5
304.281	83.5
304.511	71.5
304.741	77.5
304.971	84.5
305.201	91.5
305.431	79.5
305.661	77.5
305.891	81.5
306.121	92.5
306.352	78.5
306.582	88.5
306.812	93.5
307.042	85.5
307.272	86.5
307.502	87.5
307.731	87.5
307.961	95.5
308.191	77.5
308.421	80.5
308.651	85.5
308.881	74.5
309.111	84.5
309.341	86.5
309.571	85.5
309.8	85.5
310.03	80.5
310.26	79.5
310.49	87.5
310.72	86.5
310.949	96.5
311.179	88.5
311.409	80.5
311.639	80.5
311.868	91.5
312.098	93.5
312.328	87.5
312.557	75.5
312.787	105.5
313.017	82.5
313.246	94.5
313.476	78.5
313.706	82.5
313.935	77.5
314.165	76.5
314.394	77.5
314.624	91.5
314.853	89.5
315.083	86.5
315.312	83.5
315.542	97.5
315.771	86.5
316.001	74.5
316.23	87.5
316.46	75.5
316.689	95.5
316.919	72.5
317.148	89.5
317.377	80.5
317.607	92.5
317.836	76.5
318.065	77.5
318.295	89.5
318.524	83.5
318.753	73.5
318.983	89.5
319.212	78.5
319.441	64.5
319.67	95.5
319.9	85.5
320.129	81.5
320.358	85.5
320.587	75.5
320.816	77.5
321.046	80.5
321.275	76.5
321.504	81.5
321.733	84.5
321.962	69.5
322.191	97.5
322.42	94.5
322.649	76.5
322.878	88.5
323.108	95.5
323.337	84.5
323.566	77.5
323.795	79.5
324.024	91.5
324.253	75.5
324.482	87.5
324.71	93.5
324.939	83.5
325.168	91.5
325.397	86.5
325.626	83.5
325.855	77.5
326.084	89.5
326.313	91.5
326.542	79.5
326.77	83.5
326.999	91.5
327.228	93.5
327.457	100.5
327.686	80.5
327.914	78.5
328.143	88.5
328.372	80.5
328.6	68.5
328.829	91.5
329.058	81.5
329.287	93.5
329.515	107.5
329.744	113.5
329.972	99.5
330.201	81.5
330.43	85.5
330.658	81.5
330.887	88.5
331.115	89.5
331.344	81.5
331.572	80.5
331.801	69.5
332.03	81.5
332.258	89.5
332.486	75.5
332.715	78.5
332.943	100.5
333.172	83.5
333.4	80.5
333.629	76.5
333.857	78.5
334.085	101.5
334.314	82.5
334.542	85.5
334.771	83.5
334.999	80.5
335.227	82.5
335.455	85.5
335.684	91.5
335.912	87.5
336.14	79.5
336.369	83.5
336.597	81.5
336.825	83.5
337.053	77.5
337.281	92.5
337.51	83.5
337.738	91.5
337.966	93.5
338.194	81.5
338.422	76.5
338.65	71.5
338.878	87.5
339.106	95.5
339.334	89.5
339.562	95.5
339.79	105.5
340.018	70.5
340.246	84.5
340.474	79.5
340.702	72.5
340.93	77.5
341.158	92.5
341.386	76.5
341.614	79.5
341.842	76.5
342.07	84.5
342.298	76.5
342.526	87.5
342.754	95.5
342.981	93.5
343.209	87.5
343.437	87.5
343.665	79.5
343.893	75.5
344.12	67.5
344.348	82.5
344.576	88.5
344.804	80.5
345.031	72.5
345.259	93.5
345.487	76.5
345.714	79.5
345.942	77.5
346.17	78.5
346.397	84.5
346.625	87.5
346.853	75.5
347.08	76.5
347.308	85.5
347.535	64.5
347.763	72.5
347.99	103.5
348.218	82.5
348.445	75.5
348.673	89.5
348.9	77.5
349.128	85.5
349.355	89.5
349.583	84.5
349.81	75.5
350.037	70.5
350.265	76.5
350.492	83.5
350.72	76.5
350.947	77.5
351.174	77.5
351.402	85.5
351.629	92.5
351.856	87.5
352.083	89.5
352.311	86.5
352.538	66.5
352.765	79.5
352.992	99.5
353.22	70.5
353.447	73.5
353.674	90.5
353.901	93.5
354.128	69.5
354.355	96.5
354.583	79.5
354.81	86.5
355.037	99.5
355.264	77.5
355.491	79.5
355.718	81.5
355.945	90.5
356.172	56.5
356.399	77.5
356.626	83.5
356.853	75.5
357.08	78.5
357.307	94.5
357.534	87.5
357.761	83.5
357.988	88.5
358.215	76.5
358.441	96.5
358.668	80.5
358.895	79.5
359.122	92.5
359.349	75.5
359.576	86.5
359.802	76.5
360.029	80.5
360.256	71.5
360.483	88.5
360.709	81.5
360.936	83.5
361.163	87.5
361.39	75.5
361.616	79.5
361.843	87.5
362.07	71.5
362.296	84.5
362.523	84.5
362.749	84.5
362.976	93.5
363.203	79.5
363.429	79.5
363.656	72.5
363.882	79.5
364.109	103.5
364.335	79.5
364.562	78.5
364.788	72.5
365.015	68.5
365.241	77.5
365.468	79.5
365.694	69.5
365.92	86.5
366.147	85.5
366.373	97.5
366.599	80.5
366.826	75.5
367.052	79.5
367.278	80.5
367.505	79.5
367.731	96.5
367.957	76.5
368.184	91.5
368.41	82.5
368.636	80.5
368.862	92.5
369.089	91.5
369.315	88.5
369.541	71.5
369.767	86.5
369.993	91.5
370.219	80.5
370.445	86.5
370.672	87.5
370.898	76.5
371.124	67.5
371.35	88.5
371.576	91.5
371.802	78.5
372.028	79.5
372.254	88.5
372.48	88.5
372.706	75.5
372.932	76.5
373.158	76.5
373.384	86.5
373.61	82.5
373.835	85.5
374.061	80.5
374.287	84.5
374.513	77.5
374.739	77.5
374.965	75.5
375.191	76.5
375.416	96.5
375.642	89.5
375.868	73.5
376.094	76.5
376.319	76.5
376.545	84.5
376.771	64.5
376.997	77.5
377.222	84.5
377.448	95.5
377.674	73.5
377.899	82.5
378.125	72.5
378.35	66.5
378.576	95.5
378.802	86.5
379.027	81.5
379.253	68.5
379.478	87.5
379.704	97.5
379.929	81.5
380.155	73.5
380.38	89.5
380.606	76.5
380.831	79.5
381.057	83.5
381.282	85.5
381.507	89.5
381.733	78.5
381.958	70.5
382.184	75.5
382.409	89.5
382.634	77.5
382.86	77.5
383.085	96.5
383.31	81.5
383.535	79.5
383.761	97.5
383.986	84.5
384.211	88.5
384.436	84.5
384.662	73.5
384.887	80.5
385.112	79.5
385.337	80.5
385.562	69.5
385.787	83.5
386.013	78.5
386.238	71.5
386.463	74.5
386.688	98.5
386.913	96.5
387.138	84.5
387.363	73.5
387.588	92.5
387.813	69.5
388.038	76.5
388.263	91.5
388.488	78.5
388.713	73.5
388.938	88.5
389.163	76.5
389.387	89.5
389.612	91.5
389.837	87.5
390.062	93.5
390.287	84.5
390.512	81.5
390.736	81.5
390.961	82.5
391.186	77.5
391.411	80.5
391.636	77.5
391.86	82.5
392.085	79.5
392.31	62.5
392.534	76.5
392.759	81.5
392.984	73.5
393.208	69.5
393.433	79.5
393.658	89.5
393.882	73.5
394.107	96.5
394.331	72.5
394.556	69.5
394.78	104.5
395.005	78.5
395.229	91.5
395.454	99.5
395.678	82.5
395.903	82.5
396.127	64.5
396.352	56.5
396.576	78.5
396.801	74.5
397.025	90.5
397.249	97.5
397.474	80.5
397.698	96.5
397.922	73.5
398.147	74.5
398.371	83.5
398.595	79.5
398.82	70.5
399.044	93.5
399.268	89.5
399.492	91.5
399.717	75.5
399.941	66.5
400.165	73.5
400.389	71.5
400.613	74.5
400.837	72.5
401.062	85.5
401.286	67.5
401.51	97.5
401.734	83.5
401.958	81.5
402.182	93.5
402.406	71.5
402.63	86.5
402.854	68.5
403.078	69.5
403.302	89.5
403.526	83.5
403.75	88.5
403.974	75.5
404.198	83.5
404.422	84.5
404.645	81.5
404.869	81.5
405.093	73.5
405.317	78.5
405.541	80.5
405.765	72.5
405.988	95.5
406.212	82.5
406.436	77.5
406.66	83.5
406.883	86.5
407.107	73.5
407.331	81.5
407.555	78.5
407.778	80.5
408.002	76.5
408.226	84.5
408.449	72.5
408.673	76.5
408.896	75.5
409.12	72.5
409.344	69.5
409.567	79.5
409.791	74.5
410.014	80.5
410.238	81.5
410.461	77.5
410.685	78.5
410.908	85.5
411.132	97.5
411.355	83.5
411.578	80.5
411.802	87.5
412.025	84.5
412.249	78.5
412.472	81.5
412.695	87.5
412.919	87.5
413.142	85.5
413.365	69.5
413.589	72.5
413.812	77.5
414.035	75.5
414.258	75.5
414.482	85.5
414.705	98.5
414.928	88.5
415.151	87.5
415.374	87.5
415.597	71.5
415.821	76.5
416.044	73.5
416.267	77.5
416.49	79.5
416.713	73.5
416.936	77.5
417.159	79.5
417.382	76.5
417.605	62.5
417.828	84.5
418.051	63.5
418.274	76.5
418.497	81.5
418.72	81.5
418.943	89.5
419.166	72.5
419.389	75.5
419.611	70.5
419.834	76.5
420.057	87.5
420.28	64.5
420.503	87.5
420.726	81.5
420.948	88.5
421.171	78.5
421.394	87.5
421.617	70.5
421.839	81.5
422.062	87.5
422.285	85.5
422.507	90.5
422.73	95.5
422.953	86.5
423.175	83.5
423.398	82.5
423.621	81.5
423.843	70.5
424.066	79.5
424.288	71.5
424.511	73.5
424.733	85.5
424.956	94.5
425.178	72.5
425.401	70.5
425.623	79.5
425.846	80.5
426.068	79.5
426.291	83.5
426.513	72.5
426.735	94.5
426.958	83.5
427.18	85.5
427.402	86.5
427.625	75.5
427.847	71.5
428.069	77.5
428.292	90.5
428.514	77.5
428.736	87.5
428.958	85.5
429.181	69.5
429.403	78.5
429.625	85.5
429.847	63.5
430.069	80.5
430.292	89.5
430.514	83.5
430.736	65.5
430.958	83.5
431.18	59.5
431.402	78.5
431.624	67.5
431.846	75.5
432.068	81.5
432.29	64.5
432.512	72.5
432.734	73.5
432.956	78.5
433.178	85.5
433.4	91.5
433.622	88.5
433.844	82.5
434.066	70.5
434.287	85.5
434.509	77.5
434.731	88.5
434.953	72.5
435.175	81.5
435.397	80.5
435.618	72.5
435.84	86.5
436.062	78.5
436.284	88.5
436.505	86.5
436.727	77.5
436.949	73.5
437.17	89.5
437.392	87.5
437.614	88.5
437.835	70.5
438.057	71.5
438.278	70.5
438.5	74.5
438.721	80.5
438.943	75.5
439.165	71.5
439.386	87.5
439.608	72.5
439.829	71.5
440.05	76.5
440.272	78.5
440.493	71.5
440.715	80.5
440.936	75.5
441.158	81.5
441.379	85.5
441.6	83.5
441.822	76.5
442.043	83.5
442.264	83.5
442.486	83.5
442.707	75.5
442.928	88.5
443.149	56.5
443.371	86.5
443.592	60.5
443.813	83.5
444.034	78.5
444.255	84.5
444.476	83.5
444.698	73.5
444.919	81.5
445.14	159.5
445.361	111.5
445.582	85.5
445.803	85.5
446.024	83.5
446.245	72.5
446.466	94.5
446.687	61.5
446.908	68.5
447.129	68.5
447.35	85.5
447.571	83.5
447.792	83.5
448.013	77.5
448.234	97.5
448.455	72.5
448.675	71.5
448.896	78.5
449.117	101.5
449.338	85.5
449.559	75.5
449.779	79.5
450	82.5
450.221	91.5
450.442	77.5
450.662	81.5
450.883	75.5
451.104	75.5
451.324	93.5
451.545	75.5
451.766	79.5
451.986	79.5
452.207	72.5
452.428	84.5
452.648	73.5
452.869	70.5
453.089	80.5
453.31	89.5
453.53	75.5
453.751	78.5
453.971	67.5
454.192	80.5
454.412	85.5
454.633	86.5
454.853	85.5
455.073	87.5
455.294	86.5
455.514	85.5
455.734	78.5
455.955	89.5
456.175	83.5
456.395	83.5
456.616	82.5
456.836	79.5
457.056	80.5
457.276	76.5
457.497	75.5
457.717	84.5
457.937	70.5
458.157	73.5
458.377	100.5
458.598	72.5
458.818	85.5
459.038	75.5
459.258	82.5
459.478	83.5
459.698	79.5
459.918	68.5
460.138	64.5
460.358	80.5
460.578	68.5
460.798	68.5
461.018	75.5
461.238	96.5
461.458	85.5
461.678	81.5
461.898	75.5
462.118	88.5
462.338	72.5
462.558	77.5
462.777	87.5
462.997	81.5
463.217	76.5
463.437	81.5
463.657	82.5
463.876	77.5
464.096	79.5
464.316	84.5
464.536	71.5
464.755	91.5
464.975	77.5
465.195	88.5
465.414	77.5
465.634	90.5
465.854	83.5
466.073	79.5
466.293	89.5
466.512	85.5
466.732	77.5
466.951	71.5
467.171	75.5
467.391	67.5
467.61	83.5
467.829	95.5
468.049	91.5
468.268	75.5
468.488	72.5
468.707	78.5
468.927	88.5
469.146	85.5
469.365	76.5
469.585	76.5
469.804	86.5
470.023	66.5
470.243	77.5
470.462	78.5
470.681	83.5
470.901	83.5
471.12	87.5
471.339	72.5
471.558	88.5
471.777	84.5
471.997	62.5
472.216	85.5
472.435	81.5
472.654	73.5
472.873	83.5
473.092	80.5
473.311	83.5
473.53	91.5
473.749	72.5
473.968	86.5
474.187	81.5
474.406	79.5
474.625	85.5
474.844	83.5
475.063	86.5
475.282	80.5
475.501	78.5
475.72	92.5
475.939	81.5
476.158	86.5
476.377	85.5
476.596	71.5
476.814	71.5
477.033	78.5
477.252	100.5
477.471	84.5
477.69	89.5
477.908	79.5
478.127	79.5
478.346	81.5
478.564	89.5
478.783	77.5
479.002	71.5
479.22	88.5
479.439	98.5
479.658	70.5
479.876	84.5
480.095	76.5
480.313	76.5
480.532	77.5
480.751	71.5
480.969	83.5
481.188	91.5
481.406	95.5
481.624	80.5
481.843	87.5
482.061	82.5
482.28	95.5
482.498	87.5
482.717	91.5
482.935	77.5
483.153	73.5
483.372	87.5
483.59	83.5
483.808	83.5
484.027	88.5
484.245	68.5
484.463	76.5
484.681	80.5
484.9	84.5
485.118	75.5
485.336	73.5
485.554	78.5
485.772	69.5
485.99	73.5
486.209	92.5
486.427	80.5
486.645	75.5
486.863	91.5
487.081	74.5
487.299	79.5
487.517	82.5
487.735	78.5
487.953	88.5
488.171	91.5
488.389	73.5
488.607	93.5
488.825	71.5
489.043	84.5
489.261	98.5
489.479	88.5
489.696	75.5
489.914	78.5
490.132	73.5
490.35	82.5
490.568	84.5
490.786	68.5
491.003	81.5
491.221	59.5
491.439	88.5
491.657	83.5
491.874	80.5
492.092	89.5
492.31	78.5
492.527	83.5
492.745	75.5
492.963	80.5
493.18	79.5
493.398	83.5
493.615	86.5
493.833	80.5
494.05	65.5
494.268	75.5
494.485	95.5
494.703	79.5
494.92	64.5
495.138	77.5
495.355	77.5
495.573	83.5
495.79	67.5
496.008	87.5
496.225	77.5
496.442	71.5
496.66	79.5
496.877	92.5
497.094	80.5
497.312	94.5
497.529	70.5
497.746	74.5
497.963	85.5
498.181	77.5
498.398	86.5
498.615	102.5
498.832	85.5
499.049	69.5
499.267	92.5
499.484	81.5
499.701	77.5
499.918	84.5
500.135	89.5
500.352	85.5
500.569	74.5
500.786	93.5
501.003	82.5
501.22	75.5
501.437	68.5
501.654	75.5
501.871	74.5
502.088	86.5
502.305	87.5
502.522	81.5
502.739	77.5
502.956	97.5
503.172	94.5
503.389	77.5
503.606	55.5
503.823	72.5
504.04	85.5
504.256	75.5
504.473	81.5
504.69	84.5
504.907	79.5
505.123	75.5
505.34	98.5
505.557	97.5
505.773	88.5
505.99	86.5
506.207	97.5
506.423	100.5
506.64	87.5
506.856	67.5
507.073	79.5
507.289	79.5
507.506	78.5
507.722	86.5
507.939	63.5
508.155	92.5
508.372	86.5
508.588	74.5
508.805	84.5
509.021	88.5
509.238	77.5
509.454	86.5
509.67	90.5
509.887	76.5
510.103	68.5
510.319	84.5
510.536	84.5
510.752	64.5
510.968	86.5
511.184	86.5
511.401	79.5
511.617	76.5
511.833	73.5
512.049	81.5
512.265	95.5
512.481	72.5
512.698	72.5
512.914	74.5
513.13	86.5
513.346	85.5
513.562	84.5
513.778	92.5
513.994	88.5
514.21	79.5
514.426	77.5
514.642	92.5
514.858	71.5
515.074	74.5
515.29	88.5
515.506	81.5
515.721	85.5
515.937	80.5
516.153	67.5
516.369	73.5
516.585	98.5
516.801	93.5
517.016	86.5
517.232	75.5
517.448	68.5
517.664	66.5
517.879	78.5
518.095	71.5
518.311	88.5
518.527	79.5
518.742	65.5
518.958	79.5
519.173	81.5
519.389	72.5
519.605	75.5
519.82	77.5
520.036	77.5
520.251	84.5
520.467	86.5
520.682	69.5
520.898	86.5
521.113	94.5
521.329	95.5
521.544	81.5
521.76	91.5
521.975	82.5
522.19	93.5
522.406	92.5
522.621	83.5
522.836	88.5
523.052	107.5
523.267	79.5
523.482	73.5
523.698	74.5
523.913	67.5
524.128	91.5
524.343	72.5
524.559	71.5
524.774	93.5
524.989	77.5
525.204	78.5
525.419	84.5
525.634	76.5
525.849	85.5
526.064	77.5
526.28	94.5
526.495	79.5
526.71	75.5
526.925	85.5
527.14	71.5
527.355	86.5
527.57	81.5
527.785	79.5
527.999	82.5
528.214	95.5
528.429	88.5
528.644	77.5
528.859	87.5
529.074	75.5
529.289	81.5
529.503	88.5
529.718	72.5
529.933	69.5
530.148	77.5
530.363	75.5
530.577	75.5
530.792	66.5
531.007	97.5
531.221	100.5
531.436	70.5
531.651	77.5
531.865	85.5
532.08	77.5
532.295	96.5
532.509	80.5
532.724	74.5
532.938	99.5
533.153	93.5
533.367	82.5
533.582	83.5
533.796	83.5
534.011	87.5
534.225	90.5
534.44	77.5
534.654	88.5
534.868	85.5
535.083	85.5
535.297	96.5
535.511	87.5
535.726	70.5
535.94	72.5
536.154	74.5
536.369	88.5
536.583	79.5
536.797	72.5
537.011	72.5
537.225	84.5
537.44	80.5
537.654	75.5
537.868	85.5
538.082	69.5
538.296	84.5
538.51	85.5
538.724	95.5
538.938	80.5
539.153	103.5
539.367	75.5
539.581	83.5
539.795	91.5
540.009	77.5
540.222	84.5
540.436	96.5
540.65	82.5
540.864	69.5
541.078	95.5
541.292	83.5
541.506	88.5
541.72	93.5
541.934	71.5
542.147	68.5
542.361	77.5
542.575	83.5
542.789	79.5
543.002	86.5
543.216	88.5
543.43	78.5
543.644	89.5
543.857	93.5
544.071	87.5
544.285	86.5
544.498	77.5
544.712	81.5
544.925	100.5
545.139	76.5
545.352	89.5
545.566	86.5
545.779	83.5
545.993	88.5
546.206	91.5
546.42	80.5
546.633	93.5
546.847	79.5
547.06	91.5
547.274	67.5
547.487	89.5
547.7	88.5
547.914	86.5
548.127	76.5
548.34	75.5
548.554	74.5
548.767	72.5
548.98	81.5
549.193	67.5
549.407	85.5
549.62	86.5
549.833	93.5
550.046	85.5
550.259	78.5
550.473	79.5
550.686	89.5
550.899	91.5
551.112	69.5
551.325	92.5
551.538	79.5
551.751	89.5
551.964	87.5
552.177	102.5
552.39	80.5
552.603	80.5
552.816	83.5
553.029	88.5
553.242	92.5
553.455	88.5
553.667	99.5
553.88	89.5
554.093	72.5
554.306	78.5
554.519	92.5
554.732	83.5
554.944	92.5
555.157	84.5
555.37	95.5
555.583	91.5
555.795	89.5
556.008	98.5
556.221	81.5
556.433	83.5
556.646	76.5
556.859	77.5
557.071	88.5
557.284	85.5
557.496	93.5
557.709	85.5
557.921	76.5
558.134	86.5
558.346	69.5
558.559	84.5
558.771	85.5
558.984	88.5
559.196	95.5
559.409	80.5
559.621	84.5
559.833	88.5
560.046	92.5
560.258	87.5
560.47	82.5
560.683	79.5
560.895	86.5
561.107	92.5
561.32	91.5
561.532	94.5
561.744	85.5
561.956	89.5
562.168	81.5
562.381	85.5
562.593	80.5
562.805	75.5
563.017	95.5
563.229	83.5
563.441	101.5
563.653	92.5
563.865	85.5
564.077	80.5
564.289	88.5
564.501	87.5
564.713	85.5
564.925	75.5
565.137	76.5
565.349	86.5
565.561	87.5
565.773	73.5
565.985	68.5
566.197	85.5
566.408	74.5
566.62	75.5
566.832	87.5
567.044	91.5
567.255	91.5
567.467	84.5
567.679	84.5
567.891	81.5
568.102	85.5
568.314	100.5
568.526	84.5
568.737	88.5
568.949	81.5
569.161	73.5
569.372	85.5
569.584	84.5
569.795	96.5
570.007	87.5
570.218	85.5
570.43	84.5
570.641	84.5
570.853	100.5
571.064	87.5
571.276	106.5
571.487	92.5
571.698	84.5
571.91	82.5
572.121	96.5
572.333	93.5
572.544	95.5
572.755	70.5
572.966	65.5
573.178	99.5
573.389	81.5
573.6	85.5
573.811	89.5
574.023	91.5
574.234	80.5
574.445	89.5
574.656	84.5
574.867	82.5
575.078	95.5
575.289	99.5
575.501	85.5
575.712	85.5
575.923	74.5
576.134	83.5
576.345	76.5
576.556	79.5
576.767	85.5
576.978	95.5
577.188	91.5
577.399	88.5
577.61	97.5
577.821	82.5
578.032	63.5
578.243	72.5
578.454	77.5
578.665	86.5
578.875	96.5
579.086	85.5
579.297	87.5
579.508	79.5
579.718	96.5
579.929	94.5
580.14	101.5
580.35	80.5
580.561	83.5
580.772	87.5
580.982	65.5
581.193	93.5
581.403	98.5
581.614	88.5
581.825	84.5
582.035	94.5
582.246	95.5
582.456	88.5
582.667	75.5
582.877	89.5
583.087	79.5
583.298	83.5
583.508	92.5
583.719	88.5
583.929	88.5
584.139	84.5
584.35	92.5
584.56	91.5
584.77	84.5
584.981	80.5
585.191	85.5
585.401	89.5
585.611	84.5
585.821	68.5
586.032	89.5
586.242	90.5
586.452	88.5
586.662	91.5
586.872	86.5
587.082	88.5
587.292	80.5
587.502	92.5
587.713	95.5
587.923	93.5
588.133	85.5
588.343	78.5
588.553	81.5
588.762	131.5
588.972	175.5
589.182	361.5
589.392	238.5
589.602	191.5
589.812	317.5
590.022	168.5
590.232	103.5
590.441	88.5
590.651	93.5
590.861	89.5
591.071	83.5
591.281	83.5
591.49	100.5
591.7	77.5
591.91	92.5
592.119	75.5
592.329	105.5
592.539	92.5
592.748	92.5
592.958	84.5
593.167	83.5
593.377	70.5
593.587	89.5
593.796	88.5
594.006	83.5
594.215	99.5
594.424	69.5
594.634	77.5
594.843	92.5
595.053	87.5
595.262	95.5
595.472	93.5
595.681	92.5
595.89	95.5
596.1	89.5
596.309	76.5
596.518	91.5
596.727	92.5
596.937	83.5
597.146	87.5
597.355	91.5
597.564	85.5
597.774	94.5
597.983	76.5
598.192	94.5
598.401	78.5
598.61	77.5
598.819	77.5
599.028	84.5
599.237	83.5
599.446	84.5
599.655	73.5
599.864	84.5
600.073	91.5
600.282	83.5
600.491	98.5
600.7	91.5
600.909	92.5
601.118	86.5
601.327	84.5
601.536	99.5
601.745	70.5
601.953	69.5
602.162	70.5
602.371	88.5
602.58	78.5
602.789	87.5
602.997	80.5
603.206	91.5
603.415	87.5
603.623	84.5
603.832	95.5
604.041	80.5
604.249	96.5
604.458	85.5
604.666	95.5
604.875	86.5
605.084	86.5
605.292	75.5
605.501	85.5
605.709	79.5
605.918	87.5
606.126	87.5
606.334	76.5
606.543	85.5
606.751	81.5
606.96	77.5
607.168	85.5
607.376	89.5
607.585	95.5
607.793	70.5
608.001	84.5
608.21	86.5
608.418	82.5
608.626	75.5
608.834	82.5
609.043	97.5
609.251	83.5
609.459	95.5
609.667	81.5
609.875	72.5
610.083	89.5
610.291	69.5
610.499	88.5
610.707	90.5
610.916	91.5
611.124	79.5
611.332	81.5
611.54	77.5
611.748	96.5
611.955	87.5
612.163	91.5
612.371	84.5
612.579	110.5
612.787	84.5
612.995	92.5
613.203	88.5
613.411	81.5
613.618	86.5
613.826	77.5
614.034	79.5
614.242	77.5
614.449	83.5
614.657	85.5
614.865	80.5
615.072	83.5
615.28	83.5
615.488	76.5
615.695	77.5
615.903	88.5
616.111	79.5
616.318	83.5
616.526	78.5
616.733	101.5
616.941	77.5
617.148	96.5
617.356	61.5
617.563	82.5
617.771	79.5
617.978	81.5
618.185	86.5
618.393	84.5
618.6	92.5
618.807	87.5
619.015	95.5
619.222	77.5
619.429	83.5
619.637	81.5
619.844	77.5
620.051	90.5
620.258	84.5
620.466	85.5
620.673	89.5
620.88	88.5
621.087	81.5
621.294	107.5
621.501	80.5
621.708	79.5
621.915	88.5
622.122	86.5
622.329	69.5
622.536	76.5
622.743	96.5
622.95	93.5
623.157	98.5
623.364	67.5
623.571	85.5
623.778	95.5
623.985	79.5
624.192	78.5
624.399	92.5
624.606	87.5
624.812	92.5
625.019	84.5
625.226	86.5
625.433	92.5
625.639	85.5
625.846	92.5
626.053	81.5
626.259	97.5
626.466	100.5
626.673	75.5
626.879	77.5
627.086	86.5
627.293	75.5
627.499	71.5
627.706	93.5
627.912	84.5
628.119	73.5
628.325	77.5
628.532	83.5
628.738	80.5
628.945	79.5
629.151	88.5
629.357	87.5
629.564	72.5
629.77	88.5
629.976	83.5
630.183	80.5
630.389	75.5
630.595	87.5
630.802	92.5
631.008	93.5
631.214	82.5
631.42	87.5
631.627	86.5
631.833	82.5
632.039	98.5
632.245	80.5
632.451	91.5
632.657	92.5
632.863	74.5
633.069	88.5
633.275	81.5
633.481	86.5
633.688	83.5
633.893	91.5
634.099	90.5
634.305	94.5
634.511	96.5
634.717	76.5
634.923	95.5
635.129	82.5
635.335	87.5
635.541	82.5
635.747	89.5
635.952	79.5
636.158	75.5
636.364	91.5
636.57	92.5
636.775	93.5
636.981	99.5
637.187	95.5
637.392	80.5
637.598	86.5
637.804	72.5
638.009	81.5
638.215	96.5
638.421	67.5
638.626	81.5
638.832	95.5
639.037	85.5
639.243	88.5
639.448	95.5
639.654	91.5
639.859	84.5
640.065	87.5
640.27	83.5
640.475	75.5
640.681	76.5
640.886	78.5
641.091	69.5
641.297	88.5
641.502	95.5
641.707	93.5
641.913	84.5
642.118	94.5
642.323	73.5
642.528	86.5
642.733	80.5
642.939	74.5
643.144	80.5
643.349	85.5
643.554	78.5
643.759	76.5
643.964	88.5
644.169	77.5
644.374	82.5
644.579	83.5
644.784	87.5
644.989	83.5
645.194	76.5
645.399	92.5
645.604	96.5
645.809	99.5
646.014	88.5
646.219	77.5
646.423	91.5
646.628	77.5
646.833	88.5
647.038	78.5
647.243	91.5
647.447	90.5
647.652	85.5
647.857	89.5
648.062	82.5
648.266	88.5
648.471	74.5
648.676	79.5
648.88	87.5
649.085	87.5
649.289	94.5
649.494	81.5
649.698	74.5
649.903	89.5
650.107	76.5
650.312	93.5
650.516	89.5
650.721	75.5
650.925	89.5
651.13	64.5
651.334	77.5
651.539	76.5
651.743	78.5
651.947	91.5
652.152	102.5
652.356	88.5
652.56	90.5
652.764	92.5
652.969	96.5
653.173	93.5
653.377	88.5
653.581	83.5
653.785	87.5
653.99	83.5
654.194	72.5
654.398	83.5
654.602	93.5
654.806	83.5
655.01	73.5
655.214	95.5
655.418	77.5
655.622	95.5
655.826	94.5
656.03	83.5
656.234	71.5
656.438	93.5
656.642	77.5
656.846	86.5
657.049	77.5
657.253	94.5
657.457	77.5
657.661	79.5
657.865	69.5
658.068	63.5
658.272	85.5
658.476	88.5
658.68	82.5
658.883	77.5
659.087	77.5
659.291	87.5
659.494	81.5
659.698	82.5
659.901	85.5
660.105	73.5
660.309	82.5
660.512	77.5
660.716	74.5
660.919	65.5
661.123	76.5
661.326	79.5
661.53	83.5
661.733	76.5
661.936	92.5
662.14	75.5
662.343	87.5
662.546	78.5
662.75	78.5
662.953	71.5
663.156	79.5
663.36	70.5
663.563	75.5
663.766	79.5
663.969	79.5
664.173	84.5
664.376	88.5
664.579	87.5
664.782	87.5
664.985	76.5
665.188	75.5
665.391	76.5
665.594	76.5
665.797	78.5
666	80.5
666.203	83.5
666.406	84.5
666.609	74.5
666.812	86.5
667.015	81.5
667.218	93.5
667.421	79.5
667.624	98.5
667.827	91.5
668.03	76.5
668.232	91.5
668.435	80.5
668.638	93.5
668.841	89.5
669.043	86.5
669.246	82.5
669.449	83.5
669.651	88.5
669.854	72.5
670.057	82.5
670.259	86.5
670.462	87.5
670.665	76.5
670.867	87.5
671.07	79.5
671.272	78.5
671.475	82.5
671.677	75.5
671.88	71.5
672.082	75.5
672.284	75.5
672.487	96.5
672.689	79.5
672.892	97.5
