Data from Super_Dry_Prop_75_2_HRD10591_00015.txt Node
Date: Wed Dec 03 15:02:03 EST 2025
User: Yrep
Spectrometer: HR+D1059
Trigger mode: 1
Integration Time (sec): 1.000000E-1
Scans to average: 1
Electric dark correction enabled: true
Nonlinearity correction enabled: false
Boxcar width: 0
XAxis mode: Wavelengths
Number of Pixels in Spectrum: 2048
>>>>>Begin Spectral Data<<<<<
223.165	-18
223.4	-18
223.635	-18
223.869	-20
224.104	-13
224.338	-21
224.573	-23
224.808	-15
225.042	-1
225.277	-12
225.511	2
225.746	4
225.98	15
226.215	10
226.449	26
226.683	24
226.918	18
227.152	24
227.387	36
227.621	43
227.856	42
228.09	45
228.324	41
228.559	55
228.793	64
229.027	56
229.262	60
229.496	76
229.73	75
229.964	73
230.199	75
230.433	85
230.667	85
230.901	105
231.136	89
231.37	81
231.604	79
231.838	88
232.072	77
232.306	98
232.541	79
232.775	80
233.009	79
233.243	75
233.477	99
233.711	85
233.945	82
234.179	76
234.413	74
234.647	76
234.881	75
235.115	90
235.349	79
235.583	82
235.817	82
236.051	67
236.285	68
236.519	84
236.753	78
236.987	73
237.221	89
237.455	95
237.689	74
237.922	77
238.156	72
238.39	76
238.624	70
238.858	76
239.091	70
239.325	72
239.559	81
239.793	71
240.027	80
240.26	77
240.494	73
240.728	83
240.961	83
241.195	75
241.429	95
241.662	79
241.896	85
242.13	87
242.363	69
242.597	76
242.83	75
243.064	76
243.298	79
243.531	91
243.765	72
243.998	83
244.232	83
244.465	83
244.699	74
244.932	75
245.166	68
245.399	78
245.633	80
245.866	81
246.099	72
246.333	80
246.566	78
246.8	90
247.033	87
247.266	73
247.5	80
247.733	71
247.966	81
248.2	79
248.433	67
248.666	74
248.899	78
249.133	84
249.366	82
249.599	90
249.832	71
250.066	94
250.299	84
250.532	64
250.765	81
250.998	79
251.231	74
251.465	94
251.698	72
251.931	74
252.164	81
252.397	74
252.63	74
252.863	82
253.096	80
253.329	72
253.562	75
253.795	80
254.028	88
254.261	99
254.494	84
254.727	75
254.96	70
255.193	83
255.426	78
255.659	89
255.892	70
256.124	78
256.357	83
256.59	82
256.823	86
257.056	83
257.289	84
257.521	83
257.754	86
257.987	98
258.22	79
258.452	70
258.685	88
258.918	78
259.151	81
259.383	76
259.616	84
259.849	83
260.081	82
260.314	78
260.547	96
260.779	82
261.012	78
261.244	91
261.477	86
261.71	84
261.942	79
262.175	86
262.407	83
262.64	78
262.872	87
263.105	78
263.337	76
263.57	91
263.802	88
264.035	71
264.267	74
264.499	82
264.732	74
264.964	82
265.197	75
265.429	84
265.661	80
265.894	85
266.126	64
266.358	87
266.591	80
266.823	94
267.055	73
267.287	78
267.52	80
267.752	71
267.984	82
268.216	85
268.448	76
268.681	86
268.913	94
269.145	80
269.377	88
269.609	78
269.841	80
270.073	90
270.306	84
270.538	99
270.77	95
271.002	86
271.234	79
271.466	86
271.698	79
271.93	83
272.162	90
272.394	88
272.626	100
272.858	87
273.09	82
273.322	87
273.553	83
273.785	83
274.017	88
274.249	81
274.481	84
274.713	80
274.945	82
275.176	88
275.408	57
275.64	82
275.872	92
276.104	86
276.335	102
276.567	81
276.799	84
277.031	83
277.262	84
277.494	80
277.726	98
277.957	88
278.189	79
278.421	77
278.652	80
278.884	90
279.115	91
279.347	79
279.579	90
279.81	71
280.042	71
280.273	80
280.505	86
280.736	96
280.968	76
281.199	81
281.431	80
281.662	74
281.894	84
282.125	99
282.356	104
282.588	92
282.819	87
283.051	89
283.282	82
283.513	79
283.745	83
283.976	84
284.207	81
284.439	90
284.67	76
284.901	83
285.132	89
285.364	86
285.595	79
285.826	88
286.057	84
286.288	85
286.52	88
286.751	88
286.982	103
287.213	71
287.444	72
287.675	74
287.906	91
288.138	87
288.369	89
288.6	100
288.831	88
289.062	90
289.293	82
289.524	72
289.755	75
289.986	72
290.217	87
290.448	90
290.679	74
290.91	102
291.141	83
291.371	91
291.602	83
291.833	91
292.064	83
292.295	77
292.526	86
292.757	94
292.987	92
293.218	82
293.449	86
293.68	98
293.91	82
294.141	79
294.372	70
294.603	81
294.833	83
295.064	81
295.295	86
295.525	90
295.756	81
295.987	95
296.217	83
296.448	90
296.679	87
296.909	76
297.14	82
297.37	84
297.601	69
297.831	76
298.062	84
298.292	99
298.523	80
298.753	89
298.984	85
299.214	75
299.445	72
299.675	68
299.905	79
300.136	94
300.366	88
300.597	89
300.827	78
301.057	67
301.288	88
301.518	100
301.748	86
301.979	100
302.209	94
302.439	87
302.669	85
302.9	87
303.13	82
303.36	92
303.59	89
303.82	97
304.051	84
304.281	86
304.511	89
304.741	95
304.971	93
305.201	75
305.431	88
305.661	86
305.891	88
306.121	97
306.352	69
306.582	76
306.812	92
307.042	75
307.272	82
307.502	84
307.731	80
307.961	76
308.191	79
308.421	85
308.651	94
308.881	87
309.111	82
309.341	77
309.571	73
309.8	96
310.03	89
310.26	89
310.49	80
310.72	80
310.949	72
311.179	100
311.409	93
311.639	75
311.868	90
312.098	91
312.328	95
312.557	87
312.787	79
313.017	95
313.246	85
313.476	78
313.706	92
313.935	80
314.165	73
314.394	78
314.624	98
314.853	74
315.083	81
315.312	99
315.542	82
315.771	82
316.001	76
316.23	90
316.46	89
316.689	93
316.919	88
317.148	79
317.377	96
317.607	91
317.836	68
318.065	87
318.295	84
318.524	72
318.753	86
318.983	83
319.212	91
319.441	91
319.67	82
319.9	84
320.129	90
320.358	93
320.587	86
320.816	100
321.046	81
321.275	80
321.504	74
321.733	98
321.962	78
322.191	83
322.42	90
322.649	96
322.878	86
323.108	100
323.337	90
323.566	81
323.795	87
324.024	99
324.253	90
324.482	70
324.71	67
324.939	94
325.168	91
325.397	95
325.626	88
325.855	95
326.084	71
326.313	75
326.542	74
326.77	90
326.999	89
327.228	84
327.457	90
327.686	105
327.914	89
328.143	83
328.372	87
328.6	89
328.829	78
329.058	88
329.287	78
329.515	79
329.744	78
329.972	76
330.201	88
330.43	71
330.658	67
330.887	89
331.115	79
331.344	94
331.572	81
331.801	90
332.03	80
332.258	76
332.486	81
332.715	93
332.943	89
333.172	88
333.4	90
333.629	86
333.857	80
334.085	79
334.314	85
334.542	84
334.771	95
334.999	91
335.227	81
335.455	87
335.684	96
335.912	80
336.14	94
336.369	77
336.597	92
336.825	95
337.053	84
337.281	65
337.51	72
337.738	77
337.966	71
338.194	98
338.422	86
338.65	85
338.878	77
339.106	81
339.334	83
339.562	101
339.79	86
340.018	90
340.246	97
340.474	91
340.702	84
340.93	84
341.158	75
341.386	79
341.614	94
341.842	91
342.07	80
342.298	81
342.526	80
342.754	88
342.981	84
343.209	83
343.437	104
343.665	84
343.893	75
344.12	66
344.348	82
344.576	82
344.804	90
345.031	87
345.259	86
345.487	96
345.714	86
345.942	87
346.17	87
346.397	90
346.625	83
346.853	83
347.08	84
347.308	94
347.535	86
347.763	84
347.99	83
348.218	90
348.445	88
348.673	73
348.9	79
349.128	101
349.355	87
349.583	94
349.81	78
350.037	87
350.265	91
350.492	88
350.72	80
350.947	72
351.174	91
351.402	98
351.629	89
351.856	73
352.083	87
352.311	87
352.538	80
352.765	88
352.992	90
353.22	79
353.447	87
353.674	95
353.901	87
354.128	79
354.355	83
354.583	83
354.81	79
355.037	74
355.264	83
355.491	84
355.718	86
355.945	75
356.172	78
356.399	84
356.626	79
356.853	86
357.08	94
357.307	75
357.534	98
357.761	78
357.988	86
358.215	94
358.441	83
358.668	95
358.895	86
359.122	83
359.349	92
359.576	83
359.802	83
360.029	81
360.256	89
360.483	73
360.709	87
360.936	81
361.163	89
361.39	87
361.616	76
361.843	78
362.07	86
362.296	86
362.523	88
362.749	79
362.976	83
363.203	82
363.429	79
363.656	81
363.882	87
364.109	83
364.335	89
364.562	80
364.788	85
365.015	88
365.241	84
365.468	84
365.694	90
365.92	95
366.147	74
366.373	84
366.599	83
366.826	88
367.052	88
367.278	80
367.505	84
367.731	88
367.957	84
368.184	79
368.41	87
368.636	74
368.862	84
369.089	101
369.315	69
369.541	80
369.767	89
369.993	68
370.219	87
370.445	77
370.672	88
370.898	80
371.124	88
371.35	83
371.576	74
371.802	78
372.028	82
372.254	84
372.48	89
372.706	86
372.932	79
373.158	84
373.384	82
373.61	89
373.835	75
374.061	76
374.287	63
374.513	76
374.739	85
374.965	89
375.191	88
375.416	77
375.642	76
375.868	86
376.094	72
376.319	84
376.545	73
376.771	75
376.997	91
377.222	79
377.448	79
377.674	79
377.899	88
378.125	82
378.35	90
378.576	79
378.802	79
379.027	88
379.253	100
379.478	91
379.704	81
379.929	85
380.155	90
380.38	84
380.606	75
380.831	94
381.057	86
381.282	93
381.507	89
381.733	89
381.958	85
382.184	93
382.409	84
382.634	91
382.86	94
383.085	70
383.31	76
383.535	88
383.761	80
383.986	91
384.211	81
384.436	64
384.662	75
384.887	82
385.112	78
385.337	92
385.562	75
385.787	75
386.013	80
386.238	73
386.463	76
386.688	91
386.913	79
387.138	79
387.363	91
387.588	100
387.813	105
388.038	73
388.263	84
388.488	66
388.713	72
388.938	77
389.163	88
389.387	85
389.612	90
389.837	98
390.062	76
390.287	84
390.512	76
390.736	98
390.961	60
391.186	73
391.411	83
391.636	67
391.86	81
392.085	78
392.31	80
392.534	76
392.759	79
392.984	87
393.208	77
393.433	89
393.658	75
393.882	83
394.107	81
394.331	90
394.556	88
394.78	84
395.005	68
395.229	74
395.454	84
395.678	80
395.903	70
396.127	82
396.352	86
396.576	90
396.801	84
397.025	72
397.249	99
397.474	87
397.698	83
397.922	87
398.147	70
398.371	76
398.595	83
398.82	81
399.044	76
399.268	81
399.492	78
399.717	96
399.941	82
400.165	84
400.389	95
400.613	100
400.837	89
401.062	70
401.286	82
401.51	75
401.734	82
401.958	67
402.182	77
402.406	89
402.63	86
402.854	79
403.078	97
403.302	89
403.526	89
403.75	83
403.974	104
404.198	65
404.422	81
404.645	81
404.869	70
405.093	91
405.317	83
405.541	80
405.765	77
405.988	65
406.212	86
406.436	95
406.66	94
406.883	87
407.107	94
407.331	73
407.555	98
407.778	79
408.002	84
408.226	83
408.449	53
408.673	88
408.896	89
409.12	90
409.344	94
409.567	80
409.791	95
410.014	78
410.238	75
410.461	70
410.685	80
410.908	84
411.132	80
411.355	93
411.578	80
411.802	86
412.025	70
412.249	78
412.472	72
412.695	70
412.919	96
413.142	74
413.365	90
413.589	78
413.812	67
414.035	90
414.258	94
414.482	75
414.705	90
414.928	79
415.151	73
415.374	76
415.597	86
415.821	79
416.044	95
416.267	87
416.49	89
416.713	81
416.936	79
417.159	94
417.382	89
417.605	86
417.828	78
418.051	80
418.274	74
418.497	81
418.72	85
418.943	84
419.166	78
419.389	94
419.611	88
419.834	91
420.057	87
420.28	82
420.503	68
420.726	80
420.948	75
421.171	75
421.394	67
421.617	82
421.839	69
422.062	83
422.285	72
422.507	78
422.73	87
422.953	90
423.175	81
423.398	89
423.621	85
423.843	70
424.066	72
424.288	66
424.511	90
424.733	83
424.956	77
425.178	86
425.401	84
425.623	71
425.846	74
426.068	86
426.291	74
426.513	81
426.735	68
426.958	88
427.18	88
427.402	90
427.625	83
427.847	82
428.069	69
428.292	81
428.514	92
428.736	67
428.958	83
429.181	90
429.403	86
429.625	96
429.847	79
430.069	79
430.292	80
430.514	84
430.736	91
430.958	80
431.18	83
431.402	77
431.624	78
431.846	81
432.068	74
432.29	83
432.512	77
432.734	77
432.956	80
433.178	83
433.4	91
433.622	78
433.844	86
434.066	90
434.287	83
434.509	88
434.731	79
434.953	80
435.175	72
435.397	70
435.618	78
435.84	80
436.062	89
436.284	78
436.505	73
436.727	96
436.949	98
437.17	82
437.392	83
437.614	88
437.835	75
438.057	90
438.278	79
438.5	73
438.721	79
438.943	83
439.165	82
439.386	71
439.608	78
439.829	83
440.05	91
440.272	84
440.493	104
440.715	78
440.936	87
441.158	82
441.379	81
441.6	80
441.822	84
442.043	73
442.264	73
442.486	79
442.707	80
442.928	80
443.149	75
443.371	82
443.592	74
443.813	84
444.034	94
444.255	77
444.476	75
444.698	73
444.919	79
445.14	143
445.361	96
445.582	84
445.803	81
446.024	88
446.245	82
446.466	84
446.687	79
446.908	86
447.129	86
447.35	81
447.571	76
447.792	63
448.013	71
448.234	98
448.455	91
448.675	85
448.896	87
449.117	72
449.338	73
449.559	89
449.779	84
450	84
450.221	81
450.442	87
450.662	76
450.883	80
451.104	84
451.324	73
451.545	86
451.766	74
451.986	73
452.207	85
452.428	83
452.648	98
452.869	73
453.089	86
453.31	82
453.53	95
453.751	86
453.971	77
454.192	83
454.412	87
454.633	87
454.853	72
455.073	78
455.294	72
455.514	83
455.734	102
455.955	77
456.175	75
456.395	87
456.616	65
456.836	81
457.056	81
457.276	71
457.497	88
457.717	90
457.937	77
458.157	76
458.377	79
458.598	86
458.818	92
459.038	87
459.258	89
459.478	88
459.698	96
459.918	90
460.138	87
460.358	87
460.578	87
460.798	78
461.018	90
461.238	76
461.458	76
461.678	80
461.898	77
462.118	91
462.338	73
462.558	82
462.777	92
462.997	82
463.217	78
463.437	77
463.657	71
463.876	83
464.096	88
464.316	78
464.536	88
464.755	87
464.975	80
465.195	86
465.414	88
465.634	98
465.854	80
466.073	82
466.293	88
466.512	70
466.732	81
466.951	80
467.171	79
467.391	86
467.61	86
467.829	91
468.049	81
468.268	86
468.488	87
468.707	95
468.927	75
469.146	74
469.365	75
469.585	83
469.804	83
470.023	75
470.243	84
470.462	84
470.681	88
470.901	85
471.12	84
471.339	89
471.558	81
471.777	75
471.997	87
472.216	87
472.435	88
472.654	87
472.873	81
473.092	80
473.311	84
473.53	92
473.749	100
473.968	94
474.187	80
474.406	92
474.625	82
474.844	75
475.063	82
475.282	88
475.501	83
475.72	95
475.939	78
476.158	83
476.377	81
476.596	81
476.814	84
477.033	88
477.252	72
477.471	80
477.69	92
477.908	101
478.127	81
478.346	73
478.564	86
478.783	78
479.002	84
479.22	90
479.439	78
479.658	82
479.876	78
480.095	84
480.313	96
480.532	68
480.751	79
480.969	88
481.188	92
481.406	80
481.624	76
481.843	95
482.061	77
482.28	72
482.498	90
482.717	100
482.935	83
483.153	81
483.372	79
483.59	96
483.808	81
484.027	93
484.245	92
484.463	82
484.681	77
484.9	84
485.118	85
485.336	91
485.554	100
485.772	82
485.99	72
486.209	87
486.427	78
486.645	75
486.863	82
487.081	87
487.299	87
487.517	90
487.735	70
487.953	78
488.171	81
488.389	82
488.607	86
488.825	80
489.043	90
489.261	98
489.479	86
489.696	77
489.914	91
490.132	92
490.35	85
490.568	83
490.786	83
491.003	86
491.221	86
491.439	81
491.657	84
491.874	81
492.092	80
492.31	91
492.527	95
492.745	78
492.963	96
493.18	87
493.398	94
493.615	71
493.833	96
494.05	79
494.268	82
494.485	76
494.703	73
494.92	74
495.138	76
495.355	84
495.573	90
495.79	83
496.008	87
496.225	89
496.442	86
496.66	81
496.877	77
497.094	82
497.312	81
497.529	69
497.746	100
497.963	78
498.181	100
498.398	89
498.615	89
498.832	87
499.049	85
499.267	85
499.484	86
499.701	95
499.918	75
500.135	91
500.352	87
500.569	90
500.786	88
501.003	97
501.22	68
501.437	83
501.654	85
501.871	79
502.088	88
502.305	74
502.522	88
502.739	81
502.956	79
503.172	64
503.389	91
503.606	103
503.823	80
504.04	79
504.256	89
504.473	80
504.69	84
504.907	90
505.123	92
505.34	91
505.557	73
505.773	81
505.99	86
506.207	99
506.423	86
506.64	80
506.856	83
507.073	81
507.289	84
507.506	97
507.722	90
507.939	76
508.155	86
508.372	82
508.588	83
508.805	79
509.021	89
509.238	79
509.454	102
509.67	85
509.887	87
510.103	80
510.319	87
510.536	85
510.752	79
510.968	84
511.184	86
511.401	95
511.617	91
511.833	78
512.049	81
512.265	70
512.481	90
512.698	88
512.914	96
513.13	94
513.346	97
513.562	88
513.778	84
513.994	77
514.21	83
514.426	74
514.642	86
514.858	81
515.074	75
515.29	91
515.506	81
515.721	91
515.937	91
516.153	84
516.369	67
516.585	87
516.801	92
517.016	83
517.232	88
517.448	87
517.664	85
517.879	98
518.095	76
518.311	90
518.527	88
518.742	91
518.958	70
519.173	92
519.389	80
519.605	86
519.82	88
520.036	87
520.251	80
520.467	90
520.682	72
520.898	79
521.113	91
521.329	80
521.544	94
521.76	84
521.975	84
522.19	80
522.406	74
522.621	79
522.836	81
523.052	85
523.267	89
523.482	87
523.698	72
523.913	80
524.128	72
524.343	78
524.559	81
524.774	73
524.989	84
525.204	78
525.419	87
525.634	73
525.849	75
526.064	82
526.28	86
526.495	87
526.71	80
526.925	84
527.14	100
527.355	98
527.57	89
527.785	102
527.999	78
528.214	71
528.429	80
528.644	92
528.859	85
529.074	87
529.289	85
529.503	85
529.718	91
529.933	80
530.148	70
530.363	86
530.577	81
530.792	96
531.007	103
531.221	72
531.436	98
531.651	79
531.865	88
532.08	75
532.295	82
532.509	87
532.724	73
532.938	94
533.153	80
533.367	87
533.582	81
533.796	97
534.011	85
534.225	94
534.44	92
534.654	92
534.868	86
535.083	75
535.297	91
535.511	102
535.726	82
535.94	85
536.154	96
536.369	91
536.583	87
536.797	88
537.011	86
537.225	79
537.44	80
537.654	85
537.868	84
538.082	91
538.296	94
538.51	81
538.724	89
538.938	83
539.153	81
539.367	81
539.581	87
539.795	85
540.009	86
540.222	77
540.436	80
540.65	94
540.864	66
541.078	73
541.292	86
541.506	79
541.72	90
541.934	102
542.147	87
542.361	81
542.575	76
542.789	76
543.002	92
543.216	81
543.43	84
543.644	91
543.857	89
544.071	94
544.285	72
544.498	89
544.712	103
544.925	78
545.139	81
545.352	74
545.566	95
545.779	96
545.993	73
546.206	89
546.42	87
546.633	74
546.847	91
547.06	80
547.274	76
547.487	74
547.7	83
547.914	83
548.127	84
548.34	84
548.554	79
548.767	83
548.98	91
549.193	90
549.407	97
549.62	96
549.833	88
550.046	66
550.259	74
550.473	88
550.686	89
550.899	97
551.112	91
551.325	95
551.538	98
551.751	109
551.964	91
552.177	82
552.39	87
552.603	85
552.816	79
553.029	86
553.242	85
553.455	94
553.667	105
553.88	81
554.093	86
554.306	94
554.519	95
554.732	89
554.944	86
555.157	87
555.37	83
555.583	93
555.795	94
556.008	98
556.221	97
556.433	88
556.646	90
556.859	80
557.071	89
557.284	68
557.496	96
557.709	86
557.921	87
558.134	78
558.346	86
558.559	94
558.771	81
558.984	85
559.196	75
559.409	84
559.621	93
559.833	75
560.046	88
560.258	77
560.47	76
560.683	91
560.895	90
561.107	83
561.32	96
561.532	94
561.744	90
561.956	98
562.168	85
562.381	84
562.593	97
562.805	88
563.017	94
563.229	80
563.441	81
563.653	88
563.865	85
564.077	105
564.289	75
564.501	98
564.713	97
564.925	89
565.137	96
565.349	98
565.561	88
565.773	86
565.985	95
566.197	89
566.408	77
566.62	86
566.832	92
567.044	94
567.255	85
567.467	85
567.679	86
567.891	76
568.102	82
568.314	75
568.526	89
568.737	82
568.949	94
569.161	74
569.372	88
569.584	96
569.795	80
570.007	79
570.218	90
570.43	86
570.641	93
570.853	96
571.064	72
571.276	82
571.487	86
571.698	97
571.91	91
572.121	91
572.333	102
572.544	84
572.755	82
572.966	87
573.178	89
573.389	96
573.6	75
573.811	86
574.023	96
574.234	94
574.445	90
574.656	83
574.867	67
575.078	76
575.289	95
575.501	94
575.712	98
575.923	83
576.134	98
576.345	79
576.556	98
576.767	85
576.978	82
577.188	85
577.399	90
577.61	94
577.821	79
578.032	82
578.243	94
578.454	78
578.665	96
578.875	78
579.086	96
579.297	93
579.508	94
579.718	86
579.929	87
580.14	76
580.35	82
580.561	82
580.772	103
580.982	94
581.193	95
581.403	99
581.614	78
581.825	87
582.035	76
582.246	81
582.456	92
582.667	76
582.877	86
583.087	76
583.298	90
583.508	74
583.719	80
583.929	81
584.139	86
584.35	76
584.56	97
584.77	72
584.981	92
585.191	78
585.401	88
585.611	66
585.821	102
586.032	83
586.242	82
586.452	79
586.662	76
586.872	97
587.082	102
587.292	86
587.502	96
587.713	87
587.923	79
588.133	81
588.343	94
588.553	94
588.762	102
588.972	142
589.182	265
589.392	210
589.602	167
589.812	238
590.022	161
590.232	99
590.441	102
590.651	84
590.861	85
591.071	90
591.281	84
591.49	85
591.7	92
591.91	83
592.119	92
592.329	86
592.539	76
592.748	92
592.958	74
593.167	90
593.377	73
593.587	89
593.796	67
594.006	85
594.215	89
594.424	88
594.634	99
594.843	69
595.053	96
595.262	82
595.472	81
595.681	84
595.89	86
596.1	89
596.309	86
596.518	93
596.727	79
596.937	84
597.146	84
597.355	92
597.564	85
597.774	79
597.983	80
598.192	86
598.401	84
598.61	91
598.819	91
599.028	86
599.237	75
599.446	96
599.655	97
599.864	90
600.073	76
600.282	84
600.491	80
600.7	69
600.909	81
601.118	86
601.327	73
601.536	80
601.745	96
601.953	94
602.162	84
602.371	90
602.58	84
602.789	97
602.997	82
603.206	82
603.415	92
603.623	96
603.832	83
604.041	88
604.249	87
604.458	109
604.666	80
604.875	78
605.084	101
605.292	86
605.501	90
605.709	82
605.918	82
606.126	88
606.334	78
606.543	90
606.751	82
606.96	76
607.168	90
607.376	84
607.585	84
607.793	87
608.001	80
608.21	87
608.418	82
608.626	91
608.834	87
609.043	83
609.251	94
609.459	83
609.667	84
609.875	84
610.083	78
610.291	95
610.499	68
610.707	82
610.916	86
611.124	96
611.332	83
611.54	82
611.748	96
611.955	81
612.163	95
612.371	84
612.579	83
612.787	85
612.995	78
613.203	74
613.411	82
613.618	91
613.826	79
614.034	82
614.242	89
614.449	93
614.657	88
614.865	94
615.072	83
615.28	74
615.488	78
615.695	73
615.903	81
616.111	89
616.318	100
616.526	83
616.733	92
616.941	88
617.148	88
617.356	90
617.563	91
617.771	79
617.978	87
618.185	96
618.393	78
618.6	87
618.807	68
619.015	92
619.222	83
619.429	97
619.637	84
619.844	88
620.051	89
620.258	81
620.466	83
620.673	79
620.88	84
621.087	84
621.294	87
621.501	74
621.708	87
621.915	87
622.122	91
622.329	103
622.536	89
622.743	84
622.95	76
623.157	89
623.364	68
623.571	74
623.778	65
623.985	97
624.192	87
624.399	76
624.606	82
624.812	90
625.019	83
625.226	86
625.433	82
625.639	86
625.846	80
626.053	89
626.259	82
626.466	72
626.673	82
626.879	90
627.086	75
627.293	103
627.499	85
627.706	90
627.912	82
628.119	93
628.325	70
628.532	84
628.738	85
628.945	73
629.151	92
629.357	72
629.564	89
629.77	82
629.976	92
630.183	96
630.389	71
630.595	86
630.802	76
631.008	90
631.214	90
631.42	76
631.627	74
631.833	94
632.039	80
632.245	74
632.451	83
632.657	76
632.863	93
633.069	64
633.275	74
633.481	91
633.688	83
633.893	81
634.099	76
634.305	91
634.511	85
634.717	88
634.923	81
635.129	82
635.335	73
635.541	84
635.747	85
635.952	85
636.158	80
636.364	89
636.57	98
636.775	81
636.981	79
637.187	79
637.392	93
637.598	89
637.804	87
638.009	85
638.215	82
638.421	97
638.626	82
638.832	78
639.037	86
639.243	79
639.448	88
639.654	88
639.859	91
640.065	80
640.27	89
640.475	79
640.681	85
640.886	95
641.091	87
641.297	87
641.502	87
641.707	84
641.913	83
642.118	81
642.323	102
642.528	80
642.733	84
642.939	100
643.144	79
643.349	77
643.554	78
643.759	74
643.964	87
644.169	86
644.374	95
644.579	90
644.784	82
644.989	90
645.194	79
645.399	87
645.604	68
645.809	87
646.014	87
646.219	97
646.423	85
646.628	74
646.833	87
647.038	71
647.243	82
647.447	75
647.652	82
647.857	90
648.062	73
648.266	77
648.471	79
648.676	91
648.88	81
649.085	78
649.289	84
649.494	87
649.698	95
649.903	86
650.107	73
650.312	71
650.516	95
650.721	83
650.925	86
651.13	80
651.334	88
651.539	85
651.743	80
651.947	73
652.152	90
652.356	83
652.56	83
652.764	74
652.969	78
653.173	72
653.377	76
653.581	79
653.785	78
653.99	87
654.194	79
654.398	73
654.602	85
654.806	89
655.01	69
655.214	83
655.418	74
655.622	82
655.826	101
656.03	85
656.234	82
656.438	88
656.642	74
656.846	97
657.049	83
657.253	80
657.457	75
657.661	105
657.865	81
658.068	79
658.272	86
658.476	78
658.68	98
658.883	81
659.087	78
659.291	79
659.494	88
659.698	95
659.901	81
660.105	77
660.309	94
660.512	77
660.716	96
660.919	90
661.123	82
661.326	88
661.53	87
661.733	86
661.936	95
662.14	80
662.343	84
662.546	77
662.75	86
662.953	74
663.156	83
663.36	79
663.563	91
663.766	75
663.969	81
664.173	83
664.376	70
664.579	87
664.782	74
664.985	80
665.188	87
665.391	76
665.594	82
665.797	75
666	88
666.203	68
666.406	75
666.609	75
666.812	84
667.015	73
667.218	80
667.421	89
667.624	87
667.827	90
668.03	73
668.232	76
668.435	80
668.638	79
668.841	71
669.043	83
669.246	90
669.449	88
669.651	77
669.854	74
670.057	82
670.259	79
670.462	75
670.665	83
670.867	89
671.07	91
671.272	73
671.475	102
671.677	84
671.88	88
672.082	84
672.284	89
672.487	81
672.689	82
672.892	82
