Data from Circ_2003_H10_HRD10591_00067.txt Node
Date: Wed Jan 03 10:37:16 EST 2024
User: Yrep
Spectrometer: HR+D1059
Trigger mode: 1
Integration Time (sec): 1.000000E-1
Scans to average: 1
Electric dark correction enabled: true
Nonlinearity correction enabled: false
Boxcar width: 0
XAxis mode: Wavelengths
Number of Pixels in Spectrum: 2048
>>>>>Begin Spectral Data<<<<<
223.165	-22.12
223.4	-22.12
223.635	-22.12
223.869	-20.12
224.104	-16.12
224.338	-24.12
224.573	-14.12
224.808	-13.12
225.042	-7.12
225.277	-12.12
225.511	-2.12
225.746	7.88
225.98	3.88
226.215	16.88
226.449	16.88
226.683	13.88
226.918	36.88
227.152	34.88
227.387	25.88
227.621	47.88
227.856	49.88
228.09	35.88
228.324	54.88
228.559	54.88
228.793	43.88
229.027	61.88
229.262	59.88
229.496	66.88
229.73	85.88
229.964	81.88
230.199	77.88
230.433	59.88
230.667	73.88
230.901	57.88
231.136	76.88
231.37	84.88
231.604	73.88
231.838	79.88
232.072	89.88
232.306	95.88
232.541	87.88
232.775	88.88
233.009	82.88
233.243	79.88
233.477	95.88
233.711	86.88
233.945	74.88
234.179	78.88
234.413	85.88
234.647	69.88
234.881	91.88
235.115	63.88
235.349	69.88
235.583	87.88
235.817	83.88
236.051	71.88
236.285	71.88
236.519	86.88
236.753	68.88
236.987	94.88
237.221	89.88
237.455	69.88
237.689	67.88
237.922	71.88
238.156	63.88
238.39	70.88
238.624	86.88
238.858	83.88
239.091	64.88
239.325	68.88
239.559	72.88
239.793	65.88
240.027	85.88
240.26	59.88
240.494	69.88
240.728	69.88
240.961	73.88
241.195	78.88
241.429	69.88
241.662	85.88
241.896	70.88
242.13	79.88
242.363	69.88
242.597	78.88
242.83	75.88
243.064	73.88
243.298	77.88
243.531	84.88
243.765	71.88
243.998	75.88
244.232	80.88
244.465	81.88
244.699	55.88
244.932	74.88
245.166	71.88
245.399	86.88
245.633	87.88
245.866	88.88
246.099	75.88
246.333	79.88
246.566	79.88
246.8	73.88
247.033	79.88
247.266	86.88
247.5	75.88
247.733	67.88
247.966	72.88
248.2	70.88
248.433	82.88
248.666	67.88
248.899	64.88
249.133	75.88
249.366	68.88
249.599	97.88
249.832	94.88
250.066	83.88
250.299	69.88
250.532	77.88
250.765	71.88
250.998	81.88
251.231	73.88
251.465	82.88
251.698	75.88
251.931	74.88
252.164	65.88
252.397	82.88
252.63	77.88
252.863	77.88
253.096	67.88
253.329	87.88
253.562	93.88
253.795	86.88
254.028	92.88
254.261	80.88
254.494	88.88
254.727	78.88
254.96	59.88
255.193	98.88
255.426	81.88
255.659	81.88
255.892	71.88
256.124	79.88
256.357	85.88
256.59	88.88
256.823	80.88
257.056	77.88
257.289	72.88
257.521	83.88
257.754	87.88
257.987	91.88
258.22	98.88
258.452	85.88
258.685	88.88
258.918	62.88
259.151	81.88
259.383	89.88
259.616	78.88
259.849	83.88
260.081	88.88
260.314	69.88
260.547	68.88
260.779	79.88
261.012	72.88
261.244	79.88
261.477	73.88
261.71	91.88
261.942	107.88
262.175	111.88
262.407	83.88
262.64	70.88
262.872	84.88
263.105	79.88
263.337	84.88
263.57	78.88
263.802	72.88
264.035	73.88
264.267	71.88
264.499	74.88
264.732	81.88
264.964	78.88
265.197	78.88
265.429	71.88
265.661	94.88
265.894	81.88
266.126	85.88
266.358	91.88
266.591	75.88
266.823	79.88
267.055	80.88
267.287	77.88
267.52	83.88
267.752	94.88
267.984	80.88
268.216	76.88
268.448	77.88
268.681	73.88
268.913	80.88
269.145	90.88
269.377	94.88
269.609	79.88
269.841	88.88
270.073	85.88
270.306	86.88
270.538	94.88
270.77	77.88
271.002	91.88
271.234	79.88
271.466	74.88
271.698	69.88
271.93	82.88
272.162	74.88
272.394	81.88
272.626	80.88
272.858	81.88
273.09	78.88
273.322	77.88
273.553	80.88
273.785	85.88
274.017	83.88
274.249	82.88
274.481	80.88
274.713	75.88
274.945	86.88
275.176	90.88
275.408	89.88
275.64	85.88
275.872	81.88
276.104	80.88
276.335	95.88
276.567	122.88
276.799	110.88
277.031	102.88
277.262	89.88
277.494	78.88
277.726	97.88
277.957	81.88
278.189	90.88
278.421	87.88
278.652	86.88
278.884	75.88
279.115	76.88
279.347	91.88
279.579	87.88
279.81	82.88
280.042	94.88
280.273	85.88
280.505	80.88
280.736	80.88
280.968	84.88
281.199	88.88
281.431	82.88
281.662	77.88
281.894	92.88
282.125	95.88
282.356	103.88
282.588	137.88
282.819	115.88
283.051	80.88
283.282	93.88
283.513	84.88
283.745	83.88
283.976	94.88
284.207	87.88
284.439	76.88
284.67	89.88
284.901	95.88
285.132	79.88
285.364	94.88
285.595	80.88
285.826	77.88
286.057	86.88
286.288	79.88
286.52	89.88
286.751	87.88
286.982	83.88
287.213	83.88
287.444	79.88
287.675	82.88
287.906	83.88
288.138	85.88
288.369	89.88
288.6	83.88
288.831	79.88
289.062	83.88
289.293	86.88
289.524	77.88
289.755	81.88
289.986	85.88
290.217	83.88
290.448	81.88
290.679	84.88
290.91	86.88
291.141	89.88
291.371	82.88
291.602	83.88
291.833	81.88
292.064	93.88
292.295	84.88
292.526	95.88
292.757	82.88
292.987	79.88
293.218	87.88
293.449	83.88
293.68	73.88
293.91	71.88
294.141	88.88
294.372	91.88
294.603	87.88
294.833	91.88
295.064	83.88
295.295	93.88
295.525	87.88
295.756	89.88
295.987	117.88
296.217	122.88
296.448	110.88
296.679	87.88
296.909	92.88
297.14	65.88
297.37	82.88
297.601	99.88
297.831	85.88
298.062	84.88
298.292	89.88
298.523	86.88
298.753	104.88
298.984	72.88
299.214	85.88
299.445	83.88
299.675	89.88
299.905	94.88
300.136	94.88
300.366	83.88
300.597	98.88
300.827	84.88
301.057	103.88
301.288	107.88
301.518	97.88
301.748	79.88
301.979	94.88
302.209	81.88
302.439	77.88
302.669	87.88
302.9	84.88
303.13	84.88
303.36	98.88
303.59	99.88
303.82	95.88
304.051	98.88
304.281	99.88
304.511	86.88
304.741	87.88
304.971	76.88
305.201	87.88
305.431	87.88
305.661	91.88
305.891	93.88
306.121	90.88
306.352	91.88
306.582	104.88
306.812	103.88
307.042	73.88
307.272	93.88
307.502	88.88
307.731	90.88
307.961	89.88
308.191	91.88
308.421	88.88
308.651	80.88
308.881	106.88
309.111	116.88
309.341	83.88
309.571	100.88
309.8	95.88
310.03	81.88
310.26	97.88
310.49	96.88
310.72	90.88
310.949	98.88
311.179	93.88
311.409	87.88
311.639	103.88
311.868	85.88
312.098	90.88
312.328	88.88
312.557	103.88
312.787	86.88
313.017	90.88
313.246	99.88
313.476	82.88
313.706	87.88
313.935	99.88
314.165	98.88
314.394	86.88
314.624	82.88
314.853	79.88
315.083	91.88
315.312	87.88
315.542	86.88
315.771	97.88
316.001	91.88
316.23	89.88
316.46	91.88
316.689	72.88
316.919	75.88
317.148	103.88
317.377	85.88
317.607	89.88
317.836	89.88
318.065	78.88
318.295	86.88
318.524	92.88
318.753	91.88
318.983	74.88
319.212	107.88
319.441	99.88
319.67	101.88
319.9	87.88
320.129	86.88
320.358	83.88
320.587	91.88
320.816	83.88
321.046	99.88
321.275	90.88
321.504	97.88
321.733	103.88
321.962	107.88
322.191	93.88
322.42	99.88
322.649	109.88
322.878	104.88
323.108	104.88
323.337	118.88
323.566	121.88
323.795	144.88
324.024	203.88
324.253	355.88
324.482	741.88
324.71	1517.88
324.939	1981.88
325.168	740.88
325.397	235.88
325.626	141.88
325.855	120.88
326.084	117.88
326.313	134.88
326.542	137.88
326.77	221.88
326.999	441.88
327.228	871.88
327.457	1569.88
327.686	1218.88
327.914	339.88
328.143	198.88
328.372	156.88
328.6	106.88
328.829	101.88
329.058	123.88
329.287	125.88
329.515	98.88
329.744	105.88
329.972	110.88
330.201	150.88
330.43	150.88
330.658	115.88
330.887	127.88
331.115	101.88
331.344	98.88
331.572	94.88
331.801	106.88
332.03	87.88
332.258	114.88
332.486	103.88
332.715	94.88
332.943	86.88
333.172	96.88
333.4	115.88
333.629	105.88
333.857	108.88
334.085	119.88
334.314	133.88
334.542	160.88
334.771	163.88
334.999	104.88
335.227	88.88
335.455	80.88
335.684	98.88
335.912	99.88
336.14	86.88
336.369	107.88
336.597	98.88
336.825	96.88
337.053	86.88
337.281	78.88
337.51	97.88
337.738	90.88
337.966	97.88
338.194	87.88
338.422	98.88
338.65	84.88
338.878	88.88
339.106	87.88
339.334	105.88
339.562	99.88
339.79	88.88
340.018	96.88
340.246	89.88
340.474	78.88
340.702	85.88
340.93	98.88
341.158	87.88
341.386	99.88
341.614	101.88
341.842	92.88
342.07	75.88
342.298	99.88
342.526	93.88
342.754	75.88
342.981	88.88
343.209	89.88
343.437	96.88
343.665	78.88
343.893	95.88
344.12	86.88
344.348	87.88
344.576	92.88
344.804	94.88
345.031	103.88
345.259	98.88
345.487	96.88
345.714	86.88
345.942	98.88
346.17	94.88
346.397	94.88
346.625	97.88
346.853	91.88
347.08	88.88
347.308	83.88
347.535	90.88
347.763	96.88
347.99	103.88
348.218	91.88
348.445	99.88
348.673	99.88
348.9	98.88
349.128	87.88
349.355	86.88
349.583	73.88
349.81	82.88
350.037	87.88
350.265	98.88
350.492	81.88
350.72	86.88
350.947	106.88
351.174	119.88
351.402	96.88
351.629	101.88
351.856	92.88
352.083	107.88
352.311	95.88
352.538	113.88
352.765	109.88
352.992	103.88
353.22	110.88
353.447	101.88
353.674	106.88
353.901	103.88
354.128	95.88
354.355	101.88
354.583	88.88
354.81	89.88
355.037	89.88
355.264	96.88
355.491	80.88
355.718	105.88
355.945	96.88
356.172	99.88
356.399	100.88
356.626	91.88
356.853	98.88
357.08	88.88
357.307	84.88
357.534	99.88
357.761	106.88
357.988	98.88
358.215	105.88
358.441	98.88
358.668	88.88
358.895	67.88
359.122	81.88
359.349	93.88
359.576	83.88
359.802	98.88
360.029	111.88
360.256	107.88
360.483	102.88
360.709	94.88
360.936	90.88
361.163	81.88
361.39	95.88
361.616	103.88
361.843	73.88
362.07	97.88
362.296	95.88
362.523	93.88
362.749	75.88
362.976	87.88
363.203	109.88
363.429	94.88
363.656	84.88
363.882	84.88
364.109	83.88
364.335	90.88
364.562	81.88
364.788	101.88
365.015	97.88
365.241	87.88
365.468	107.88
365.694	108.88
365.92	97.88
366.147	81.88
366.373	98.88
366.599	94.88
366.826	82.88
367.052	93.88
367.278	84.88
367.505	105.88
367.731	86.88
367.957	91.88
368.184	94.88
368.41	101.88
368.636	113.88
368.862	95.88
369.089	113.88
369.315	92.88
369.541	95.88
369.767	91.88
369.993	87.88
370.219	98.88
370.445	98.88
370.672	112.88
370.898	100.88
371.124	79.88
371.35	93.88
371.576	102.88
371.802	89.88
372.028	94.88
372.254	92.88
372.48	84.88
372.706	109.88
372.932	88.88
373.158	88.88
373.384	97.88
373.61	92.88
373.835	89.88
374.061	82.88
374.287	80.88
374.513	81.88
374.739	87.88
374.965	91.88
375.191	102.88
375.416	78.88
375.642	87.88
375.868	86.88
376.094	99.88
376.319	90.88
376.545	93.88
376.771	87.88
376.997	81.88
377.222	106.88
377.448	88.88
377.674	95.88
377.899	97.88
378.125	81.88
378.35	96.88
378.576	84.88
378.802	87.88
379.027	99.88
379.253	95.88
379.478	101.88
379.704	96.88
379.929	105.88
380.155	96.88
380.38	89.88
380.606	115.88
380.831	109.88
381.057	88.88
381.282	99.88
381.507	105.88
381.733	104.88
381.958	98.88
382.184	93.88
382.409	108.88
382.634	97.88
382.86	105.88
383.085	108.88
383.31	96.88
383.535	97.88
383.761	105.88
383.986	106.88
384.211	106.88
384.436	107.88
384.662	114.88
384.887	99.88
385.112	96.88
385.337	117.88
385.562	99.88
385.787	105.88
386.013	108.88
386.238	111.88
386.463	105.88
386.688	115.88
386.913	97.88
387.138	98.88
387.363	112.88
387.588	104.88
387.813	100.88
388.038	106.88
388.263	117.88
388.488	101.88
388.713	81.88
388.938	97.88
389.163	96.88
389.387	98.88
389.612	88.88
389.837	101.88
390.062	94.88
390.287	91.88
390.512	106.88
390.736	92.88
390.961	99.88
391.186	82.88
391.411	85.88
391.636	104.88
391.86	88.88
392.085	94.88
392.31	75.88
392.534	81.88
392.759	94.88
392.984	81.88
393.208	94.88
393.433	100.88
393.658	89.88
393.882	82.88
394.107	88.88
394.331	85.88
394.556	88.88
394.78	95.88
395.005	97.88
395.229	88.88
395.454	80.88
395.678	78.88
395.903	97.88
396.127	87.88
396.352	87.88
396.576	82.88
396.801	100.88
397.025	94.88
397.249	95.88
397.474	89.88
397.698	77.88
397.922	84.88
398.147	85.88
398.371	77.88
398.595	83.88
398.82	95.88
399.044	78.88
399.268	89.88
399.492	83.88
399.717	90.88
399.941	75.88
400.165	89.88
400.389	95.88
400.613	88.88
400.837	83.88
401.062	89.88
401.286	76.88
401.51	77.88
401.734	82.88
401.958	99.88
402.182	116.88
402.406	139.88
402.63	115.88
402.854	94.88
403.078	75.88
403.302	82.88
403.526	83.88
403.75	81.88
403.974	80.88
404.198	82.88
404.422	89.88
404.645	95.88
404.869	97.88
405.093	98.88
405.317	103.88
405.541	87.88
405.765	99.88
405.988	94.88
406.212	165.88
406.436	207.88
406.66	153.88
406.883	94.88
407.107	73.88
407.331	101.88
407.555	90.88
407.778	98.88
408.002	91.88
408.226	87.88
408.449	92.88
408.673	100.88
408.896	98.88
409.12	95.88
409.344	92.88
409.567	99.88
409.791	88.88
410.014	96.88
410.238	93.88
410.461	95.88
410.685	110.88
410.908	90.88
411.132	96.88
411.355	103.88
411.578	81.88
411.802	84.88
412.025	97.88
412.249	99.88
412.472	85.88
412.695	96.88
412.919	91.88
413.142	81.88
413.365	86.88
413.589	83.88
413.812	84.88
414.035	91.88
414.258	77.88
414.482	81.88
414.705	85.88
414.928	84.88
415.151	89.88
415.374	95.88
415.597	93.88
415.821	78.88
416.044	96.88
416.267	99.88
416.49	83.88
416.713	94.88
416.936	75.88
417.159	82.88
417.382	89.88
417.605	100.88
417.828	90.88
418.051	94.88
418.274	85.88
418.497	91.88
418.72	97.88
418.943	94.88
419.166	86.88
419.389	88.88
419.611	97.88
419.834	97.88
420.057	97.88
420.28	99.88
420.503	88.88
420.726	91.88
420.948	89.88
421.171	86.88
421.394	89.88
421.617	95.88
421.839	95.88
422.062	91.88
422.285	88.88
422.507	98.88
422.73	93.88
422.953	77.88
423.175	90.88
423.398	81.88
423.621	71.88
423.843	84.88
424.066	93.88
424.288	88.88
424.511	92.88
424.733	89.88
424.956	109.88
425.178	83.88
425.401	91.88
425.623	86.88
425.846	77.88
426.068	88.88
426.291	95.88
426.513	86.88
426.735	92.88
426.958	86.88
427.18	100.88
427.402	134.88
427.625	154.88
427.847	136.88
428.069	111.88
428.292	95.88
428.514	89.88
428.736	87.88
428.958	77.88
429.181	80.88
429.403	78.88
429.625	84.88
429.847	90.88
430.069	100.88
430.292	93.88
430.514	89.88
430.736	97.88
430.958	86.88
431.18	79.88
431.402	98.88
431.624	79.88
431.846	94.88
432.068	87.88
432.29	82.88
432.512	90.88
432.734	82.88
432.956	89.88
433.178	114.88
433.4	106.88
433.622	92.88
433.844	101.88
434.066	86.88
434.287	78.88
434.509	88.88
434.731	90.88
434.953	82.88
435.175	77.88
435.397	81.88
435.618	77.88
435.84	89.88
436.062	95.88
436.284	104.88
436.505	95.88
436.727	92.88
436.949	87.88
437.17	84.88
437.392	74.88
437.614	98.88
437.835	104.88
438.057	117.88
438.278	104.88
438.5	93.88
438.721	116.88
438.943	88.88
439.165	86.88
439.386	75.88
439.608	88.88
439.829	95.88
440.05	110.88
440.272	132.88
440.493	98.88
440.715	89.88
440.936	88.88
441.158	104.88
441.379	83.88
441.6	93.88
441.822	85.88
442.043	87.88
442.264	101.88
442.486	103.88
442.707	88.88
442.928	88.88
443.149	116.88
443.371	115.88
443.592	99.88
443.813	98.88
444.034	95.88
444.255	90.88
444.476	93.88
444.698	97.88
444.919	84.88
445.14	133.88
445.361	120.88
445.582	112.88
445.803	125.88
446.024	116.88
446.245	117.88
446.466	101.88
446.687	85.88
446.908	83.88
447.129	97.88
447.35	81.88
447.571	85.88
447.792	87.88
448.013	94.88
448.234	97.88
448.455	104.88
448.675	98.88
448.896	110.88
449.117	102.88
449.338	95.88
449.559	114.88
449.779	108.88
450	89.88
450.221	94.88
450.442	96.88
450.662	86.88
450.883	94.88
451.104	117.88
451.324	83.88
451.545	101.88
451.766	89.88
451.986	79.88
452.207	93.88
452.428	94.88
452.648	91.88
452.869	105.88
453.089	96.88
453.31	99.88
453.53	91.88
453.751	97.88
453.971	95.88
454.192	102.88
454.412	86.88
454.633	76.88
454.853	76.88
455.073	75.88
455.294	73.88
455.514	89.88
455.734	99.88
455.955	84.88
456.175	89.88
456.395	82.88
456.616	97.88
456.836	87.88
457.056	86.88
457.276	83.88
457.497	87.88
457.717	86.88
457.937	87.88
458.157	86.88
458.377	78.88
458.598	94.88
458.818	131.88
459.038	149.88
459.258	103.88
459.478	92.88
459.698	87.88
459.918	91.88
460.138	80.88
460.358	86.88
460.578	85.88
460.798	91.88
461.018	90.88
461.238	89.88
461.458	84.88
461.678	105.88
461.898	74.88
462.118	90.88
462.338	79.88
462.558	82.88
462.777	82.88
462.997	88.88
463.217	77.88
463.437	79.88
463.657	84.88
463.876	91.88
464.096	100.88
464.316	90.88
464.536	97.88
464.755	86.88
464.975	105.88
465.195	148.88
465.414	130.88
465.634	95.88
465.854	97.88
466.073	86.88
466.293	82.88
466.512	87.88
466.732	64.88
466.951	86.88
467.171	83.88
467.391	106.88
467.61	100.88
467.829	90.88
468.049	95.88
468.268	115.88
468.488	75.88
468.707	88.88
468.927	78.88
469.146	78.88
469.365	93.88
469.585	100.88
469.804	91.88
470.023	81.88
470.243	89.88
470.462	98.88
470.681	91.88
470.901	83.88
471.12	83.88
471.339	83.88
471.558	84.88
471.777	83.88
471.997	99.88
472.216	130.88
472.435	202.88
472.654	111.88
472.873	89.88
473.092	88.88
473.311	85.88
473.53	65.88
473.749	85.88
473.968	105.88
474.187	94.88
474.406	100.88
474.625	91.88
474.844	81.88
475.063	83.88
475.282	91.88
475.501	94.88
475.72	96.88
475.939	81.88
476.158	76.88
476.377	97.88
476.596	72.88
476.814	95.88
477.033	86.88
477.252	100.88
477.471	81.88
477.69	88.88
477.908	84.88
478.127	89.88
478.346	82.88
478.564	83.88
478.783	91.88
479.002	82.88
479.22	97.88
479.439	89.88
479.658	106.88
479.876	90.88
480.095	89.88
480.313	89.88
480.532	95.88
480.751	99.88
480.969	130.88
481.188	294.88
481.406	211.88
481.624	98.88
481.843	80.88
482.061	72.88
482.28	102.88
482.498	87.88
482.717	81.88
482.935	87.88
483.153	89.88
483.372	88.88
483.59	98.88
483.808	85.88
484.027	89.88
484.245	94.88
484.463	88.88
484.681	101.88
484.9	91.88
485.118	105.88
485.336	90.88
485.554	110.88
485.772	90.88
485.99	96.88
486.209	103.88
486.427	102.88
486.645	119.88
486.863	104.88
487.081	102.88
487.299	86.88
487.517	88.88
487.735	87.88
487.953	97.88
488.171	104.88
488.389	98.88
488.607	82.88
488.825	100.88
489.043	86.88
489.261	100.88
489.479	88.88
489.696	95.88
489.914	90.88
490.132	88.88
490.35	106.88
490.568	89.88
490.786	88.88
491.003	89.88
491.221	84.88
491.439	99.88
491.657	97.88
491.874	87.88
492.092	83.88
492.31	88.88
492.527	80.88
492.745	90.88
492.963	82.88
493.18	90.88
493.398	84.88
493.615	113.88
493.833	87.88
494.05	67.88
494.268	82.88
494.485	92.88
494.703	83.88
494.92	74.88
495.138	87.88
495.355	89.88
495.573	90.88
495.79	85.88
496.008	102.88
496.225	84.88
496.442	79.88
496.66	90.88
496.877	88.88
497.094	80.88
497.312	104.88
497.529	83.88
497.746	99.88
497.963	91.88
498.181	95.88
498.398	96.88
498.615	106.88
498.832	91.88
499.049	97.88
499.267	88.88
499.484	83.88
499.701	89.88
499.918	88.88
500.135	82.88
500.352	84.88
500.569	91.88
500.786	87.88
501.003	95.88
501.22	78.88
501.437	87.88
501.654	92.88
501.871	99.88
502.088	95.88
502.305	92.88
502.522	89.88
502.739	92.88
502.956	83.88
503.172	94.88
503.389	88.88
503.606	98.88
503.823	90.88
504.04	92.88
504.256	100.88
504.473	98.88
504.69	90.88
504.907	76.88
505.123	86.88
505.34	93.88
505.557	90.88
505.773	97.88
505.99	91.88
506.207	92.88
506.423	96.88
506.64	61.88
506.856	80.88
507.073	88.88
507.289	98.88
507.506	88.88
507.722	99.88
507.939	101.88
508.155	86.88
508.372	99.88
508.588	85.88
508.805	85.88
509.021	92.88
509.238	101.88
509.454	86.88
509.67	88.88
509.887	105.88
510.103	110.88
510.319	212.88
510.536	699.88
510.752	2169.88
510.968	616.88
511.184	141.88
511.401	109.88
511.617	105.88
511.833	93.88
512.049	94.88
512.265	91.88
512.481	85.88
512.698	82.88
512.914	81.88
513.13	97.88
513.346	88.88
513.562	97.88
513.778	98.88
513.994	98.88
514.21	102.88
514.426	115.88
514.642	115.88
514.858	116.88
515.074	139.88
515.29	381.88
515.506	1211.88
515.721	485.88
515.937	141.88
516.153	109.88
516.369	87.88
516.585	94.88
516.801	84.88
517.016	87.88
517.232	89.88
517.448	84.88
517.664	90.88
517.879	89.88
518.095	97.88
518.311	92.88
518.527	115.88
518.742	86.88
518.958	95.88
519.173	115.88
519.389	93.88
519.605	90.88
519.82	90.88
520.036	97.88
520.251	112.88
520.467	113.88
520.682	104.88
520.898	92.88
521.113	91.88
521.329	126.88
521.544	174.88
521.76	485.88
521.975	2050.88
522.19	1265.88
522.406	277.88
522.621	115.88
522.836	92.88
523.052	101.88
523.267	81.88
523.482	87.88
523.698	92.88
523.913	128.88
524.128	109.88
524.343	99.88
524.559	93.88
524.774	77.88
524.989	91.88
525.204	101.88
525.419	93.88
525.634	90.88
525.849	87.88
526.064	85.88
526.28	90.88
526.495	100.88
526.71	92.88
526.925	93.88
527.14	73.88
527.355	95.88
527.57	79.88
527.785	89.88
527.999	85.88
528.214	95.88
528.429	76.88
528.644	89.88
528.859	81.88
529.074	71.88
529.289	122.88
529.503	143.88
529.718	89.88
529.933	77.88
530.148	81.88
530.363	87.88
530.577	97.88
530.792	106.88
531.007	104.88
531.221	91.88
531.436	95.88
531.651	85.88
531.865	93.88
532.08	90.88
532.295	78.88
532.509	87.88
532.724	91.88
532.938	99.88
533.153	96.88
533.367	91.88
533.582	98.88
533.796	80.88
534.011	83.88
534.225	98.88
534.44	92.88
534.654	89.88
534.868	81.88
535.083	87.88
535.297	95.88
535.511	109.88
535.726	96.88
535.94	83.88
536.154	88.88
536.369	82.88
536.583	86.88
536.797	86.88
537.011	85.88
537.225	94.88
537.44	100.88
537.654	94.88
537.868	85.88
538.082	89.88
538.296	84.88
538.51	97.88
538.724	88.88
538.938	91.88
539.153	96.88
539.367	100.88
539.581	80.88
539.795	78.88
540.009	105.88
540.222	77.88
540.436	75.88
540.65	81.88
540.864	86.88
541.078	101.88
541.292	83.88
541.506	91.88
541.72	80.88
541.934	86.88
542.147	97.88
542.361	96.88
542.575	88.88
542.789	92.88
543.002	91.88
543.216	94.88
543.43	103.88
543.644	96.88
543.857	104.88
544.071	79.88
544.285	92.88
544.498	90.88
544.712	105.88
544.925	75.88
545.139	77.88
545.352	94.88
545.566	95.88
545.779	91.88
545.993	97.88
546.206	79.88
546.42	81.88
546.633	81.88
546.847	85.88
547.06	97.88
547.274	81.88
547.487	92.88
547.7	69.88
547.914	85.88
548.127	87.88
548.34	84.88
548.554	95.88
548.767	80.88
548.98	90.88
549.193	92.88
549.407	81.88
549.62	91.88
549.833	84.88
550.046	74.88
550.259	93.88
550.473	83.88
550.686	97.88
550.899	79.88
551.112	86.88
551.325	73.88
551.538	74.88
551.751	81.88
551.964	83.88
552.177	94.88
552.39	93.88
552.603	88.88
552.816	106.88
553.029	74.88
553.242	86.88
553.455	91.88
553.667	103.88
553.88	98.88
554.093	86.88
554.306	89.88
554.519	76.88
554.732	83.88
554.944	102.88
555.157	88.88
555.37	92.88
555.583	93.88
555.795	89.88
556.008	83.88
556.221	90.88
556.433	87.88
556.646	106.88
556.859	84.88
557.071	79.88
557.284	86.88
557.496	88.88
557.709	99.88
557.921	88.88
558.134	103.88
558.346	93.88
558.559	94.88
558.771	80.88
558.984	87.88
559.196	79.88
559.409	90.88
559.621	90.88
559.833	98.88
560.046	91.88
560.258	101.88
560.47	95.88
560.683	93.88
560.895	81.88
561.107	98.88
561.32	87.88
561.532	98.88
561.744	93.88
561.956	80.88
562.168	102.88
562.381	104.88
562.593	102.88
562.805	107.88
563.017	101.88
563.229	91.88
563.441	82.88
563.653	97.88
563.865	80.88
564.077	93.88
564.289	79.88
564.501	87.88
564.713	92.88
564.925	97.88
565.137	101.88
565.349	83.88
565.561	89.88
565.773	77.88
565.985	92.88
566.197	85.88
566.408	75.88
566.62	94.88
566.832	87.88
567.044	81.88
567.255	77.88
567.467	96.88
567.679	77.88
567.891	97.88
568.102	81.88
568.314	87.88
568.526	90.88
568.737	94.88
568.949	82.88
569.161	98.88
569.372	88.88
569.584	87.88
569.795	97.88
570.007	105.88
570.218	231.88
570.43	126.88
570.641	91.88
570.853	91.88
571.064	74.88
571.276	102.88
571.487	85.88
571.698	82.88
571.91	89.88
572.121	81.88
572.333	87.88
572.544	101.88
572.755	97.88
572.966	101.88
573.178	90.88
573.389	80.88
573.6	94.88
573.811	73.88
574.023	86.88
574.234	89.88
574.445	82.88
574.656	82.88
574.867	89.88
575.078	82.88
575.289	81.88
575.501	89.88
575.712	99.88
575.923	90.88
576.134	81.88
576.345	88.88
576.556	89.88
576.767	81.88
576.978	90.88
577.188	89.88
577.399	84.88
577.61	95.88
577.821	90.88
578.032	99.88
578.243	255.88
578.454	704.88
578.665	175.88
578.875	101.88
579.086	95.88
579.297	79.88
579.508	76.88
579.718	81.88
579.929	85.88
580.14	77.88
580.35	88.88
580.561	88.88
580.772	73.88
580.982	95.88
581.193	94.88
581.403	83.88
581.614	88.88
581.825	97.88
582.035	84.88
582.246	73.88
582.456	87.88
582.667	75.88
582.877	93.88
583.087	85.88
583.298	88.88
583.508	91.88
583.719	87.88
583.929	97.88
584.139	89.88
584.35	74.88
584.56	102.88
584.77	101.88
584.981	87.88
585.191	83.88
585.401	91.88
585.611	78.88
585.821	81.88
586.032	85.88
586.242	70.88
586.452	91.88
586.662	80.88
586.872	81.88
587.082	80.88
587.292	91.88
587.502	86.88
587.713	74.88
587.923	89.88
588.133	97.88
588.343	86.88
588.553	81.88
588.762	85.88
588.972	99.88
589.182	127.88
589.392	100.88
589.602	90.88
589.812	109.88
590.022	86.88
590.232	82.88
590.441	77.88
590.651	96.88
590.861	79.88
591.071	85.88
591.281	85.88
591.49	80.88
591.7	78.88
591.91	91.88
592.119	91.88
592.329	94.88
592.539	100.88
592.748	87.88
592.958	91.88
593.167	79.88
593.377	73.88
593.587	92.88
593.796	80.88
594.006	77.88
594.215	83.88
594.424	94.88
594.634	82.88
594.843	87.88
595.053	91.88
595.262	73.88
595.472	100.88
595.681	74.88
595.89	78.88
596.1	83.88
596.309	94.88
596.518	88.88
596.727	83.88
596.937	82.88
597.146	81.88
597.355	82.88
597.564	82.88
597.774	69.88
597.983	80.88
598.192	88.88
598.401	73.88
598.61	83.88
598.819	86.88
599.028	81.88
599.237	93.88
599.446	93.88
599.655	86.88
599.864	93.88
600.073	98.88
600.282	93.88
600.491	99.88
600.7	82.88
600.909	87.88
601.118	91.88
601.327	96.88
601.536	80.88
601.745	88.88
601.953	93.88
602.162	99.88
602.371	84.88
602.58	90.88
602.789	78.88
602.997	86.88
603.206	99.88
603.415	73.88
603.623	94.88
603.832	90.88
604.041	88.88
604.249	86.88
604.458	82.88
604.666	77.88
604.875	77.88
605.084	95.88
605.292	91.88
605.501	89.88
605.709	75.88
605.918	78.88
606.126	77.88
606.334	101.88
606.543	87.88
606.751	86.88
606.96	78.88
607.168	82.88
607.376	75.88
607.585	91.88
607.793	85.88
608.001	77.88
608.21	80.88
608.418	83.88
608.626	81.88
608.834	79.88
609.043	87.88
609.251	96.88
609.459	93.88
609.667	75.88
609.875	92.88
610.083	95.88
610.291	77.88
610.499	76.88
610.707	85.88
610.916	98.88
611.124	101.88
611.332	95.88
611.54	89.88
611.748	76.88
611.955	90.88
612.163	83.88
612.371	75.88
612.579	87.88
612.787	86.88
612.995	77.88
613.203	90.88
613.411	91.88
613.618	73.88
613.826	80.88
614.034	84.88
614.242	95.88
614.449	102.88
614.657	87.88
614.865	77.88
615.072	96.88
615.28	83.88
615.488	96.88
615.695	89.88
615.903	100.88
616.111	104.88
616.318	97.88
616.526	83.88
616.733	85.88
616.941	79.88
617.148	83.88
617.356	82.88
617.563	91.88
617.771	81.88
617.978	85.88
618.185	87.88
618.393	90.88
618.6	73.88
618.807	85.88
619.015	89.88
619.222	86.88
619.429	78.88
619.637	79.88
619.844	89.88
620.051	88.88
620.258	84.88
620.466	93.88
620.673	89.88
620.88	88.88
621.087	71.88
621.294	84.88
621.501	97.88
621.708	81.88
621.915	73.88
622.122	76.88
622.329	104.88
622.536	85.88
622.743	77.88
622.95	71.88
623.157	93.88
623.364	96.88
623.571	75.88
623.778	69.88
623.985	79.88
624.192	82.88
624.399	84.88
624.606	77.88
624.812	79.88
625.019	83.88
625.226	78.88
625.433	95.88
625.639	87.88
625.846	78.88
626.053	73.88
626.259	68.88
626.466	90.88
626.673	89.88
626.879	90.88
627.086	82.88
627.293	76.88
627.499	93.88
627.706	94.88
627.912	87.88
628.119	73.88
628.325	80.88
628.532	80.88
628.738	84.88
628.945	87.88
629.151	89.88
629.357	83.88
629.564	73.88
629.77	65.88
629.976	80.88
630.183	78.88
630.389	81.88
630.595	80.88
630.802	75.88
631.008	83.88
631.214	78.88
631.42	89.88
631.627	90.88
631.833	81.88
632.039	87.88
632.245	85.88
632.451	79.88
632.657	89.88
632.863	81.88
633.069	78.88
633.275	71.88
633.481	80.88
633.688	75.88
633.893	86.88
634.099	82.88
634.305	97.88
634.511	89.88
634.717	89.88
634.923	95.88
635.129	95.88
635.335	82.88
635.541	88.88
635.747	95.88
635.952	81.88
636.158	81.88
636.364	94.88
636.57	87.88
636.775	80.88
636.981	83.88
637.187	78.88
637.392	98.88
637.598	82.88
637.804	102.88
638.009	86.88
638.215	70.88
638.421	87.88
638.626	79.88
638.832	76.88
639.037	94.88
639.243	90.88
639.448	84.88
639.654	87.88
639.859	83.88
640.065	82.88
640.27	82.88
640.475	94.88
640.681	90.88
640.886	80.88
641.091	73.88
641.297	95.88
641.502	82.88
641.707	99.88
641.913	75.88
642.118	69.88
642.323	73.88
642.528	80.88
642.733	92.88
642.939	92.88
643.144	91.88
643.349	79.88
643.554	75.88
643.759	67.88
643.964	72.88
644.169	80.88
644.374	84.88
644.579	93.88
644.784	79.88
644.989	92.88
645.194	87.88
645.399	76.88
645.604	82.88
645.809	87.88
646.014	81.88
646.219	81.88
646.423	74.88
646.628	89.88
646.833	88.88
647.038	90.88
647.243	83.88
647.447	73.88
647.652	85.88
647.857	84.88
648.062	89.88
648.266	97.88
648.471	98.88
648.676	84.88
648.88	81.88
649.085	87.88
649.289	87.88
649.494	98.88
649.698	127.88
649.903	95.88
650.107	86.88
650.312	76.88
650.516	88.88
650.721	81.88
650.925	72.88
651.13	90.88
651.334	79.88
651.539	79.88
651.743	88.88
651.947	84.88
652.152	81.88
652.356	95.88
652.56	80.88
652.764	83.88
652.969	84.88
653.173	82.88
653.377	83.88
653.581	75.88
653.785	88.88
653.99	88.88
654.194	98.88
654.398	76.88
654.602	71.88
654.806	82.88
655.01	102.88
655.214	91.88
655.418	89.88
655.622	91.88
655.826	81.88
656.03	91.88
656.234	98.88
656.438	91.88
656.642	91.88
656.846	84.88
657.049	87.88
657.253	80.88
657.457	84.88
657.661	76.88
657.865	75.88
658.068	84.88
658.272	97.88
658.476	92.88
658.68	83.88
658.883	67.88
659.087	98.88
659.291	93.88
659.494	78.88
659.698	76.88
659.901	90.88
660.105	79.88
660.309	86.88
660.512	75.88
660.716	96.88
660.919	93.88
661.123	85.88
661.326	62.88
661.53	79.88
661.733	92.88
661.936	94.88
662.14	80.88
662.343	74.88
662.546	94.88
662.75	85.88
662.953	77.88
663.156	81.88
663.36	68.88
663.563	68.88
663.766	70.88
663.969	75.88
664.173	84.88
664.376	77.88
664.579	66.88
664.782	77.88
664.985	85.88
665.188	74.88
665.391	83.88
665.594	82.88
665.797	72.88
666	83.88
666.203	84.88
666.406	67.88
666.609	82.88
666.812	91.88
667.015	85.88
667.218	69.88
667.421	77.88
667.624	89.88
667.827	83.88
668.03	71.88
668.232	82.88
668.435	103.88
668.638	91.88
668.841	77.88
669.043	81.88
669.246	78.88
669.449	79.88
669.651	79.88
669.854	79.88
670.057	77.88
670.259	79.88
670.462	91.88
670.665	73.88
670.867	90.88
671.07	81.88
671.272	76.88
671.475	86.88
671.677	90.88
671.88	88.88
672.082	77.88
672.284	78.88
672.487	90.88
672.689	93.88
672.892	72.88
