Data from Circ_2003_H10_HRD10591_00007.txt Node
Date: Wed Jan 03 10:37:04 EST 2024
User: Yrep
Spectrometer: HR+D1059
Trigger mode: 1
Integration Time (sec): 1.000000E-1
Scans to average: 1
Electric dark correction enabled: true
Nonlinearity correction enabled: false
Boxcar width: 0
XAxis mode: Wavelengths
Number of Pixels in Spectrum: 2048
>>>>>Begin Spectral Data<<<<<
223.165	-8.88
223.4	-8.88
223.635	-8.88
223.869	-13.88
224.104	-21.88
224.338	-30.88
224.573	-6.88
224.808	-7.88
225.042	-9.88
225.277	-8.88
225.511	5.12
225.746	2.12
225.98	3.12
226.215	6.12
226.449	19.12
226.683	14.12
226.918	27.12
227.152	32.12
227.387	35.12
227.621	39.12
227.856	35.12
228.09	32.12
228.324	50.12
228.559	50.12
228.793	54.12
229.027	57.12
229.262	66.12
229.496	84.12
229.73	77.12
229.964	76.12
230.199	70.12
230.433	80.12
230.667	74.12
230.901	80.12
231.136	78.12
231.37	67.12
231.604	80.12
231.838	89.12
232.072	82.12
232.306	75.12
232.541	86.12
232.775	84.12
233.009	88.12
233.243	83.12
233.477	91.12
233.711	74.12
233.945	69.12
234.179	82.12
234.413	79.12
234.647	81.12
234.881	76.12
235.115	78.12
235.349	75.12
235.583	83.12
235.817	94.12
236.051	72.12
236.285	68.12
236.519	89.12
236.753	82.12
236.987	90.12
237.221	86.12
237.455	93.12
237.689	68.12
237.922	72.12
238.156	68.12
238.39	74.12
238.624	84.12
238.858	78.12
239.091	74.12
239.325	87.12
239.559	74.12
239.793	70.12
240.027	75.12
240.26	88.12
240.494	74.12
240.728	78.12
240.961	81.12
241.195	89.12
241.429	82.12
241.662	88.12
241.896	81.12
242.13	91.12
242.363	86.12
242.597	73.12
242.83	80.12
243.064	76.12
243.298	96.12
243.531	84.12
243.765	82.12
243.998	88.12
244.232	86.12
244.465	85.12
244.699	80.12
244.932	77.12
245.166	79.12
245.399	71.12
245.633	88.12
245.866	76.12
246.099	69.12
246.333	65.12
246.566	87.12
246.8	81.12
247.033	101.12
247.266	80.12
247.5	79.12
247.733	74.12
247.966	66.12
248.2	86.12
248.433	72.12
248.666	93.12
248.899	91.12
249.133	82.12
249.366	96.12
249.599	89.12
249.832	73.12
250.066	92.12
250.299	74.12
250.532	89.12
250.765	86.12
250.998	88.12
251.231	78.12
251.465	80.12
251.698	72.12
251.931	83.12
252.164	59.12
252.397	71.12
252.63	77.12
252.863	88.12
253.096	102.12
253.329	78.12
253.562	71.12
253.795	87.12
254.028	95.12
254.261	92.12
254.494	71.12
254.727	81.12
254.96	84.12
255.193	69.12
255.426	82.12
255.659	91.12
255.892	94.12
256.124	87.12
256.357	79.12
256.59	92.12
256.823	78.12
257.056	78.12
257.289	86.12
257.521	74.12
257.754	82.12
257.987	75.12
258.22	78.12
258.452	79.12
258.685	81.12
258.918	77.12
259.151	74.12
259.383	78.12
259.616	83.12
259.849	91.12
260.081	77.12
260.314	90.12
260.547	90.12
260.779	76.12
261.012	78.12
261.244	78.12
261.477	88.12
261.71	81.12
261.942	86.12
262.175	95.12
262.407	97.12
262.64	94.12
262.872	90.12
263.105	90.12
263.337	84.12
263.57	89.12
263.802	72.12
264.035	81.12
264.267	80.12
264.499	81.12
264.732	79.12
264.964	89.12
265.197	90.12
265.429	74.12
265.661	100.12
265.894	72.12
266.126	72.12
266.358	79.12
266.591	66.12
266.823	77.12
267.055	92.12
267.287	89.12
267.52	88.12
267.752	87.12
267.984	88.12
268.216	92.12
268.448	83.12
268.681	89.12
268.913	102.12
269.145	95.12
269.377	91.12
269.609	83.12
269.841	69.12
270.073	81.12
270.306	81.12
270.538	74.12
270.77	76.12
271.002	83.12
271.234	94.12
271.466	90.12
271.698	64.12
271.93	73.12
272.162	93.12
272.394	96.12
272.626	80.12
272.858	81.12
273.09	92.12
273.322	86.12
273.553	73.12
273.785	86.12
274.017	74.12
274.249	84.12
274.481	80.12
274.713	73.12
274.945	81.12
275.176	87.12
275.408	89.12
275.64	86.12
275.872	90.12
276.104	97.12
276.335	96.12
276.567	97.12
276.799	94.12
277.031	108.12
277.262	89.12
277.494	91.12
277.726	76.12
277.957	84.12
278.189	97.12
278.421	93.12
278.652	91.12
278.884	95.12
279.115	85.12
279.347	81.12
279.579	89.12
279.81	87.12
280.042	94.12
280.273	104.12
280.505	76.12
280.736	89.12
280.968	75.12
281.199	96.12
281.431	89.12
281.662	109.12
281.894	91.12
282.125	94.12
282.356	107.12
282.588	106.12
282.819	95.12
283.051	84.12
283.282	82.12
283.513	87.12
283.745	87.12
283.976	86.12
284.207	73.12
284.439	93.12
284.67	94.12
284.901	96.12
285.132	84.12
285.364	94.12
285.595	93.12
285.826	86.12
286.057	93.12
286.288	91.12
286.52	87.12
286.751	81.12
286.982	90.12
287.213	95.12
287.444	91.12
287.675	90.12
287.906	100.12
288.138	94.12
288.369	91.12
288.6	91.12
288.831	86.12
289.062	88.12
289.293	86.12
289.524	97.12
289.755	100.12
289.986	88.12
290.217	90.12
290.448	92.12
290.679	78.12
290.91	89.12
291.141	96.12
291.371	92.12
291.602	98.12
291.833	88.12
292.064	101.12
292.295	92.12
292.526	94.12
292.757	91.12
292.987	97.12
293.218	75.12
293.449	101.12
293.68	101.12
293.91	95.12
294.141	92.12
294.372	88.12
294.603	87.12
294.833	92.12
295.064	89.12
295.295	79.12
295.525	81.12
295.756	111.12
295.987	100.12
296.217	127.12
296.448	118.12
296.679	89.12
296.909	96.12
297.14	90.12
297.37	98.12
297.601	89.12
297.831	101.12
298.062	100.12
298.292	115.12
298.523	99.12
298.753	80.12
298.984	75.12
299.214	97.12
299.445	85.12
299.675	84.12
299.905	105.12
300.136	103.12
300.366	92.12
300.597	97.12
300.827	90.12
301.057	98.12
301.288	84.12
301.518	94.12
301.748	94.12
301.979	99.12
302.209	108.12
302.439	86.12
302.669	96.12
302.9	103.12
303.13	115.12
303.36	99.12
303.59	101.12
303.82	105.12
304.051	87.12
304.281	82.12
304.511	87.12
304.741	109.12
304.971	89.12
305.201	90.12
305.431	100.12
305.661	80.12
305.891	100.12
306.121	93.12
306.352	95.12
306.582	98.12
306.812	83.12
307.042	81.12
307.272	95.12
307.502	105.12
307.731	103.12
307.961	98.12
308.191	98.12
308.421	105.12
308.651	84.12
308.881	92.12
309.111	93.12
309.341	98.12
309.571	94.12
309.8	88.12
310.03	101.12
310.26	89.12
310.49	83.12
310.72	102.12
310.949	94.12
311.179	101.12
311.409	81.12
311.639	95.12
311.868	105.12
312.098	93.12
312.328	96.12
312.557	95.12
312.787	110.12
313.017	87.12
313.246	85.12
313.476	99.12
313.706	115.12
313.935	111.12
314.165	90.12
314.394	91.12
314.624	104.12
314.853	92.12
315.083	99.12
315.312	99.12
315.542	94.12
315.771	96.12
316.001	87.12
316.23	84.12
316.46	82.12
316.689	100.12
316.919	88.12
317.148	102.12
317.377	94.12
317.607	87.12
317.836	90.12
318.065	87.12
318.295	83.12
318.524	88.12
318.753	98.12
318.983	98.12
319.212	111.12
319.441	105.12
319.67	111.12
319.9	102.12
320.129	104.12
320.358	106.12
320.587	75.12
320.816	111.12
321.046	100.12
321.275	91.12
321.504	98.12
321.733	80.12
321.962	96.12
322.191	109.12
322.42	102.12
322.649	105.12
322.878	99.12
323.108	105.12
323.337	113.12
323.566	135.12
323.795	144.12
324.024	188.12
324.253	359.12
324.482	733.12
324.71	1527.12
324.939	2000.12
325.168	740.12
325.397	219.12
325.626	145.12
325.855	133.12
326.084	139.12
326.313	129.12
326.542	143.12
326.77	225.12
326.999	431.12
327.228	906.12
327.457	1598.12
327.686	1248.12
327.914	346.12
328.143	164.12
328.372	110.12
328.6	134.12
328.829	106.12
329.058	109.12
329.287	126.12
329.515	120.12
329.744	107.12
329.972	119.12
330.201	121.12
330.43	96.12
330.658	119.12
330.887	121.12
331.115	110.12
331.344	104.12
331.572	123.12
331.801	109.12
332.03	106.12
332.258	93.12
332.486	86.12
332.715	91.12
332.943	95.12
333.172	90.12
333.4	90.12
333.629	98.12
333.857	118.12
334.085	106.12
334.314	91.12
334.542	100.12
334.771	106.12
334.999	99.12
335.227	99.12
335.455	98.12
335.684	99.12
335.912	107.12
336.14	86.12
336.369	91.12
336.597	95.12
336.825	97.12
337.053	82.12
337.281	92.12
337.51	101.12
337.738	92.12
337.966	88.12
338.194	97.12
338.422	104.12
338.65	100.12
338.878	100.12
339.106	97.12
339.334	79.12
339.562	88.12
339.79	100.12
340.018	94.12
340.246	98.12
340.474	91.12
340.702	96.12
340.93	88.12
341.158	103.12
341.386	90.12
341.614	110.12
341.842	102.12
342.07	82.12
342.298	97.12
342.526	89.12
342.754	90.12
342.981	83.12
343.209	101.12
343.437	104.12
343.665	92.12
343.893	89.12
344.12	94.12
344.348	86.12
344.576	99.12
344.804	85.12
345.031	86.12
345.259	105.12
345.487	105.12
345.714	100.12
345.942	75.12
346.17	88.12
346.397	87.12
346.625	97.12
346.853	83.12
347.08	94.12
347.308	99.12
347.535	85.12
347.763	100.12
347.99	70.12
348.218	97.12
348.445	94.12
348.673	114.12
348.9	101.12
349.128	92.12
349.355	94.12
349.583	86.12
349.81	93.12
350.037	98.12
350.265	91.12
350.492	95.12
350.72	99.12
350.947	83.12
351.174	101.12
351.402	106.12
351.629	102.12
351.856	99.12
352.083	94.12
352.311	102.12
352.538	115.12
352.765	91.12
352.992	108.12
353.22	120.12
353.447	108.12
353.674	108.12
353.901	86.12
354.128	105.12
354.355	118.12
354.583	103.12
354.81	95.12
355.037	98.12
355.264	98.12
355.491	104.12
355.718	90.12
355.945	82.12
356.172	96.12
356.399	106.12
356.626	102.12
356.853	85.12
357.08	87.12
357.307	108.12
357.534	95.12
357.761	97.12
357.988	101.12
358.215	104.12
358.441	92.12
358.668	99.12
358.895	96.12
359.122	81.12
359.349	102.12
359.576	97.12
359.802	102.12
360.029	118.12
360.256	101.12
360.483	83.12
360.709	105.12
360.936	94.12
361.163	89.12
361.39	78.12
361.616	99.12
361.843	78.12
362.07	84.12
362.296	87.12
362.523	96.12
362.749	91.12
362.976	92.12
363.203	95.12
363.429	92.12
363.656	86.12
363.882	87.12
364.109	97.12
364.335	92.12
364.562	85.12
364.788	94.12
365.015	94.12
365.241	96.12
365.468	100.12
365.694	92.12
365.92	96.12
366.147	86.12
366.373	92.12
366.599	88.12
366.826	92.12
367.052	89.12
367.278	93.12
367.505	76.12
367.731	82.12
367.957	82.12
368.184	95.12
368.41	90.12
368.636	99.12
368.862	109.12
369.089	110.12
369.315	105.12
369.541	85.12
369.767	83.12
369.993	64.12
370.219	91.12
370.445	98.12
370.672	84.12
370.898	89.12
371.124	90.12
371.35	81.12
371.576	95.12
371.802	88.12
372.028	86.12
372.254	82.12
372.48	89.12
372.706	100.12
372.932	71.12
373.158	91.12
373.384	92.12
373.61	90.12
373.835	92.12
374.061	86.12
374.287	89.12
374.513	104.12
374.739	97.12
374.965	85.12
375.191	90.12
375.416	83.12
375.642	80.12
375.868	93.12
376.094	91.12
376.319	78.12
376.545	85.12
376.771	91.12
376.997	89.12
377.222	102.12
377.448	94.12
377.674	104.12
377.899	101.12
378.125	80.12
378.35	89.12
378.576	107.12
378.802	107.12
379.027	101.12
379.253	85.12
379.478	97.12
379.704	115.12
379.929	103.12
380.155	105.12
380.38	98.12
380.606	115.12
380.831	107.12
381.057	108.12
381.282	99.12
381.507	105.12
381.733	110.12
381.958	112.12
382.184	95.12
382.409	110.12
382.634	121.12
382.86	101.12
383.085	112.12
383.31	119.12
383.535	123.12
383.761	106.12
383.986	114.12
384.211	116.12
384.436	110.12
384.662	127.12
384.887	135.12
385.112	142.12
385.337	138.12
385.562	140.12
385.787	129.12
386.013	147.12
386.238	142.12
386.463	137.12
386.688	136.12
386.913	124.12
387.138	147.12
387.363	126.12
387.588	111.12
387.813	121.12
388.038	119.12
388.263	139.12
388.488	135.12
388.713	103.12
388.938	102.12
389.163	84.12
389.387	79.12
389.612	108.12
389.837	91.12
390.062	99.12
390.287	106.12
390.512	95.12
390.736	84.12
390.961	85.12
391.186	92.12
391.411	91.12
391.636	91.12
391.86	96.12
392.085	95.12
392.31	93.12
392.534	100.12
392.759	90.12
392.984	100.12
393.208	110.12
393.433	99.12
393.658	109.12
393.882	97.12
394.107	91.12
394.331	96.12
394.556	95.12
394.78	99.12
395.005	95.12
395.229	98.12
395.454	78.12
395.678	80.12
395.903	91.12
396.127	98.12
396.352	94.12
396.576	89.12
396.801	96.12
397.025	112.12
397.249	94.12
397.474	94.12
397.698	100.12
397.922	82.12
398.147	88.12
398.371	103.12
398.595	87.12
398.82	76.12
399.044	91.12
399.268	71.12
399.492	76.12
399.717	92.12
399.941	93.12
400.165	87.12
400.389	91.12
400.613	87.12
400.837	88.12
401.062	84.12
401.286	100.12
401.51	89.12
401.734	89.12
401.958	98.12
402.182	114.12
402.406	119.12
402.63	115.12
402.854	88.12
403.078	87.12
403.302	84.12
403.526	83.12
403.75	92.12
403.974	81.12
404.198	98.12
404.422	85.12
404.645	86.12
404.869	88.12
405.093	98.12
405.317	104.12
405.541	102.12
405.765	93.12
405.988	114.12
406.212	138.12
406.436	184.12
406.66	124.12
406.883	93.12
407.107	73.12
407.331	100.12
407.555	95.12
407.778	100.12
408.002	89.12
408.226	89.12
408.449	97.12
408.673	95.12
408.896	84.12
409.12	92.12
409.344	89.12
409.567	98.12
409.791	98.12
410.014	97.12
410.238	88.12
410.461	95.12
410.685	118.12
410.908	110.12
411.132	110.12
411.355	109.12
411.578	91.12
411.802	74.12
412.025	88.12
412.249	96.12
412.472	81.12
412.695	99.12
412.919	101.12
413.142	78.12
413.365	90.12
413.589	96.12
413.812	90.12
414.035	78.12
414.258	70.12
414.482	102.12
414.705	83.12
414.928	86.12
415.151	95.12
415.374	105.12
415.597	97.12
415.821	72.12
416.044	88.12
416.267	103.12
416.49	82.12
416.713	91.12
416.936	91.12
417.159	87.12
417.382	103.12
417.605	105.12
417.828	99.12
418.051	86.12
418.274	87.12
418.497	80.12
418.72	86.12
418.943	99.12
419.166	83.12
419.389	87.12
419.611	89.12
419.834	85.12
420.057	102.12
420.28	104.12
420.503	90.12
420.726	85.12
420.948	95.12
421.171	90.12
421.394	110.12
421.617	90.12
421.839	93.12
422.062	94.12
422.285	80.12
422.507	105.12
422.73	115.12
422.953	116.12
423.175	103.12
423.398	90.12
423.621	93.12
423.843	78.12
424.066	96.12
424.288	84.12
424.511	95.12
424.733	87.12
424.956	101.12
425.178	107.12
425.401	105.12
425.623	89.12
425.846	91.12
426.068	85.12
426.291	91.12
426.513	86.12
426.735	82.12
426.958	85.12
427.18	105.12
427.402	119.12
427.625	140.12
427.847	114.12
428.069	86.12
428.292	78.12
428.514	102.12
428.736	82.12
428.958	80.12
429.181	90.12
429.403	94.12
429.625	88.12
429.847	89.12
430.069	99.12
430.292	90.12
430.514	86.12
430.736	93.12
430.958	94.12
431.18	70.12
431.402	85.12
431.624	84.12
431.846	86.12
432.068	89.12
432.29	89.12
432.512	92.12
432.734	104.12
432.956	93.12
433.178	96.12
433.4	103.12
433.622	91.12
433.844	95.12
434.066	105.12
434.287	81.12
434.509	88.12
434.731	83.12
434.953	80.12
435.175	97.12
435.397	84.12
435.618	87.12
435.84	98.12
436.062	115.12
436.284	106.12
436.505	106.12
436.727	114.12
436.949	101.12
437.17	84.12
437.392	98.12
437.614	86.12
437.835	85.12
438.057	103.12
438.278	103.12
438.5	91.12
438.721	127.12
438.943	98.12
439.165	88.12
439.386	93.12
439.608	94.12
439.829	84.12
440.05	112.12
440.272	126.12
440.493	101.12
440.715	83.12
440.936	90.12
441.158	91.12
441.379	73.12
441.6	89.12
441.822	82.12
442.043	84.12
442.264	100.12
442.486	90.12
442.707	90.12
442.928	111.12
443.149	105.12
443.371	110.12
443.592	102.12
443.813	111.12
444.034	104.12
444.255	92.12
444.476	90.12
444.698	75.12
444.919	86.12
445.14	123.12
445.361	117.12
445.582	102.12
445.803	121.12
446.024	122.12
446.245	120.12
446.466	90.12
446.687	84.12
446.908	82.12
447.129	87.12
447.35	100.12
447.571	95.12
447.792	93.12
448.013	99.12
448.234	106.12
448.455	99.12
448.675	118.12
448.896	100.12
449.117	96.12
449.338	108.12
449.559	112.12
449.779	122.12
450	103.12
450.221	94.12
450.442	90.12
450.662	90.12
450.883	109.12
451.104	103.12
451.324	101.12
451.545	74.12
451.766	80.12
451.986	84.12
452.207	99.12
452.428	87.12
452.648	97.12
452.869	110.12
453.089	102.12
453.31	101.12
453.53	102.12
453.751	84.12
453.971	89.12
454.192	104.12
454.412	83.12
454.633	82.12
454.853	102.12
455.073	78.12
455.294	100.12
455.514	91.12
455.734	87.12
455.955	92.12
456.175	86.12
456.395	83.12
456.616	89.12
456.836	87.12
457.056	92.12
457.276	75.12
457.497	87.12
457.717	88.12
457.937	85.12
458.157	88.12
458.377	94.12
458.598	105.12
458.818	103.12
459.038	131.12
459.258	113.12
459.478	82.12
459.698	88.12
459.918	80.12
460.138	84.12
460.358	74.12
460.578	95.12
460.798	96.12
461.018	92.12
461.238	79.12
461.458	94.12
461.678	104.12
461.898	88.12
462.118	92.12
462.338	110.12
462.558	90.12
462.777	91.12
462.997	81.12
463.217	82.12
463.437	95.12
463.657	82.12
463.876	83.12
464.096	82.12
464.316	70.12
464.536	85.12
464.755	87.12
464.975	106.12
465.195	126.12
465.414	130.12
465.634	96.12
465.854	80.12
466.073	91.12
466.293	82.12
466.512	78.12
466.732	84.12
466.951	86.12
467.171	88.12
467.391	90.12
467.61	95.12
467.829	83.12
468.049	94.12
468.268	85.12
468.488	79.12
468.707	79.12
468.927	89.12
469.146	86.12
469.365	90.12
469.585	81.12
469.804	96.12
470.023	102.12
470.243	85.12
470.462	99.12
470.681	91.12
470.901	96.12
471.12	78.12
471.339	76.12
471.558	87.12
471.777	84.12
471.997	93.12
472.216	72.12
472.435	92.12
472.654	88.12
472.873	90.12
473.092	87.12
473.311	96.12
473.53	75.12
473.749	80.12
473.968	90.12
474.187	95.12
474.406	91.12
474.625	99.12
474.844	93.12
475.063	98.12
475.282	89.12
475.501	87.12
475.72	87.12
475.939	87.12
476.158	70.12
476.377	85.12
476.596	85.12
476.814	94.12
477.033	95.12
477.252	90.12
477.471	94.12
477.69	98.12
477.908	84.12
478.127	99.12
478.346	92.12
478.564	103.12
478.783	86.12
479.002	90.12
479.22	91.12
479.439	99.12
479.658	84.12
479.876	103.12
480.095	79.12
480.313	88.12
480.532	87.12
480.751	93.12
480.969	74.12
481.188	101.12
481.406	87.12
481.624	83.12
481.843	69.12
482.061	88.12
482.28	80.12
482.498	87.12
482.717	89.12
482.935	83.12
483.153	99.12
483.372	87.12
483.59	96.12
483.808	103.12
484.027	95.12
484.245	90.12
484.463	91.12
484.681	116.12
484.9	91.12
485.118	105.12
485.336	96.12
485.554	95.12
485.772	102.12
485.99	107.12
486.209	114.12
486.427	124.12
486.645	113.12
486.863	104.12
487.081	96.12
487.299	99.12
487.517	105.12
487.735	101.12
487.953	102.12
488.171	89.12
488.389	105.12
488.607	95.12
488.825	107.12
489.043	103.12
489.261	90.12
489.479	79.12
489.696	93.12
489.914	98.12
490.132	92.12
490.35	103.12
490.568	90.12
490.786	86.12
491.003	86.12
491.221	89.12
491.439	94.12
491.657	71.12
491.874	85.12
492.092	99.12
492.31	103.12
492.527	83.12
492.745	86.12
492.963	94.12
493.18	91.12
493.398	104.12
493.615	85.12
493.833	88.12
494.05	95.12
494.268	86.12
494.485	89.12
494.703	92.12
494.92	91.12
495.138	96.12
495.355	94.12
495.573	86.12
495.79	86.12
496.008	97.12
496.225	82.12
496.442	91.12
496.66	82.12
496.877	84.12
497.094	98.12
497.312	94.12
497.529	75.12
497.746	97.12
497.963	100.12
498.181	98.12
498.398	78.12
498.615	116.12
498.832	86.12
499.049	87.12
499.267	81.12
499.484	88.12
499.701	96.12
499.918	82.12
500.135	76.12
500.352	82.12
500.569	99.12
500.786	92.12
501.003	107.12
501.22	85.12
501.437	94.12
501.654	91.12
501.871	98.12
502.088	82.12
502.305	82.12
502.522	90.12
502.739	83.12
502.956	84.12
503.172	83.12
503.389	100.12
503.606	115.12
503.823	84.12
504.04	113.12
504.256	89.12
504.473	94.12
504.69	90.12
504.907	77.12
505.123	90.12
505.34	88.12
505.557	92.12
505.773	91.12
505.99	98.12
506.207	90.12
506.423	84.12
506.64	95.12
506.856	79.12
507.073	93.12
507.289	92.12
507.506	82.12
507.722	108.12
507.939	103.12
508.155	83.12
508.372	78.12
508.588	110.12
508.805	90.12
509.021	95.12
509.238	99.12
509.454	93.12
509.67	106.12
509.887	112.12
510.103	122.12
510.319	188.12
510.536	614.12
510.752	1899.12
510.968	545.12
511.184	148.12
511.401	104.12
511.617	114.12
511.833	102.12
512.049	89.12
512.265	81.12
512.481	100.12
512.698	104.12
512.914	92.12
513.13	99.12
513.346	100.12
513.562	101.12
513.778	87.12
513.994	90.12
514.21	114.12
514.426	104.12
514.642	120.12
514.858	99.12
515.074	140.12
515.29	321.12
515.506	1044.12
515.721	416.12
515.937	132.12
516.153	98.12
516.369	95.12
516.585	94.12
516.801	85.12
517.016	92.12
517.232	90.12
517.448	87.12
517.664	95.12
517.879	81.12
518.095	92.12
518.311	96.12
518.527	87.12
518.742	100.12
518.958	87.12
519.173	88.12
519.389	97.12
519.605	102.12
519.82	109.12
520.036	106.12
520.251	134.12
520.467	131.12
520.682	94.12
520.898	98.12
521.113	100.12
521.329	113.12
521.544	181.12
521.76	428.12
521.975	1710.12
522.19	1067.12
522.406	254.12
522.621	120.12
522.836	96.12
523.052	102.12
523.267	91.12
523.482	104.12
523.698	91.12
523.913	127.12
524.128	103.12
524.343	103.12
524.559	84.12
524.774	87.12
524.989	106.12
525.204	113.12
525.419	98.12
525.634	92.12
525.849	79.12
526.064	92.12
526.28	98.12
526.495	83.12
526.71	85.12
526.925	99.12
527.14	91.12
527.355	89.12
527.57	93.12
527.785	83.12
527.999	89.12
528.214	107.12
528.429	90.12
528.644	97.12
528.859	98.12
529.074	103.12
529.289	106.12
529.503	146.12
529.718	99.12
529.933	99.12
530.148	100.12
530.363	91.12
530.577	82.12
530.792	96.12
531.007	97.12
531.221	89.12
531.436	92.12
531.651	92.12
531.865	95.12
532.08	91.12
532.295	89.12
532.509	93.12
532.724	94.12
532.938	96.12
533.153	100.12
533.367	102.12
533.582	110.12
533.796	97.12
534.011	92.12
534.225	92.12
534.44	80.12
534.654	89.12
534.868	96.12
535.083	80.12
535.297	91.12
535.511	95.12
535.726	113.12
535.94	95.12
536.154	103.12
536.369	105.12
536.583	91.12
536.797	107.12
537.011	76.12
537.225	92.12
537.44	102.12
537.654	98.12
537.868	87.12
538.082	95.12
538.296	91.12
538.51	78.12
538.724	87.12
538.938	94.12
539.153	86.12
539.367	92.12
539.581	94.12
539.795	89.12
540.009	87.12
540.222	72.12
540.436	82.12
540.65	83.12
540.864	104.12
541.078	78.12
541.292	79.12
541.506	92.12
541.72	82.12
541.934	75.12
542.147	82.12
542.361	89.12
542.575	95.12
542.789	83.12
543.002	95.12
543.216	95.12
543.43	82.12
543.644	89.12
543.857	88.12
544.071	94.12
544.285	88.12
544.498	96.12
544.712	94.12
544.925	88.12
545.139	92.12
545.352	85.12
545.566	98.12
545.779	94.12
545.993	93.12
546.206	99.12
546.42	103.12
546.633	97.12
546.847	96.12
547.06	90.12
547.274	93.12
547.487	93.12
547.7	93.12
547.914	98.12
548.127	90.12
548.34	95.12
548.554	90.12
548.767	95.12
548.98	96.12
549.193	94.12
549.407	95.12
549.62	100.12
549.833	85.12
550.046	86.12
550.259	84.12
550.473	91.12
550.686	98.12
550.899	96.12
551.112	95.12
551.325	92.12
551.538	94.12
551.751	76.12
551.964	97.12
552.177	88.12
552.39	90.12
552.603	91.12
552.816	98.12
553.029	104.12
553.242	84.12
553.455	100.12
553.667	107.12
553.88	96.12
554.093	100.12
554.306	103.12
554.519	85.12
554.732	103.12
554.944	86.12
555.157	87.12
555.37	104.12
555.583	101.12
555.795	91.12
556.008	105.12
556.221	99.12
556.433	91.12
556.646	81.12
556.859	89.12
557.071	94.12
557.284	86.12
557.496	92.12
557.709	101.12
557.921	100.12
558.134	85.12
558.346	114.12
558.559	87.12
558.771	89.12
558.984	107.12
559.196	104.12
559.409	90.12
559.621	96.12
559.833	99.12
560.046	85.12
560.258	82.12
560.47	82.12
560.683	92.12
560.895	93.12
561.107	87.12
561.32	102.12
561.532	88.12
561.744	92.12
561.956	102.12
562.168	95.12
562.381	88.12
562.593	82.12
562.805	95.12
563.017	94.12
563.229	96.12
563.441	89.12
563.653	89.12
563.865	92.12
564.077	83.12
564.289	84.12
564.501	86.12
564.713	93.12
564.925	98.12
565.137	109.12
565.349	100.12
565.561	90.12
565.773	83.12
565.985	83.12
566.197	90.12
566.408	92.12
566.62	102.12
566.832	79.12
567.044	88.12
567.255	95.12
567.467	99.12
567.679	83.12
567.891	100.12
568.102	78.12
568.314	97.12
568.526	103.12
568.737	90.12
568.949	84.12
569.161	90.12
569.372	91.12
569.584	77.12
569.795	83.12
570.007	102.12
570.218	202.12
570.43	119.12
570.641	90.12
570.853	90.12
571.064	92.12
571.276	95.12
571.487	84.12
571.698	92.12
571.91	80.12
572.121	89.12
572.333	74.12
572.544	90.12
572.755	81.12
572.966	83.12
573.178	95.12
573.389	94.12
573.6	99.12
573.811	91.12
574.023	84.12
574.234	81.12
574.445	90.12
574.656	89.12
574.867	84.12
575.078	89.12
575.289	99.12
575.501	88.12
575.712	86.12
575.923	74.12
576.134	92.12
576.345	89.12
576.556	93.12
576.767	91.12
576.978	91.12
577.188	89.12
577.399	105.12
577.61	85.12
577.821	100.12
578.032	107.12
578.243	232.12
578.454	626.12
578.665	199.12
578.875	96.12
579.086	94.12
579.297	88.12
579.508	92.12
579.718	78.12
579.929	80.12
580.14	97.12
580.35	83.12
580.561	98.12
580.772	87.12
580.982	99.12
581.193	103.12
581.403	86.12
581.614	91.12
581.825	99.12
582.035	78.12
582.246	97.12
582.456	90.12
582.667	88.12
582.877	88.12
583.087	94.12
583.298	80.12
583.508	104.12
583.719	84.12
583.929	95.12
584.139	94.12
584.35	85.12
584.56	89.12
584.77	90.12
584.981	78.12
585.191	94.12
585.401	88.12
585.611	97.12
585.821	100.12
586.032	75.12
586.242	82.12
586.452	104.12
586.662	78.12
586.872	99.12
587.082	87.12
587.292	92.12
587.502	90.12
587.713	82.12
587.923	91.12
588.133	93.12
588.343	87.12
588.553	95.12
588.762	111.12
588.972	106.12
589.182	244.12
589.392	155.12
589.602	120.12
589.812	183.12
590.022	116.12
590.232	99.12
590.441	105.12
590.651	75.12
590.861	76.12
591.071	91.12
591.281	78.12
591.49	72.12
591.7	96.12
591.91	92.12
592.119	87.12
592.329	101.12
592.539	84.12
592.748	94.12
592.958	93.12
593.167	103.12
593.377	96.12
593.587	92.12
593.796	89.12
594.006	92.12
594.215	89.12
594.424	92.12
594.634	97.12
594.843	99.12
595.053	79.12
595.262	87.12
595.472	80.12
595.681	92.12
595.89	103.12
596.1	99.12
596.309	86.12
596.518	82.12
596.727	91.12
596.937	96.12
597.146	98.12
597.355	88.12
597.564	87.12
597.774	91.12
597.983	85.12
598.192	91.12
598.401	78.12
598.61	76.12
598.819	75.12
599.028	77.12
599.237	73.12
599.446	97.12
599.655	91.12
599.864	79.12
600.073	94.12
600.282	80.12
600.491	81.12
600.7	80.12
600.909	81.12
601.118	86.12
601.327	95.12
601.536	96.12
601.745	89.12
601.953	91.12
602.162	87.12
602.371	95.12
602.58	82.12
602.789	91.12
602.997	68.12
603.206	87.12
603.415	83.12
603.623	77.12
603.832	86.12
604.041	89.12
604.249	78.12
604.458	91.12
604.666	72.12
604.875	84.12
605.084	89.12
605.292	91.12
605.501	86.12
605.709	89.12
605.918	85.12
606.126	91.12
606.334	94.12
606.543	89.12
606.751	76.12
606.96	98.12
607.168	84.12
607.376	86.12
607.585	82.12
607.793	91.12
608.001	73.12
608.21	91.12
608.418	96.12
608.626	92.12
608.834	85.12
609.043	100.12
609.251	76.12
609.459	79.12
609.667	96.12
609.875	71.12
610.083	92.12
610.291	74.12
610.499	83.12
610.707	89.12
610.916	95.12
611.124	96.12
611.332	85.12
611.54	86.12
611.748	77.12
611.955	79.12
612.163	99.12
612.371	96.12
612.579	94.12
612.787	85.12
612.995	86.12
613.203	88.12
613.411	85.12
613.618	90.12
613.826	83.12
614.034	92.12
614.242	96.12
614.449	92.12
614.657	89.12
614.865	92.12
615.072	76.12
615.28	86.12
615.488	87.12
615.695	89.12
615.903	109.12
616.111	103.12
616.318	113.12
616.526	99.12
616.733	97.12
616.941	80.12
617.148	77.12
617.356	88.12
617.563	100.12
617.771	96.12
617.978	75.12
618.185	80.12
618.393	78.12
618.6	77.12
618.807	78.12
619.015	96.12
619.222	79.12
619.429	91.12
619.637	81.12
619.844	74.12
620.051	73.12
620.258	95.12
620.466	91.12
620.673	83.12
620.88	90.12
621.087	83.12
621.294	86.12
621.501	82.12
621.708	95.12
621.915	66.12
622.122	85.12
622.329	95.12
622.536	88.12
622.743	91.12
622.95	87.12
623.157	77.12
623.364	80.12
623.571	90.12
623.778	83.12
623.985	82.12
624.192	95.12
624.399	90.12
624.606	89.12
624.812	89.12
625.019	91.12
625.226	86.12
625.433	86.12
625.639	87.12
625.846	70.12
626.053	82.12
626.259	70.12
626.466	75.12
626.673	77.12
626.879	80.12
627.086	82.12
627.293	85.12
627.499	90.12
627.706	85.12
627.912	95.12
628.119	96.12
628.325	84.12
628.532	84.12
628.738	83.12
628.945	99.12
629.151	82.12
629.357	84.12
629.564	88.12
629.77	89.12
629.976	92.12
630.183	98.12
630.389	76.12
630.595	88.12
630.802	85.12
631.008	75.12
631.214	91.12
631.42	87.12
631.627	91.12
631.833	86.12
632.039	80.12
632.245	87.12
632.451	80.12
632.657	82.12
632.863	65.12
633.069	90.12
633.275	92.12
633.481	72.12
633.688	87.12
633.893	86.12
634.099	82.12
634.305	98.12
634.511	84.12
634.717	88.12
634.923	90.12
635.129	86.12
635.335	81.12
635.541	75.12
635.747	84.12
635.952	95.12
636.158	79.12
636.364	74.12
636.57	83.12
636.775	79.12
636.981	83.12
637.187	86.12
637.392	89.12
637.598	88.12
637.804	87.12
638.009	86.12
638.215	70.12
638.421	70.12
638.626	86.12
638.832	96.12
639.037	78.12
639.243	76.12
639.448	89.12
639.654	85.12
639.859	81.12
640.065	92.12
640.27	98.12
640.475	81.12
640.681	82.12
640.886	102.12
641.091	87.12
641.297	81.12
641.502	84.12
641.707	88.12
641.913	82.12
642.118	76.12
642.323	91.12
642.528	94.12
642.733	86.12
642.939	92.12
643.144	90.12
643.349	85.12
643.554	85.12
643.759	78.12
643.964	80.12
644.169	87.12
644.374	82.12
644.579	83.12
644.784	82.12
644.989	83.12
645.194	95.12
645.399	68.12
645.604	86.12
645.809	93.12
646.014	98.12
646.219	86.12
646.423	86.12
646.628	85.12
646.833	91.12
647.038	82.12
647.243	87.12
647.447	86.12
647.652	87.12
647.857	85.12
648.062	83.12
648.266	81.12
648.471	88.12
648.676	94.12
648.88	103.12
649.085	75.12
649.289	86.12
649.494	91.12
649.698	132.12
649.903	103.12
650.107	82.12
650.312	83.12
650.516	80.12
650.721	94.12
650.925	99.12
651.13	75.12
651.334	82.12
651.539	94.12
651.743	88.12
651.947	89.12
652.152	91.12
652.356	83.12
652.56	75.12
652.764	76.12
652.969	87.12
653.173	93.12
653.377	75.12
653.581	76.12
653.785	87.12
653.99	80.12
654.194	86.12
654.398	86.12
654.602	70.12
654.806	75.12
655.01	107.12
655.214	84.12
655.418	83.12
655.622	82.12
655.826	90.12
656.03	88.12
656.234	100.12
656.438	111.12
656.642	120.12
656.846	80.12
657.049	95.12
657.253	85.12
657.457	84.12
657.661	73.12
657.865	85.12
658.068	102.12
658.272	89.12
658.476	84.12
658.68	79.12
658.883	91.12
659.087	87.12
659.291	97.12
659.494	77.12
659.698	70.12
659.901	82.12
660.105	83.12
660.309	95.12
660.512	74.12
660.716	95.12
660.919	76.12
661.123	77.12
661.326	87.12
661.53	88.12
661.733	74.12
661.936	82.12
662.14	83.12
662.343	97.12
662.546	74.12
662.75	69.12
662.953	88.12
663.156	89.12
663.36	84.12
663.563	78.12
663.766	78.12
663.969	78.12
664.173	99.12
664.376	73.12
664.579	93.12
664.782	83.12
664.985	89.12
665.188	68.12
665.391	87.12
665.594	78.12
665.797	85.12
666	80.12
666.203	70.12
666.406	85.12
666.609	79.12
666.812	85.12
667.015	75.12
667.218	87.12
667.421	84.12
667.624	96.12
667.827	83.12
668.03	84.12
668.232	71.12
668.435	75.12
668.638	87.12
668.841	81.12
669.043	83.12
669.246	100.12
669.449	82.12
669.651	75.12
669.854	71.12
670.057	75.12
670.259	65.12
670.462	83.12
670.665	86.12
670.867	73.12
671.07	87.12
671.272	86.12
671.475	72.12
671.677	92.12
671.88	89.12
672.082	82.12
672.284	89.12
672.487	82.12
672.689	81.12
672.892	91.12
