Data from TenMicroDelayPb_HRD10591_00004.txt Node
Date: Mon Nov 24 14:55:45 EST 2025
User: Yrep
Spectrometer: HR+D1059
Trigger mode: 5
Integration Time (sec): 1.000000E-3
Scans to average: 1
Electric dark correction enabled: true
Nonlinearity correction enabled: false
Boxcar width: 0
XAxis mode: Wavelengths
Number of Pixels in Spectrum: 2048
>>>>>Begin Spectral Data<<<<<
223.165	-30.06
223.4	-30.06
223.635	-30.06
223.869	-25.06
224.104	-21.06
224.338	-12.06
224.573	-17.06
224.808	-7.06
225.042	-2.06
225.277	-6.06
225.511	-1.06
225.746	23.94
225.98	18.94
226.215	0.94
226.449	17.94
226.683	-2.06
226.918	20.94
227.152	40.94
227.387	48.94
227.621	36.94
227.856	39.94
228.09	28.94
228.324	34.94
228.559	65.94
228.793	55.94
229.027	72.94
229.262	62.94
229.496	65.94
229.73	82.94
229.964	77.94
230.199	73.94
230.433	72.94
230.667	89.94
230.901	91.94
231.136	99.94
231.37	76.94
231.604	98.94
231.838	81.94
232.072	92.94
232.306	76.94
232.541	95.94
232.775	81.94
233.009	86.94
233.243	96.94
233.477	84.94
233.711	82.94
233.945	80.94
234.179	89.94
234.413	101.94
234.647	92.94
234.881	92.94
235.115	78.94
235.349	68.94
235.583	88.94
235.817	88.94
236.051	88.94
236.285	76.94
236.519	93.94
236.753	87.94
236.987	75.94
237.221	77.94
237.455	100.94
237.689	86.94
237.922	90.94
238.156	84.94
238.39	84.94
238.624	79.94
238.858	89.94
239.091	92.94
239.325	99.94
239.559	108.94
239.793	81.94
240.027	105.94
240.26	81.94
240.494	101.94
240.728	93.94
240.961	94.94
241.195	87.94
241.429	101.94
241.662	85.94
241.896	89.94
242.13	82.94
242.363	95.94
242.597	104.94
242.83	102.94
243.064	103.94
243.298	96.94
243.531	72.94
243.765	95.94
243.998	91.94
244.232	100.94
244.465	91.94
244.699	82.94
244.932	96.94
245.166	97.94
245.399	101.94
245.633	90.94
245.866	95.94
246.099	88.94
246.333	88.94
246.566	99.94
246.8	86.94
247.033	84.94
247.266	103.94
247.5	91.94
247.733	73.94
247.966	108.94
248.2	97.94
248.433	96.94
248.666	89.94
248.899	89.94
249.133	91.94
249.366	117.94
249.599	91.94
249.832	88.94
250.066	115.94
250.299	99.94
250.532	92.94
250.765	95.94
250.998	94.94
251.231	101.94
251.465	98.94
251.698	102.94
251.931	101.94
252.164	102.94
252.397	124.94
252.63	104.94
252.863	108.94
253.096	91.94
253.329	110.94
253.562	103.94
253.795	114.94
254.028	127.94
254.261	114.94
254.494	119.94
254.727	114.94
254.96	118.94
255.193	94.94
255.426	107.94
255.659	105.94
255.892	114.94
256.124	102.94
256.357	108.94
256.59	105.94
256.823	93.94
257.056	105.94
257.289	112.94
257.521	119.94
257.754	111.94
257.987	116.94
258.22	130.94
258.452	88.94
258.685	113.94
258.918	104.94
259.151	113.94
259.383	126.94
259.616	114.94
259.849	120.94
260.081	132.94
260.314	133.94
260.547	117.94
260.779	129.94
261.012	117.94
261.244	138.94
261.477	158.94
261.71	150.94
261.942	150.94
262.175	137.94
262.407	111.94
262.64	113.94
262.872	100.94
263.105	124.94
263.337	115.94
263.57	116.94
263.802	111.94
264.035	114.94
264.267	123.94
264.499	126.94
264.732	135.94
264.964	122.94
265.197	121.94
265.429	126.94
265.661	122.94
265.894	118.94
266.126	127.94
266.358	133.94
266.591	136.94
266.823	128.94
267.055	122.94
267.287	121.94
267.52	114.94
267.752	128.94
267.984	127.94
268.216	103.94
268.448	115.94
268.681	123.94
268.913	105.94
269.145	118.94
269.377	114.94
269.609	124.94
269.841	119.94
270.073	117.94
270.306	114.94
270.538	110.94
270.77	117.94
271.002	115.94
271.234	114.94
271.466	124.94
271.698	119.94
271.93	114.94
272.162	114.94
272.394	111.94
272.626	126.94
272.858	123.94
273.09	113.94
273.322	117.94
273.553	105.94
273.785	119.94
274.017	115.94
274.249	126.94
274.481	105.94
274.713	102.94
274.945	118.94
275.176	100.94
275.408	114.94
275.64	118.94
275.872	100.94
276.104	117.94
276.335	121.94
276.567	108.94
276.799	113.94
277.031	109.94
277.262	116.94
277.494	104.94
277.726	136.94
277.957	129.94
278.189	110.94
278.421	131.94
278.652	130.94
278.884	120.94
279.115	118.94
279.347	144.94
279.579	136.94
279.81	148.94
280.042	174.94
280.273	200.94
280.505	188.94
280.736	158.94
280.968	152.94
281.199	140.94
281.431	144.94
281.662	132.94
281.894	145.94
282.125	167.94
282.356	146.94
282.588	160.94
282.819	162.94
283.051	142.94
283.282	160.94
283.513	196.94
283.745	162.94
283.976	151.94
284.207	146.94
284.439	155.94
284.67	129.94
284.901	140.94
285.132	136.94
285.364	123.94
285.595	129.94
285.826	127.94
286.057	146.94
286.288	117.94
286.52	132.94
286.751	144.94
286.982	156.94
287.213	152.94
287.444	180.94
287.675	154.94
287.906	142.94
288.138	140.94
288.369	121.94
288.6	126.94
288.831	115.94
289.062	114.94
289.293	123.94
289.524	138.94
289.755	119.94
289.986	107.94
290.217	112.94
290.448	126.94
290.679	132.94
290.91	142.94
291.141	124.94
291.371	120.94
291.602	123.94
291.833	118.94
292.064	113.94
292.295	131.94
292.526	115.94
292.757	113.94
292.987	128.94
293.218	118.94
293.449	100.94
293.68	112.94
293.91	121.94
294.141	145.94
294.372	135.94
294.603	126.94
294.833	131.94
295.064	128.94
295.295	138.94
295.525	113.94
295.756	131.94
295.987	146.94
296.217	131.94
296.448	122.94
296.679	124.94
296.909	130.94
297.14	134.94
297.37	137.94
297.601	123.94
297.831	117.94
298.062	136.94
298.292	132.94
298.523	125.94
298.753	118.94
298.984	133.94
299.214	136.94
299.445	117.94
299.675	124.94
299.905	122.94
300.136	123.94
300.366	130.94
300.597	120.94
300.827	134.94
301.057	134.94
301.288	107.94
301.518	129.94
301.748	125.94
301.979	173.94
302.209	125.94
302.439	117.94
302.669	121.94
302.9	138.94
303.13	132.94
303.36	139.94
303.59	133.94
303.82	139.94
304.051	126.94
304.281	132.94
304.511	144.94
304.741	136.94
304.971	129.94
305.201	133.94
305.431	124.94
305.661	132.94
305.891	125.94
306.121	140.94
306.352	128.94
306.582	126.94
306.812	127.94
307.042	117.94
307.272	127.94
307.502	132.94
307.731	132.94
307.961	141.94
308.191	122.94
308.421	134.94
308.651	130.94
308.881	136.94
309.111	139.94
309.341	126.94
309.571	137.94
309.8	127.94
310.03	124.94
310.26	128.94
310.49	126.94
310.72	122.94
310.949	126.94
311.179	136.94
311.409	128.94
311.639	151.94
311.868	131.94
312.098	151.94
312.328	140.94
312.557	142.94
312.787	126.94
313.017	162.94
313.246	144.94
313.476	131.94
313.706	127.94
313.935	125.94
314.165	144.94
314.394	152.94
314.624	137.94
314.853	140.94
315.083	152.94
315.312	152.94
315.542	152.94
315.771	136.94
316.001	134.94
316.23	145.94
316.46	144.94
316.689	137.94
316.919	134.94
317.148	151.94
317.377	151.94
317.607	153.94
317.836	142.94
318.065	136.94
318.295	145.94
318.524	134.94
318.753	142.94
318.983	145.94
319.212	140.94
319.441	121.94
319.67	126.94
319.9	129.94
320.129	136.94
320.358	138.94
320.587	130.94
320.816	134.94
321.046	138.94
321.275	140.94
321.504	122.94
321.733	128.94
321.962	128.94
322.191	136.94
322.42	142.94
322.649	139.94
322.878	140.94
323.108	142.94
323.337	140.94
323.566	127.94
323.795	135.94
324.024	142.94
324.253	142.94
324.482	132.94
324.71	138.94
324.939	151.94
325.168	135.94
325.397	143.94
325.626	127.94
325.855	158.94
326.084	122.94
326.313	129.94
326.542	139.94
326.77	132.94
326.999	128.94
327.228	127.94
327.457	130.94
327.686	152.94
327.914	143.94
328.143	128.94
328.372	121.94
328.6	128.94
328.829	143.94
329.058	127.94
329.287	138.94
329.515	127.94
329.744	141.94
329.972	119.94
330.201	125.94
330.43	133.94
330.658	117.94
330.887	128.94
331.115	135.94
331.344	138.94
331.572	153.94
331.801	141.94
332.03	134.94
332.258	134.94
332.486	119.94
332.715	135.94
332.943	113.94
333.172	137.94
333.4	126.94
333.629	148.94
333.857	144.94
334.085	127.94
334.314	141.94
334.542	135.94
334.771	149.94
334.999	130.94
335.227	149.94
335.455	151.94
335.684	137.94
335.912	148.94
336.14	132.94
336.369	128.94
336.597	136.94
336.825	139.94
337.053	133.94
337.281	128.94
337.51	131.94
337.738	119.94
337.966	144.94
338.194	124.94
338.422	121.94
338.65	136.94
338.878	154.94
339.106	129.94
339.334	149.94
339.562	157.94
339.79	133.94
340.018	126.94
340.246	133.94
340.474	140.94
340.702	125.94
340.93	140.94
341.158	121.94
341.386	133.94
341.614	138.94
341.842	117.94
342.07	127.94
342.298	136.94
342.526	130.94
342.754	128.94
342.981	144.94
343.209	137.94
343.437	183.94
343.665	136.94
343.893	141.94
344.12	149.94
344.348	128.94
344.576	125.94
344.804	142.94
345.031	131.94
345.259	148.94
345.487	129.94
345.714	144.94
345.942	142.94
346.17	129.94
346.397	127.94
346.625	143.94
346.853	116.94
347.08	136.94
347.308	140.94
347.535	129.94
347.763	145.94
347.99	139.94
348.218	132.94
348.445	134.94
348.673	128.94
348.9	145.94
349.128	169.94
349.355	120.94
349.583	127.94
349.81	137.94
350.037	157.94
350.265	115.94
350.492	137.94
350.72	128.94
350.947	127.94
351.174	137.94
351.402	139.94
351.629	121.94
351.856	132.94
352.083	132.94
352.311	132.94
352.538	117.94
352.765	133.94
352.992	158.94
353.22	147.94
353.447	136.94
353.674	135.94
353.901	130.94
354.128	128.94
354.355	134.94
354.583	134.94
354.81	132.94
355.037	141.94
355.264	130.94
355.491	148.94
355.718	138.94
355.945	139.94
356.172	155.94
356.399	150.94
356.626	155.94
356.853	169.94
357.08	200.94
357.307	254.94
357.534	241.94
357.761	196.94
357.988	191.94
358.215	192.94
358.441	150.94
358.668	164.94
358.895	149.94
359.122	148.94
359.349	156.94
359.576	156.94
359.802	127.94
360.029	141.94
360.256	136.94
360.483	135.94
360.709	125.94
360.936	164.94
361.163	152.94
361.39	138.94
361.616	146.94
361.843	153.94
362.07	152.94
362.296	144.94
362.523	134.94
362.749	146.94
362.976	145.94
363.203	155.94
363.429	184.94
363.656	205.94
363.882	260.94
364.109	299.94
364.335	249.94
364.562	198.94
364.788	176.94
365.015	156.94
365.241	178.94
365.468	158.94
365.694	141.94
365.92	151.94
366.147	158.94
366.373	152.94
366.599	146.94
366.826	161.94
367.052	194.94
367.278	200.94
367.505	198.94
367.731	234.94
367.957	211.94
368.184	276.94
368.41	332.94
368.636	311.94
368.862	247.94
369.089	217.94
369.315	183.94
369.541	175.94
369.767	170.94
369.993	169.94
370.219	180.94
370.445	161.94
370.672	148.94
370.898	138.94
371.124	154.94
371.35	143.94
371.576	150.94
371.802	161.94
372.028	135.94
372.254	156.94
372.48	152.94
372.706	144.94
372.932	158.94
373.158	157.94
373.384	177.94
373.61	198.94
373.835	228.94
374.061	264.94
374.287	238.94
374.513	208.94
374.739	164.94
374.965	167.94
375.191	170.94
375.416	151.94
375.642	155.94
375.868	158.94
376.094	152.94
376.319	145.94
376.545	136.94
376.771	139.94
376.997	129.94
377.222	136.94
377.448	145.94
377.674	154.94
377.899	147.94
378.125	153.94
378.35	156.94
378.576	138.94
378.802	134.94
379.027	148.94
379.253	150.94
379.478	152.94
379.704	157.94
379.929	150.94
380.155	141.94
380.38	149.94
380.606	128.94
380.831	148.94
381.057	159.94
381.282	155.94
381.507	160.94
381.733	153.94
381.958	142.94
382.184	141.94
382.409	154.94
382.634	149.94
382.86	138.94
383.085	148.94
383.31	130.94
383.535	144.94
383.761	145.94
383.986	147.94
384.211	140.94
384.436	136.94
384.662	146.94
384.887	147.94
385.112	126.94
385.337	159.94
385.562	132.94
385.787	154.94
386.013	149.94
386.238	145.94
386.463	134.94
386.688	178.94
386.913	153.94
387.138	145.94
387.363	153.94
387.588	155.94
387.813	139.94
388.038	155.94
388.263	174.94
388.488	150.94
388.713	136.94
388.938	156.94
389.163	144.94
389.387	151.94
389.612	155.94
389.837	142.94
390.062	160.94
390.287	156.94
390.512	150.94
390.736	154.94
390.961	149.94
391.186	147.94
391.411	143.94
391.636	148.94
391.86	147.94
392.085	152.94
392.31	129.94
392.534	130.94
392.759	152.94
392.984	138.94
393.208	142.94
393.433	136.94
393.658	145.94
393.882	154.94
394.107	145.94
394.331	149.94
394.556	142.94
394.78	146.94
395.005	142.94
395.229	141.94
395.454	145.94
395.678	148.94
395.903	163.94
396.127	166.94
396.352	145.94
396.576	145.94
396.801	154.94
397.025	137.94
397.249	153.94
397.474	182.94
397.698	156.94
397.922	170.94
398.147	149.94
398.371	158.94
398.595	167.94
398.82	170.94
399.044	156.94
399.268	156.94
399.492	153.94
399.717	162.94
399.941	170.94
400.165	160.94
400.389	168.94
400.613	170.94
400.837	178.94
401.062	174.94
401.286	179.94
401.51	158.94
401.734	164.94
401.958	182.94
402.182	198.94
402.406	173.94
402.63	164.94
402.854	174.94
403.078	169.94
403.302	153.94
403.526	171.94
403.75	164.94
403.974	165.94
404.198	182.94
404.422	188.94
404.645	192.94
404.869	204.94
405.093	214.94
405.317	248.94
405.541	329.94
405.765	438.94
405.988	480.94
406.212	382.94
406.436	296.94
406.66	256.94
406.883	237.94
407.107	215.94
407.331	203.94
407.555	206.94
407.778	208.94
408.002	175.94
408.226	194.94
408.449	200.94
408.673	188.94
408.896	188.94
409.12	169.94
409.344	165.94
409.567	176.94
409.791	176.94
410.014	186.94
410.238	169.94
410.461	177.94
410.685	181.94
410.908	172.94
411.132	184.94
411.355	169.94
411.578	177.94
411.802	171.94
412.025	155.94
412.249	170.94
412.472	173.94
412.695	157.94
412.919	160.94
413.142	180.94
413.365	140.94
413.589	162.94
413.812	146.94
414.035	165.94
414.258	171.94
414.482	165.94
414.705	170.94
414.928	168.94
415.151	175.94
415.374	171.94
415.597	152.94
415.821	165.94
416.044	162.94
416.267	162.94
416.49	176.94
416.713	167.94
416.936	161.94
417.159	175.94
417.382	159.94
417.605	156.94
417.828	170.94
418.051	168.94
418.274	184.94
418.497	181.94
418.72	167.94
418.943	165.94
419.166	173.94
419.389	176.94
419.611	168.94
419.834	177.94
420.057	171.94
420.28	175.94
420.503	178.94
420.726	158.94
420.948	157.94
421.171	167.94
421.394	158.94
421.617	166.94
421.839	194.94
422.062	180.94
422.285	170.94
422.507	200.94
422.73	167.94
422.953	181.94
423.175	173.94
423.398	170.94
423.621	205.94
423.843	212.94
424.066	210.94
424.288	237.94
424.511	248.94
424.733	279.94
424.956	266.94
425.178	246.94
425.401	218.94
425.623	215.94
425.846	197.94
426.068	199.94
426.291	209.94
426.513	200.94
426.735	202.94
426.958	208.94
427.18	190.94
427.402	189.94
427.625	191.94
427.847	172.94
428.069	198.94
428.292	180.94
428.514	207.94
428.736	176.94
428.958	169.94
429.181	185.94
429.403	173.94
429.625	148.94
429.847	170.94
430.069	173.94
430.292	201.94
430.514	180.94
430.736	175.94
430.958	178.94
431.18	141.94
431.402	167.94
431.624	171.94
431.846	166.94
432.068	178.94
432.29	170.94
432.512	181.94
432.734	160.94
432.956	162.94
433.178	195.94
433.4	180.94
433.622	185.94
433.844	182.94
434.066	162.94
434.287	176.94
434.509	175.94
434.731	165.94
434.953	171.94
435.175	166.94
435.397	182.94
435.618	174.94
435.84	167.94
436.062	184.94
436.284	168.94
436.505	180.94
436.727	176.94
436.949	189.94
437.17	185.94
437.392	198.94
437.614	212.94
437.835	189.94
438.057	209.94
438.278	196.94
438.5	229.94
438.721	246.94
438.943	262.94
439.165	247.94
439.386	225.94
439.608	244.94
439.829	228.94
440.05	231.94
440.272	222.94
440.493	231.94
440.715	225.94
440.936	250.94
441.158	239.94
441.379	231.94
441.6	218.94
441.822	213.94
442.043	203.94
442.264	189.94
442.486	215.94
442.707	197.94
442.928	199.94
443.149	186.94
443.371	206.94
443.592	197.94
443.813	190.94
444.034	184.94
444.255	188.94
444.476	179.94
444.698	191.94
444.919	193.94
445.14	488.94
445.361	308.94
445.582	199.94
445.803	186.94
446.024	209.94
446.245	189.94
446.466	202.94
446.687	187.94
446.908	186.94
447.129	186.94
447.35	182.94
447.571	196.94
447.792	177.94
448.013	170.94
448.234	170.94
448.455	184.94
448.675	198.94
448.896	174.94
449.117	183.94
449.338	167.94
449.559	173.94
449.779	191.94
450	184.94
450.221	185.94
450.442	168.94
450.662	172.94
450.883	172.94
451.104	174.94
451.324	177.94
451.545	162.94
451.766	186.94
451.986	169.94
452.207	158.94
452.428	170.94
452.648	182.94
452.869	173.94
453.089	162.94
453.31	155.94
453.53	160.94
453.751	146.94
453.971	154.94
454.192	151.94
454.412	164.94
454.633	158.94
454.853	182.94
455.073	164.94
455.294	151.94
455.514	172.94
455.734	157.94
455.955	168.94
456.175	145.94
456.395	178.94
456.616	170.94
456.836	149.94
457.056	157.94
457.276	149.94
457.497	161.94
457.717	166.94
457.937	144.94
458.157	160.94
458.377	155.94
458.598	140.94
458.818	150.94
459.038	138.94
459.258	164.94
459.478	140.94
459.698	150.94
459.918	161.94
460.138	166.94
460.358	152.94
460.578	168.94
460.798	153.94
461.018	174.94
461.238	168.94
461.458	183.94
461.678	156.94
461.898	158.94
462.118	168.94
462.338	154.94
462.558	162.94
462.777	176.94
462.997	173.94
463.217	148.94
463.437	161.94
463.657	166.94
463.876	176.94
464.096	155.94
464.316	178.94
464.536	153.94
464.755	175.94
464.975	178.94
465.195	169.94
465.414	157.94
465.634	151.94
465.854	158.94
466.073	159.94
466.293	170.94
466.512	172.94
466.732	181.94
466.951	175.94
467.171	165.94
467.391	181.94
467.61	154.94
467.829	162.94
468.049	156.94
468.268	159.94
468.488	167.94
468.707	166.94
468.927	162.94
469.146	178.94
469.365	172.94
469.585	189.94
469.804	170.94
470.023	169.94
470.243	181.94
470.462	172.94
470.681	178.94
470.901	162.94
471.12	169.94
471.339	172.94
471.558	150.94
471.777	180.94
471.997	170.94
472.216	166.94
472.435	161.94
472.654	165.94
472.873	166.94
473.092	168.94
473.311	174.94
473.53	162.94
473.749	172.94
473.968	173.94
474.187	168.94
474.406	172.94
474.625	182.94
474.844	186.94
475.063	161.94
475.282	171.94
475.501	167.94
475.72	181.94
475.939	167.94
476.158	167.94
476.377	189.94
476.596	169.94
476.814	165.94
477.033	186.94
477.252	182.94
477.471	183.94
477.69	178.94
477.908	167.94
478.127	182.94
478.346	172.94
478.564	173.94
478.783	178.94
479.002	176.94
479.22	169.94
479.439	173.94
479.658	172.94
479.876	168.94
480.095	171.94
480.313	183.94
480.532	193.94
480.751	186.94
480.969	168.94
481.188	169.94
481.406	174.94
481.624	181.94
481.843	154.94
482.061	151.94
482.28	185.94
482.498	175.94
482.717	172.94
482.935	184.94
483.153	178.94
483.372	196.94
483.59	204.94
483.808	182.94
484.027	174.94
484.245	169.94
484.463	174.94
484.681	202.94
484.9	189.94
485.118	188.94
485.336	187.94
485.554	184.94
485.772	179.94
485.99	170.94
486.209	162.94
486.427	168.94
486.645	186.94
486.863	185.94
487.081	203.94
487.299	193.94
487.517	189.94
487.735	198.94
487.953	206.94
488.171	218.94
488.389	192.94
488.607	176.94
488.825	193.94
489.043	183.94
489.261	203.94
489.479	202.94
489.696	184.94
489.914	189.94
490.132	193.94
490.35	188.94
490.568	195.94
490.786	191.94
491.003	216.94
491.221	182.94
491.439	206.94
491.657	223.94
491.874	232.94
492.092	224.94
492.31	221.94
492.527	210.94
492.745	209.94
492.963	221.94
493.18	204.94
493.398	203.94
493.615	210.94
493.833	200.94
494.05	208.94
494.268	186.94
494.485	218.94
494.703	208.94
494.92	200.94
495.138	207.94
495.355	224.94
495.573	220.94
495.79	199.94
496.008	200.94
496.225	199.94
496.442	207.94
496.66	223.94
496.877	210.94
497.094	217.94
497.312	214.94
497.529	204.94
497.746	210.94
497.963	198.94
498.181	193.94
498.398	182.94
498.615	208.94
498.832	191.94
499.049	210.94
499.267	210.94
499.484	204.94
499.701	228.94
499.918	217.94
500.135	232.94
500.352	234.94
500.569	256.94
500.786	278.94
501.003	259.94
501.22	237.94
501.437	224.94
501.654	228.94
501.871	204.94
502.088	207.94
502.305	220.94
502.522	217.94
502.739	207.94
502.956	216.94
503.172	220.94
503.389	202.94
503.606	207.94
503.823	203.94
504.04	204.94
504.256	217.94
504.473	225.94
504.69	222.94
504.907	238.94
505.123	204.94
505.34	216.94
505.557	221.94
505.773	197.94
505.99	181.94
506.207	180.94
506.423	208.94
506.64	200.94
506.856	180.94
507.073	188.94
507.289	171.94
507.506	191.94
507.722	193.94
507.939	188.94
508.155	185.94
508.372	170.94
508.588	178.94
508.805	187.94
509.021	191.94
509.238	198.94
509.454	178.94
509.67	172.94
509.887	178.94
510.103	161.94
510.319	166.94
510.536	176.94
510.752	168.94
510.968	175.94
511.184	155.94
511.401	164.94
511.617	174.94
511.833	168.94
512.049	168.94
512.265	157.94
512.481	162.94
512.698	169.94
512.914	166.94
513.13	176.94
513.346	173.94
513.562	165.94
513.778	180.94
513.994	153.94
514.21	182.94
514.426	178.94
514.642	185.94
514.858	166.94
515.074	165.94
515.29	185.94
515.506	173.94
515.721	179.94
515.937	192.94
516.153	178.94
516.369	174.94
516.585	165.94
516.801	180.94
517.016	170.94
517.232	169.94
517.448	177.94
517.664	169.94
517.879	164.94
518.095	168.94
518.311	168.94
518.527	166.94
518.742	164.94
518.958	159.94
519.173	180.94
519.389	173.94
519.605	177.94
519.82	157.94
520.036	158.94
520.251	184.94
520.467	176.94
520.682	172.94
520.898	178.94
521.113	171.94
521.329	173.94
521.544	136.94
521.76	164.94
521.975	172.94
522.19	197.94
522.406	194.94
522.621	183.94
522.836	173.94
523.052	194.94
523.267	167.94
523.482	179.94
523.698	156.94
523.913	173.94
524.128	164.94
524.343	167.94
524.559	177.94
524.774	154.94
524.989	173.94
525.204	182.94
525.419	173.94
525.634	160.94
525.849	172.94
526.064	174.94
526.28	179.94
526.495	152.94
526.71	148.94
526.925	166.94
527.14	137.94
527.355	158.94
527.57	172.94
527.785	156.94
527.999	157.94
528.214	151.94
528.429	172.94
528.644	168.94
528.859	165.94
529.074	180.94
529.289	180.94
529.503	162.94
529.718	176.94
529.933	157.94
530.148	160.94
530.363	180.94
530.577	169.94
530.792	171.94
531.007	145.94
531.221	178.94
531.436	157.94
531.651	176.94
531.865	174.94
532.08	164.94
532.295	150.94
532.509	151.94
532.724	156.94
532.938	150.94
533.153	136.94
533.367	165.94
533.582	166.94
533.796	154.94
534.011	156.94
534.225	166.94
534.44	153.94
534.654	174.94
534.868	154.94
535.083	162.94
535.297	171.94
535.511	162.94
535.726	178.94
535.94	156.94
536.154	172.94
536.369	186.94
536.583	166.94
536.797	186.94
537.011	168.94
537.225	172.94
537.44	194.94
537.654	190.94
537.868	198.94
538.082	183.94
538.296	166.94
538.51	187.94
538.724	180.94
538.938	193.94
539.153	188.94
539.367	184.94
539.581	186.94
539.795	195.94
540.009	151.94
540.222	159.94
540.436	157.94
540.65	155.94
540.864	161.94
541.078	167.94
541.292	164.94
541.506	156.94
541.72	182.94
541.934	172.94
542.147	162.94
542.361	148.94
542.575	169.94
542.789	162.94
543.002	166.94
543.216	156.94
543.43	166.94
543.644	148.94
543.857	159.94
544.071	162.94
544.285	174.94
544.498	155.94
544.712	154.94
544.925	158.94
545.139	153.94
545.352	153.94
545.566	157.94
545.779	168.94
545.993	152.94
546.206	180.94
546.42	156.94
546.633	161.94
546.847	184.94
547.06	180.94
547.274	154.94
547.487	156.94
547.7	155.94
547.914	152.94
548.127	145.94
548.34	159.94
548.554	158.94
548.767	161.94
548.98	168.94
549.193	155.94
549.407	157.94
549.62	159.94
549.833	150.94
550.046	139.94
550.259	140.94
550.473	157.94
550.686	172.94
550.899	159.94
551.112	151.94
551.325	152.94
551.538	161.94
551.751	162.94
551.964	162.94
552.177	157.94
552.39	157.94
552.603	180.94
552.816	178.94
553.029	160.94
553.242	164.94
553.455	170.94
553.667	173.94
553.88	158.94
554.093	168.94
554.306	152.94
554.519	166.94
554.732	169.94
554.944	166.94
555.157	167.94
555.37	154.94
555.583	174.94
555.795	164.94
556.008	169.94
556.221	159.94
556.433	164.94
556.646	153.94
556.859	156.94
557.071	180.94
557.284	155.94
557.496	172.94
557.709	169.94
557.921	178.94
558.134	170.94
558.346	176.94
558.559	173.94
558.771	173.94
558.984	167.94
559.196	171.94
559.409	165.94
559.621	196.94
559.833	185.94
560.046	192.94
560.258	210.94
560.47	228.94
560.683	256.94
560.895	281.94
561.107	310.94
561.32	266.94
561.532	216.94
561.744	222.94
561.956	196.94
562.168	193.94
562.381	170.94
562.593	178.94
562.805	183.94
563.017	170.94
563.229	156.94
563.441	141.94
563.653	155.94
563.865	165.94
564.077	150.94
564.289	164.94
564.501	151.94
564.713	144.94
564.925	151.94
565.137	145.94
565.349	156.94
565.561	161.94
565.773	151.94
565.985	166.94
566.197	149.94
566.408	156.94
566.62	166.94
566.832	166.94
567.044	150.94
567.255	149.94
567.467	154.94
567.679	149.94
567.891	156.94
568.102	137.94
568.314	147.94
568.526	133.94
568.737	145.94
568.949	134.94
569.161	133.94
569.372	142.94
569.584	141.94
569.795	138.94
570.007	137.94
570.218	154.94
570.43	141.94
570.641	114.94
570.853	133.94
571.064	139.94
571.276	123.94
571.487	137.94
571.698	141.94
571.91	139.94
572.121	135.94
572.333	128.94
572.544	127.94
572.755	133.94
572.966	121.94
573.178	130.94
573.389	117.94
573.6	137.94
573.811	128.94
574.023	136.94
574.234	124.94
574.445	143.94
574.656	122.94
574.867	120.94
575.078	118.94
575.289	135.94
575.501	124.94
575.712	130.94
575.923	138.94
576.134	126.94
576.345	109.94
576.556	137.94
576.767	142.94
576.978	126.94
577.188	131.94
577.399	128.94
577.61	113.94
577.821	121.94
578.032	117.94
578.243	120.94
578.454	124.94
578.665	116.94
578.875	116.94
579.086	120.94
579.297	109.94
579.508	129.94
579.718	136.94
579.929	136.94
580.14	126.94
580.35	113.94
580.561	111.94
580.772	124.94
580.982	131.94
581.193	129.94
581.403	128.94
581.614	127.94
581.825	114.94
582.035	118.94
582.246	144.94
582.456	100.94
582.667	111.94
582.877	117.94
583.087	109.94
583.298	121.94
583.508	119.94
583.719	125.94
583.929	129.94
584.139	116.94
584.35	100.94
584.56	129.94
584.77	105.94
584.981	107.94
585.191	114.94
585.401	114.94
585.611	112.94
585.821	120.94
586.032	119.94
586.242	118.94
586.452	117.94
586.662	123.94
586.872	125.94
587.082	118.94
587.292	109.94
587.502	114.94
587.713	125.94
587.923	130.94
588.133	121.94
588.343	116.94
588.553	106.94
588.762	149.94
588.972	131.94
589.182	131.94
589.392	110.94
589.602	112.94
589.812	111.94
590.022	128.94
590.232	126.94
590.441	119.94
590.651	129.94
590.861	106.94
591.071	115.94
591.281	124.94
591.49	125.94
591.7	114.94
591.91	127.94
592.119	122.94
592.329	121.94
592.539	132.94
592.748	136.94
592.958	124.94
593.167	110.94
593.377	116.94
593.587	135.94
593.796	116.94
594.006	114.94
594.215	120.94
594.424	111.94
594.634	93.94
594.843	123.94
595.053	126.94
595.262	113.94
595.472	106.94
595.681	108.94
595.89	113.94
596.1	118.94
596.309	106.94
596.518	104.94
596.727	109.94
596.937	115.94
597.146	122.94
597.355	133.94
597.564	109.94
597.774	128.94
597.983	103.94
598.192	112.94
598.401	97.94
598.61	104.94
598.819	136.94
599.028	123.94
599.237	122.94
599.446	110.94
599.655	110.94
599.864	122.94
600.073	106.94
600.282	141.94
600.491	100.94
600.7	112.94
600.909	109.94
601.118	119.94
601.327	106.94
601.536	122.94
601.745	116.94
601.953	120.94
602.162	110.94
602.371	109.94
602.58	116.94
602.789	129.94
602.997	124.94
603.206	115.94
603.415	121.94
603.623	114.94
603.832	97.94
604.041	126.94
604.249	118.94
604.458	118.94
604.666	106.94
604.875	98.94
605.084	97.94
605.292	104.94
605.501	100.94
605.709	110.94
605.918	120.94
606.126	131.94
606.334	106.94
606.543	110.94
606.751	112.94
606.96	113.94
607.168	103.94
607.376	104.94
607.585	120.94
607.793	107.94
608.001	107.94
608.21	116.94
608.418	120.94
608.626	110.94
608.834	124.94
609.043	108.94
609.251	110.94
609.459	101.94
609.667	120.94
609.875	127.94
610.083	116.94
610.291	96.94
610.499	104.94
610.707	111.94
610.916	110.94
611.124	108.94
611.332	113.94
611.54	99.94
611.748	116.94
611.955	122.94
612.163	100.94
612.371	107.94
612.579	112.94
612.787	109.94
612.995	110.94
613.203	131.94
613.411	93.94
613.618	111.94
613.826	117.94
614.034	101.94
614.242	112.94
614.449	116.94
614.657	105.94
614.865	112.94
615.072	94.94
615.28	108.94
615.488	98.94
615.695	108.94
615.903	102.94
616.111	95.94
616.318	116.94
616.526	96.94
616.733	118.94
616.941	110.94
617.148	101.94
617.356	105.94
617.563	93.94
617.771	108.94
617.978	107.94
618.185	116.94
618.393	102.94
618.6	113.94
618.807	86.94
619.015	92.94
619.222	102.94
619.429	99.94
619.637	100.94
619.844	108.94
620.051	88.94
620.258	106.94
620.466	95.94
620.673	102.94
620.88	112.94
621.087	104.94
621.294	120.94
621.501	103.94
621.708	92.94
621.915	90.94
622.122	96.94
622.329	102.94
622.536	98.94
622.743	96.94
622.95	109.94
623.157	97.94
623.364	104.94
623.571	122.94
623.778	104.94
623.985	105.94
624.192	104.94
624.399	86.94
624.606	114.94
624.812	98.94
625.019	85.94
625.226	102.94
625.433	96.94
625.639	83.94
625.846	103.94
626.053	113.94
626.259	89.94
626.466	106.94
626.673	96.94
626.879	97.94
627.086	93.94
627.293	101.94
627.499	100.94
627.706	98.94
627.912	96.94
628.119	81.94
628.325	96.94
628.532	95.94
628.738	88.94
628.945	94.94
629.151	107.94
629.357	82.94
629.564	93.94
629.77	110.94
629.976	96.94
630.183	86.94
630.389	94.94
630.595	90.94
630.802	100.94
631.008	101.94
631.214	102.94
631.42	97.94
631.627	126.94
631.833	96.94
632.039	92.94
632.245	94.94
632.451	114.94
632.657	100.94
632.863	106.94
633.069	100.94
633.275	112.94
633.481	89.94
633.688	102.94
633.893	98.94
634.099	105.94
634.305	94.94
634.511	92.94
634.717	95.94
634.923	88.94
635.129	78.94
635.335	98.94
635.541	92.94
635.747	96.94
635.952	100.94
636.158	93.94
636.364	101.94
636.57	93.94
636.775	96.94
636.981	108.94
637.187	108.94
637.392	103.94
637.598	94.94
637.804	111.94
638.009	92.94
638.215	84.94
638.421	86.94
638.626	101.94
638.832	92.94
639.037	95.94
639.243	92.94
639.448	93.94
639.654	106.94
639.859	88.94
640.065	100.94
640.27	116.94
640.475	93.94
640.681	96.94
640.886	87.94
641.091	101.94
641.297	106.94
641.502	102.94
641.707	96.94
641.913	88.94
642.118	87.94
642.323	81.94
642.528	112.94
642.733	117.94
642.939	104.94
643.144	100.94
643.349	102.94
643.554	100.94
643.759	107.94
643.964	93.94
644.169	109.94
644.374	96.94
644.579	96.94
644.784	104.94
644.989	87.94
645.194	86.94
645.399	110.94
645.604	94.94
645.809	100.94
646.014	86.94
646.219	110.94
646.423	95.94
646.628	100.94
646.833	97.94
647.038	98.94
647.243	108.94
647.447	90.94
647.652	104.94
647.857	98.94
648.062	104.94
648.266	97.94
648.471	101.94
648.676	103.94
648.88	95.94
649.085	97.94
649.289	93.94
649.494	92.94
649.698	100.94
649.903	88.94
650.107	100.94
650.312	118.94
650.516	92.94
650.721	101.94
650.925	86.94
651.13	88.94
651.334	107.94
651.539	95.94
651.743	94.94
651.947	86.94
652.152	106.94
652.356	104.94
652.56	88.94
652.764	89.94
652.969	95.94
653.173	88.94
653.377	93.94
653.581	90.94
653.785	88.94
653.99	79.94
654.194	93.94
654.398	77.94
654.602	79.94
654.806	115.94
655.01	97.94
655.214	79.94
655.418	80.94
655.622	82.94
655.826	93.94
656.03	90.94
656.234	83.94
656.438	80.94
656.642	87.94
656.846	88.94
657.049	97.94
657.253	102.94
657.457	78.94
657.661	90.94
657.865	96.94
658.068	89.94
658.272	86.94
658.476	96.94
658.68	82.94
658.883	87.94
659.087	82.94
659.291	87.94
659.494	103.94
659.698	83.94
659.901	77.94
660.105	77.94
660.309	101.94
660.512	88.94
660.716	95.94
660.919	86.94
661.123	102.94
661.326	100.94
661.53	79.94
661.733	90.94
661.936	88.94
662.14	85.94
662.343	77.94
662.546	73.94
662.75	92.94
662.953	91.94
663.156	106.94
663.36	86.94
663.563	72.94
663.766	94.94
663.969	84.94
664.173	80.94
664.376	81.94
664.579	77.94
664.782	88.94
664.985	94.94
665.188	73.94
665.391	68.94
665.594	81.94
665.797	87.94
666	89.94
666.203	65.94
666.406	80.94
666.609	72.94
666.812	87.94
667.015	90.94
667.218	85.94
667.421	104.94
667.624	88.94
667.827	100.94
668.03	92.94
668.232	84.94
668.435	103.94
668.638	70.94
668.841	94.94
669.043	73.94
669.246	87.94
669.449	74.94
669.651	91.94
669.854	84.94
670.057	81.94
670.259	86.94
670.462	89.94
670.665	76.94
670.867	104.94
671.07	92.94
671.272	79.94
671.475	104.94
671.677	85.94
671.88	98.94
672.082	72.94
672.284	81.94
672.487	86.94
672.689	73.94
672.892	82.94
