Data from TenMicroDelayPb_HRD10591_00008.txt Node
Date: Mon Nov 24 14:27:32 EST 2025
User: Yrep
Spectrometer: HR+D1059
Trigger mode: 0
Integration Time (sec): 1.000000E-1
Scans to average: 5
Electric dark correction enabled: true
Nonlinearity correction enabled: false
Boxcar width: 0
XAxis mode: Wavelengths
Number of Pixels in Spectrum: 2048
>>>>>Begin Spectral Data<<<<<
223.165	-20.08
223.4	-20.08
223.635	-20.08
223.869	-15.48
224.104	-14.48
224.338	-10.67
224.573	-14.48
224.808	-17.67
225.042	-8.48
225.277	-4.27
225.511	-2.08
225.746	-0.88
225.98	9.33
226.215	7.92
226.449	12.92
226.683	22.12
226.918	22.73
227.152	33.52
227.387	36.73
227.621	44.92
227.856	50.33
228.09	45.52
228.324	57.33
228.559	60.12
228.793	58.33
229.027	60.92
229.262	65.52
229.496	65.73
229.73	70.92
229.964	73.33
230.199	70.73
230.433	72.33
230.667	79.52
230.901	79.33
231.136	76.92
231.37	83.73
231.604	75.92
231.838	78.12
232.072	81.12
232.306	82.52
232.541	82.12
232.775	78.33
233.009	84.92
233.243	81.52
233.477	87.73
233.711	79.33
233.945	76.33
234.179	78.12
234.413	85.92
234.647	79.33
234.881	84.73
235.115	85.33
235.349	75.73
235.583	83.73
235.817	83.33
236.051	78.12
236.285	85.33
236.519	76.73
236.753	79.33
236.987	78.73
237.221	77.12
237.455	72.33
237.689	78.33
237.922	75.12
238.156	75.92
238.39	75.73
238.624	80.73
238.858	78.12
239.091	83.12
239.325	81.52
239.559	84.12
239.793	82.33
240.027	86.73
240.26	80.73
240.494	81.92
240.728	77.12
240.961	85.12
241.195	82.33
241.429	77.92
241.662	76.52
241.896	83.12
242.13	78.33
242.363	85.73
242.597	76.12
242.83	74.73
243.064	78.52
243.298	79.92
243.531	77.12
243.765	82.12
243.998	83.12
244.232	80.33
244.465	84.33
244.699	84.33
244.932	81.73
245.166	79.52
245.399	94.92
245.633	86.52
245.866	84.92
246.099	81.92
246.333	73.92
246.566	79.33
246.8	80.52
247.033	77.73
247.266	83.73
247.5	85.73
247.733	81.92
247.966	83.73
248.2	85.33
248.433	86.33
248.666	84.12
248.899	87.92
249.133	75.12
249.366	82.12
249.599	81.92
249.832	83.12
250.066	89.52
250.299	84.73
250.532	80.33
250.765	83.52
250.998	90.92
251.231	84.92
251.465	88.12
251.698	90.92
251.931	86.12
252.164	86.92
252.397	88.52
252.63	88.52
252.863	87.92
253.096	86.73
253.329	90.52
253.562	83.92
253.795	88.92
254.028	94.12
254.261	86.92
254.494	89.92
254.727	91.73
254.96	93.12
255.193	90.52
255.426	86.92
255.659	82.73
255.892	87.12
256.124	93.92
256.357	88.92
256.59	90.52
256.823	89.73
257.056	87.12
257.289	93.52
257.521	90.52
257.754	98.33
257.987	92.33
258.22	91.92
258.452	96.12
258.685	90.92
258.918	84.52
259.151	93.73
259.383	91.52
259.616	88.12
259.849	91.92
260.081	100.33
260.314	94.33
260.547	97.12
260.779	105.33
261.012	102.52
261.244	111.52
261.477	118.12
261.71	113.92
261.942	109.52
262.175	101.33
262.407	91.33
262.64	92.52
262.872	94.52
263.105	100.33
263.337	91.33
263.57	92.12
263.802	95.92
264.035	98.33
264.267	91.33
264.499	97.33
264.732	95.12
264.964	96.73
265.197	99.92
265.429	101.33
265.661	94.52
265.894	93.33
266.126	101.92
266.358	104.73
266.591	105.73
266.823	100.73
267.055	91.12
267.287	91.52
267.52	92.33
267.752	95.73
267.984	89.52
268.216	91.73
268.448	87.33
268.681	93.92
268.913	90.73
269.145	92.73
269.377	87.73
269.609	88.52
269.841	89.33
270.073	97.12
270.306	90.12
270.538	87.73
270.77	87.12
271.002	94.33
271.234	92.33
271.466	90.92
271.698	91.33
271.93	85.33
272.162	91.92
272.394	92.73
272.626	90.33
272.858	96.33
273.09	95.73
273.322	90.33
273.553	90.12
273.785	91.92
274.017	91.12
274.249	93.33
274.481	90.33
274.713	97.73
274.945	90.73
275.176	100.73
275.408	90.52
275.64	97.52
275.872	96.52
276.104	89.92
276.335	89.12
276.567	97.12
276.799	88.52
277.031	90.52
277.262	91.73
277.494	92.52
277.726	95.33
277.957	93.12
278.189	96.52
278.421	95.33
278.652	99.73
278.884	102.33
279.115	100.73
279.347	109.33
279.579	115.92
279.81	119.33
280.042	129.12
280.273	147.33
280.505	139.12
280.736	106.92
280.968	107.92
281.199	102.73
281.431	99.73
281.662	108.92
281.894	115.12
282.125	108.73
282.356	108.73
282.588	116.52
282.819	104.73
283.051	118.92
283.282	126.52
283.513	134.52
283.745	118.73
283.976	109.52
284.207	103.92
284.439	105.12
284.67	101.92
284.901	94.92
285.132	100.12
285.364	101.52
285.595	96.92
285.826	99.12
286.057	98.52
286.288	106.73
286.52	100.33
286.751	104.73
286.982	106.92
287.213	112.52
287.444	123.33
287.675	116.12
287.906	105.52
288.138	101.12
288.369	97.33
288.6	97.33
288.831	89.52
289.062	95.52
289.293	100.52
289.524	94.73
289.755	88.33
289.986	95.73
290.217	93.33
290.448	97.33
290.679	99.73
290.91	104.92
291.141	91.52
291.371	100.92
291.602	101.73
291.833	95.33
292.064	97.33
292.295	93.92
292.526	96.12
292.757	95.12
292.987	97.33
293.218	93.12
293.449	95.33
293.68	98.73
293.91	93.52
294.141	99.92
294.372	99.33
294.603	100.73
294.833	98.33
295.064	100.33
295.295	100.52
295.525	97.92
295.756	100.33
295.987	104.52
296.217	94.12
296.448	99.52
296.679	96.73
296.909	99.12
297.14	94.92
297.37	106.33
297.601	100.52
297.831	103.52
298.062	97.33
298.292	98.92
298.523	103.52
298.753	92.52
298.984	95.92
299.214	98.52
299.445	96.92
299.675	101.73
299.905	96.52
300.136	94.92
300.366	92.73
300.597	87.73
300.827	97.92
301.057	96.52
301.288	97.12
301.518	98.33
301.748	98.12
301.979	105.33
302.209	98.33
302.439	97.33
302.669	105.92
302.9	102.73
303.13	98.52
303.36	95.92
303.59	99.92
303.82	93.52
304.051	102.92
304.281	104.12
304.511	106.12
304.741	98.73
304.971	94.33
305.201	100.33
305.431	98.52
305.661	98.52
305.891	95.92
306.121	99.73
306.352	92.73
306.582	100.73
306.812	102.33
307.042	96.33
307.272	97.73
307.502	97.92
307.731	101.12
307.961	96.92
308.191	99.12
308.421	96.12
308.651	107.12
308.881	97.52
309.111	95.33
309.341	95.12
309.571	103.92
309.8	98.52
310.03	97.52
310.26	100.73
310.49	105.52
310.72	103.33
310.949	101.12
311.179	102.73
311.409	100.52
311.639	102.33
311.868	105.92
312.098	105.33
312.328	100.33
312.557	96.73
312.787	101.12
313.017	98.73
313.246	95.73
313.476	100.73
313.706	107.33
313.935	104.12
314.165	102.92
314.394	106.73
314.624	107.52
314.853	108.12
315.083	114.92
315.312	107.52
315.542	105.12
315.771	107.92
316.001	105.52
316.23	110.52
316.46	103.33
316.689	100.33
316.919	101.73
317.148	104.12
317.377	108.92
317.607	96.73
317.836	105.52
318.065	97.92
318.295	100.33
318.524	106.52
318.753	100.73
318.983	103.12
319.212	102.73
319.441	102.92
319.67	105.92
319.9	99.33
320.129	104.92
320.358	104.73
320.587	100.73
320.816	100.52
321.046	96.12
321.275	98.33
321.504	100.52
321.733	93.73
321.962	97.33
322.191	111.33
322.42	97.12
322.649	97.52
322.878	99.73
323.108	103.92
323.337	96.73
323.566	101.92
323.795	100.52
324.024	100.52
324.253	102.52
324.482	100.12
324.71	99.92
324.939	104.92
325.168	102.52
325.397	105.12
325.626	105.73
325.855	106.52
326.084	107.73
326.313	106.73
326.542	98.52
326.77	98.12
326.999	94.73
327.228	108.73
327.457	105.12
327.686	106.52
327.914	98.12
328.143	101.92
328.372	95.12
328.6	105.73
328.829	103.33
329.058	104.73
329.287	104.12
329.515	105.52
329.744	102.52
329.972	95.92
330.201	101.73
330.43	99.92
330.658	103.33
330.887	98.92
331.115	100.33
331.344	97.73
331.572	105.52
331.801	98.92
332.03	104.92
332.258	100.73
332.486	101.92
332.715	104.33
332.943	100.73
333.172	104.52
333.4	102.73
333.629	99.52
333.857	100.33
334.085	97.92
334.314	102.92
334.542	100.92
334.771	100.12
334.999	104.33
335.227	96.33
335.455	101.33
335.684	110.52
335.912	99.92
336.14	104.33
336.369	98.12
336.597	97.73
336.825	100.73
337.053	98.73
337.281	101.12
337.51	99.92
337.738	101.73
337.966	106.12
338.194	96.52
338.422	97.92
338.65	99.73
338.878	98.92
339.106	107.52
339.334	101.33
339.562	103.33
339.79	98.33
340.018	112.12
340.246	97.33
340.474	98.33
340.702	104.73
340.93	97.12
341.158	103.12
341.386	100.73
341.614	96.73
341.842	99.73
342.07	102.52
342.298	98.73
342.526	95.12
342.754	105.33
342.981	96.33
343.209	100.92
343.437	105.33
343.665	102.92
343.893	103.12
344.12	101.12
344.348	97.33
344.576	99.92
344.804	99.73
345.031	104.52
345.259	103.52
345.487	100.92
345.714	99.33
345.942	95.12
346.17	101.52
346.397	99.73
346.625	104.73
346.853	99.73
347.08	97.92
347.308	103.52
347.535	97.12
347.763	100.33
347.99	101.12
348.218	104.52
348.445	102.33
348.673	99.33
348.9	96.73
349.128	102.12
349.355	103.12
349.583	98.52
349.81	105.33
350.037	93.92
350.265	104.33
350.492	101.33
350.72	97.33
350.947	99.12
351.174	99.73
351.402	99.12
351.629	99.12
351.856	99.52
352.083	96.52
352.311	96.12
352.538	101.33
352.765	106.33
352.992	104.12
353.22	100.92
353.447	97.73
353.674	104.33
353.901	105.33
354.128	102.73
354.355	99.52
354.583	102.33
354.81	93.12
355.037	107.52
355.264	100.92
355.491	103.52
355.718	97.12
355.945	99.92
356.172	103.73
356.399	107.73
356.626	105.33
356.853	119.73
357.08	133.92
357.307	152.73
357.534	146.12
357.761	137.12
357.988	121.12
358.215	111.92
358.441	110.12
358.668	109.73
358.895	103.12
359.122	103.12
359.349	109.12
359.576	110.52
359.802	109.52
360.029	101.92
360.256	102.73
360.483	105.52
360.709	103.12
360.936	107.33
361.163	104.92
361.39	101.12
361.616	103.52
361.843	103.73
362.07	113.52
362.296	99.92
362.523	99.73
362.749	109.73
362.976	110.92
363.203	114.92
363.429	117.92
363.656	133.33
363.882	161.12
364.109	174.92
364.335	149.12
364.562	120.92
364.788	118.12
365.015	118.12
365.241	108.92
365.468	111.52
365.694	106.12
365.92	108.12
366.147	102.73
366.373	106.73
366.599	104.12
366.826	114.33
367.052	117.73
367.278	122.12
367.505	118.92
367.731	126.52
367.957	144.12
368.184	179.52
368.41	211.33
368.636	190.12
368.862	144.12
369.089	129.92
369.315	113.92
369.541	116.12
369.767	113.33
369.993	110.33
370.219	109.12
370.445	106.73
370.672	104.52
370.898	105.73
371.124	109.92
371.35	108.73
371.576	104.12
371.802	101.33
372.028	104.73
372.254	111.73
372.48	108.73
372.706	111.33
372.932	104.12
373.158	101.92
373.384	119.33
373.61	118.52
373.835	141.73
374.061	161.73
374.287	153.52
374.513	125.73
374.739	120.33
374.965	113.12
375.191	113.12
375.416	102.92
375.642	103.12
375.868	105.73
376.094	109.92
376.319	106.73
376.545	109.92
376.771	107.73
376.997	101.73
377.222	98.52
377.448	104.12
377.674	102.33
377.899	105.92
378.125	96.52
378.35	104.12
378.576	104.73
378.802	105.33
379.027	106.33
379.253	109.73
379.478	103.12
379.704	104.33
379.929	111.12
380.155	101.52
380.38	100.73
380.606	103.52
380.831	109.12
381.057	110.92
381.282	104.52
381.507	102.52
381.733	92.73
381.958	94.92
382.184	106.33
382.409	97.92
382.634	101.92
382.86	105.12
383.085	105.33
383.31	102.73
383.535	105.12
383.761	105.33
383.986	106.73
384.211	99.73
384.436	102.52
384.662	102.73
384.887	104.52
385.112	102.92
385.337	105.92
385.562	101.52
385.787	105.12
386.013	98.33
386.238	100.12
386.463	95.92
386.688	105.92
386.913	99.92
387.138	104.12
387.363	105.92
387.588	106.52
387.813	103.33
388.038	103.92
388.263	107.12
388.488	102.12
388.713	100.92
388.938	102.52
389.163	104.73
389.387	103.92
389.612	97.73
389.837	101.73
390.062	105.52
390.287	95.52
390.512	103.12
390.736	104.12
390.961	101.52
391.186	103.52
391.411	110.92
391.636	100.73
391.86	99.73
392.085	103.33
392.31	97.92
392.534	109.33
392.759	105.33
392.984	100.92
393.208	105.12
393.433	105.12
393.658	95.52
393.882	100.12
394.107	109.92
394.331	104.33
394.556	104.33
394.78	107.92
395.005	103.33
395.229	103.73
395.454	105.92
395.678	99.92
395.903	99.52
396.127	102.92
396.352	102.73
396.576	103.33
396.801	101.52
397.025	98.73
397.249	111.73
397.474	104.33
397.698	102.52
397.922	106.52
398.147	94.33
398.371	94.92
398.595	103.33
398.82	101.73
399.044	109.33
399.268	105.52
399.492	104.92
399.717	110.73
399.941	105.33
400.165	112.52
400.389	102.33
400.613	105.52
400.837	108.12
401.062	106.33
401.286	107.92
401.51	108.12
401.734	113.33
401.958	118.52
402.182	111.33
402.406	110.52
402.63	107.92
402.854	110.33
403.078	108.52
403.302	103.33
403.526	104.73
403.75	106.73
403.974	106.33
404.198	113.73
404.422	116.52
404.645	114.33
404.869	123.33
405.093	125.33
405.317	144.33
405.541	187.33
405.765	263.73
405.988	285.73
406.212	231.12
406.436	174.73
406.66	144.12
406.883	134.12
407.107	119.73
407.331	126.92
407.555	121.73
407.778	119.73
408.002	115.33
408.226	118.12
408.449	119.12
408.673	113.33
408.896	112.33
409.12	108.92
409.344	113.92
409.567	107.92
409.791	109.12
410.014	114.33
410.238	111.52
410.461	109.73
410.685	110.52
410.908	108.73
411.132	108.33
411.355	111.33
411.578	104.12
411.802	109.92
412.025	104.12
412.249	110.92
412.472	110.12
412.695	105.92
412.919	104.33
413.142	109.73
413.365	104.52
413.589	104.33
413.812	105.12
414.035	107.92
414.258	105.73
414.482	111.33
414.705	110.73
414.928	108.92
415.151	110.73
415.374	107.73
415.597	116.52
415.821	116.33
416.044	105.92
416.267	115.52
416.49	108.52
416.713	116.92
416.936	109.33
417.159	108.73
417.382	108.12
417.605	112.33
417.828	109.73
418.051	110.92
418.274	111.33
418.497	105.52
418.72	103.92
418.943	112.52
419.166	110.12
419.389	111.52
419.611	112.52
419.834	103.92
420.057	108.52
420.28	109.33
420.503	108.73
420.726	110.92
420.948	107.73
421.171	105.92
421.394	113.92
421.617	109.92
421.839	112.73
422.062	114.92
422.285	112.33
422.507	111.52
422.73	113.92
422.953	115.52
423.175	111.33
423.398	119.12
423.621	124.12
423.843	126.92
424.066	136.92
424.288	148.12
424.511	171.33
424.733	174.73
424.956	165.12
425.178	147.52
425.401	140.92
425.623	129.73
425.846	137.33
426.068	124.73
426.291	125.92
426.513	121.52
426.735	120.73
426.958	124.52
427.18	124.33
427.402	113.52
427.625	123.73
427.847	116.73
428.069	116.52
428.292	114.52
428.514	117.12
428.736	117.92
428.958	113.33
429.181	115.12
429.403	113.12
429.625	106.92
429.847	111.52
430.069	114.12
430.292	110.52
430.514	110.52
430.736	106.92
430.958	113.52
431.18	109.33
431.402	120.12
431.624	110.92
431.846	103.92
432.068	104.73
432.29	111.52
432.512	111.52
432.734	109.52
432.956	109.52
433.178	114.52
433.4	114.52
433.622	116.73
433.844	122.92
434.066	108.73
434.287	110.52
434.509	111.12
434.731	117.33
434.953	115.52
435.175	113.52
435.397	115.73
435.618	105.92
435.84	113.12
436.062	111.73
436.284	109.33
436.505	114.92
436.727	112.52
436.949	116.73
437.17	119.92
437.392	124.33
437.614	121.33
437.835	123.12
438.057	131.92
438.278	135.52
438.5	143.92
438.721	164.12
438.943	167.12
439.165	156.12
439.386	148.33
439.608	145.12
439.829	129.73
440.05	136.12
440.272	132.73
440.493	131.92
440.715	138.73
440.936	144.33
441.158	136.52
441.379	133.73
441.6	132.52
441.822	128.52
442.043	127.73
442.264	118.12
442.486	123.33
442.707	122.52
442.928	116.92
443.149	120.33
443.371	117.92
443.592	113.52
443.813	122.52
444.034	115.33
444.255	113.92
444.476	122.12
444.698	119.33
444.919	116.12
445.14	186.12
445.361	150.12
445.582	120.33
445.803	112.92
446.024	115.12
446.245	118.92
446.466	118.33
446.687	113.52
446.908	119.73
447.129	110.73
447.35	113.52
447.571	114.52
447.792	118.33
448.013	115.12
448.234	108.52
448.455	107.92
448.675	109.52
448.896	109.33
449.117	108.52
449.338	113.92
449.559	119.73
449.779	110.92
450	115.33
450.221	111.92
450.442	108.52
450.662	104.52
450.883	107.73
451.104	114.33
451.324	108.33
451.545	106.92
451.766	101.73
451.986	104.12
452.207	110.73
452.428	110.33
452.648	114.92
452.869	104.12
453.089	112.33
453.31	110.92
453.53	102.52
453.751	109.33
453.971	112.92
454.192	103.12
454.412	103.33
454.633	111.73
454.853	102.33
455.073	103.73
455.294	105.92
455.514	104.92
455.734	108.73
455.955	101.52
456.175	106.92
456.395	100.52
456.616	105.52
456.836	106.92
457.056	102.33
457.276	104.33
457.497	107.12
457.717	103.52
457.937	104.33
458.157	110.52
458.377	101.73
458.598	102.73
458.818	108.12
459.038	103.12
459.258	102.33
459.478	102.73
459.698	108.73
459.918	105.12
460.138	106.73
460.358	104.33
460.578	115.33
460.798	113.33
461.018	107.12
461.238	116.12
461.458	111.12
461.678	104.73
461.898	108.12
462.118	110.73
462.338	107.33
462.558	111.12
462.777	108.12
462.997	115.12
463.217	113.92
463.437	111.52
463.657	109.92
463.876	110.92
464.096	107.33
464.316	105.52
464.536	121.92
464.755	104.52
464.975	104.73
465.195	109.73
465.414	106.73
465.634	121.52
465.854	101.52
466.073	107.73
466.293	112.73
466.512	112.12
466.732	109.73
466.951	106.73
467.171	106.33
467.391	104.92
467.61	103.33
467.829	104.52
468.049	101.52
468.268	112.33
468.488	105.33
468.707	107.52
468.927	106.12
469.146	109.12
469.365	105.73
469.585	109.33
469.804	111.52
470.023	104.33
470.243	112.73
470.462	107.92
470.681	110.33
470.901	109.92
471.12	108.12
471.339	113.52
471.558	108.12
471.777	106.33
471.997	107.73
472.216	105.12
472.435	107.73
472.654	101.33
472.873	109.12
473.092	111.12
473.311	100.33
473.53	106.12
473.749	111.92
473.968	107.73
474.187	111.92
474.406	101.52
474.625	111.52
474.844	109.52
475.063	106.92
475.282	111.12
475.501	101.92
475.72	116.33
475.939	112.92
476.158	109.92
476.377	104.92
476.596	113.12
476.814	111.33
477.033	109.12
477.252	108.33
477.471	107.52
477.69	109.92
477.908	108.12
478.127	114.73
478.346	113.73
478.564	109.33
478.783	111.12
479.002	113.52
479.22	121.12
479.439	113.12
479.658	111.12
479.876	108.52
480.095	112.73
480.313	117.92
480.532	109.92
480.751	112.73
480.969	108.92
481.188	115.33
481.406	113.92
481.624	108.73
481.843	108.52
482.061	102.12
482.28	111.92
482.498	111.92
482.717	114.92
482.935	119.33
483.153	112.33
483.372	109.73
483.59	116.33
483.808	118.12
484.027	111.12
484.245	113.33
484.463	115.12
484.681	120.92
484.9	110.73
485.118	114.52
485.336	106.52
485.554	113.12
485.772	108.52
485.99	104.92
486.209	105.73
486.427	110.73
486.645	110.73
486.863	111.92
487.081	115.12
487.299	115.73
487.517	108.92
487.735	113.12
487.953	115.12
488.171	120.73
488.389	120.73
488.607	105.73
488.825	110.52
489.043	117.73
489.261	116.12
489.479	120.73
489.696	121.33
489.914	114.52
490.132	116.52
490.35	119.52
490.568	114.92
490.786	115.92
491.003	120.12
491.221	116.12
491.439	116.33
491.657	117.73
491.874	117.73
492.092	125.12
492.31	128.52
492.527	117.52
492.745	118.33
492.963	126.12
493.18	120.73
493.398	113.92
493.615	119.52
493.833	117.52
494.05	122.52
494.268	115.92
494.485	124.73
494.703	118.92
494.92	117.12
495.138	123.73
495.355	121.52
495.573	120.92
495.79	114.73
496.008	122.12
496.225	115.92
496.442	120.92
496.66	122.73
496.877	120.73
497.094	121.73
497.312	121.92
497.529	130.52
497.746	120.52
497.963	119.92
498.181	120.73
498.398	120.12
498.615	121.33
498.832	123.52
499.049	117.73
499.267	127.52
499.484	123.12
499.701	135.92
499.918	135.12
500.135	139.92
500.352	143.12
500.569	148.92
500.786	157.52
501.003	150.33
501.22	136.52
501.437	137.52
501.654	132.12
501.871	126.33
502.088	123.52
502.305	125.73
502.522	128.33
502.739	122.52
502.956	119.12
503.172	125.12
503.389	122.33
503.606	125.33
503.823	122.12
504.04	130.33
504.256	128.12
504.473	132.33
504.69	125.52
504.907	137.52
505.123	125.52
505.34	121.92
505.557	124.92
505.773	118.52
505.99	122.73
506.207	129.12
506.423	119.52
506.64	116.73
506.856	127.92
507.073	117.33
507.289	114.12
507.506	114.92
507.722	118.52
507.939	117.92
508.155	113.73
508.372	118.52
508.588	111.92
508.805	110.33
509.021	109.33
509.238	115.33
509.454	116.73
509.67	113.52
509.887	112.33
510.103	117.73
510.319	111.92
510.536	109.73
510.752	113.12
510.968	107.73
511.184	112.12
511.401	109.52
511.617	111.52
511.833	108.33
512.049	109.33
512.265	109.92
512.481	114.92
512.698	107.92
512.914	112.52
513.13	117.12
513.346	108.33
513.562	118.12
513.778	107.52
513.994	109.52
514.21	106.73
514.426	110.12
514.642	114.73
514.858	112.52
515.074	112.92
515.29	113.92
515.506	112.73
515.721	116.33
515.937	117.73
516.153	104.52
516.369	116.73
516.585	116.73
516.801	114.73
517.016	115.73
517.232	113.73
517.448	111.12
517.664	109.73
517.879	111.12
518.095	110.33
518.311	108.12
518.527	109.52
518.742	112.52
518.958	106.92
519.173	113.12
519.389	105.12
519.605	107.92
519.82	105.12
520.036	116.12
520.251	113.33
520.467	114.52
520.682	111.12
520.898	111.33
521.113	107.33
521.329	109.52
521.544	105.92
521.76	111.73
521.975	114.33
522.19	114.92
522.406	109.73
522.621	113.73
522.836	118.12
523.052	116.92
523.267	111.92
523.482	112.73
523.698	105.52
523.913	106.92
524.128	107.52
524.343	112.73
524.559	116.33
524.774	100.33
524.989	109.73
525.204	112.92
525.419	105.12
525.634	103.33
525.849	105.73
526.064	111.73
526.28	113.33
526.495	102.92
526.71	110.12
526.925	109.33
527.14	108.73
527.355	100.92
527.57	107.33
527.785	107.33
527.999	112.92
528.214	113.73
528.429	111.73
528.644	111.52
528.859	109.92
529.074	108.12
529.289	116.92
529.503	116.52
529.718	112.33
529.933	112.12
530.148	110.73
530.363	117.73
530.577	113.52
530.792	108.92
531.007	106.52
531.221	109.73
531.436	107.52
531.651	108.52
531.865	107.12
532.08	100.52
532.295	108.73
532.509	110.73
532.724	111.33
532.938	114.92
533.153	111.33
533.367	109.73
533.582	106.52
533.796	108.12
534.011	105.33
534.225	106.73
534.44	106.73
534.654	106.73
534.868	108.33
535.083	110.73
535.297	111.52
535.511	111.52
535.726	108.73
535.94	112.73
536.154	120.73
536.369	117.12
536.583	118.52
536.797	124.33
537.011	118.73
537.225	131.33
537.44	143.12
537.654	137.12
537.868	134.92
538.082	121.52
538.296	124.33
538.51	129.52
538.724	124.92
538.938	118.52
539.153	126.52
539.367	123.52
539.581	113.52
539.795	112.92
540.009	116.92
540.222	113.92
540.436	113.33
540.65	108.52
540.864	105.92
541.078	114.73
541.292	114.73
541.506	114.92
541.72	105.92
541.934	107.52
542.147	107.12
542.361	113.73
542.575	108.52
542.789	108.92
543.002	108.73
543.216	110.73
543.43	112.33
543.644	107.73
543.857	109.92
544.071	98.73
544.285	110.73
544.498	106.12
544.712	104.33
544.925	108.73
545.139	113.92
545.352	109.33
545.566	105.12
545.779	108.73
545.993	106.92
546.206	103.52
546.42	110.52
546.633	101.52
546.847	115.52
547.06	107.92
547.274	106.73
547.487	107.33
547.7	103.12
547.914	104.92
548.127	105.92
548.34	106.52
548.554	109.92
548.767	112.12
548.98	109.33
549.193	108.92
549.407	110.33
549.62	105.73
549.833	110.52
550.046	107.52
550.259	111.12
550.473	112.12
550.686	111.33
550.899	108.73
551.112	109.52
551.325	105.92
551.538	106.33
551.751	105.12
551.964	106.12
552.177	110.12
552.39	105.52
552.603	105.12
552.816	113.12
553.029	110.92
553.242	109.52
553.455	113.73
553.667	112.33
553.88	115.92
554.093	114.52
554.306	111.92
554.519	114.92
554.732	118.92
554.944	118.73
555.157	120.73
555.37	114.33
555.583	108.92
555.795	116.52
556.008	114.52
556.221	116.12
556.433	112.73
556.646	114.33
556.859	107.33
557.071	111.12
557.284	115.92
557.496	112.33
557.709	107.12
557.921	114.73
558.134	115.33
558.346	118.92
558.559	116.92
558.771	118.73
558.984	115.52
559.196	122.12
559.409	122.52
559.621	127.92
559.833	131.52
560.046	133.52
560.258	136.52
560.47	146.52
560.683	172.12
560.895	199.73
561.107	223.33
561.32	166.73
561.532	154.12
561.744	132.12
561.956	131.33
562.168	131.12
562.381	120.92
562.593	119.12
562.805	118.12
563.017	119.52
563.229	117.33
563.441	112.52
563.653	109.92
563.865	106.52
564.077	108.33
564.289	111.33
564.501	107.92
564.713	109.33
564.925	111.33
565.137	108.12
565.349	103.12
565.561	99.52
565.773	101.12
565.985	108.92
566.197	108.73
566.408	104.92
566.62	110.33
566.832	109.73
567.044	109.33
567.255	109.92
567.467	107.73
567.679	108.92
567.891	107.73
568.102	107.92
568.314	102.73
568.526	113.12
568.737	114.12
568.949	104.52
569.161	103.73
569.372	101.52
569.584	103.52
569.795	110.52
570.007	95.92
570.218	101.92
570.43	105.52
570.641	104.73
570.853	97.12
571.064	101.33
571.276	96.52
571.487	97.73
571.698	96.73
571.91	101.52
572.121	106.12
572.333	98.52
572.544	93.92
572.755	94.12
572.966	96.52
573.178	97.33
573.389	95.52
573.6	94.33
573.811	101.33
574.023	106.33
574.234	103.52
574.445	99.52
574.656	97.33
574.867	99.92
575.078	99.12
575.289	103.12
575.501	99.12
575.712	96.33
575.923	98.33
576.134	98.52
576.345	97.92
576.556	101.33
576.767	103.92
576.978	97.52
577.188	91.52
577.399	96.33
577.61	97.12
577.821	92.52
578.032	89.73
578.243	91.12
578.454	93.92
578.665	98.52
578.875	102.73
579.086	93.12
579.297	86.73
579.508	94.73
579.718	95.73
579.929	99.52
580.14	98.12
580.35	97.52
580.561	95.12
580.772	99.73
580.982	93.33
581.193	103.73
581.403	102.33
581.614	97.52
581.825	97.52
582.035	93.92
582.246	96.73
582.456	94.73
582.667	101.12
582.877	95.52
583.087	97.33
583.298	97.12
583.508	90.12
583.719	94.12
583.929	97.52
584.139	93.52
584.35	95.52
584.56	102.73
584.77	98.52
584.981	97.92
585.191	97.73
585.401	97.33
585.611	96.33
585.821	95.52
586.032	97.92
586.242	97.33
586.452	98.73
586.662	93.73
586.872	101.92
587.082	101.12
587.292	91.73
587.502	95.52
587.713	99.92
587.923	102.33
588.133	92.33
588.343	95.52
588.553	95.12
588.762	99.33
588.972	94.33
589.182	98.73
589.392	89.92
589.602	98.52
589.812	93.12
590.022	96.92
590.232	93.12
590.441	88.33
590.651	100.52
590.861	94.33
591.071	97.92
591.281	92.12
591.49	93.92
591.7	93.92
591.91	101.12
592.119	94.73
592.329	90.73
592.539	91.52
592.748	101.73
592.958	93.52
593.167	93.12
593.377	96.12
593.587	96.92
593.796	97.92
594.006	93.73
594.215	96.33
594.424	96.12
594.634	92.12
594.843	97.12
595.053	99.33
595.262	96.52
595.472	92.92
595.681	93.92
595.89	89.73
596.1	92.92
596.309	96.52
596.518	89.92
596.727	100.52
596.937	91.52
597.146	83.12
597.355	90.73
597.564	97.12
597.774	95.33
597.983	89.73
598.192	96.52
598.401	89.33
598.61	96.92
598.819	91.12
599.028	95.73
599.237	98.52
599.446	92.73
599.655	93.52
599.864	98.92
600.073	93.33
600.282	100.52
600.491	95.12
600.7	94.52
600.909	97.52
601.118	89.33
601.327	91.33
601.536	85.12
601.745	96.73
601.953	91.92
602.162	96.33
602.371	91.33
602.58	92.52
602.789	93.73
602.997	102.33
603.206	89.33
603.415	91.92
603.623	94.73
603.832	94.92
604.041	89.92
604.249	98.12
604.458	94.52
604.666	88.12
604.875	93.73
605.084	92.92
605.292	91.12
605.501	96.52
605.709	101.12
605.918	92.52
606.126	88.52
606.334	89.33
606.543	89.33
606.751	90.73
606.96	91.12
607.168	95.52
607.376	97.92
607.585	94.12
607.793	92.92
608.001	92.92
608.21	97.33
608.418	85.33
608.626	90.92
608.834	94.73
609.043	90.52
609.251	96.52
609.459	93.33
609.667	92.12
609.875	90.92
610.083	86.12
610.291	93.92
610.499	86.92
610.707	90.33
610.916	84.92
611.124	90.92
611.332	85.52
611.54	86.52
611.748	96.52
611.955	92.92
612.163	91.92
612.371	92.73
612.579	84.33
612.787	88.73
612.995	88.52
613.203	95.73
613.411	87.33
613.618	89.52
613.826	95.92
614.034	96.33
614.242	88.12
614.449	89.12
614.657	84.12
614.865	93.92
615.072	87.73
615.28	93.33
615.488	85.73
615.695	92.33
615.903	92.12
616.111	87.92
616.318	91.33
616.526	89.12
616.733	90.92
616.941	89.92
617.148	90.73
617.356	87.52
617.563	95.92
617.771	92.73
617.978	88.73
618.185	85.92
618.393	86.33
618.6	88.73
618.807	87.33
619.015	92.52
619.222	87.12
619.429	90.33
619.637	94.33
619.844	86.52
620.051	90.92
620.258	92.12
620.466	95.12
620.673	85.73
620.88	88.33
621.087	88.12
621.294	90.33
621.501	85.12
621.708	92.12
621.915	90.73
622.122	89.73
622.329	85.92
622.536	92.73
622.743	92.12
622.95	93.33
623.157	92.12
623.364	86.92
623.571	86.92
623.778	82.52
623.985	86.73
624.192	90.33
624.399	80.12
624.606	90.73
624.812	88.33
625.019	85.12
625.226	87.92
625.433	85.73
625.639	81.52
625.846	86.12
626.053	85.92
626.259	86.12
626.466	92.12
626.673	88.12
626.879	86.73
627.086	88.73
627.293	91.92
627.499	91.12
627.706	87.12
627.912	91.73
628.119	87.33
628.325	94.33
628.532	86.12
628.738	86.12
628.945	87.52
629.151	87.52
629.357	89.52
629.564	90.12
629.77	87.73
629.976	92.92
630.183	83.73
630.389	91.92
630.595	91.52
630.802	85.52
631.008	86.92
631.214	85.92
631.42	89.73
631.627	88.92
631.833	89.12
632.039	90.73
632.245	89.92
632.451	93.12
632.657	89.33
632.863	86.73
633.069	90.73
633.275	85.12
633.481	82.92
633.688	89.33
633.893	92.73
634.099	87.52
634.305	90.52
634.511	89.92
634.717	93.12
634.923	84.52
635.129	85.52
635.335	86.52
635.541	87.33
635.747	90.52
635.952	90.92
636.158	89.92
636.364	94.12
636.57	91.92
636.775	91.33
636.981	79.52
637.187	87.33
637.392	88.33
637.598	83.73
637.804	91.33
638.009	89.33
638.215	86.33
638.421	87.73
638.626	88.52
638.832	85.92
639.037	85.92
639.243	90.73
639.448	86.12
639.654	85.52
639.859	85.12
640.065	85.33
640.27	90.92
640.475	83.33
640.681	84.52
640.886	87.52
641.091	89.33
641.297	90.33
641.502	86.52
641.707	90.73
641.913	87.52
642.118	88.12
642.323	89.52
642.528	89.52
642.733	92.33
642.939	89.73
643.144	85.52
643.349	85.73
643.554	90.73
643.759	89.52
643.964	86.33
644.169	89.12
644.374	83.52
644.579	85.52
644.784	91.52
644.989	80.12
645.194	80.12
645.399	92.12
645.604	82.73
645.809	89.73
646.014	86.73
646.219	84.73
646.423	89.33
646.628	86.52
646.833	88.92
647.038	82.52
647.243	91.52
647.447	86.33
647.652	84.73
647.857	83.92
648.062	87.33
648.266	83.12
648.471	92.52
648.676	88.92
648.88	89.73
649.085	86.52
649.289	86.73
649.494	83.92
649.698	84.73
649.903	90.73
650.107	84.52
650.312	91.52
650.516	88.73
650.721	83.73
650.925	81.52
651.13	90.52
651.334	80.92
651.539	84.52
651.743	85.73
651.947	87.52
652.152	82.12
652.356	91.33
652.56	86.12
652.764	88.73
652.969	84.52
653.173	80.33
653.377	82.73
653.581	84.12
653.785	88.52
653.99	88.12
654.194	88.92
654.398	90.12
654.602	89.12
654.806	80.52
655.01	90.73
655.214	87.73
655.418	88.33
655.622	90.33
655.826	93.73
656.03	94.52
656.234	82.33
656.438	82.52
656.642	80.73
656.846	87.12
657.049	85.33
657.253	82.33
657.457	86.73
657.661	87.92
657.865	81.92
658.068	85.92
658.272	84.12
658.476	84.92
658.68	78.92
658.883	87.12
659.087	89.52
659.291	82.73
659.494	76.92
659.698	84.92
659.901	80.12
660.105	89.33
660.309	82.33
660.512	82.52
660.716	76.12
660.919	87.33
661.123	85.12
661.326	82.73
661.53	82.52
661.733	84.73
661.936	84.52
662.14	77.52
662.343	88.33
662.546	80.52
662.75	85.92
662.953	89.52
663.156	92.92
663.36	85.12
663.563	81.12
663.766	85.92
663.969	81.12
664.173	80.52
664.376	83.73
664.579	81.92
664.782	79.33
664.985	81.52
665.188	81.73
665.391	84.12
665.594	82.73
665.797	83.73
666	80.73
666.203	84.73
666.406	83.73
666.609	80.92
666.812	85.52
667.015	77.33
667.218	80.73
667.421	79.92
667.624	76.52
667.827	81.73
668.03	78.12
668.232	85.33
668.435	82.92
668.638	77.33
668.841	91.52
669.043	79.52
669.246	83.12
669.449	90.12
669.651	84.52
669.854	81.33
670.057	80.73
670.259	82.52
670.462	80.33
670.665	80.12
670.867	84.52
671.07	87.52
671.272	87.52
671.475	86.12
671.677	83.73
671.88	85.52
672.082	82.52
672.284	84.33
672.487	86.73
672.689	78.92
672.892	83.52
