Data from Uncirc_1992_H10_HRD10591_00077.txt Node
Date: Wed Jan 03 11:46:31 EST 2024
User: Yrep
Spectrometer: HR+D1059
Trigger mode: 1
Integration Time (sec): 1.000000E-1
Scans to average: 1
Electric dark correction enabled: true
Nonlinearity correction enabled: false
Boxcar width: 0
XAxis mode: Wavelengths
Number of Pixels in Spectrum: 2048
>>>>>Begin Spectral Data<<<<<
223.165	-13.81
223.4	-13.81
223.635	-13.81
223.869	-20.81
224.104	-20.81
224.338	-22.81
224.573	-14.81
224.808	-11.81
225.042	-22.81
225.277	-4.81
225.511	1.19
225.746	2.19
225.98	7.19
226.215	22.19
226.449	25.19
226.683	20.19
226.918	26.19
227.152	28.19
227.387	34.19
227.621	30.19
227.856	37.19
228.09	48.19
228.324	52.19
228.559	65.19
228.793	58.19
229.027	64.19
229.262	64.19
229.496	77.19
229.73	93.19
229.964	86.19
230.199	64.19
230.433	93.19
230.667	75.19
230.901	75.19
231.136	80.19
231.37	76.19
231.604	75.19
231.838	88.19
232.072	77.19
232.306	94.19
232.541	82.19
232.775	86.19
233.009	88.19
233.243	85.19
233.477	82.19
233.711	86.19
233.945	82.19
234.179	88.19
234.413	96.19
234.647	89.19
234.881	77.19
235.115	85.19
235.349	72.19
235.583	82.19
235.817	79.19
236.051	82.19
236.285	75.19
236.519	72.19
236.753	75.19
236.987	68.19
237.221	83.19
237.455	78.19
237.689	82.19
237.922	83.19
238.156	82.19
238.39	70.19
238.624	84.19
238.858	84.19
239.091	82.19
239.325	85.19
239.559	85.19
239.793	82.19
240.027	87.19
240.26	84.19
240.494	87.19
240.728	91.19
240.961	79.19
241.195	89.19
241.429	78.19
241.662	66.19
241.896	64.19
242.13	77.19
242.363	70.19
242.597	72.19
242.83	81.19
243.064	70.19
243.298	78.19
243.531	85.19
243.765	71.19
243.998	82.19
244.232	91.19
244.465	97.19
244.699	69.19
244.932	77.19
245.166	88.19
245.399	93.19
245.633	83.19
245.866	80.19
246.099	81.19
246.333	83.19
246.566	73.19
246.8	72.19
247.033	78.19
247.266	87.19
247.5	79.19
247.733	81.19
247.966	100.19
248.2	87.19
248.433	100.19
248.666	94.19
248.899	89.19
249.133	93.19
249.366	68.19
249.599	91.19
249.832	70.19
250.066	102.19
250.299	79.19
250.532	83.19
250.765	89.19
250.998	99.19
251.231	80.19
251.465	85.19
251.698	83.19
251.931	89.19
252.164	72.19
252.397	84.19
252.63	85.19
252.863	85.19
253.096	80.19
253.329	85.19
253.562	76.19
253.795	88.19
254.028	84.19
254.261	82.19
254.494	89.19
254.727	91.19
254.96	75.19
255.193	70.19
255.426	88.19
255.659	71.19
255.892	84.19
256.124	87.19
256.357	88.19
256.59	85.19
256.823	71.19
257.056	95.19
257.289	88.19
257.521	86.19
257.754	84.19
257.987	71.19
258.22	91.19
258.452	88.19
258.685	95.19
258.918	95.19
259.151	72.19
259.383	90.19
259.616	97.19
259.849	84.19
260.081	76.19
260.314	88.19
260.547	98.19
260.779	85.19
261.012	90.19
261.244	82.19
261.477	88.19
261.71	93.19
261.942	109.19
262.175	114.19
262.407	104.19
262.64	81.19
262.872	85.19
263.105	90.19
263.337	87.19
263.57	82.19
263.802	80.19
264.035	100.19
264.267	79.19
264.499	85.19
264.732	98.19
264.964	71.19
265.197	75.19
265.429	75.19
265.661	93.19
265.894	92.19
266.126	95.19
266.358	87.19
266.591	88.19
266.823	99.19
267.055	79.19
267.287	84.19
267.52	77.19
267.752	80.19
267.984	95.19
268.216	77.19
268.448	93.19
268.681	91.19
268.913	107.19
269.145	84.19
269.377	91.19
269.609	93.19
269.841	83.19
270.073	86.19
270.306	97.19
270.538	100.19
270.77	101.19
271.002	84.19
271.234	95.19
271.466	86.19
271.698	87.19
271.93	81.19
272.162	86.19
272.394	97.19
272.626	81.19
272.858	98.19
273.09	93.19
273.322	80.19
273.553	88.19
273.785	77.19
274.017	84.19
274.249	92.19
274.481	87.19
274.713	82.19
274.945	83.19
275.176	91.19
275.408	83.19
275.64	99.19
275.872	86.19
276.104	92.19
276.335	90.19
276.567	86.19
276.799	107.19
277.031	100.19
277.262	101.19
277.494	85.19
277.726	86.19
277.957	91.19
278.189	96.19
278.421	82.19
278.652	95.19
278.884	84.19
279.115	87.19
279.347	87.19
279.579	88.19
279.81	80.19
280.042	85.19
280.273	92.19
280.505	87.19
280.736	83.19
280.968	90.19
281.199	93.19
281.431	100.19
281.662	84.19
281.894	86.19
282.125	94.19
282.356	117.19
282.588	143.19
282.819	112.19
283.051	92.19
283.282	95.19
283.513	94.19
283.745	85.19
283.976	90.19
284.207	86.19
284.439	87.19
284.67	95.19
284.901	83.19
285.132	97.19
285.364	100.19
285.595	80.19
285.826	85.19
286.057	82.19
286.288	92.19
286.52	78.19
286.751	90.19
286.982	87.19
287.213	92.19
287.444	102.19
287.675	103.19
287.906	90.19
288.138	95.19
288.369	95.19
288.6	79.19
288.831	79.19
289.062	90.19
289.293	85.19
289.524	88.19
289.755	75.19
289.986	88.19
290.217	89.19
290.448	95.19
290.679	84.19
290.91	86.19
291.141	86.19
291.371	93.19
291.602	81.19
291.833	82.19
292.064	85.19
292.295	88.19
292.526	88.19
292.757	103.19
292.987	94.19
293.218	94.19
293.449	92.19
293.68	95.19
293.91	94.19
294.141	96.19
294.372	82.19
294.603	91.19
294.833	85.19
295.064	85.19
295.295	92.19
295.525	100.19
295.756	104.19
295.987	104.19
296.217	116.19
296.448	114.19
296.679	108.19
296.909	110.19
297.14	100.19
297.37	79.19
297.601	93.19
297.831	79.19
298.062	79.19
298.292	86.19
298.523	77.19
298.753	94.19
298.984	107.19
299.214	81.19
299.445	91.19
299.675	98.19
299.905	104.19
300.136	91.19
300.366	91.19
300.597	83.19
300.827	83.19
301.057	84.19
301.288	93.19
301.518	95.19
301.748	88.19
301.979	91.19
302.209	88.19
302.439	85.19
302.669	88.19
302.9	87.19
303.13	96.19
303.36	82.19
303.59	96.19
303.82	100.19
304.051	99.19
304.281	85.19
304.511	96.19
304.741	93.19
304.971	80.19
305.201	113.19
305.431	97.19
305.661	79.19
305.891	87.19
306.121	94.19
306.352	99.19
306.582	107.19
306.812	84.19
307.042	86.19
307.272	96.19
307.502	97.19
307.731	99.19
307.961	82.19
308.191	91.19
308.421	91.19
308.651	89.19
308.881	100.19
309.111	88.19
309.341	90.19
309.571	101.19
309.8	85.19
310.03	89.19
310.26	89.19
310.49	83.19
310.72	87.19
310.949	99.19
311.179	106.19
311.409	93.19
311.639	103.19
311.868	99.19
312.098	90.19
312.328	107.19
312.557	103.19
312.787	107.19
313.017	104.19
313.246	96.19
313.476	92.19
313.706	102.19
313.935	90.19
314.165	105.19
314.394	102.19
314.624	101.19
314.853	87.19
315.083	84.19
315.312	94.19
315.542	89.19
315.771	92.19
316.001	101.19
316.23	100.19
316.46	93.19
316.689	106.19
316.919	104.19
317.148	127.19
317.377	97.19
317.607	110.19
317.836	110.19
318.065	95.19
318.295	84.19
318.524	88.19
318.753	95.19
318.983	100.19
319.212	100.19
319.441	108.19
319.67	100.19
319.9	91.19
320.129	86.19
320.358	91.19
320.587	96.19
320.816	101.19
321.046	104.19
321.275	107.19
321.504	90.19
321.733	99.19
321.962	89.19
322.191	90.19
322.42	86.19
322.649	109.19
322.878	105.19
323.108	121.19
323.337	132.19
323.566	124.19
323.795	136.19
324.024	181.19
324.253	345.19
324.482	667.19
324.71	1313.19
324.939	1720.19
325.168	658.19
325.397	207.19
325.626	135.19
325.855	112.19
326.084	114.19
326.313	115.19
326.542	137.19
326.77	198.19
326.999	370.19
327.228	747.19
327.457	1342.19
327.686	1033.19
327.914	308.19
328.143	177.19
328.372	144.19
328.6	106.19
328.829	97.19
329.058	143.19
329.287	111.19
329.515	104.19
329.744	101.19
329.972	93.19
330.201	95.19
330.43	102.19
330.658	114.19
330.887	128.19
331.115	113.19
331.344	113.19
331.572	104.19
331.801	103.19
332.03	102.19
332.258	102.19
332.486	92.19
332.715	84.19
332.943	94.19
333.172	104.19
333.4	103.19
333.629	114.19
333.857	96.19
334.085	94.19
334.314	102.19
334.542	98.19
334.771	110.19
334.999	99.19
335.227	104.19
335.455	113.19
335.684	96.19
335.912	105.19
336.14	96.19
336.369	94.19
336.597	104.19
336.825	99.19
337.053	96.19
337.281	91.19
337.51	85.19
337.738	92.19
337.966	99.19
338.194	88.19
338.422	102.19
338.65	103.19
338.878	102.19
339.106	108.19
339.334	105.19
339.562	104.19
339.79	92.19
340.018	93.19
340.246	86.19
340.474	86.19
340.702	71.19
340.93	91.19
341.158	88.19
341.386	98.19
341.614	86.19
341.842	95.19
342.07	94.19
342.298	92.19
342.526	91.19
342.754	98.19
342.981	65.19
343.209	95.19
343.437	114.19
343.665	92.19
343.893	91.19
344.12	86.19
344.348	90.19
344.576	78.19
344.804	72.19
345.031	105.19
345.259	107.19
345.487	102.19
345.714	104.19
345.942	96.19
346.17	94.19
346.397	95.19
346.625	102.19
346.853	84.19
347.08	102.19
347.308	94.19
347.535	93.19
347.763	105.19
347.99	103.19
348.218	95.19
348.445	100.19
348.673	106.19
348.9	92.19
349.128	103.19
349.355	92.19
349.583	87.19
349.81	112.19
350.037	100.19
350.265	100.19
350.492	109.19
350.72	89.19
350.947	109.19
351.174	97.19
351.402	102.19
351.629	105.19
351.856	113.19
352.083	96.19
352.311	94.19
352.538	81.19
352.765	109.19
352.992	118.19
353.22	126.19
353.447	97.19
353.674	83.19
353.901	112.19
354.128	90.19
354.355	95.19
354.583	99.19
354.81	94.19
355.037	102.19
355.264	100.19
355.491	85.19
355.718	97.19
355.945	97.19
356.172	94.19
356.399	94.19
356.626	93.19
356.853	96.19
357.08	86.19
357.307	96.19
357.534	88.19
357.761	88.19
357.988	87.19
358.215	84.19
358.441	85.19
358.668	102.19
358.895	87.19
359.122	94.19
359.349	108.19
359.576	94.19
359.802	101.19
360.029	86.19
360.256	103.19
360.483	105.19
360.709	86.19
360.936	76.19
361.163	99.19
361.39	95.19
361.616	102.19
361.843	90.19
362.07	96.19
362.296	99.19
362.523	81.19
362.749	94.19
362.976	88.19
363.203	91.19
363.429	99.19
363.656	83.19
363.882	87.19
364.109	91.19
364.335	97.19
364.562	85.19
364.788	93.19
365.015	97.19
365.241	103.19
365.468	95.19
365.694	99.19
365.92	101.19
366.147	97.19
366.373	83.19
366.599	93.19
366.826	95.19
367.052	83.19
367.278	79.19
367.505	100.19
367.731	89.19
367.957	92.19
368.184	95.19
368.41	96.19
368.636	123.19
368.862	97.19
369.089	94.19
369.315	95.19
369.541	101.19
369.767	92.19
369.993	80.19
370.219	84.19
370.445	89.19
370.672	101.19
370.898	106.19
371.124	103.19
371.35	96.19
371.576	88.19
371.802	88.19
372.028	83.19
372.254	86.19
372.48	82.19
372.706	83.19
372.932	88.19
373.158	87.19
373.384	81.19
373.61	98.19
373.835	83.19
374.061	87.19
374.287	86.19
374.513	97.19
374.739	84.19
374.965	77.19
375.191	81.19
375.416	112.19
375.642	91.19
375.868	100.19
376.094	95.19
376.319	75.19
376.545	103.19
376.771	92.19
376.997	75.19
377.222	87.19
377.448	88.19
377.674	95.19
377.899	101.19
378.125	110.19
378.35	91.19
378.576	83.19
378.802	95.19
379.027	109.19
379.253	100.19
379.478	91.19
379.704	101.19
379.929	90.19
380.155	103.19
380.38	95.19
380.606	111.19
380.831	96.19
381.057	107.19
381.282	97.19
381.507	101.19
381.733	86.19
381.958	113.19
382.184	113.19
382.409	104.19
382.634	101.19
382.86	97.19
383.085	103.19
383.31	94.19
383.535	103.19
383.761	105.19
383.986	107.19
384.211	85.19
384.436	94.19
384.662	93.19
384.887	100.19
385.112	92.19
385.337	108.19
385.562	102.19
385.787	109.19
386.013	100.19
386.238	96.19
386.463	102.19
386.688	97.19
386.913	97.19
387.138	107.19
387.363	101.19
387.588	106.19
387.813	110.19
388.038	105.19
388.263	102.19
388.488	93.19
388.713	100.19
388.938	100.19
389.163	100.19
389.387	107.19
389.612	104.19
389.837	89.19
390.062	83.19
390.287	77.19
390.512	102.19
390.736	100.19
390.961	108.19
391.186	81.19
391.411	104.19
391.636	102.19
391.86	91.19
392.085	84.19
392.31	79.19
392.534	99.19
392.759	89.19
392.984	96.19
393.208	81.19
393.433	90.19
393.658	91.19
393.882	83.19
394.107	84.19
394.331	96.19
394.556	96.19
394.78	102.19
395.005	96.19
395.229	90.19
395.454	93.19
395.678	96.19
395.903	92.19
396.127	113.19
396.352	87.19
396.576	94.19
396.801	90.19
397.025	87.19
397.249	97.19
397.474	89.19
397.698	91.19
397.922	88.19
398.147	96.19
398.371	100.19
398.595	95.19
398.82	83.19
399.044	74.19
399.268	98.19
399.492	105.19
399.717	82.19
399.941	86.19
400.165	98.19
400.389	86.19
400.613	102.19
400.837	97.19
401.062	90.19
401.286	94.19
401.51	77.19
401.734	86.19
401.958	103.19
402.182	120.19
402.406	143.19
402.63	113.19
402.854	94.19
403.078	77.19
403.302	87.19
403.526	101.19
403.75	87.19
403.974	90.19
404.198	89.19
404.422	86.19
404.645	88.19
404.869	95.19
405.093	76.19
405.317	82.19
405.541	95.19
405.765	97.19
405.988	112.19
406.212	172.19
406.436	218.19
406.66	118.19
406.883	99.19
407.107	80.19
407.331	101.19
407.555	90.19
407.778	83.19
408.002	95.19
408.226	100.19
408.449	89.19
408.673	92.19
408.896	93.19
409.12	101.19
409.344	96.19
409.567	86.19
409.791	95.19
410.014	91.19
410.238	94.19
410.461	101.19
410.685	90.19
410.908	108.19
411.132	112.19
411.355	94.19
411.578	97.19
411.802	92.19
412.025	85.19
412.249	86.19
412.472	104.19
412.695	88.19
412.919	87.19
413.142	95.19
413.365	96.19
413.589	92.19
413.812	87.19
414.035	96.19
414.258	95.19
414.482	109.19
414.705	73.19
414.928	91.19
415.151	98.19
415.374	100.19
415.597	91.19
415.821	82.19
416.044	82.19
416.267	88.19
416.49	88.19
416.713	92.19
416.936	84.19
417.159	86.19
417.382	89.19
417.605	93.19
417.828	93.19
418.051	99.19
418.274	99.19
418.497	81.19
418.72	94.19
418.943	95.19
419.166	85.19
419.389	92.19
419.611	84.19
419.834	80.19
420.057	91.19
420.28	79.19
420.503	93.19
420.726	89.19
420.948	84.19
421.171	94.19
421.394	87.19
421.617	93.19
421.839	89.19
422.062	93.19
422.285	109.19
422.507	97.19
422.73	100.19
422.953	84.19
423.175	94.19
423.398	87.19
423.621	79.19
423.843	91.19
424.066	89.19
424.288	97.19
424.511	92.19
424.733	95.19
424.956	103.19
425.178	102.19
425.401	83.19
425.623	80.19
425.846	88.19
426.068	96.19
426.291	88.19
426.513	105.19
426.735	85.19
426.958	80.19
427.18	100.19
427.402	115.19
427.625	143.19
427.847	112.19
428.069	96.19
428.292	91.19
428.514	90.19
428.736	80.19
428.958	89.19
429.181	92.19
429.403	77.19
429.625	81.19
429.847	90.19
430.069	87.19
430.292	95.19
430.514	94.19
430.736	88.19
430.958	101.19
431.18	87.19
431.402	84.19
431.624	88.19
431.846	86.19
432.068	78.19
432.29	81.19
432.512	85.19
432.734	89.19
432.956	92.19
433.178	93.19
433.4	72.19
433.622	89.19
433.844	89.19
434.066	102.19
434.287	91.19
434.509	94.19
434.731	87.19
434.953	92.19
435.175	82.19
435.397	91.19
435.618	81.19
435.84	107.19
436.062	115.19
436.284	120.19
436.505	101.19
436.727	99.19
436.949	100.19
437.17	77.19
437.392	85.19
437.614	88.19
437.835	88.19
438.057	103.19
438.278	105.19
438.5	109.19
438.721	109.19
438.943	96.19
439.165	100.19
439.386	105.19
439.608	92.19
439.829	109.19
440.05	116.19
440.272	113.19
440.493	88.19
440.715	94.19
440.936	97.19
441.158	97.19
441.379	102.19
441.6	91.19
441.822	87.19
442.043	90.19
442.264	104.19
442.486	96.19
442.707	96.19
442.928	88.19
443.149	123.19
443.371	124.19
443.592	115.19
443.813	104.19
444.034	119.19
444.255	91.19
444.476	81.19
444.698	91.19
444.919	87.19
445.14	131.19
445.361	116.19
445.582	98.19
445.803	117.19
446.024	120.19
446.245	136.19
446.466	108.19
446.687	93.19
446.908	79.19
447.129	87.19
447.35	87.19
447.571	86.19
447.792	92.19
448.013	99.19
448.234	113.19
448.455	105.19
448.675	105.19
448.896	110.19
449.117	90.19
449.338	102.19
449.559	102.19
449.779	116.19
450	107.19
450.221	95.19
450.442	92.19
450.662	97.19
450.883	109.19
451.104	108.19
451.324	100.19
451.545	85.19
451.766	90.19
451.986	94.19
452.207	92.19
452.428	108.19
452.648	79.19
452.869	112.19
453.089	100.19
453.31	108.19
453.53	106.19
453.751	111.19
453.971	106.19
454.192	100.19
454.412	83.19
454.633	85.19
454.853	87.19
455.073	100.19
455.294	99.19
455.514	104.19
455.734	99.19
455.955	91.19
456.175	96.19
456.395	86.19
456.616	86.19
456.836	99.19
457.056	79.19
457.276	96.19
457.497	92.19
457.717	85.19
457.937	96.19
458.157	80.19
458.377	94.19
458.598	99.19
458.818	147.19
459.038	151.19
459.258	93.19
459.478	88.19
459.698	91.19
459.918	84.19
460.138	79.19
460.358	76.19
460.578	87.19
460.798	89.19
461.018	97.19
461.238	92.19
461.458	88.19
461.678	79.19
461.898	98.19
462.118	97.19
462.338	87.19
462.558	95.19
462.777	83.19
462.997	89.19
463.217	80.19
463.437	85.19
463.657	83.19
463.876	92.19
464.096	96.19
464.316	95.19
464.536	101.19
464.755	90.19
464.975	92.19
465.195	145.19
465.414	136.19
465.634	96.19
465.854	83.19
466.073	83.19
466.293	94.19
466.512	81.19
466.732	91.19
466.951	85.19
467.171	87.19
467.391	105.19
467.61	94.19
467.829	95.19
468.049	98.19
468.268	90.19
468.488	84.19
468.707	84.19
468.927	88.19
469.146	91.19
469.365	77.19
469.585	97.19
469.804	90.19
470.023	108.19
470.243	86.19
470.462	104.19
470.681	113.19
470.901	100.19
471.12	86.19
471.339	91.19
471.558	99.19
471.777	88.19
471.997	88.19
472.216	89.19
472.435	95.19
472.654	81.19
472.873	71.19
473.092	87.19
473.311	88.19
473.53	88.19
473.749	93.19
473.968	96.19
474.187	93.19
474.406	103.19
474.625	90.19
474.844	103.19
475.063	91.19
475.282	79.19
475.501	93.19
475.72	100.19
475.939	98.19
476.158	86.19
476.377	93.19
476.596	87.19
476.814	95.19
477.033	89.19
477.252	91.19
477.471	79.19
477.69	68.19
477.908	98.19
478.127	99.19
478.346	81.19
478.564	88.19
478.783	96.19
479.002	77.19
479.22	87.19
479.439	92.19
479.658	93.19
479.876	92.19
480.095	83.19
480.313	82.19
480.532	89.19
480.751	94.19
480.969	99.19
481.188	105.19
481.406	96.19
481.624	87.19
481.843	86.19
482.061	92.19
482.28	79.19
482.498	101.19
482.717	80.19
482.935	90.19
483.153	96.19
483.372	92.19
483.59	82.19
483.808	97.19
484.027	112.19
484.245	103.19
484.463	83.19
484.681	116.19
484.9	98.19
485.118	96.19
485.336	100.19
485.554	99.19
485.772	99.19
485.99	84.19
486.209	103.19
486.427	96.19
486.645	112.19
486.863	111.19
487.081	98.19
487.299	101.19
487.517	98.19
487.735	97.19
487.953	103.19
488.171	92.19
488.389	92.19
488.607	100.19
488.825	100.19
489.043	103.19
489.261	90.19
489.479	85.19
489.696	95.19
489.914	92.19
490.132	93.19
490.35	88.19
490.568	94.19
490.786	97.19
491.003	89.19
491.221	105.19
491.439	102.19
491.657	89.19
491.874	91.19
492.092	104.19
492.31	85.19
492.527	96.19
492.745	94.19
492.963	99.19
493.18	87.19
493.398	90.19
493.615	90.19
493.833	106.19
494.05	96.19
494.268	103.19
494.485	77.19
494.703	90.19
494.92	83.19
495.138	97.19
495.355	85.19
495.573	96.19
495.79	106.19
496.008	98.19
496.225	93.19
496.442	100.19
496.66	108.19
496.877	97.19
497.094	88.19
497.312	101.19
497.529	88.19
497.746	86.19
497.963	85.19
498.181	92.19
498.398	94.19
498.615	110.19
498.832	97.19
499.049	91.19
499.267	94.19
499.484	79.19
499.701	87.19
499.918	101.19
500.135	84.19
500.352	81.19
500.569	96.19
500.786	99.19
501.003	83.19
501.22	94.19
501.437	85.19
501.654	103.19
501.871	104.19
502.088	87.19
502.305	89.19
502.522	107.19
502.739	85.19
502.956	92.19
503.172	94.19
503.389	96.19
503.606	92.19
503.823	99.19
504.04	93.19
504.256	82.19
504.473	82.19
504.69	89.19
504.907	96.19
505.123	91.19
505.34	93.19
505.557	88.19
505.773	75.19
505.99	73.19
506.207	92.19
506.423	96.19
506.64	106.19
506.856	87.19
507.073	93.19
507.289	107.19
507.506	99.19
507.722	108.19
507.939	115.19
508.155	107.19
508.372	89.19
508.588	90.19
508.805	101.19
509.021	96.19
509.238	98.19
509.454	91.19
509.67	92.19
509.887	88.19
510.103	128.19
510.319	198.19
510.536	675.19
510.752	2069.19
510.968	570.19
511.184	147.19
511.401	115.19
511.617	109.19
511.833	98.19
512.049	93.19
512.265	93.19
512.481	89.19
512.698	101.19
512.914	94.19
513.13	93.19
513.346	89.19
513.562	95.19
513.778	97.19
513.994	80.19
514.21	95.19
514.426	118.19
514.642	132.19
514.858	112.19
515.074	140.19
515.29	379.19
515.506	1167.19
515.721	454.19
515.937	140.19
516.153	115.19
516.369	93.19
516.585	96.19
516.801	96.19
517.016	91.19
517.232	88.19
517.448	96.19
517.664	79.19
517.879	95.19
518.095	108.19
518.311	91.19
518.527	90.19
518.742	82.19
518.958	96.19
519.173	100.19
519.389	80.19
519.605	97.19
519.82	94.19
520.036	104.19
520.251	125.19
520.467	112.19
520.682	93.19
520.898	103.19
521.113	104.19
521.329	124.19
521.544	187.19
521.76	482.19
521.975	1940.19
522.19	1163.19
522.406	273.19
522.621	113.19
522.836	98.19
523.052	101.19
523.267	105.19
523.482	92.19
523.698	103.19
523.913	108.19
524.128	100.19
524.343	101.19
524.559	98.19
524.774	103.19
524.989	104.19
525.204	92.19
525.419	94.19
525.634	101.19
525.849	95.19
526.064	95.19
526.28	105.19
526.495	86.19
526.71	102.19
526.925	73.19
527.14	88.19
527.355	91.19
527.57	94.19
527.785	91.19
527.999	86.19
528.214	95.19
528.429	90.19
528.644	89.19
528.859	96.19
529.074	81.19
529.289	122.19
529.503	144.19
529.718	109.19
529.933	92.19
530.148	91.19
530.363	73.19
530.577	84.19
530.792	92.19
531.007	88.19
531.221	108.19
531.436	86.19
531.651	102.19
531.865	97.19
532.08	101.19
532.295	79.19
532.509	101.19
532.724	105.19
532.938	101.19
533.153	101.19
533.367	94.19
533.582	102.19
533.796	105.19
534.011	99.19
534.225	92.19
534.44	87.19
534.654	99.19
534.868	97.19
535.083	99.19
535.297	115.19
535.511	100.19
535.726	100.19
535.94	86.19
536.154	110.19
536.369	85.19
536.583	81.19
536.797	88.19
537.011	93.19
537.225	93.19
537.44	100.19
537.654	107.19
537.868	91.19
538.082	89.19
538.296	88.19
538.51	103.19
538.724	98.19
538.938	93.19
539.153	93.19
539.367	94.19
539.581	95.19
539.795	101.19
540.009	89.19
540.222	89.19
540.436	97.19
540.65	83.19
540.864	93.19
541.078	89.19
541.292	100.19
541.506	84.19
541.72	102.19
541.934	85.19
542.147	86.19
542.361	79.19
542.575	89.19
542.789	91.19
543.002	76.19
543.216	98.19
543.43	99.19
543.644	99.19
543.857	98.19
544.071	98.19
544.285	98.19
544.498	92.19
544.712	97.19
544.925	102.19
545.139	91.19
545.352	85.19
545.566	87.19
545.779	94.19
545.993	85.19
546.206	100.19
546.42	104.19
546.633	87.19
546.847	87.19
547.06	89.19
547.274	89.19
547.487	103.19
547.7	87.19
547.914	81.19
548.127	84.19
548.34	92.19
548.554	101.19
548.767	88.19
548.98	91.19
549.193	81.19
549.407	75.19
549.62	92.19
549.833	102.19
550.046	87.19
550.259	100.19
550.473	91.19
550.686	99.19
550.899	93.19
551.112	101.19
551.325	98.19
551.538	92.19
551.751	93.19
551.964	83.19
552.177	94.19
552.39	96.19
552.603	83.19
552.816	87.19
553.029	96.19
553.242	95.19
553.455	110.19
553.667	113.19
553.88	85.19
554.093	103.19
554.306	92.19
554.519	86.19
554.732	109.19
554.944	87.19
555.157	89.19
555.37	99.19
555.583	84.19
555.795	95.19
556.008	106.19
556.221	88.19
556.433	92.19
556.646	93.19
556.859	104.19
557.071	96.19
557.284	94.19
557.496	91.19
557.709	91.19
557.921	96.19
558.134	92.19
558.346	85.19
558.559	97.19
558.771	84.19
558.984	82.19
559.196	96.19
559.409	96.19
559.621	100.19
559.833	92.19
560.046	96.19
560.258	83.19
560.47	95.19
560.683	90.19
560.895	96.19
561.107	95.19
561.32	93.19
561.532	88.19
561.744	98.19
561.956	98.19
562.168	103.19
562.381	94.19
562.593	105.19
562.805	84.19
563.017	86.19
563.229	98.19
563.441	88.19
563.653	102.19
563.865	92.19
564.077	85.19
564.289	85.19
564.501	96.19
564.713	90.19
564.925	94.19
565.137	95.19
565.349	84.19
565.561	89.19
565.773	74.19
565.985	95.19
566.197	79.19
566.408	92.19
566.62	93.19
566.832	93.19
567.044	86.19
567.255	72.19
567.467	88.19
567.679	87.19
567.891	79.19
568.102	91.19
568.314	102.19
568.526	87.19
568.737	104.19
568.949	78.19
569.161	85.19
569.372	78.19
569.584	81.19
569.795	93.19
570.007	114.19
570.218	208.19
570.43	132.19
570.641	79.19
570.853	95.19
571.064	91.19
571.276	95.19
571.487	96.19
571.698	86.19
571.91	87.19
572.121	96.19
572.333	79.19
572.544	97.19
572.755	87.19
572.966	96.19
573.178	88.19
573.389	99.19
573.6	102.19
573.811	89.19
574.023	80.19
574.234	71.19
574.445	92.19
574.656	97.19
574.867	102.19
575.078	101.19
575.289	96.19
575.501	85.19
575.712	79.19
575.923	97.19
576.134	98.19
576.345	88.19
576.556	95.19
576.767	93.19
576.978	99.19
577.188	99.19
577.399	95.19
577.61	72.19
577.821	91.19
578.032	106.19
578.243	249.19
578.454	672.19
578.665	207.19
578.875	87.19
579.086	105.19
579.297	84.19
579.508	88.19
579.718	103.19
579.929	95.19
580.14	102.19
580.35	93.19
580.561	98.19
580.772	88.19
580.982	105.19
581.193	87.19
581.403	88.19
581.614	85.19
581.825	93.19
582.035	92.19
582.246	79.19
582.456	88.19
582.667	81.19
582.877	86.19
583.087	90.19
583.298	94.19
583.508	86.19
583.719	96.19
583.929	89.19
584.139	79.19
584.35	107.19
584.56	93.19
584.77	93.19
584.981	91.19
585.191	84.19
585.401	85.19
585.611	92.19
585.821	97.19
586.032	90.19
586.242	95.19
586.452	101.19
586.662	85.19
586.872	92.19
587.082	85.19
587.292	77.19
587.502	91.19
587.713	79.19
587.923	82.19
588.133	78.19
588.343	91.19
588.553	73.19
588.762	80.19
588.972	92.19
589.182	94.19
589.392	99.19
589.602	97.19
589.812	79.19
590.022	88.19
590.232	95.19
590.441	97.19
590.651	92.19
590.861	94.19
591.071	96.19
591.281	87.19
591.49	109.19
591.7	92.19
591.91	89.19
592.119	79.19
592.329	92.19
592.539	83.19
592.748	90.19
592.958	84.19
593.167	94.19
593.377	78.19
593.587	96.19
593.796	105.19
594.006	87.19
594.215	76.19
594.424	92.19
594.634	91.19
594.843	91.19
595.053	91.19
595.262	80.19
595.472	104.19
595.681	91.19
595.89	97.19
596.1	97.19
596.309	100.19
596.518	83.19
596.727	87.19
596.937	100.19
597.146	92.19
597.355	87.19
597.564	81.19
597.774	92.19
597.983	86.19
598.192	97.19
598.401	100.19
598.61	98.19
598.819	81.19
599.028	97.19
599.237	91.19
599.446	83.19
599.655	92.19
599.864	76.19
600.073	88.19
600.282	95.19
600.491	95.19
600.7	103.19
600.909	96.19
601.118	98.19
601.327	85.19
601.536	95.19
601.745	99.19
601.953	101.19
602.162	91.19
602.371	89.19
602.58	75.19
602.789	90.19
602.997	81.19
603.206	93.19
603.415	91.19
603.623	89.19
603.832	84.19
604.041	83.19
604.249	94.19
604.458	93.19
604.666	89.19
604.875	92.19
605.084	80.19
605.292	101.19
605.501	82.19
605.709	104.19
605.918	89.19
606.126	86.19
606.334	91.19
606.543	91.19
606.751	88.19
606.96	86.19
607.168	90.19
607.376	86.19
607.585	94.19
607.793	87.19
608.001	80.19
608.21	78.19
608.418	88.19
608.626	75.19
608.834	89.19
609.043	86.19
609.251	81.19
609.459	93.19
609.667	98.19
609.875	100.19
610.083	79.19
610.291	84.19
610.499	86.19
610.707	79.19
610.916	78.19
611.124	95.19
611.332	85.19
611.54	92.19
611.748	84.19
611.955	97.19
612.163	92.19
612.371	94.19
612.579	89.19
612.787	100.19
612.995	95.19
613.203	79.19
613.411	89.19
613.618	94.19
613.826	93.19
614.034	94.19
614.242	93.19
614.449	81.19
614.657	79.19
614.865	108.19
615.072	86.19
615.28	85.19
615.488	108.19
615.695	89.19
615.903	105.19
616.111	91.19
616.318	103.19
616.526	88.19
616.733	88.19
616.941	97.19
617.148	105.19
617.356	98.19
617.563	98.19
617.771	87.19
617.978	82.19
618.185	84.19
618.393	87.19
618.6	87.19
618.807	77.19
619.015	87.19
619.222	87.19
619.429	78.19
619.637	95.19
619.844	88.19
620.051	88.19
620.258	94.19
620.466	101.19
620.673	98.19
620.88	95.19
621.087	91.19
621.294	78.19
621.501	90.19
621.708	97.19
621.915	72.19
622.122	85.19
622.329	75.19
622.536	98.19
622.743	87.19
622.95	83.19
623.157	84.19
623.364	85.19
623.571	94.19
623.778	96.19
623.985	82.19
624.192	75.19
624.399	86.19
624.606	98.19
624.812	76.19
625.019	87.19
625.226	65.19
625.433	83.19
625.639	91.19
625.846	83.19
626.053	81.19
626.259	85.19
626.466	81.19
626.673	87.19
626.879	83.19
627.086	83.19
627.293	76.19
627.499	92.19
627.706	91.19
627.912	91.19
628.119	76.19
628.325	80.19
628.532	73.19
628.738	98.19
628.945	81.19
629.151	81.19
629.357	96.19
629.564	91.19
629.77	74.19
629.976	96.19
630.183	97.19
630.389	71.19
630.595	85.19
630.802	77.19
631.008	77.19
631.214	97.19
631.42	91.19
631.627	81.19
631.833	84.19
632.039	86.19
632.245	90.19
632.451	91.19
632.657	91.19
632.863	96.19
633.069	87.19
633.275	83.19
633.481	90.19
633.688	86.19
633.893	85.19
634.099	90.19
634.305	93.19
634.511	63.19
634.717	84.19
634.923	70.19
635.129	79.19
635.335	91.19
635.541	83.19
635.747	99.19
635.952	84.19
636.158	112.19
636.364	83.19
636.57	83.19
636.775	66.19
636.981	88.19
637.187	89.19
637.392	99.19
637.598	70.19
637.804	75.19
638.009	91.19
638.215	89.19
638.421	88.19
638.626	83.19
638.832	88.19
639.037	74.19
639.243	93.19
639.448	84.19
639.654	68.19
639.859	91.19
640.065	86.19
640.27	102.19
640.475	83.19
640.681	86.19
640.886	101.19
641.091	84.19
641.297	87.19
641.502	88.19
641.707	80.19
641.913	86.19
642.118	87.19
642.323	80.19
642.528	92.19
642.733	70.19
642.939	97.19
643.144	89.19
643.349	80.19
643.554	101.19
643.759	104.19
643.964	77.19
644.169	91.19
644.374	99.19
644.579	86.19
644.784	81.19
644.989	93.19
645.194	77.19
645.399	94.19
645.604	96.19
645.809	102.19
646.014	99.19
646.219	91.19
646.423	79.19
646.628	87.19
646.833	98.19
647.038	86.19
647.243	100.19
647.447	93.19
647.652	92.19
647.857	89.19
648.062	87.19
648.266	83.19
648.471	79.19
648.676	99.19
648.88	103.19
649.085	100.19
649.289	92.19
649.494	102.19
649.698	127.19
649.903	98.19
650.107	84.19
650.312	87.19
650.516	99.19
650.721	76.19
650.925	90.19
651.13	75.19
651.334	77.19
651.539	81.19
651.743	82.19
651.947	86.19
652.152	97.19
652.356	74.19
652.56	99.19
652.764	79.19
652.969	84.19
653.173	92.19
653.377	86.19
653.581	75.19
653.785	78.19
653.99	85.19
654.194	77.19
654.398	80.19
654.602	83.19
654.806	92.19
655.01	106.19
655.214	97.19
655.418	91.19
655.622	101.19
655.826	74.19
656.03	85.19
656.234	91.19
656.438	91.19
656.642	87.19
656.846	94.19
657.049	94.19
657.253	88.19
657.457	87.19
657.661	75.19
657.865	89.19
658.068	84.19
658.272	99.19
658.476	86.19
658.68	92.19
658.883	91.19
659.087	69.19
659.291	91.19
659.494	83.19
659.698	83.19
659.901	93.19
660.105	79.19
660.309	83.19
660.512	93.19
660.716	84.19
660.919	87.19
661.123	89.19
661.326	84.19
661.53	78.19
661.733	93.19
661.936	96.19
662.14	73.19
662.343	91.19
662.546	92.19
662.75	82.19
662.953	94.19
663.156	80.19
663.36	85.19
663.563	78.19
663.766	82.19
663.969	72.19
664.173	101.19
664.376	75.19
664.579	90.19
664.782	74.19
664.985	81.19
665.188	77.19
665.391	81.19
665.594	87.19
665.797	72.19
666	90.19
666.203	76.19
666.406	81.19
666.609	90.19
666.812	71.19
667.015	80.19
667.218	83.19
667.421	84.19
667.624	84.19
667.827	95.19
668.03	87.19
668.232	85.19
668.435	79.19
668.638	93.19
668.841	80.19
669.043	85.19
669.246	95.19
669.449	77.19
669.651	80.19
669.854	87.19
670.057	85.19
670.259	75.19
670.462	82.19
670.665	82.19
670.867	88.19
671.07	86.19
671.272	88.19
671.475	94.19
671.677	79.19
671.88	64.19
672.082	81.19
672.284	88.19
672.487	69.19
672.689	72.19
672.892	78.19
