Data from Uncirc_1992_H10_HRD10591_00072.txt Node
Date: Wed Jan 03 11:46:30 EST 2024
User: Yrep
Spectrometer: HR+D1059
Trigger mode: 1
Integration Time (sec): 1.000000E-1
Scans to average: 1
Electric dark correction enabled: true
Nonlinearity correction enabled: false
Boxcar width: 0
XAxis mode: Wavelengths
Number of Pixels in Spectrum: 2048
>>>>>Begin Spectral Data<<<<<
223.165	-23.81
223.4	-23.81
223.635	-23.81
223.869	-19.81
224.104	-17.81
224.338	-15.81
224.573	-10.81
224.808	-9.81
225.042	-7.81
225.277	-6.81
225.511	2.19
225.746	5.19
225.98	18.19
226.215	1.19
226.449	3.19
226.683	25.19
226.918	24.19
227.152	33.19
227.387	33.19
227.621	51.19
227.856	39.19
228.09	57.19
228.324	35.19
228.559	43.19
228.793	56.19
229.027	50.19
229.262	60.19
229.496	70.19
229.73	73.19
229.964	85.19
230.199	80.19
230.433	64.19
230.667	67.19
230.901	76.19
231.136	83.19
231.37	83.19
231.604	61.19
231.838	88.19
232.072	71.19
232.306	82.19
232.541	83.19
232.775	66.19
233.009	87.19
233.243	83.19
233.477	87.19
233.711	69.19
233.945	73.19
234.179	80.19
234.413	92.19
234.647	73.19
234.881	67.19
235.115	75.19
235.349	83.19
235.583	78.19
235.817	75.19
236.051	63.19
236.285	65.19
236.519	61.19
236.753	86.19
236.987	72.19
237.221	87.19
237.455	72.19
237.689	66.19
237.922	87.19
238.156	89.19
238.39	83.19
238.624	64.19
238.858	65.19
239.091	57.19
239.325	76.19
239.559	62.19
239.793	75.19
240.027	72.19
240.26	78.19
240.494	72.19
240.728	60.19
240.961	69.19
241.195	89.19
241.429	86.19
241.662	75.19
241.896	81.19
242.13	82.19
242.363	68.19
242.597	68.19
242.83	81.19
243.064	71.19
243.298	65.19
243.531	73.19
243.765	73.19
243.998	71.19
244.232	81.19
244.465	95.19
244.699	77.19
244.932	78.19
245.166	77.19
245.399	88.19
245.633	81.19
245.866	76.19
246.099	69.19
246.333	79.19
246.566	82.19
246.8	81.19
247.033	79.19
247.266	76.19
247.5	84.19
247.733	79.19
247.966	71.19
248.2	74.19
248.433	62.19
248.666	71.19
248.899	73.19
249.133	80.19
249.366	104.19
249.599	97.19
249.832	80.19
250.066	66.19
250.299	77.19
250.532	69.19
250.765	55.19
250.998	79.19
251.231	67.19
251.465	71.19
251.698	77.19
251.931	72.19
252.164	75.19
252.397	55.19
252.63	68.19
252.863	101.19
253.096	79.19
253.329	67.19
253.562	75.19
253.795	87.19
254.028	83.19
254.261	73.19
254.494	85.19
254.727	80.19
254.96	77.19
255.193	71.19
255.426	68.19
255.659	78.19
255.892	94.19
256.124	83.19
256.357	82.19
256.59	81.19
256.823	88.19
257.056	74.19
257.289	91.19
257.521	83.19
257.754	72.19
257.987	69.19
258.22	85.19
258.452	80.19
258.685	93.19
258.918	84.19
259.151	82.19
259.383	84.19
259.616	79.19
259.849	96.19
260.081	73.19
260.314	98.19
260.547	88.19
260.779	85.19
261.012	77.19
261.244	84.19
261.477	87.19
261.71	101.19
261.942	115.19
262.175	115.19
262.407	75.19
262.64	74.19
262.872	84.19
263.105	75.19
263.337	74.19
263.57	87.19
263.802	81.19
264.035	72.19
264.267	84.19
264.499	81.19
264.732	87.19
264.964	82.19
265.197	86.19
265.429	65.19
265.661	75.19
265.894	83.19
266.126	93.19
266.358	85.19
266.591	86.19
266.823	81.19
267.055	77.19
267.287	66.19
267.52	89.19
267.752	79.19
267.984	78.19
268.216	85.19
268.448	81.19
268.681	84.19
268.913	76.19
269.145	90.19
269.377	104.19
269.609	73.19
269.841	96.19
270.073	82.19
270.306	88.19
270.538	85.19
270.77	77.19
271.002	71.19
271.234	87.19
271.466	73.19
271.698	79.19
271.93	83.19
272.162	81.19
272.394	72.19
272.626	85.19
272.858	83.19
273.09	73.19
273.322	75.19
273.553	78.19
273.785	79.19
274.017	81.19
274.249	91.19
274.481	82.19
274.713	73.19
274.945	94.19
275.176	81.19
275.408	67.19
275.64	91.19
275.872	79.19
276.104	89.19
276.335	89.19
276.567	89.19
276.799	98.19
277.031	97.19
277.262	81.19
277.494	95.19
277.726	90.19
277.957	81.19
278.189	95.19
278.421	80.19
278.652	76.19
278.884	88.19
279.115	81.19
279.347	88.19
279.579	90.19
279.81	86.19
280.042	90.19
280.273	82.19
280.505	83.19
280.736	92.19
280.968	92.19
281.199	84.19
281.431	77.19
281.662	87.19
281.894	100.19
282.125	93.19
282.356	119.19
282.588	129.19
282.819	106.19
283.051	88.19
283.282	90.19
283.513	87.19
283.745	73.19
283.976	90.19
284.207	74.19
284.439	74.19
284.67	83.19
284.901	78.19
285.132	76.19
285.364	90.19
285.595	94.19
285.826	84.19
286.057	78.19
286.288	76.19
286.52	88.19
286.751	89.19
286.982	85.19
287.213	77.19
287.444	82.19
287.675	99.19
287.906	85.19
288.138	75.19
288.369	80.19
288.6	73.19
288.831	73.19
289.062	99.19
289.293	90.19
289.524	83.19
289.755	103.19
289.986	99.19
290.217	88.19
290.448	96.19
290.679	74.19
290.91	87.19
291.141	101.19
291.371	82.19
291.602	87.19
291.833	84.19
292.064	91.19
292.295	87.19
292.526	79.19
292.757	74.19
292.987	84.19
293.218	80.19
293.449	80.19
293.68	93.19
293.91	83.19
294.141	100.19
294.372	83.19
294.603	91.19
294.833	81.19
295.064	86.19
295.295	98.19
295.525	75.19
295.756	99.19
295.987	104.19
296.217	119.19
296.448	110.19
296.679	93.19
296.909	89.19
297.14	89.19
297.37	90.19
297.601	96.19
297.831	88.19
298.062	92.19
298.292	83.19
298.523	112.19
298.753	85.19
298.984	91.19
299.214	83.19
299.445	77.19
299.675	85.19
299.905	81.19
300.136	86.19
300.366	86.19
300.597	84.19
300.827	91.19
301.057	98.19
301.288	92.19
301.518	92.19
301.748	89.19
301.979	96.19
302.209	93.19
302.439	97.19
302.669	95.19
302.9	97.19
303.13	75.19
303.36	93.19
303.59	95.19
303.82	83.19
304.051	96.19
304.281	83.19
304.511	84.19
304.741	75.19
304.971	85.19
305.201	90.19
305.431	95.19
305.661	76.19
305.891	106.19
306.121	93.19
306.352	92.19
306.582	104.19
306.812	70.19
307.042	91.19
307.272	74.19
307.502	95.19
307.731	93.19
307.961	93.19
308.191	89.19
308.421	88.19
308.651	95.19
308.881	89.19
309.111	100.19
309.341	93.19
309.571	90.19
309.8	105.19
310.03	96.19
310.26	91.19
310.49	106.19
310.72	105.19
310.949	93.19
311.179	92.19
311.409	92.19
311.639	88.19
311.868	92.19
312.098	102.19
312.328	99.19
312.557	97.19
312.787	96.19
313.017	87.19
313.246	81.19
313.476	87.19
313.706	84.19
313.935	93.19
314.165	75.19
314.394	82.19
314.624	92.19
314.853	105.19
315.083	92.19
315.312	100.19
315.542	87.19
315.771	93.19
316.001	90.19
316.23	99.19
316.46	75.19
316.689	73.19
316.919	59.19
317.148	95.19
317.377	94.19
317.607	100.19
317.836	98.19
318.065	85.19
318.295	80.19
318.524	79.19
318.753	95.19
318.983	94.19
319.212	98.19
319.441	100.19
319.67	118.19
319.9	100.19
320.129	92.19
320.358	84.19
320.587	97.19
320.816	97.19
321.046	86.19
321.275	86.19
321.504	99.19
321.733	91.19
321.962	90.19
322.191	91.19
322.42	82.19
322.649	104.19
322.878	102.19
323.108	106.19
323.337	122.19
323.566	131.19
323.795	138.19
324.024	172.19
324.253	344.19
324.482	722.19
324.71	1418.19
324.939	1791.19
325.168	693.19
325.397	205.19
325.626	135.19
325.855	120.19
326.084	115.19
326.313	119.19
326.542	140.19
326.77	201.19
326.999	373.19
327.228	795.19
327.457	1435.19
327.686	1136.19
327.914	309.19
328.143	177.19
328.372	118.19
328.6	127.19
328.829	113.19
329.058	105.19
329.287	108.19
329.515	96.19
329.744	97.19
329.972	84.19
330.201	99.19
330.43	101.19
330.658	108.19
330.887	119.19
331.115	103.19
331.344	99.19
331.572	105.19
331.801	105.19
332.03	104.19
332.258	104.19
332.486	97.19
332.715	97.19
332.943	85.19
333.172	100.19
333.4	84.19
333.629	103.19
333.857	106.19
334.085	109.19
334.314	104.19
334.542	103.19
334.771	103.19
334.999	102.19
335.227	101.19
335.455	91.19
335.684	101.19
335.912	97.19
336.14	98.19
336.369	98.19
336.597	88.19
336.825	95.19
337.053	83.19
337.281	92.19
337.51	98.19
337.738	76.19
337.966	87.19
338.194	87.19
338.422	91.19
338.65	95.19
338.878	62.19
339.106	79.19
339.334	90.19
339.562	84.19
339.79	80.19
340.018	98.19
340.246	101.19
340.474	100.19
340.702	91.19
340.93	89.19
341.158	88.19
341.386	83.19
341.614	82.19
341.842	107.19
342.07	106.19
342.298	91.19
342.526	82.19
342.754	89.19
342.981	86.19
343.209	91.19
343.437	88.19
343.665	87.19
343.893	79.19
344.12	89.19
344.348	78.19
344.576	91.19
344.804	85.19
345.031	86.19
345.259	94.19
345.487	94.19
345.714	84.19
345.942	93.19
346.17	84.19
346.397	81.19
346.625	98.19
346.853	96.19
347.08	89.19
347.308	94.19
347.535	96.19
347.763	104.19
347.99	97.19
348.218	102.19
348.445	100.19
348.673	98.19
348.9	99.19
349.128	99.19
349.355	82.19
349.583	87.19
349.81	87.19
350.037	88.19
350.265	103.19
350.492	96.19
350.72	91.19
350.947	115.19
351.174	100.19
351.402	106.19
351.629	99.19
351.856	91.19
352.083	89.19
352.311	106.19
352.538	98.19
352.765	100.19
352.992	107.19
353.22	94.19
353.447	100.19
353.674	91.19
353.901	88.19
354.128	85.19
354.355	90.19
354.583	87.19
354.81	93.19
355.037	90.19
355.264	94.19
355.491	92.19
355.718	97.19
355.945	96.19
356.172	100.19
356.399	100.19
356.626	88.19
356.853	87.19
357.08	90.19
357.307	97.19
357.534	99.19
357.761	89.19
357.988	99.19
358.215	92.19
358.441	94.19
358.668	103.19
358.895	96.19
359.122	87.19
359.349	84.19
359.576	86.19
359.802	98.19
360.029	101.19
360.256	104.19
360.483	95.19
360.709	89.19
360.936	110.19
361.163	91.19
361.39	101.19
361.616	73.19
361.843	98.19
362.07	99.19
362.296	76.19
362.523	79.19
362.749	83.19
362.976	80.19
363.203	82.19
363.429	91.19
363.656	97.19
363.882	91.19
364.109	96.19
364.335	91.19
364.562	93.19
364.788	96.19
365.015	85.19
365.241	78.19
365.468	103.19
365.694	110.19
365.92	97.19
366.147	91.19
366.373	96.19
366.599	74.19
366.826	91.19
367.052	88.19
367.278	83.19
367.505	88.19
367.731	86.19
367.957	97.19
368.184	97.19
368.41	99.19
368.636	93.19
368.862	114.19
369.089	109.19
369.315	103.19
369.541	88.19
369.767	82.19
369.993	85.19
370.219	99.19
370.445	89.19
370.672	83.19
370.898	97.19
371.124	93.19
371.35	97.19
371.576	80.19
371.802	90.19
372.028	76.19
372.254	92.19
372.48	81.19
372.706	90.19
372.932	85.19
373.158	85.19
373.384	92.19
373.61	95.19
373.835	92.19
374.061	63.19
374.287	84.19
374.513	87.19
374.739	71.19
374.965	81.19
375.191	75.19
375.416	73.19
375.642	80.19
375.868	91.19
376.094	88.19
376.319	98.19
376.545	89.19
376.771	77.19
376.997	95.19
377.222	100.19
377.448	101.19
377.674	88.19
377.899	86.19
378.125	95.19
378.35	90.19
378.576	80.19
378.802	79.19
379.027	82.19
379.253	84.19
379.478	84.19
379.704	90.19
379.929	89.19
380.155	81.19
380.38	87.19
380.606	81.19
380.831	91.19
381.057	82.19
381.282	98.19
381.507	94.19
381.733	87.19
381.958	108.19
382.184	90.19
382.409	94.19
382.634	98.19
382.86	91.19
383.085	99.19
383.31	100.19
383.535	93.19
383.761	96.19
383.986	99.19
384.211	101.19
384.436	91.19
384.662	89.19
384.887	94.19
385.112	105.19
385.337	113.19
385.562	96.19
385.787	88.19
386.013	107.19
386.238	101.19
386.463	96.19
386.688	113.19
386.913	103.19
387.138	94.19
387.363	97.19
387.588	92.19
387.813	96.19
388.038	105.19
388.263	103.19
388.488	93.19
388.713	95.19
388.938	94.19
389.163	111.19
389.387	113.19
389.612	93.19
389.837	100.19
390.062	75.19
390.287	97.19
390.512	89.19
390.736	89.19
390.961	80.19
391.186	85.19
391.411	94.19
391.636	94.19
391.86	89.19
392.085	77.19
392.31	82.19
392.534	75.19
392.759	90.19
392.984	79.19
393.208	83.19
393.433	96.19
393.658	92.19
393.882	80.19
394.107	96.19
394.331	81.19
394.556	87.19
394.78	93.19
395.005	91.19
395.229	82.19
395.454	89.19
395.678	89.19
395.903	89.19
396.127	89.19
396.352	86.19
396.576	79.19
396.801	98.19
397.025	91.19
397.249	87.19
397.474	82.19
397.698	84.19
397.922	86.19
398.147	76.19
398.371	86.19
398.595	83.19
398.82	68.19
399.044	83.19
399.268	96.19
399.492	77.19
399.717	94.19
399.941	88.19
400.165	98.19
400.389	90.19
400.613	89.19
400.837	83.19
401.062	81.19
401.286	99.19
401.51	82.19
401.734	91.19
401.958	89.19
402.182	122.19
402.406	141.19
402.63	102.19
402.854	90.19
403.078	93.19
403.302	79.19
403.526	96.19
403.75	83.19
403.974	74.19
404.198	89.19
404.422	87.19
404.645	80.19
404.869	71.19
405.093	91.19
405.317	97.19
405.541	83.19
405.765	106.19
405.988	101.19
406.212	140.19
406.436	199.19
406.66	112.19
406.883	93.19
407.107	87.19
407.331	87.19
407.555	100.19
407.778	92.19
408.002	92.19
408.226	92.19
408.449	81.19
408.673	87.19
408.896	99.19
409.12	89.19
409.344	90.19
409.567	86.19
409.791	94.19
410.014	95.19
410.238	81.19
410.461	83.19
410.685	90.19
410.908	91.19
411.132	99.19
411.355	99.19
411.578	79.19
411.802	75.19
412.025	101.19
412.249	106.19
412.472	93.19
412.695	85.19
412.919	98.19
413.142	95.19
413.365	88.19
413.589	94.19
413.812	90.19
414.035	87.19
414.258	93.19
414.482	81.19
414.705	86.19
414.928	87.19
415.151	95.19
415.374	92.19
415.597	84.19
415.821	72.19
416.044	87.19
416.267	96.19
416.49	85.19
416.713	75.19
416.936	88.19
417.159	81.19
417.382	85.19
417.605	82.19
417.828	90.19
418.051	88.19
418.274	90.19
418.497	84.19
418.72	90.19
418.943	89.19
419.166	91.19
419.389	84.19
419.611	87.19
419.834	77.19
420.057	91.19
420.28	76.19
420.503	80.19
420.726	81.19
420.948	105.19
421.171	91.19
421.394	95.19
421.617	98.19
421.839	86.19
422.062	79.19
422.285	90.19
422.507	85.19
422.73	81.19
422.953	95.19
423.175	99.19
423.398	91.19
423.621	80.19
423.843	59.19
424.066	68.19
424.288	84.19
424.511	98.19
424.733	80.19
424.956	107.19
425.178	102.19
425.401	101.19
425.623	100.19
425.846	87.19
426.068	84.19
426.291	91.19
426.513	107.19
426.735	102.19
426.958	97.19
427.18	107.19
427.402	114.19
427.625	144.19
427.847	99.19
428.069	76.19
428.292	96.19
428.514	82.19
428.736	78.19
428.958	95.19
429.181	91.19
429.403	71.19
429.625	83.19
429.847	91.19
430.069	75.19
430.292	89.19
430.514	87.19
430.736	75.19
430.958	87.19
431.18	75.19
431.402	83.19
431.624	94.19
431.846	84.19
432.068	86.19
432.29	90.19
432.512	85.19
432.734	97.19
432.956	107.19
433.178	87.19
433.4	87.19
433.622	81.19
433.844	81.19
434.066	76.19
434.287	83.19
434.509	86.19
434.731	96.19
434.953	77.19
435.175	83.19
435.397	86.19
435.618	99.19
435.84	99.19
436.062	115.19
436.284	120.19
436.505	110.19
436.727	85.19
436.949	97.19
437.17	68.19
437.392	79.19
437.614	91.19
437.835	89.19
438.057	104.19
438.278	90.19
438.5	92.19
438.721	109.19
438.943	104.19
439.165	92.19
439.386	84.19
439.608	85.19
439.829	95.19
440.05	89.19
440.272	128.19
440.493	88.19
440.715	73.19
440.936	80.19
441.158	91.19
441.379	61.19
441.6	83.19
441.822	85.19
442.043	95.19
442.264	92.19
442.486	92.19
442.707	74.19
442.928	82.19
443.149	105.19
443.371	121.19
443.592	99.19
443.813	97.19
444.034	96.19
444.255	70.19
444.476	84.19
444.698	104.19
444.919	81.19
445.14	118.19
445.361	109.19
445.582	100.19
445.803	122.19
446.024	104.19
446.245	127.19
446.466	104.19
446.687	92.19
446.908	86.19
447.129	100.19
447.35	79.19
447.571	92.19
447.792	91.19
448.013	113.19
448.234	91.19
448.455	93.19
448.675	120.19
448.896	121.19
449.117	100.19
449.338	87.19
449.559	114.19
449.779	120.19
450	90.19
450.221	86.19
450.442	85.19
450.662	99.19
450.883	98.19
451.104	98.19
451.324	82.19
451.545	95.19
451.766	89.19
451.986	77.19
452.207	81.19
452.428	95.19
452.648	84.19
452.869	101.19
453.089	104.19
453.31	91.19
453.53	83.19
453.751	93.19
453.971	92.19
454.192	104.19
454.412	90.19
454.633	87.19
454.853	83.19
455.073	83.19
455.294	83.19
455.514	84.19
455.734	87.19
455.955	73.19
456.175	75.19
456.395	81.19
456.616	81.19
456.836	91.19
457.056	83.19
457.276	70.19
457.497	77.19
457.717	74.19
457.937	88.19
458.157	94.19
458.377	67.19
458.598	107.19
458.818	114.19
459.038	122.19
459.258	119.19
459.478	83.19
459.698	92.19
459.918	81.19
460.138	84.19
460.358	71.19
460.578	95.19
460.798	86.19
461.018	102.19
461.238	89.19
461.458	74.19
461.678	88.19
461.898	97.19
462.118	94.19
462.338	82.19
462.558	85.19
462.777	83.19
462.997	71.19
463.217	79.19
463.437	74.19
463.657	84.19
463.876	94.19
464.096	96.19
464.316	89.19
464.536	85.19
464.755	102.19
464.975	111.19
465.195	144.19
465.414	138.19
465.634	99.19
465.854	74.19
466.073	101.19
466.293	87.19
466.512	82.19
466.732	82.19
466.951	76.19
467.171	80.19
467.391	92.19
467.61	93.19
467.829	89.19
468.049	83.19
468.268	85.19
468.488	80.19
468.707	98.19
468.927	94.19
469.146	81.19
469.365	84.19
469.585	80.19
469.804	88.19
470.023	81.19
470.243	84.19
470.462	103.19
470.681	117.19
470.901	87.19
471.12	77.19
471.339	83.19
471.558	92.19
471.777	73.19
471.997	84.19
472.216	77.19
472.435	79.19
472.654	79.19
472.873	88.19
473.092	90.19
473.311	87.19
473.53	90.19
473.749	81.19
473.968	90.19
474.187	79.19
474.406	89.19
474.625	78.19
474.844	87.19
475.063	68.19
475.282	83.19
475.501	86.19
475.72	77.19
475.939	79.19
476.158	70.19
476.377	83.19
476.596	82.19
476.814	98.19
477.033	92.19
477.252	84.19
477.471	83.19
477.69	83.19
477.908	88.19
478.127	92.19
478.346	94.19
478.564	89.19
478.783	97.19
479.002	100.19
479.22	77.19
479.439	99.19
479.658	100.19
479.876	97.19
480.095	81.19
480.313	69.19
480.532	83.19
480.751	92.19
480.969	109.19
481.188	105.19
481.406	82.19
481.624	84.19
481.843	90.19
482.061	84.19
482.28	71.19
482.498	82.19
482.717	91.19
482.935	94.19
483.153	81.19
483.372	76.19
483.59	87.19
483.808	85.19
484.027	88.19
484.245	81.19
484.463	88.19
484.681	95.19
484.9	81.19
485.118	79.19
485.336	79.19
485.554	93.19
485.772	87.19
485.99	106.19
486.209	95.19
486.427	103.19
486.645	98.19
486.863	113.19
487.081	92.19
487.299	84.19
487.517	89.19
487.735	89.19
487.953	82.19
488.171	91.19
488.389	89.19
488.607	112.19
488.825	71.19
489.043	83.19
489.261	87.19
489.479	81.19
489.696	78.19
489.914	90.19
490.132	72.19
490.35	84.19
490.568	84.19
490.786	84.19
491.003	90.19
491.221	77.19
491.439	88.19
491.657	83.19
491.874	85.19
492.092	74.19
492.31	98.19
492.527	93.19
492.745	99.19
492.963	83.19
493.18	71.19
493.398	83.19
493.615	93.19
493.833	68.19
494.05	84.19
494.268	80.19
494.485	97.19
494.703	94.19
494.92	80.19
495.138	74.19
495.355	95.19
495.573	90.19
495.79	91.19
496.008	83.19
496.225	87.19
496.442	72.19
496.66	85.19
496.877	76.19
497.094	85.19
497.312	74.19
497.529	84.19
497.746	83.19
497.963	83.19
498.181	92.19
498.398	84.19
498.615	110.19
498.832	93.19
499.049	79.19
499.267	93.19
499.484	97.19
499.701	100.19
499.918	100.19
500.135	92.19
500.352	88.19
500.569	88.19
500.786	75.19
501.003	96.19
501.22	90.19
501.437	87.19
501.654	87.19
501.871	96.19
502.088	104.19
502.305	99.19
502.522	71.19
502.739	94.19
502.956	83.19
503.172	94.19
503.389	100.19
503.606	98.19
503.823	82.19
504.04	89.19
504.256	94.19
504.473	85.19
504.69	79.19
504.907	93.19
505.123	102.19
505.34	88.19
505.557	93.19
505.773	98.19
505.99	73.19
506.207	71.19
506.423	72.19
506.64	97.19
506.856	93.19
507.073	89.19
507.289	76.19
507.506	103.19
507.722	108.19
507.939	92.19
508.155	90.19
508.372	83.19
508.588	92.19
508.805	92.19
509.021	96.19
509.238	88.19
509.454	96.19
509.67	112.19
509.887	109.19
510.103	125.19
510.319	173.19
510.536	662.19
510.752	1998.19
510.968	567.19
511.184	145.19
511.401	89.19
511.617	93.19
511.833	87.19
512.049	82.19
512.265	84.19
512.481	99.19
512.698	89.19
512.914	103.19
513.13	98.19
513.346	89.19
513.562	106.19
513.778	106.19
513.994	73.19
514.21	104.19
514.426	118.19
514.642	112.19
514.858	119.19
515.074	150.19
515.29	376.19
515.506	1193.19
515.721	455.19
515.937	132.19
516.153	95.19
516.369	93.19
516.585	81.19
516.801	94.19
517.016	97.19
517.232	96.19
517.448	101.19
517.664	96.19
517.879	92.19
518.095	89.19
518.311	100.19
518.527	78.19
518.742	97.19
518.958	73.19
519.173	95.19
519.389	94.19
519.605	93.19
519.82	108.19
520.036	98.19
520.251	105.19
520.467	97.19
520.682	101.19
520.898	104.19
521.113	95.19
521.329	130.19
521.544	176.19
521.76	469.19
521.975	1998.19
522.19	1191.19
522.406	270.19
522.621	108.19
522.836	95.19
523.052	93.19
523.267	100.19
523.482	79.19
523.698	87.19
523.913	98.19
524.128	99.19
524.343	98.19
524.559	105.19
524.774	112.19
524.989	101.19
525.204	108.19
525.419	90.19
525.634	87.19
525.849	94.19
526.064	88.19
526.28	84.19
526.495	93.19
526.71	80.19
526.925	79.19
527.14	71.19
527.355	96.19
527.57	90.19
527.785	89.19
527.999	98.19
528.214	103.19
528.429	91.19
528.644	97.19
528.859	95.19
529.074	89.19
529.289	112.19
529.503	156.19
529.718	106.19
529.933	86.19
530.148	83.19
530.363	88.19
530.577	85.19
530.792	106.19
531.007	87.19
531.221	93.19
531.436	84.19
531.651	96.19
531.865	94.19
532.08	88.19
532.295	86.19
532.509	95.19
532.724	91.19
532.938	87.19
533.153	100.19
533.367	86.19
533.582	93.19
533.796	83.19
534.011	94.19
534.225	79.19
534.44	88.19
534.654	73.19
534.868	91.19
535.083	87.19
535.297	78.19
535.511	97.19
535.726	97.19
535.94	106.19
536.154	82.19
536.369	89.19
536.583	82.19
536.797	80.19
537.011	91.19
537.225	84.19
537.44	66.19
537.654	71.19
537.868	98.19
538.082	79.19
538.296	95.19
538.51	85.19
538.724	84.19
538.938	79.19
539.153	93.19
539.367	101.19
539.581	98.19
539.795	87.19
540.009	94.19
540.222	88.19
540.436	92.19
540.65	79.19
540.864	85.19
541.078	92.19
541.292	81.19
541.506	85.19
541.72	96.19
541.934	79.19
542.147	95.19
542.361	94.19
542.575	83.19
542.789	90.19
543.002	90.19
543.216	104.19
543.43	84.19
543.644	87.19
543.857	89.19
544.071	86.19
544.285	86.19
544.498	82.19
544.712	82.19
544.925	91.19
545.139	89.19
545.352	84.19
545.566	87.19
545.779	85.19
545.993	89.19
546.206	88.19
546.42	83.19
546.633	94.19
546.847	82.19
547.06	81.19
547.274	77.19
547.487	89.19
547.7	92.19
547.914	94.19
548.127	78.19
548.34	88.19
548.554	83.19
548.767	98.19
548.98	84.19
549.193	65.19
549.407	85.19
549.62	81.19
549.833	72.19
550.046	78.19
550.259	79.19
550.473	80.19
550.686	65.19
550.899	90.19
551.112	92.19
551.325	92.19
551.538	88.19
551.751	96.19
551.964	95.19
552.177	88.19
552.39	99.19
552.603	90.19
552.816	92.19
553.029	75.19
553.242	92.19
553.455	83.19
553.667	94.19
553.88	107.19
554.093	94.19
554.306	97.19
554.519	93.19
554.732	83.19
554.944	96.19
555.157	97.19
555.37	93.19
555.583	85.19
555.795	87.19
556.008	89.19
556.221	82.19
556.433	89.19
556.646	83.19
556.859	99.19
557.071	84.19
557.284	104.19
557.496	89.19
557.709	83.19
557.921	100.19
558.134	94.19
558.346	68.19
558.559	78.19
558.771	96.19
558.984	90.19
559.196	83.19
559.409	87.19
559.621	103.19
559.833	78.19
560.046	94.19
560.258	77.19
560.47	75.19
560.683	90.19
560.895	93.19
561.107	80.19
561.32	87.19
561.532	87.19
561.744	73.19
561.956	103.19
562.168	83.19
562.381	81.19
562.593	97.19
562.805	95.19
563.017	91.19
563.229	95.19
563.441	87.19
563.653	93.19
563.865	83.19
564.077	76.19
564.289	90.19
564.501	89.19
564.713	79.19
564.925	84.19
565.137	92.19
565.349	95.19
565.561	94.19
565.773	93.19
565.985	82.19
566.197	101.19
566.408	99.19
566.62	84.19
566.832	91.19
567.044	75.19
567.255	76.19
567.467	88.19
567.679	96.19
567.891	81.19
568.102	80.19
568.314	96.19
568.526	94.19
568.737	87.19
568.949	109.19
569.161	95.19
569.372	89.19
569.584	90.19
569.795	98.19
570.007	111.19
570.218	206.19
570.43	117.19
570.641	84.19
570.853	83.19
571.064	83.19
571.276	88.19
571.487	87.19
571.698	76.19
571.91	79.19
572.121	88.19
572.333	63.19
572.544	73.19
572.755	81.19
572.966	79.19
573.178	78.19
573.389	90.19
573.6	84.19
573.811	75.19
574.023	97.19
574.234	81.19
574.445	96.19
574.656	92.19
574.867	83.19
575.078	89.19
575.289	97.19
575.501	88.19
575.712	77.19
575.923	87.19
576.134	68.19
576.345	89.19
576.556	87.19
576.767	76.19
576.978	81.19
577.188	83.19
577.399	98.19
577.61	76.19
577.821	97.19
578.032	111.19
578.243	243.19
578.454	683.19
578.665	199.19
578.875	93.19
579.086	93.19
579.297	83.19
579.508	75.19
579.718	70.19
579.929	78.19
580.14	96.19
580.35	96.19
580.561	94.19
580.772	86.19
580.982	96.19
581.193	75.19
581.403	84.19
581.614	94.19
581.825	83.19
582.035	86.19
582.246	71.19
582.456	93.19
582.667	83.19
582.877	87.19
583.087	74.19
583.298	92.19
583.508	97.19
583.719	84.19
583.929	90.19
584.139	92.19
584.35	93.19
584.56	93.19
584.77	79.19
584.981	90.19
585.191	83.19
585.401	79.19
585.611	76.19
585.821	91.19
586.032	89.19
586.242	93.19
586.452	83.19
586.662	77.19
586.872	73.19
587.082	79.19
587.292	81.19
587.502	74.19
587.713	83.19
587.923	91.19
588.133	85.19
588.343	83.19
588.553	87.19
588.762	87.19
588.972	90.19
589.182	81.19
589.392	83.19
589.602	84.19
589.812	86.19
590.022	94.19
590.232	83.19
590.441	76.19
590.651	74.19
590.861	69.19
591.071	98.19
591.281	93.19
591.49	88.19
591.7	96.19
591.91	67.19
592.119	78.19
592.329	84.19
592.539	89.19
592.748	84.19
592.958	96.19
593.167	76.19
593.377	80.19
593.587	84.19
593.796	91.19
594.006	85.19
594.215	83.19
594.424	79.19
594.634	87.19
594.843	91.19
595.053	80.19
595.262	74.19
595.472	94.19
595.681	86.19
595.89	77.19
596.1	100.19
596.309	89.19
596.518	90.19
596.727	97.19
596.937	94.19
597.146	81.19
597.355	98.19
597.564	91.19
597.774	90.19
597.983	86.19
598.192	78.19
598.401	81.19
598.61	75.19
598.819	79.19
599.028	88.19
599.237	78.19
599.446	93.19
599.655	91.19
599.864	77.19
600.073	89.19
600.282	96.19
600.491	89.19
600.7	98.19
600.909	73.19
601.118	92.19
601.327	85.19
601.536	100.19
601.745	86.19
601.953	87.19
602.162	92.19
602.371	89.19
602.58	89.19
602.789	88.19
602.997	94.19
603.206	88.19
603.415	89.19
603.623	69.19
603.832	83.19
604.041	100.19
604.249	89.19
604.458	96.19
604.666	81.19
604.875	83.19
605.084	79.19
605.292	84.19
605.501	94.19
605.709	89.19
605.918	98.19
606.126	87.19
606.334	80.19
606.543	87.19
606.751	93.19
606.96	82.19
607.168	89.19
607.376	85.19
607.585	79.19
607.793	79.19
608.001	88.19
608.21	91.19
608.418	79.19
608.626	76.19
608.834	72.19
609.043	82.19
609.251	92.19
609.459	87.19
609.667	91.19
609.875	88.19
610.083	88.19
610.291	99.19
610.499	91.19
610.707	90.19
610.916	100.19
611.124	92.19
611.332	99.19
611.54	91.19
611.748	84.19
611.955	86.19
612.163	85.19
612.371	87.19
612.579	86.19
612.787	101.19
612.995	79.19
613.203	86.19
613.411	82.19
613.618	86.19
613.826	90.19
614.034	81.19
614.242	80.19
614.449	89.19
614.657	82.19
614.865	89.19
615.072	77.19
615.28	88.19
615.488	86.19
615.695	95.19
615.903	99.19
616.111	91.19
616.318	88.19
616.526	97.19
616.733	95.19
616.941	94.19
617.148	96.19
617.356	92.19
617.563	87.19
617.771	86.19
617.978	81.19
618.185	88.19
618.393	79.19
618.6	82.19
618.807	93.19
619.015	69.19
619.222	91.19
619.429	85.19
619.637	79.19
619.844	79.19
620.051	78.19
620.258	91.19
620.466	80.19
620.673	79.19
620.88	78.19
621.087	76.19
621.294	81.19
621.501	92.19
621.708	82.19
621.915	95.19
622.122	88.19
622.329	97.19
622.536	96.19
622.743	88.19
622.95	96.19
623.157	78.19
623.364	84.19
623.571	77.19
623.778	91.19
623.985	80.19
624.192	82.19
624.399	89.19
624.606	89.19
624.812	68.19
625.019	67.19
625.226	100.19
625.433	91.19
625.639	67.19
625.846	86.19
626.053	91.19
626.259	72.19
626.466	80.19
626.673	91.19
626.879	78.19
627.086	66.19
627.293	79.19
627.499	85.19
627.706	78.19
627.912	85.19
628.119	65.19
628.325	91.19
628.532	100.19
628.738	84.19
628.945	76.19
629.151	83.19
629.357	98.19
629.564	79.19
629.77	90.19
629.976	93.19
630.183	71.19
630.389	80.19
630.595	93.19
630.802	78.19
631.008	77.19
631.214	98.19
631.42	84.19
631.627	83.19
631.833	73.19
632.039	88.19
632.245	91.19
632.451	84.19
632.657	69.19
632.863	73.19
633.069	93.19
633.275	77.19
633.481	89.19
633.688	84.19
633.893	76.19
634.099	92.19
634.305	96.19
634.511	81.19
634.717	79.19
634.923	83.19
635.129	93.19
635.335	76.19
635.541	80.19
635.747	88.19
635.952	69.19
636.158	69.19
636.364	73.19
636.57	80.19
636.775	79.19
636.981	90.19
637.187	88.19
637.392	82.19
637.598	84.19
637.804	98.19
638.009	77.19
638.215	79.19
638.421	85.19
638.626	85.19
638.832	89.19
639.037	84.19
639.243	79.19
639.448	84.19
639.654	79.19
639.859	96.19
640.065	95.19
640.27	85.19
640.475	95.19
640.681	93.19
640.886	78.19
641.091	77.19
641.297	89.19
641.502	85.19
641.707	92.19
641.913	76.19
642.118	82.19
642.323	98.19
642.528	81.19
642.733	84.19
642.939	80.19
643.144	94.19
643.349	79.19
643.554	87.19
643.759	81.19
643.964	80.19
644.169	75.19
644.374	89.19
644.579	81.19
644.784	78.19
644.989	93.19
645.194	89.19
645.399	84.19
645.604	80.19
645.809	84.19
646.014	89.19
646.219	73.19
646.423	81.19
646.628	83.19
646.833	92.19
647.038	85.19
647.243	80.19
647.447	93.19
647.652	71.19
647.857	85.19
648.062	80.19
648.266	76.19
648.471	102.19
648.676	94.19
648.88	92.19
649.085	90.19
649.289	95.19
649.494	97.19
649.698	109.19
649.903	100.19
650.107	93.19
650.312	96.19
650.516	75.19
650.721	77.19
650.925	82.19
651.13	80.19
651.334	85.19
651.539	79.19
651.743	97.19
651.947	91.19
652.152	77.19
652.356	91.19
652.56	88.19
652.764	84.19
652.969	83.19
653.173	73.19
653.377	88.19
653.581	71.19
653.785	87.19
653.99	80.19
654.194	88.19
654.398	79.19
654.602	81.19
654.806	71.19
655.01	103.19
655.214	73.19
655.418	91.19
655.622	89.19
655.826	92.19
656.03	88.19
656.234	82.19
656.438	100.19
656.642	82.19
656.846	75.19
657.049	77.19
657.253	85.19
657.457	76.19
657.661	79.19
657.865	69.19
658.068	64.19
658.272	75.19
658.476	84.19
658.68	80.19
658.883	80.19
659.087	95.19
659.291	91.19
659.494	84.19
659.698	83.19
659.901	65.19
660.105	94.19
660.309	91.19
660.512	89.19
660.716	77.19
660.919	83.19
661.123	90.19
661.326	79.19
661.53	86.19
661.733	85.19
661.936	87.19
662.14	89.19
662.343	84.19
662.546	76.19
662.75	94.19
662.953	85.19
663.156	77.19
663.36	96.19
663.563	82.19
663.766	76.19
663.969	90.19
664.173	76.19
664.376	72.19
664.579	88.19
664.782	67.19
664.985	71.19
665.188	73.19
665.391	81.19
665.594	94.19
665.797	84.19
666	87.19
666.203	88.19
666.406	86.19
666.609	76.19
666.812	72.19
667.015	72.19
667.218	74.19
667.421	76.19
667.624	66.19
667.827	73.19
668.03	83.19
668.232	77.19
668.435	97.19
668.638	88.19
668.841	79.19
669.043	77.19
669.246	74.19
669.449	71.19
669.651	81.19
669.854	78.19
670.057	71.19
670.259	72.19
670.462	84.19
670.665	82.19
670.867	75.19
671.07	71.19
671.272	73.19
671.475	83.19
671.677	91.19
671.88	69.19
672.082	80.19
672.284	87.19
672.487	89.19
672.689	76.19
672.892	87.19
