Data from Uncirc_1992_H10_HRD10591_00016.txt Node
Date: Wed Jan 03 11:46:19 EST 2024
User: Yrep
Spectrometer: HR+D1059
Trigger mode: 1
Integration Time (sec): 1.000000E-1
Scans to average: 1
Electric dark correction enabled: true
Nonlinearity correction enabled: false
Boxcar width: 0
XAxis mode: Wavelengths
Number of Pixels in Spectrum: 2048
>>>>>Begin Spectral Data<<<<<
223.165	-30.31
223.4	-30.31
223.635	-30.31
223.869	-14.31
224.104	-18.31
224.338	-21.31
224.573	-16.31
224.808	-1.31
225.042	-12.31
225.277	-9.31
225.511	-5.31
225.746	8.69
225.98	2.69
226.215	19.69
226.449	11.69
226.683	25.69
226.918	28.69
227.152	31.69
227.387	30.69
227.621	34.69
227.856	39.69
228.09	52.69
228.324	45.69
228.559	60.69
228.793	55.69
229.027	59.69
229.262	63.69
229.496	68.69
229.73	85.69
229.964	78.69
230.199	74.69
230.433	77.69
230.667	77.69
230.901	75.69
231.136	80.69
231.37	91.69
231.604	84.69
231.838	71.69
232.072	76.69
232.306	77.69
232.541	94.69
232.775	81.69
233.009	83.69
233.243	79.69
233.477	85.69
233.711	71.69
233.945	88.69
234.179	81.69
234.413	81.69
234.647	76.69
234.881	94.69
235.115	73.69
235.349	79.69
235.583	76.69
235.817	81.69
236.051	80.69
236.285	77.69
236.519	64.69
236.753	77.69
236.987	79.69
237.221	85.69
237.455	65.69
237.689	69.69
237.922	87.69
238.156	73.69
238.39	64.69
238.624	73.69
238.858	88.69
239.091	68.69
239.325	66.69
239.559	83.69
239.793	77.69
240.027	79.69
240.26	79.69
240.494	78.69
240.728	79.69
240.961	90.69
241.195	91.69
241.429	91.69
241.662	80.69
241.896	68.69
242.13	70.69
242.363	75.69
242.597	67.69
242.83	78.69
243.064	90.69
243.298	76.69
243.531	95.69
243.765	80.69
243.998	84.69
244.232	82.69
244.465	76.69
244.699	71.69
244.932	75.69
245.166	79.69
245.399	92.69
245.633	67.69
245.866	78.69
246.099	77.69
246.333	68.69
246.566	81.69
246.8	75.69
247.033	80.69
247.266	74.69
247.5	76.69
247.733	78.69
247.966	77.69
248.2	76.69
248.433	78.69
248.666	68.69
248.899	83.69
249.133	89.69
249.366	77.69
249.599	96.69
249.832	75.69
250.066	80.69
250.299	77.69
250.532	90.69
250.765	73.69
250.998	77.69
251.231	65.69
251.465	74.69
251.698	73.69
251.931	82.69
252.164	94.69
252.397	88.69
252.63	79.69
252.863	59.69
253.096	71.69
253.329	74.69
253.562	85.69
253.795	66.69
254.028	89.69
254.261	85.69
254.494	73.69
254.727	84.69
254.96	80.69
255.193	87.69
255.426	89.69
255.659	78.69
255.892	86.69
256.124	72.69
256.357	80.69
256.59	87.69
256.823	69.69
257.056	76.69
257.289	71.69
257.521	92.69
257.754	73.69
257.987	90.69
258.22	77.69
258.452	63.69
258.685	73.69
258.918	75.69
259.151	73.69
259.383	83.69
259.616	81.69
259.849	89.69
260.081	80.69
260.314	75.69
260.547	84.69
260.779	84.69
261.012	87.69
261.244	80.69
261.477	88.69
261.71	85.69
261.942	108.69
262.175	101.69
262.407	79.69
262.64	77.69
262.872	71.69
263.105	80.69
263.337	82.69
263.57	92.69
263.802	95.69
264.035	60.69
264.267	84.69
264.499	88.69
264.732	76.69
264.964	75.69
265.197	83.69
265.429	80.69
265.661	73.69
265.894	91.69
266.126	76.69
266.358	81.69
266.591	71.69
266.823	75.69
267.055	75.69
267.287	86.69
267.52	89.69
267.752	97.69
267.984	89.69
268.216	79.69
268.448	68.69
268.681	76.69
268.913	91.69
269.145	80.69
269.377	71.69
269.609	83.69
269.841	71.69
270.073	97.69
270.306	93.69
270.538	87.69
270.77	85.69
271.002	85.69
271.234	82.69
271.466	91.69
271.698	98.69
271.93	78.69
272.162	87.69
272.394	60.69
272.626	73.69
272.858	58.69
273.09	73.69
273.322	89.69
273.553	87.69
273.785	81.69
274.017	83.69
274.249	85.69
274.481	81.69
274.713	88.69
274.945	96.69
275.176	88.69
275.408	64.69
275.64	76.69
275.872	80.69
276.104	89.69
276.335	87.69
276.567	100.69
276.799	73.69
277.031	91.69
277.262	88.69
277.494	73.69
277.726	87.69
277.957	71.69
278.189	103.69
278.421	82.69
278.652	75.69
278.884	71.69
279.115	88.69
279.347	80.69
279.579	84.69
279.81	91.69
280.042	91.69
280.273	90.69
280.505	71.69
280.736	92.69
280.968	84.69
281.199	101.69
281.431	84.69
281.662	89.69
281.894	94.69
282.125	105.69
282.356	100.69
282.588	109.69
282.819	112.69
283.051	79.69
283.282	97.69
283.513	83.69
283.745	84.69
283.976	77.69
284.207	89.69
284.439	91.69
284.67	88.69
284.901	91.69
285.132	79.69
285.364	81.69
285.595	90.69
285.826	89.69
286.057	93.69
286.288	91.69
286.52	93.69
286.751	77.69
286.982	83.69
287.213	81.69
287.444	92.69
287.675	78.69
287.906	97.69
288.138	83.69
288.369	92.69
288.6	88.69
288.831	94.69
289.062	86.69
289.293	93.69
289.524	99.69
289.755	101.69
289.986	85.69
290.217	89.69
290.448	89.69
290.679	94.69
290.91	69.69
291.141	95.69
291.371	86.69
291.602	87.69
291.833	84.69
292.064	82.69
292.295	88.69
292.526	77.69
292.757	104.69
292.987	97.69
293.218	86.69
293.449	96.69
293.68	84.69
293.91	79.69
294.141	99.69
294.372	91.69
294.603	91.69
294.833	86.69
295.064	67.69
295.295	91.69
295.525	83.69
295.756	100.69
295.987	106.69
296.217	118.69
296.448	109.69
296.679	90.69
296.909	95.69
297.14	87.69
297.37	94.69
297.601	101.69
297.831	82.69
298.062	90.69
298.292	97.69
298.523	91.69
298.753	77.69
298.984	82.69
299.214	83.69
299.445	87.69
299.675	88.69
299.905	88.69
300.136	87.69
300.366	94.69
300.597	111.69
300.827	83.69
301.057	85.69
301.288	84.69
301.518	82.69
301.748	79.69
301.979	92.69
302.209	86.69
302.439	97.69
302.669	103.69
302.9	93.69
303.13	87.69
303.36	87.69
303.59	89.69
303.82	96.69
304.051	107.69
304.281	73.69
304.511	89.69
304.741	92.69
304.971	84.69
305.201	79.69
305.431	87.69
305.661	86.69
305.891	83.69
306.121	89.69
306.352	106.69
306.582	95.69
306.812	90.69
307.042	94.69
307.272	97.69
307.502	90.69
307.731	96.69
307.961	82.69
308.191	80.69
308.421	85.69
308.651	91.69
308.881	92.69
309.111	98.69
309.341	105.69
309.571	101.69
309.8	88.69
310.03	96.69
310.26	82.69
310.49	97.69
310.72	95.69
310.949	97.69
311.179	101.69
311.409	76.69
311.639	95.69
311.868	91.69
312.098	98.69
312.328	105.69
312.557	97.69
312.787	104.69
313.017	107.69
313.246	89.69
313.476	76.69
313.706	91.69
313.935	83.69
314.165	95.69
314.394	97.69
314.624	100.69
314.853	88.69
315.083	84.69
315.312	72.69
315.542	79.69
315.771	84.69
316.001	99.69
316.23	69.69
316.46	106.69
316.689	91.69
316.919	98.69
317.148	80.69
317.377	85.69
317.607	92.69
317.836	105.69
318.065	76.69
318.295	94.69
318.524	89.69
318.753	93.69
318.983	89.69
319.212	97.69
319.441	96.69
319.67	88.69
319.9	101.69
320.129	93.69
320.358	82.69
320.587	98.69
320.816	99.69
321.046	86.69
321.275	87.69
321.504	92.69
321.733	87.69
321.962	103.69
322.191	97.69
322.42	99.69
322.649	108.69
322.878	109.69
323.108	107.69
323.337	116.69
323.566	114.69
323.795	104.69
324.024	175.69
324.253	320.69
324.482	666.69
324.71	1312.69
324.939	1669.69
325.168	639.69
325.397	207.69
325.626	124.69
325.855	109.69
326.084	104.69
326.313	125.69
326.542	143.69
326.77	203.69
326.999	366.69
327.228	747.69
327.457	1296.69
327.686	1025.69
327.914	301.69
328.143	165.69
328.372	132.69
328.6	136.69
328.829	114.69
329.058	121.69
329.287	99.69
329.515	107.69
329.744	98.69
329.972	91.69
330.201	87.69
330.43	112.69
330.658	96.69
330.887	127.69
331.115	113.69
331.344	96.69
331.572	95.69
331.801	105.69
332.03	119.69
332.258	100.69
332.486	91.69
332.715	86.69
332.943	88.69
333.172	92.69
333.4	98.69
333.629	103.69
333.857	98.69
334.085	108.69
334.314	82.69
334.542	104.69
334.771	100.69
334.999	98.69
335.227	91.69
335.455	75.69
335.684	99.69
335.912	75.69
336.14	95.69
336.369	99.69
336.597	100.69
336.825	79.69
337.053	100.69
337.281	99.69
337.51	85.69
337.738	91.69
337.966	87.69
338.194	99.69
338.422	105.69
338.65	95.69
338.878	91.69
339.106	95.69
339.334	98.69
339.562	91.69
339.79	95.69
340.018	90.69
340.246	93.69
340.474	93.69
340.702	108.69
340.93	92.69
341.158	79.69
341.386	92.69
341.614	97.69
341.842	88.69
342.07	88.69
342.298	88.69
342.526	85.69
342.754	95.69
342.981	83.69
343.209	78.69
343.437	91.69
343.665	89.69
343.893	87.69
344.12	87.69
344.348	92.69
344.576	100.69
344.804	88.69
345.031	92.69
345.259	88.69
345.487	99.69
345.714	84.69
345.942	102.69
346.17	90.69
346.397	95.69
346.625	79.69
346.853	106.69
347.08	92.69
347.308	80.69
347.535	95.69
347.763	96.69
347.99	83.69
348.218	97.69
348.445	94.69
348.673	95.69
348.9	88.69
349.128	94.69
349.355	93.69
349.583	86.69
349.81	88.69
350.037	93.69
350.265	89.69
350.492	91.69
350.72	90.69
350.947	92.69
351.174	99.69
351.402	96.69
351.629	94.69
351.856	108.69
352.083	87.69
352.311	102.69
352.538	85.69
352.765	105.69
352.992	106.69
353.22	96.69
353.447	102.69
353.674	113.69
353.901	79.69
354.128	106.69
354.355	95.69
354.583	92.69
354.81	82.69
355.037	104.69
355.264	87.69
355.491	76.69
355.718	84.69
355.945	94.69
356.172	93.69
356.399	107.69
356.626	105.69
356.853	82.69
357.08	81.69
357.307	78.69
357.534	96.69
357.761	94.69
357.988	94.69
358.215	99.69
358.441	98.69
358.668	99.69
358.895	92.69
359.122	88.69
359.349	82.69
359.576	99.69
359.802	75.69
360.029	98.69
360.256	103.69
360.483	83.69
360.709	64.69
360.936	97.69
361.163	94.69
361.39	101.69
361.616	107.69
361.843	94.69
362.07	82.69
362.296	74.69
362.523	79.69
362.749	89.69
362.976	81.69
363.203	93.69
363.429	92.69
363.656	87.69
363.882	93.69
364.109	87.69
364.335	104.69
364.562	85.69
364.788	81.69
365.015	104.69
365.241	93.69
365.468	101.69
365.694	103.69
365.92	99.69
366.147	95.69
366.373	92.69
366.599	81.69
366.826	81.69
367.052	93.69
367.278	95.69
367.505	97.69
367.731	82.69
367.957	100.69
368.184	81.69
368.41	94.69
368.636	111.69
368.862	122.69
369.089	95.69
369.315	93.69
369.541	83.69
369.767	80.69
369.993	91.69
370.219	85.69
370.445	97.69
370.672	92.69
370.898	77.69
371.124	88.69
371.35	89.69
371.576	92.69
371.802	88.69
372.028	84.69
372.254	74.69
372.48	92.69
372.706	86.69
372.932	78.69
373.158	85.69
373.384	94.69
373.61	96.69
373.835	90.69
374.061	83.69
374.287	89.69
374.513	82.69
374.739	82.69
374.965	73.69
375.191	72.69
375.416	83.69
375.642	77.69
375.868	87.69
376.094	109.69
376.319	90.69
376.545	95.69
376.771	92.69
376.997	88.69
377.222	94.69
377.448	89.69
377.674	83.69
377.899	89.69
378.125	86.69
378.35	89.69
378.576	83.69
378.802	83.69
379.027	88.69
379.253	98.69
379.478	93.69
379.704	89.69
379.929	97.69
380.155	87.69
380.38	74.69
380.606	91.69
380.831	90.69
381.057	89.69
381.282	83.69
381.507	83.69
381.733	84.69
381.958	96.69
382.184	79.69
382.409	100.69
382.634	91.69
382.86	93.69
383.085	92.69
383.31	112.69
383.535	95.69
383.761	99.69
383.986	101.69
384.211	95.69
384.436	93.69
384.662	99.69
384.887	89.69
385.112	94.69
385.337	89.69
385.562	112.69
385.787	98.69
386.013	108.69
386.238	102.69
386.463	99.69
386.688	95.69
386.913	97.69
387.138	108.69
387.363	97.69
387.588	106.69
387.813	91.69
388.038	94.69
388.263	101.69
388.488	102.69
388.713	96.69
388.938	92.69
389.163	89.69
389.387	97.69
389.612	100.69
389.837	94.69
390.062	75.69
390.287	83.69
390.512	90.69
390.736	93.69
390.961	80.69
391.186	96.69
391.411	95.69
391.636	91.69
391.86	89.69
392.085	85.69
392.31	77.69
392.534	78.69
392.759	77.69
392.984	85.69
393.208	101.69
393.433	110.69
393.658	98.69
393.882	75.69
394.107	93.69
394.331	90.69
394.556	91.69
394.78	87.69
395.005	79.69
395.229	91.69
395.454	89.69
395.678	95.69
395.903	87.69
396.127	89.69
396.352	78.69
396.576	79.69
396.801	80.69
397.025	89.69
397.249	76.69
397.474	92.69
397.698	81.69
397.922	67.69
398.147	75.69
398.371	88.69
398.595	91.69
398.82	77.69
399.044	85.69
399.268	78.69
399.492	92.69
399.717	96.69
399.941	95.69
400.165	83.69
400.389	88.69
400.613	93.69
400.837	89.69
401.062	78.69
401.286	81.69
401.51	83.69
401.734	78.69
401.958	90.69
402.182	120.69
402.406	133.69
402.63	104.69
402.854	99.69
403.078	88.69
403.302	96.69
403.526	85.69
403.75	73.69
403.974	87.69
404.198	83.69
404.422	87.69
404.645	100.69
404.869	87.69
405.093	99.69
405.317	93.69
405.541	101.69
405.765	98.69
405.988	98.69
406.212	151.69
406.436	183.69
406.66	139.69
406.883	98.69
407.107	87.69
407.331	91.69
407.555	97.69
407.778	99.69
408.002	92.69
408.226	82.69
408.449	85.69
408.673	88.69
408.896	79.69
409.12	79.69
409.344	77.69
409.567	83.69
409.791	104.69
410.014	84.69
410.238	81.69
410.461	91.69
410.685	91.69
410.908	94.69
411.132	87.69
411.355	99.69
411.578	96.69
411.802	95.69
412.025	89.69
412.249	87.69
412.472	94.69
412.695	77.69
412.919	88.69
413.142	83.69
413.365	91.69
413.589	79.69
413.812	84.69
414.035	95.69
414.258	94.69
414.482	91.69
414.705	99.69
414.928	75.69
415.151	82.69
415.374	78.69
415.597	84.69
415.821	89.69
416.044	89.69
416.267	103.69
416.49	72.69
416.713	81.69
416.936	97.69
417.159	92.69
417.382	85.69
417.605	89.69
417.828	86.69
418.051	89.69
418.274	80.69
418.497	63.69
418.72	94.69
418.943	85.69
419.166	79.69
419.389	90.69
419.611	79.69
419.834	80.69
420.057	92.69
420.28	81.69
420.503	87.69
420.726	65.69
420.948	89.69
421.171	94.69
421.394	90.69
421.617	96.69
421.839	87.69
422.062	71.69
422.285	89.69
422.507	96.69
422.73	94.69
422.953	84.69
423.175	79.69
423.398	86.69
423.621	88.69
423.843	90.69
424.066	90.69
424.288	74.69
424.511	82.69
424.733	98.69
424.956	97.69
425.178	94.69
425.401	109.69
425.623	97.69
425.846	84.69
426.068	90.69
426.291	88.69
426.513	100.69
426.735	103.69
426.958	76.69
427.18	95.69
427.402	107.69
427.625	163.69
427.847	104.69
428.069	93.69
428.292	87.69
428.514	90.69
428.736	94.69
428.958	90.69
429.181	79.69
429.403	88.69
429.625	77.69
429.847	80.69
430.069	88.69
430.292	78.69
430.514	88.69
430.736	89.69
430.958	67.69
431.18	83.69
431.402	90.69
431.624	83.69
431.846	91.69
432.068	84.69
432.29	71.69
432.512	94.69
432.734	72.69
432.956	79.69
433.178	75.69
433.4	93.69
433.622	111.69
433.844	91.69
434.066	82.69
434.287	95.69
434.509	86.69
434.731	82.69
434.953	91.69
435.175	97.69
435.397	94.69
435.618	92.69
435.84	99.69
436.062	100.69
436.284	113.69
436.505	100.69
436.727	96.69
436.949	93.69
437.17	98.69
437.392	93.69
437.614	90.69
437.835	96.69
438.057	101.69
438.278	92.69
438.5	85.69
438.721	101.69
438.943	102.69
439.165	92.69
439.386	75.69
439.608	79.69
439.829	100.69
440.05	104.69
440.272	115.69
440.493	82.69
440.715	92.69
440.936	80.69
441.158	90.69
441.379	87.69
441.6	92.69
441.822	103.69
442.043	96.69
442.264	95.69
442.486	103.69
442.707	93.69
442.928	97.69
443.149	116.69
443.371	121.69
443.592	96.69
443.813	104.69
444.034	91.69
444.255	87.69
444.476	96.69
444.698	86.69
444.919	86.69
445.14	141.69
445.361	114.69
445.582	81.69
445.803	114.69
446.024	109.69
446.245	108.69
446.466	101.69
446.687	95.69
446.908	91.69
447.129	89.69
447.35	82.69
447.571	82.69
447.792	94.69
448.013	85.69
448.234	96.69
448.455	98.69
448.675	96.69
448.896	107.69
449.117	104.69
449.338	96.69
449.559	124.69
449.779	115.69
450	98.69
450.221	87.69
450.442	94.69
450.662	107.69
450.883	99.69
451.104	100.69
451.324	92.69
451.545	79.69
451.766	107.69
451.986	89.69
452.207	93.69
452.428	90.69
452.648	96.69
452.869	100.69
453.089	95.69
453.31	116.69
453.53	87.69
453.751	109.69
453.971	87.69
454.192	99.69
454.412	85.69
454.633	92.69
454.853	102.69
455.073	57.69
455.294	74.69
455.514	89.69
455.734	79.69
455.955	94.69
456.175	88.69
456.395	87.69
456.616	99.69
456.836	83.69
457.056	73.69
457.276	89.69
457.497	84.69
457.717	82.69
457.937	90.69
458.157	94.69
458.377	87.69
458.598	92.69
458.818	136.69
459.038	147.69
459.258	107.69
459.478	94.69
459.698	82.69
459.918	106.69
460.138	86.69
460.358	74.69
460.578	79.69
460.798	89.69
461.018	87.69
461.238	89.69
461.458	79.69
461.678	77.69
461.898	83.69
462.118	84.69
462.338	87.69
462.558	89.69
462.777	89.69
462.997	82.69
463.217	76.69
463.437	91.69
463.657	75.69
463.876	89.69
464.096	91.69
464.316	100.69
464.536	84.69
464.755	89.69
464.975	92.69
465.195	146.69
465.414	131.69
465.634	102.69
465.854	90.69
466.073	90.69
466.293	98.69
466.512	98.69
466.732	97.69
466.951	85.69
467.171	88.69
467.391	87.69
467.61	99.69
467.829	83.69
468.049	85.69
468.268	92.69
468.488	75.69
468.707	85.69
468.927	84.69
469.146	80.69
469.365	93.69
469.585	85.69
469.804	92.69
470.023	98.69
470.243	79.69
470.462	89.69
470.681	96.69
470.901	97.69
471.12	104.69
471.339	100.69
471.558	86.69
471.777	89.69
471.997	85.69
472.216	98.69
472.435	75.69
472.654	73.69
472.873	81.69
473.092	84.69
473.311	82.69
473.53	86.69
473.749	80.69
473.968	99.69
474.187	92.69
474.406	96.69
474.625	91.69
474.844	97.69
475.063	102.69
475.282	83.69
475.501	83.69
475.72	101.69
475.939	94.69
476.158	97.69
476.377	85.69
476.596	80.69
476.814	86.69
477.033	80.69
477.252	93.69
477.471	84.69
477.69	89.69
477.908	91.69
478.127	85.69
478.346	71.69
478.564	90.69
478.783	90.69
479.002	69.69
479.22	82.69
479.439	102.69
479.658	88.69
479.876	100.69
480.095	96.69
480.313	84.69
480.532	84.69
480.751	86.69
480.969	82.69
481.188	74.69
481.406	96.69
481.624	84.69
481.843	89.69
482.061	85.69
482.28	79.69
482.498	90.69
482.717	87.69
482.935	77.69
483.153	91.69
483.372	75.69
483.59	81.69
483.808	90.69
484.027	73.69
484.245	90.69
484.463	91.69
484.681	107.69
484.9	101.69
485.118	97.69
485.336	92.69
485.554	93.69
485.772	95.69
485.99	111.69
486.209	105.69
486.427	109.69
486.645	98.69
486.863	120.69
487.081	98.69
487.299	86.69
487.517	90.69
487.735	77.69
487.953	88.69
488.171	84.69
488.389	109.69
488.607	87.69
488.825	91.69
489.043	94.69
489.261	104.69
489.479	91.69
489.696	98.69
489.914	79.69
490.132	84.69
490.35	95.69
490.568	86.69
490.786	84.69
491.003	91.69
491.221	85.69
491.439	89.69
491.657	79.69
491.874	95.69
492.092	79.69
492.31	80.69
492.527	86.69
492.745	94.69
492.963	79.69
493.18	84.69
493.398	99.69
493.615	105.69
493.833	102.69
494.05	89.69
494.268	89.69
494.485	88.69
494.703	75.69
494.92	97.69
495.138	91.69
495.355	110.69
495.573	79.69
495.79	88.69
496.008	81.69
496.225	77.69
496.442	91.69
496.66	97.69
496.877	102.69
497.094	90.69
497.312	91.69
497.529	97.69
497.746	87.69
497.963	87.69
498.181	97.69
498.398	82.69
498.615	108.69
498.832	97.69
499.049	96.69
499.267	94.69
499.484	96.69
499.701	101.69
499.918	81.69
500.135	82.69
500.352	91.69
500.569	96.69
500.786	88.69
501.003	88.69
501.22	88.69
501.437	87.69
501.654	94.69
501.871	111.69
502.088	109.69
502.305	97.69
502.522	82.69
502.739	91.69
502.956	92.69
503.172	96.69
503.389	86.69
503.606	96.69
503.823	104.69
504.04	81.69
504.256	92.69
504.473	93.69
504.69	93.69
504.907	103.69
505.123	84.69
505.34	89.69
505.557	89.69
505.773	76.69
505.99	97.69
506.207	88.69
506.423	86.69
506.64	76.69
506.856	98.69
507.073	100.69
507.289	99.69
507.506	84.69
507.722	101.69
507.939	100.69
508.155	95.69
508.372	87.69
508.588	82.69
508.805	95.69
509.021	95.69
509.238	100.69
509.454	86.69
509.67	95.69
509.887	106.69
510.103	135.69
510.319	220.69
510.536	663.69
510.752	2012.69
510.968	557.69
511.184	136.69
511.401	103.69
511.617	107.69
511.833	97.69
512.049	89.69
512.265	79.69
512.481	90.69
512.698	76.69
512.914	102.69
513.13	109.69
513.346	107.69
513.562	110.69
513.778	96.69
513.994	103.69
514.21	87.69
514.426	117.69
514.642	122.69
514.858	105.69
515.074	156.69
515.29	385.69
515.506	1191.69
515.721	434.69
515.937	138.69
516.153	97.69
516.369	93.69
516.585	96.69
516.801	98.69
517.016	103.69
517.232	93.69
517.448	90.69
517.664	95.69
517.879	87.69
518.095	70.69
518.311	97.69
518.527	84.69
518.742	99.69
518.958	99.69
519.173	98.69
519.389	89.69
519.605	97.69
519.82	98.69
520.036	99.69
520.251	120.69
520.467	105.69
520.682	101.69
520.898	109.69
521.113	118.69
521.329	127.69
521.544	183.69
521.76	489.69
521.975	1943.69
522.19	1151.69
522.406	259.69
522.621	115.69
522.836	99.69
523.052	92.69
523.267	93.69
523.482	79.69
523.698	85.69
523.913	101.69
524.128	114.69
524.343	88.69
524.559	91.69
524.774	87.69
524.989	95.69
525.204	86.69
525.419	111.69
525.634	99.69
525.849	88.69
526.064	85.69
526.28	76.69
526.495	90.69
526.71	77.69
526.925	74.69
527.14	88.69
527.355	91.69
527.57	92.69
527.785	92.69
527.999	95.69
528.214	83.69
528.429	96.69
528.644	91.69
528.859	91.69
529.074	105.69
529.289	118.69
529.503	172.69
529.718	83.69
529.933	96.69
530.148	68.69
530.363	91.69
530.577	92.69
530.792	101.69
531.007	85.69
531.221	91.69
531.436	91.69
531.651	90.69
531.865	91.69
532.08	92.69
532.295	96.69
532.509	101.69
532.724	85.69
532.938	89.69
533.153	103.69
533.367	85.69
533.582	101.69
533.796	89.69
534.011	101.69
534.225	89.69
534.44	97.69
534.654	91.69
534.868	91.69
535.083	73.69
535.297	93.69
535.511	99.69
535.726	111.69
535.94	97.69
536.154	95.69
536.369	79.69
536.583	87.69
536.797	90.69
537.011	88.69
537.225	103.69
537.44	88.69
537.654	87.69
537.868	90.69
538.082	93.69
538.296	91.69
538.51	101.69
538.724	97.69
538.938	88.69
539.153	91.69
539.367	104.69
539.581	99.69
539.795	87.69
540.009	91.69
540.222	82.69
540.436	88.69
540.65	86.69
540.864	87.69
541.078	89.69
541.292	68.69
541.506	79.69
541.72	86.69
541.934	107.69
542.147	94.69
542.361	77.69
542.575	76.69
542.789	78.69
543.002	89.69
543.216	89.69
543.43	96.69
543.644	83.69
543.857	86.69
544.071	89.69
544.285	90.69
544.498	101.69
544.712	84.69
544.925	89.69
545.139	87.69
545.352	78.69
545.566	88.69
545.779	87.69
545.993	99.69
546.206	93.69
546.42	89.69
546.633	95.69
546.847	90.69
547.06	76.69
547.274	99.69
547.487	90.69
547.7	92.69
547.914	87.69
548.127	85.69
548.34	83.69
548.554	89.69
548.767	90.69
548.98	92.69
549.193	84.69
549.407	90.69
549.62	88.69
549.833	87.69
550.046	83.69
550.259	91.69
550.473	99.69
550.686	87.69
550.899	89.69
551.112	87.69
551.325	91.69
551.538	85.69
551.751	95.69
551.964	85.69
552.177	96.69
552.39	78.69
552.603	94.69
552.816	91.69
553.029	92.69
553.242	79.69
553.455	105.69
553.667	108.69
553.88	100.69
554.093	96.69
554.306	101.69
554.519	71.69
554.732	93.69
554.944	89.69
555.157	76.69
555.37	95.69
555.583	96.69
555.795	88.69
556.008	106.69
556.221	83.69
556.433	105.69
556.646	102.69
556.859	83.69
557.071	86.69
557.284	97.69
557.496	90.69
557.709	82.69
557.921	99.69
558.134	86.69
558.346	90.69
558.559	77.69
558.771	81.69
558.984	83.69
559.196	77.69
559.409	83.69
559.621	85.69
559.833	95.69
560.046	81.69
560.258	83.69
560.47	96.69
560.683	88.69
560.895	99.69
561.107	90.69
561.32	82.69
561.532	87.69
561.744	89.69
561.956	94.69
562.168	89.69
562.381	80.69
562.593	100.69
562.805	96.69
563.017	100.69
563.229	82.69
563.441	73.69
563.653	78.69
563.865	85.69
564.077	96.69
564.289	92.69
564.501	90.69
564.713	100.69
564.925	87.69
565.137	91.69
565.349	81.69
565.561	89.69
565.773	70.69
565.985	91.69
566.197	81.69
566.408	91.69
566.62	98.69
566.832	102.69
567.044	96.69
567.255	84.69
567.467	82.69
567.679	86.69
567.891	84.69
568.102	86.69
568.314	84.69
568.526	86.69
568.737	75.69
568.949	76.69
569.161	75.69
569.372	86.69
569.584	80.69
569.795	98.69
570.007	115.69
570.218	240.69
570.43	146.69
570.641	93.69
570.853	86.69
571.064	78.69
571.276	96.69
571.487	79.69
571.698	80.69
571.91	79.69
572.121	90.69
572.333	85.69
572.544	85.69
572.755	93.69
572.966	95.69
573.178	94.69
573.389	111.69
573.6	77.69
573.811	91.69
574.023	98.69
574.234	89.69
574.445	77.69
574.656	85.69
574.867	81.69
575.078	99.69
575.289	94.69
575.501	99.69
575.712	82.69
575.923	103.69
576.134	91.69
576.345	95.69
576.556	92.69
576.767	102.69
576.978	79.69
577.188	93.69
577.399	90.69
577.61	94.69
577.821	91.69
578.032	94.69
578.243	243.69
578.454	690.69
578.665	208.69
578.875	99.69
579.086	87.69
579.297	93.69
579.508	86.69
579.718	99.69
579.929	86.69
580.14	64.69
580.35	90.69
580.561	81.69
580.772	86.69
580.982	88.69
581.193	99.69
581.403	87.69
581.614	78.69
581.825	81.69
582.035	87.69
582.246	90.69
582.456	85.69
582.667	78.69
582.877	70.69
583.087	71.69
583.298	105.69
583.508	88.69
583.719	84.69
583.929	93.69
584.139	103.69
584.35	81.69
584.56	82.69
584.77	84.69
584.981	88.69
585.191	85.69
585.401	75.69
585.611	78.69
585.821	93.69
586.032	81.69
586.242	82.69
586.452	87.69
586.662	98.69
586.872	90.69
587.082	81.69
587.292	96.69
587.502	89.69
587.713	91.69
587.923	85.69
588.133	88.69
588.343	77.69
588.553	82.69
588.762	98.69
588.972	97.69
589.182	93.69
589.392	92.69
589.602	89.69
589.812	78.69
590.022	85.69
590.232	88.69
590.441	75.69
590.651	77.69
590.861	80.69
591.071	82.69
591.281	79.69
591.49	91.69
591.7	89.69
591.91	90.69
592.119	95.69
592.329	107.69
592.539	79.69
592.748	89.69
592.958	69.69
593.167	93.69
593.377	86.69
593.587	84.69
593.796	91.69
594.006	83.69
594.215	78.69
594.424	95.69
594.634	79.69
594.843	79.69
595.053	91.69
595.262	84.69
595.472	97.69
595.681	65.69
595.89	99.69
596.1	82.69
596.309	91.69
596.518	79.69
596.727	87.69
596.937	90.69
597.146	92.69
597.355	101.69
597.564	95.69
597.774	84.69
597.983	81.69
598.192	84.69
598.401	91.69
598.61	77.69
598.819	95.69
599.028	91.69
599.237	77.69
599.446	92.69
599.655	94.69
599.864	86.69
600.073	93.69
600.282	85.69
600.491	83.69
600.7	97.69
600.909	97.69
601.118	98.69
601.327	89.69
601.536	105.69
601.745	79.69
601.953	58.69
602.162	81.69
602.371	96.69
602.58	83.69
602.789	85.69
602.997	92.69
603.206	84.69
603.415	92.69
603.623	85.69
603.832	87.69
604.041	87.69
604.249	69.69
604.458	99.69
604.666	90.69
604.875	88.69
605.084	84.69
605.292	86.69
605.501	99.69
605.709	88.69
605.918	77.69
606.126	89.69
606.334	80.69
606.543	87.69
606.751	87.69
606.96	82.69
607.168	89.69
607.376	92.69
607.585	82.69
607.793	86.69
608.001	95.69
608.21	96.69
608.418	87.69
608.626	84.69
608.834	79.69
609.043	75.69
609.251	84.69
609.459	88.69
609.667	75.69
609.875	94.69
610.083	79.69
610.291	76.69
610.499	81.69
610.707	78.69
610.916	90.69
611.124	91.69
611.332	94.69
611.54	80.69
611.748	93.69
611.955	92.69
612.163	91.69
612.371	80.69
612.579	95.69
612.787	91.69
612.995	82.69
613.203	91.69
613.411	89.69
613.618	90.69
613.826	84.69
614.034	95.69
614.242	78.69
614.449	92.69
614.657	81.69
614.865	77.69
615.072	85.69
615.28	92.69
615.488	100.69
615.695	81.69
615.903	95.69
616.111	105.69
616.318	92.69
616.526	95.69
616.733	89.69
616.941	94.69
617.148	94.69
617.356	104.69
617.563	87.69
617.771	84.69
617.978	77.69
618.185	83.69
618.393	89.69
618.6	75.69
618.807	98.69
619.015	88.69
619.222	88.69
619.429	84.69
619.637	85.69
619.844	74.69
620.051	76.69
620.258	68.69
620.466	80.69
620.673	82.69
620.88	84.69
621.087	94.69
621.294	95.69
621.501	80.69
621.708	82.69
621.915	92.69
622.122	89.69
622.329	86.69
622.536	86.69
622.743	71.69
622.95	97.69
623.157	96.69
623.364	79.69
623.571	85.69
623.778	73.69
623.985	89.69
624.192	82.69
624.399	85.69
624.606	76.69
624.812	80.69
625.019	81.69
625.226	71.69
625.433	81.69
625.639	78.69
625.846	87.69
626.053	87.69
626.259	94.69
626.466	94.69
626.673	81.69
626.879	85.69
627.086	89.69
627.293	81.69
627.499	91.69
627.706	89.69
627.912	73.69
628.119	84.69
628.325	75.69
628.532	92.69
628.738	73.69
628.945	75.69
629.151	84.69
629.357	86.69
629.564	92.69
629.77	77.69
629.976	81.69
630.183	92.69
630.389	85.69
630.595	91.69
630.802	84.69
631.008	88.69
631.214	96.69
631.42	75.69
631.627	83.69
631.833	97.69
632.039	83.69
632.245	87.69
632.451	91.69
632.657	75.69
632.863	76.69
633.069	81.69
633.275	89.69
633.481	91.69
633.688	79.69
633.893	80.69
634.099	85.69
634.305	93.69
634.511	90.69
634.717	75.69
634.923	77.69
635.129	79.69
635.335	80.69
635.541	72.69
635.747	93.69
635.952	85.69
636.158	82.69
636.364	85.69
636.57	86.69
636.775	63.69
636.981	79.69
637.187	81.69
637.392	78.69
637.598	95.69
637.804	87.69
638.009	90.69
638.215	83.69
638.421	78.69
638.626	87.69
638.832	80.69
639.037	81.69
639.243	89.69
639.448	87.69
639.654	80.69
639.859	83.69
640.065	83.69
640.27	73.69
640.475	83.69
640.681	84.69
640.886	81.69
641.091	88.69
641.297	81.69
641.502	81.69
641.707	81.69
641.913	85.69
642.118	81.69
642.323	83.69
642.528	87.69
642.733	84.69
642.939	75.69
643.144	90.69
643.349	77.69
643.554	73.69
643.759	89.69
643.964	80.69
644.169	87.69
644.374	85.69
644.579	89.69
644.784	89.69
644.989	90.69
645.194	81.69
645.399	105.69
645.604	88.69
645.809	87.69
646.014	85.69
646.219	74.69
646.423	86.69
646.628	87.69
646.833	96.69
647.038	87.69
647.243	88.69
647.447	83.69
647.652	62.69
647.857	88.69
648.062	98.69
648.266	108.69
648.471	86.69
648.676	108.69
648.88	98.69
649.085	84.69
649.289	107.69
649.494	97.69
649.698	125.69
649.903	105.69
650.107	76.69
650.312	79.69
650.516	98.69
650.721	74.69
650.925	95.69
651.13	73.69
651.334	72.69
651.539	100.69
651.743	83.69
651.947	98.69
652.152	94.69
652.356	89.69
652.56	83.69
652.764	92.69
652.969	94.69
653.173	75.69
653.377	85.69
653.581	95.69
653.785	73.69
653.99	84.69
654.194	92.69
654.398	75.69
654.602	87.69
654.806	76.69
655.01	97.69
655.214	87.69
655.418	87.69
655.622	76.69
655.826	91.69
656.03	89.69
656.234	96.69
656.438	87.69
656.642	89.69
656.846	87.69
657.049	76.69
657.253	71.69
657.457	75.69
657.661	79.69
657.865	72.69
658.068	77.69
658.272	74.69
658.476	84.69
658.68	67.69
658.883	87.69
659.087	102.69
659.291	83.69
659.494	74.69
659.698	81.69
659.901	73.69
660.105	73.69
660.309	73.69
660.512	88.69
660.716	87.69
660.919	89.69
661.123	86.69
661.326	80.69
661.53	75.69
661.733	81.69
661.936	78.69
662.14	79.69
662.343	98.69
662.546	79.69
662.75	90.69
662.953	84.69
663.156	79.69
663.36	87.69
663.563	73.69
663.766	85.69
663.969	68.69
664.173	81.69
664.376	81.69
664.579	76.69
664.782	73.69
664.985	94.69
665.188	75.69
665.391	69.69
665.594	67.69
665.797	69.69
666	83.69
666.203	77.69
666.406	83.69
666.609	73.69
666.812	80.69
667.015	75.69
667.218	83.69
667.421	87.69
667.624	77.69
667.827	83.69
668.03	83.69
668.232	80.69
668.435	64.69
668.638	74.69
668.841	76.69
669.043	81.69
669.246	84.69
669.449	78.69
669.651	89.69
669.854	84.69
670.057	76.69
670.259	80.69
670.462	63.69
670.665	71.69
670.867	89.69
671.07	91.69
671.272	85.69
671.475	79.69
671.677	72.69
671.88	66.69
672.082	76.69
672.284	68.69
672.487	78.69
672.689	83.69
672.892	76.69
