Data from Uncirc_1992_H10_HRD10591_00100.txt Node
Date: Wed Jan 03 11:46:36 EST 2024
User: Yrep
Spectrometer: HR+D1059
Trigger mode: 1
Integration Time (sec): 1.000000E-1
Scans to average: 1
Electric dark correction enabled: true
Nonlinearity correction enabled: false
Boxcar width: 0
XAxis mode: Wavelengths
Number of Pixels in Spectrum: 2048
>>>>>Begin Spectral Data<<<<<
223.165	-30.56
223.4	-30.56
223.635	-30.56
223.869	-26.56
224.104	-13.56
224.338	-14.56
224.573	-16.56
224.808	-5.56
225.042	-7.56
225.277	-5.56
225.511	3.44
225.746	8.44
225.98	1.44
226.215	8.44
226.449	10.44
226.683	19.44
226.918	28.44
227.152	40.44
227.387	17.44
227.621	21.44
227.856	39.44
228.09	46.44
228.324	43.44
228.559	60.44
228.793	54.44
229.027	56.44
229.262	59.44
229.496	71.44
229.73	72.44
229.964	55.44
230.199	58.44
230.433	64.44
230.667	71.44
230.901	74.44
231.136	86.44
231.37	72.44
231.604	71.44
231.838	65.44
232.072	69.44
232.306	78.44
232.541	82.44
232.775	85.44
233.009	68.44
233.243	76.44
233.477	81.44
233.711	79.44
233.945	72.44
234.179	66.44
234.413	70.44
234.647	70.44
234.881	84.44
235.115	86.44
235.349	75.44
235.583	74.44
235.817	57.44
236.051	73.44
236.285	68.44
236.519	79.44
236.753	62.44
236.987	76.44
237.221	79.44
237.455	78.44
237.689	81.44
237.922	81.44
238.156	83.44
238.39	74.44
238.624	81.44
238.858	73.44
239.091	62.44
239.325	79.44
239.559	92.44
239.793	79.44
240.027	75.44
240.26	61.44
240.494	77.44
240.728	77.44
240.961	70.44
241.195	69.44
241.429	75.44
241.662	64.44
241.896	64.44
242.13	84.44
242.363	68.44
242.597	77.44
242.83	54.44
243.064	70.44
243.298	78.44
243.531	68.44
243.765	79.44
243.998	68.44
244.232	77.44
244.465	82.44
244.699	72.44
244.932	66.44
245.166	86.44
245.399	61.44
245.633	84.44
245.866	78.44
246.099	79.44
246.333	81.44
246.566	65.44
246.8	84.44
247.033	74.44
247.266	66.44
247.5	72.44
247.733	63.44
247.966	76.44
248.2	79.44
248.433	71.44
248.666	65.44
248.899	61.44
249.133	79.44
249.366	82.44
249.599	91.44
249.832	80.44
250.066	72.44
250.299	78.44
250.532	68.44
250.765	86.44
250.998	73.44
251.231	76.44
251.465	88.44
251.698	71.44
251.931	63.44
252.164	89.44
252.397	90.44
252.63	77.44
252.863	81.44
253.096	91.44
253.329	65.44
253.562	59.44
253.795	85.44
254.028	69.44
254.261	79.44
254.494	92.44
254.727	77.44
254.96	81.44
255.193	85.44
255.426	84.44
255.659	65.44
255.892	91.44
256.124	75.44
256.357	69.44
256.59	90.44
256.823	78.44
257.056	86.44
257.289	74.44
257.521	72.44
257.754	70.44
257.987	89.44
258.22	82.44
258.452	81.44
258.685	79.44
258.918	81.44
259.151	90.44
259.383	77.44
259.616	80.44
259.849	69.44
260.081	76.44
260.314	81.44
260.547	70.44
260.779	75.44
261.012	77.44
261.244	60.44
261.477	93.44
261.71	88.44
261.942	95.44
262.175	95.44
262.407	92.44
262.64	82.44
262.872	88.44
263.105	79.44
263.337	92.44
263.57	100.44
263.802	85.44
264.035	76.44
264.267	72.44
264.499	64.44
264.732	80.44
264.964	101.44
265.197	76.44
265.429	80.44
265.661	86.44
265.894	90.44
266.126	64.44
266.358	68.44
266.591	72.44
266.823	67.44
267.055	84.44
267.287	87.44
267.52	73.44
267.752	70.44
267.984	54.44
268.216	74.44
268.448	72.44
268.681	78.44
268.913	86.44
269.145	80.44
269.377	68.44
269.609	73.44
269.841	80.44
270.073	72.44
270.306	94.44
270.538	72.44
270.77	73.44
271.002	77.44
271.234	78.44
271.466	82.44
271.698	73.44
271.93	80.44
272.162	82.44
272.394	98.44
272.626	65.44
272.858	78.44
273.09	74.44
273.322	88.44
273.553	85.44
273.785	86.44
274.017	72.44
274.249	80.44
274.481	79.44
274.713	78.44
274.945	89.44
275.176	82.44
275.408	71.44
275.64	81.44
275.872	71.44
276.104	75.44
276.335	80.44
276.567	87.44
276.799	94.44
277.031	98.44
277.262	82.44
277.494	82.44
277.726	80.44
277.957	84.44
278.189	62.44
278.421	71.44
278.652	84.44
278.884	79.44
279.115	73.44
279.347	76.44
279.579	70.44
279.81	92.44
280.042	97.44
280.273	90.44
280.505	76.44
280.736	76.44
280.968	85.44
281.199	80.44
281.431	81.44
281.662	82.44
281.894	90.44
282.125	89.44
282.356	101.44
282.588	128.44
282.819	111.44
283.051	71.44
283.282	92.44
283.513	80.44
283.745	93.44
283.976	91.44
284.207	86.44
284.439	70.44
284.67	94.44
284.901	86.44
285.132	78.44
285.364	59.44
285.595	70.44
285.826	76.44
286.057	84.44
286.288	72.44
286.52	75.44
286.751	76.44
286.982	91.44
287.213	88.44
287.444	84.44
287.675	83.44
287.906	90.44
288.138	87.44
288.369	87.44
288.6	79.44
288.831	73.44
289.062	88.44
289.293	81.44
289.524	84.44
289.755	92.44
289.986	84.44
290.217	89.44
290.448	89.44
290.679	75.44
290.91	80.44
291.141	83.44
291.371	79.44
291.602	78.44
291.833	98.44
292.064	64.44
292.295	80.44
292.526	88.44
292.757	84.44
292.987	74.44
293.218	90.44
293.449	82.44
293.68	83.44
293.91	86.44
294.141	93.44
294.372	86.44
294.603	84.44
294.833	85.44
295.064	68.44
295.295	84.44
295.525	84.44
295.756	95.44
295.987	94.44
296.217	130.44
296.448	104.44
296.679	88.44
296.909	86.44
297.14	80.44
297.37	85.44
297.601	84.44
297.831	93.44
298.062	96.44
298.292	93.44
298.523	80.44
298.753	90.44
298.984	83.44
299.214	82.44
299.445	89.44
299.675	77.44
299.905	85.44
300.136	83.44
300.366	80.44
300.597	65.44
300.827	88.44
301.057	90.44
301.288	80.44
301.518	70.44
301.748	83.44
301.979	88.44
302.209	81.44
302.439	84.44
302.669	86.44
302.9	88.44
303.13	80.44
303.36	73.44
303.59	87.44
303.82	94.44
304.051	85.44
304.281	94.44
304.511	94.44
304.741	77.44
304.971	85.44
305.201	89.44
305.431	88.44
305.661	90.44
305.891	85.44
306.121	89.44
306.352	96.44
306.582	98.44
306.812	88.44
307.042	89.44
307.272	73.44
307.502	94.44
307.731	90.44
307.961	83.44
308.191	85.44
308.421	80.44
308.651	83.44
308.881	77.44
309.111	79.44
309.341	85.44
309.571	85.44
309.8	80.44
310.03	96.44
310.26	91.44
310.49	77.44
310.72	99.44
310.949	88.44
311.179	95.44
311.409	84.44
311.639	93.44
311.868	115.44
312.098	96.44
312.328	89.44
312.557	97.44
312.787	89.44
313.017	85.44
313.246	66.44
313.476	87.44
313.706	86.44
313.935	81.44
314.165	90.44
314.394	105.44
314.624	82.44
314.853	87.44
315.083	86.44
315.312	86.44
315.542	88.44
315.771	98.44
316.001	91.44
316.23	75.44
316.46	90.44
316.689	95.44
316.919	88.44
317.148	88.44
317.377	88.44
317.607	88.44
317.836	90.44
318.065	89.44
318.295	88.44
318.524	71.44
318.753	83.44
318.983	85.44
319.212	93.44
319.441	103.44
319.67	102.44
319.9	97.44
320.129	75.44
320.358	93.44
320.587	111.44
320.816	99.44
321.046	106.44
321.275	88.44
321.504	88.44
321.733	93.44
321.962	102.44
322.191	112.44
322.42	105.44
322.649	100.44
322.878	90.44
323.108	110.44
323.337	118.44
323.566	116.44
323.795	130.44
324.024	174.44
324.253	346.44
324.482	700.44
324.71	1400.44
324.939	1805.44
325.168	700.44
325.397	208.44
325.626	127.44
325.855	101.44
326.084	117.44
326.313	133.44
326.542	144.44
326.77	201.44
326.999	377.44
327.228	768.44
327.457	1420.44
327.686	1101.44
327.914	318.44
328.143	174.44
328.372	128.44
328.6	110.44
328.829	112.44
329.058	109.44
329.287	120.44
329.515	104.44
329.744	97.44
329.972	90.44
330.201	99.44
330.43	96.44
330.658	115.44
330.887	125.44
331.115	98.44
331.344	81.44
331.572	84.44
331.801	102.44
332.03	96.44
332.258	95.44
332.486	92.44
332.715	90.44
332.943	87.44
333.172	94.44
333.4	85.44
333.629	91.44
333.857	95.44
334.085	88.44
334.314	84.44
334.542	94.44
334.771	93.44
334.999	94.44
335.227	92.44
335.455	86.44
335.684	84.44
335.912	76.44
336.14	96.44
336.369	85.44
336.597	90.44
336.825	103.44
337.053	85.44
337.281	93.44
337.51	89.44
337.738	88.44
337.966	95.44
338.194	77.44
338.422	81.44
338.65	91.44
338.878	84.44
339.106	81.44
339.334	93.44
339.562	89.44
339.79	68.44
340.018	93.44
340.246	98.44
340.474	91.44
340.702	96.44
340.93	102.44
341.158	103.44
341.386	93.44
341.614	84.44
341.842	77.44
342.07	103.44
342.298	93.44
342.526	81.44
342.754	88.44
342.981	71.44
343.209	69.44
343.437	114.44
343.665	87.44
343.893	72.44
344.12	96.44
344.348	68.44
344.576	92.44
344.804	99.44
345.031	89.44
345.259	91.44
345.487	85.44
345.714	83.44
345.942	75.44
346.17	88.44
346.397	98.44
346.625	87.44
346.853	76.44
347.08	89.44
347.308	93.44
347.535	97.44
347.763	95.44
347.99	98.44
348.218	101.44
348.445	81.44
348.673	92.44
348.9	89.44
349.128	96.44
349.355	72.44
349.583	93.44
349.81	93.44
350.037	78.44
350.265	88.44
350.492	92.44
350.72	85.44
350.947	111.44
351.174	111.44
351.402	112.44
351.629	97.44
351.856	101.44
352.083	102.44
352.311	87.44
352.538	112.44
352.765	95.44
352.992	102.44
353.22	99.44
353.447	84.44
353.674	92.44
353.901	88.44
354.128	89.44
354.355	85.44
354.583	86.44
354.81	87.44
355.037	81.44
355.264	84.44
355.491	82.44
355.718	82.44
355.945	89.44
356.172	93.44
356.399	89.44
356.626	90.44
356.853	92.44
357.08	85.44
357.307	92.44
357.534	76.44
357.761	86.44
357.988	82.44
358.215	94.44
358.441	77.44
358.668	92.44
358.895	92.44
359.122	88.44
359.349	94.44
359.576	93.44
359.802	95.44
360.029	89.44
360.256	85.44
360.483	87.44
360.709	88.44
360.936	87.44
361.163	78.44
361.39	83.44
361.616	95.44
361.843	93.44
362.07	81.44
362.296	87.44
362.523	84.44
362.749	86.44
362.976	96.44
363.203	92.44
363.429	92.44
363.656	103.44
363.882	103.44
364.109	74.44
364.335	95.44
364.562	93.44
364.788	78.44
365.015	82.44
365.241	98.44
365.468	103.44
365.694	90.44
365.92	88.44
366.147	93.44
366.373	95.44
366.599	93.44
366.826	88.44
367.052	87.44
367.278	86.44
367.505	71.44
367.731	85.44
367.957	93.44
368.184	88.44
368.41	98.44
368.636	112.44
368.862	116.44
369.089	111.44
369.315	97.44
369.541	98.44
369.767	79.44
369.993	99.44
370.219	84.44
370.445	73.44
370.672	92.44
370.898	83.44
371.124	71.44
371.35	75.44
371.576	92.44
371.802	77.44
372.028	82.44
372.254	85.44
372.48	86.44
372.706	85.44
372.932	89.44
373.158	84.44
373.384	105.44
373.61	74.44
373.835	76.44
374.061	80.44
374.287	89.44
374.513	86.44
374.739	86.44
374.965	85.44
375.191	81.44
375.416	89.44
375.642	90.44
375.868	77.44
376.094	76.44
376.319	93.44
376.545	87.44
376.771	79.44
376.997	90.44
377.222	81.44
377.448	91.44
377.674	91.44
377.899	82.44
378.125	85.44
378.35	86.44
378.576	66.44
378.802	85.44
379.027	85.44
379.253	104.44
379.478	91.44
379.704	86.44
379.929	97.44
380.155	102.44
380.38	98.44
380.606	97.44
380.831	90.44
381.057	95.44
381.282	88.44
381.507	78.44
381.733	94.44
381.958	91.44
382.184	85.44
382.409	93.44
382.634	98.44
382.86	81.44
383.085	98.44
383.31	94.44
383.535	117.44
383.761	89.44
383.986	86.44
384.211	79.44
384.436	95.44
384.662	73.44
384.887	91.44
385.112	84.44
385.337	89.44
385.562	98.44
385.787	84.44
386.013	94.44
386.238	109.44
386.463	93.44
386.688	104.44
386.913	110.44
387.138	106.44
387.363	81.44
387.588	88.44
387.813	79.44
388.038	92.44
388.263	98.44
388.488	104.44
388.713	82.44
388.938	96.44
389.163	70.44
389.387	84.44
389.612	100.44
389.837	81.44
390.062	87.44
390.287	79.44
390.512	80.44
390.736	86.44
390.961	81.44
391.186	89.44
391.411	98.44
391.636	94.44
391.86	76.44
392.085	95.44
392.31	94.44
392.534	80.44
392.759	91.44
392.984	86.44
393.208	67.44
393.433	104.44
393.658	87.44
393.882	84.44
394.107	81.44
394.331	81.44
394.556	92.44
394.78	105.44
395.005	76.44
395.229	86.44
395.454	76.44
395.678	80.44
395.903	73.44
396.127	86.44
396.352	69.44
396.576	73.44
396.801	61.44
397.025	102.44
397.249	76.44
397.474	87.44
397.698	98.44
397.922	87.44
398.147	89.44
398.371	93.44
398.595	73.44
398.82	84.44
399.044	90.44
399.268	83.44
399.492	92.44
399.717	93.44
399.941	82.44
400.165	76.44
400.389	86.44
400.613	75.44
400.837	76.44
401.062	93.44
401.286	89.44
401.51	88.44
401.734	88.44
401.958	96.44
402.182	117.44
402.406	144.44
402.63	96.44
402.854	67.44
403.078	82.44
403.302	73.44
403.526	82.44
403.75	89.44
403.974	89.44
404.198	72.44
404.422	93.44
404.645	83.44
404.869	80.44
405.093	87.44
405.317	92.44
405.541	89.44
405.765	93.44
405.988	98.44
406.212	162.44
406.436	209.44
406.66	119.44
406.883	87.44
407.107	82.44
407.331	102.44
407.555	88.44
407.778	88.44
408.002	88.44
408.226	91.44
408.449	96.44
408.673	85.44
408.896	88.44
409.12	91.44
409.344	89.44
409.567	70.44
409.791	89.44
410.014	90.44
410.238	98.44
410.461	102.44
410.685	90.44
410.908	92.44
411.132	81.44
411.355	82.44
411.578	99.44
411.802	84.44
412.025	89.44
412.249	85.44
412.472	91.44
412.695	88.44
412.919	66.44
413.142	97.44
413.365	73.44
413.589	94.44
413.812	74.44
414.035	88.44
414.258	90.44
414.482	76.44
414.705	81.44
414.928	83.44
415.151	93.44
415.374	86.44
415.597	71.44
415.821	84.44
416.044	85.44
416.267	91.44
416.49	69.44
416.713	80.44
416.936	82.44
417.159	89.44
417.382	94.44
417.605	96.44
417.828	92.44
418.051	89.44
418.274	82.44
418.497	76.44
418.72	88.44
418.943	73.44
419.166	86.44
419.389	83.44
419.611	75.44
419.834	78.44
420.057	78.44
420.28	76.44
420.503	75.44
420.726	77.44
420.948	74.44
421.171	77.44
421.394	80.44
421.617	88.44
421.839	77.44
422.062	76.44
422.285	69.44
422.507	93.44
422.73	93.44
422.953	99.44
423.175	78.44
423.398	95.44
423.621	86.44
423.843	87.44
424.066	85.44
424.288	95.44
424.511	80.44
424.733	89.44
424.956	85.44
425.178	98.44
425.401	94.44
425.623	85.44
425.846	86.44
426.068	77.44
426.291	79.44
426.513	84.44
426.735	80.44
426.958	97.44
427.18	90.44
427.402	111.44
427.625	159.44
427.847	111.44
428.069	92.44
428.292	91.44
428.514	72.44
428.736	79.44
428.958	84.44
429.181	77.44
429.403	80.44
429.625	81.44
429.847	90.44
430.069	86.44
430.292	89.44
430.514	69.44
430.736	80.44
430.958	83.44
431.18	72.44
431.402	70.44
431.624	75.44
431.846	84.44
432.068	76.44
432.29	96.44
432.512	91.44
432.734	88.44
432.956	91.44
433.178	84.44
433.4	92.44
433.622	84.44
433.844	80.44
434.066	65.44
434.287	81.44
434.509	90.44
434.731	93.44
434.953	86.44
435.175	81.44
435.397	80.44
435.618	90.44
435.84	100.44
436.062	104.44
436.284	101.44
436.505	84.44
436.727	97.44
436.949	86.44
437.17	77.44
437.392	94.44
437.614	79.44
437.835	84.44
438.057	113.44
438.278	98.44
438.5	103.44
438.721	109.44
438.943	99.44
439.165	96.44
439.386	71.44
439.608	85.44
439.829	91.44
440.05	107.44
440.272	125.44
440.493	89.44
440.715	92.44
440.936	96.44
441.158	75.44
441.379	97.44
441.6	97.44
441.822	97.44
442.043	80.44
442.264	93.44
442.486	94.44
442.707	94.44
442.928	101.44
443.149	113.44
443.371	107.44
443.592	90.44
443.813	91.44
444.034	109.44
444.255	76.44
444.476	83.44
444.698	85.44
444.919	70.44
445.14	111.44
445.361	132.44
445.582	115.44
445.803	111.44
446.024	122.44
446.245	117.44
446.466	113.44
446.687	78.44
446.908	76.44
447.129	82.44
447.35	94.44
447.571	86.44
447.792	78.44
448.013	87.44
448.234	92.44
448.455	94.44
448.675	102.44
448.896	100.44
449.117	90.44
449.338	94.44
449.559	100.44
449.779	113.44
450	92.44
450.221	74.44
450.442	88.44
450.662	95.44
450.883	88.44
451.104	97.44
451.324	96.44
451.545	79.44
451.766	85.44
451.986	80.44
452.207	85.44
452.428	78.44
452.648	102.44
452.869	103.44
453.089	108.44
453.31	107.44
453.53	65.44
453.751	86.44
453.971	94.44
454.192	102.44
454.412	90.44
454.633	84.44
454.853	82.44
455.073	80.44
455.294	89.44
455.514	84.44
455.734	98.44
455.955	75.44
456.175	73.44
456.395	87.44
456.616	85.44
456.836	80.44
457.056	76.44
457.276	76.44
457.497	88.44
457.717	74.44
457.937	85.44
458.157	78.44
458.377	83.44
458.598	90.44
458.818	134.44
459.038	129.44
459.258	108.44
459.478	96.44
459.698	90.44
459.918	80.44
460.138	80.44
460.358	89.44
460.578	94.44
460.798	85.44
461.018	86.44
461.238	77.44
461.458	56.44
461.678	86.44
461.898	85.44
462.118	91.44
462.338	96.44
462.558	77.44
462.777	78.44
462.997	65.44
463.217	92.44
463.437	72.44
463.657	84.44
463.876	100.44
464.096	78.44
464.316	79.44
464.536	97.44
464.755	87.44
464.975	104.44
465.195	138.44
465.414	126.44
465.634	81.44
465.854	77.44
466.073	93.44
466.293	71.44
466.512	83.44
466.732	81.44
466.951	98.44
467.171	90.44
467.391	93.44
467.61	99.44
467.829	91.44
468.049	98.44
468.268	84.44
468.488	96.44
468.707	90.44
468.927	74.44
469.146	73.44
469.365	92.44
469.585	89.44
469.804	95.44
470.023	95.44
470.243	97.44
470.462	80.44
470.681	107.44
470.901	82.44
471.12	84.44
471.339	86.44
471.558	64.44
471.777	65.44
471.997	79.44
472.216	88.44
472.435	92.44
472.654	95.44
472.873	86.44
473.092	85.44
473.311	68.44
473.53	94.44
473.749	76.44
473.968	87.44
474.187	88.44
474.406	85.44
474.625	78.44
474.844	72.44
475.063	76.44
475.282	81.44
475.501	80.44
475.72	82.44
475.939	94.44
476.158	76.44
476.377	86.44
476.596	80.44
476.814	84.44
477.033	72.44
477.252	90.44
477.471	88.44
477.69	84.44
477.908	70.44
478.127	83.44
478.346	86.44
478.564	80.44
478.783	97.44
479.002	91.44
479.22	88.44
479.439	93.44
479.658	91.44
479.876	88.44
480.095	72.44
480.313	96.44
480.532	92.44
480.751	91.44
480.969	102.44
481.188	117.44
481.406	101.44
481.624	89.44
481.843	94.44
482.061	81.44
482.28	66.44
482.498	94.44
482.717	85.44
482.935	94.44
483.153	71.44
483.372	69.44
483.59	84.44
483.808	81.44
484.027	78.44
484.245	83.44
484.463	81.44
484.681	89.44
484.9	75.44
485.118	87.44
485.336	96.44
485.554	73.44
485.772	80.44
485.99	98.44
486.209	79.44
486.427	88.44
486.645	94.44
486.863	122.44
487.081	98.44
487.299	96.44
487.517	91.44
487.735	80.44
487.953	87.44
488.171	89.44
488.389	81.44
488.607	101.44
488.825	83.44
489.043	76.44
489.261	88.44
489.479	102.44
489.696	89.44
489.914	89.44
490.132	84.44
490.35	72.44
490.568	83.44
490.786	84.44
491.003	89.44
491.221	94.44
491.439	77.44
491.657	90.44
491.874	92.44
492.092	86.44
492.31	88.44
492.527	87.44
492.745	91.44
492.963	81.44
493.18	89.44
493.398	82.44
493.615	90.44
493.833	94.44
494.05	87.44
494.268	72.44
494.485	89.44
494.703	84.44
494.92	104.44
495.138	85.44
495.355	76.44
495.573	82.44
495.79	69.44
496.008	82.44
496.225	89.44
496.442	74.44
496.66	79.44
496.877	84.44
497.094	87.44
497.312	86.44
497.529	81.44
497.746	75.44
497.963	91.44
498.181	89.44
498.398	101.44
498.615	98.44
498.832	87.44
499.049	87.44
499.267	82.44
499.484	88.44
499.701	76.44
499.918	103.44
500.135	92.44
500.352	100.44
500.569	97.44
500.786	94.44
501.003	94.44
501.22	81.44
501.437	82.44
501.654	92.44
501.871	99.44
502.088	89.44
502.305	96.44
502.522	77.44
502.739	78.44
502.956	86.44
503.172	81.44
503.389	93.44
503.606	103.44
503.823	82.44
504.04	87.44
504.256	89.44
504.473	87.44
504.69	77.44
504.907	83.44
505.123	92.44
505.34	80.44
505.557	88.44
505.773	79.44
505.99	94.44
506.207	92.44
506.423	88.44
506.64	85.44
506.856	79.44
507.073	76.44
507.289	80.44
507.506	86.44
507.722	106.44
507.939	98.44
508.155	97.44
508.372	112.44
508.588	92.44
508.805	97.44
509.021	98.44
509.238	92.44
509.454	100.44
509.67	100.44
509.887	106.44
510.103	120.44
510.319	210.44
510.536	696.44
510.752	2039.44
510.968	558.44
511.184	148.44
511.401	104.44
511.617	92.44
511.833	91.44
512.049	85.44
512.265	83.44
512.481	96.44
512.698	70.44
512.914	83.44
513.13	74.44
513.346	80.44
513.562	102.44
513.778	91.44
513.994	97.44
514.21	103.44
514.426	113.44
514.642	110.44
514.858	131.44
515.074	140.44
515.29	368.44
515.506	1206.44
515.721	475.44
515.937	129.44
516.153	102.44
516.369	97.44
516.585	87.44
516.801	95.44
517.016	93.44
517.232	97.44
517.448	81.44
517.664	90.44
517.879	89.44
518.095	90.44
518.311	84.44
518.527	90.44
518.742	96.44
518.958	98.44
519.173	81.44
519.389	93.44
519.605	90.44
519.82	93.44
520.036	103.44
520.251	103.44
520.467	105.44
520.682	100.44
520.898	80.44
521.113	103.44
521.329	123.44
521.544	180.44
521.76	482.44
521.975	2023.44
522.19	1208.44
522.406	263.44
522.621	108.44
522.836	92.44
523.052	91.44
523.267	92.44
523.482	90.44
523.698	102.44
523.913	114.44
524.128	110.44
524.343	96.44
524.559	101.44
524.774	93.44
524.989	106.44
525.204	95.44
525.419	98.44
525.634	89.44
525.849	89.44
526.064	104.44
526.28	89.44
526.495	92.44
526.71	98.44
526.925	88.44
527.14	84.44
527.355	86.44
527.57	81.44
527.785	87.44
527.999	85.44
528.214	78.44
528.429	100.44
528.644	82.44
528.859	88.44
529.074	80.44
529.289	107.44
529.503	153.44
529.718	91.44
529.933	106.44
530.148	86.44
530.363	106.44
530.577	90.44
530.792	76.44
531.007	93.44
531.221	84.44
531.436	80.44
531.651	87.44
531.865	85.44
532.08	73.44
532.295	75.44
532.509	82.44
532.724	100.44
532.938	81.44
533.153	97.44
533.367	86.44
533.582	86.44
533.796	92.44
534.011	92.44
534.225	97.44
534.44	101.44
534.654	80.44
534.868	78.44
535.083	94.44
535.297	100.44
535.511	101.44
535.726	94.44
535.94	105.44
536.154	104.44
536.369	93.44
536.583	84.44
536.797	93.44
537.011	94.44
537.225	71.44
537.44	80.44
537.654	88.44
537.868	89.44
538.082	87.44
538.296	93.44
538.51	95.44
538.724	87.44
538.938	81.44
539.153	78.44
539.367	91.44
539.581	95.44
539.795	89.44
540.009	94.44
540.222	87.44
540.436	110.44
540.65	94.44
540.864	89.44
541.078	106.44
541.292	90.44
541.506	84.44
541.72	80.44
541.934	97.44
542.147	93.44
542.361	98.44
542.575	88.44
542.789	86.44
543.002	93.44
543.216	82.44
543.43	87.44
543.644	77.44
543.857	99.44
544.071	75.44
544.285	96.44
544.498	89.44
544.712	79.44
544.925	81.44
545.139	86.44
545.352	72.44
545.566	96.44
545.779	89.44
545.993	80.44
546.206	70.44
546.42	92.44
546.633	70.44
546.847	77.44
547.06	81.44
547.274	97.44
547.487	86.44
547.7	92.44
547.914	79.44
548.127	89.44
548.34	92.44
548.554	84.44
548.767	87.44
548.98	88.44
549.193	72.44
549.407	76.44
549.62	102.44
549.833	85.44
550.046	95.44
550.259	84.44
550.473	84.44
550.686	87.44
550.899	89.44
551.112	92.44
551.325	86.44
551.538	81.44
551.751	83.44
551.964	89.44
552.177	81.44
552.39	93.44
552.603	95.44
552.816	82.44
553.029	75.44
553.242	90.44
553.455	92.44
553.667	92.44
553.88	93.44
554.093	81.44
554.306	85.44
554.519	70.44
554.732	84.44
554.944	85.44
555.157	89.44
555.37	85.44
555.583	94.44
555.795	98.44
556.008	87.44
556.221	93.44
556.433	91.44
556.646	95.44
556.859	85.44
557.071	89.44
557.284	92.44
557.496	81.44
557.709	82.44
557.921	91.44
558.134	84.44
558.346	76.44
558.559	77.44
558.771	87.44
558.984	87.44
559.196	94.44
559.409	84.44
559.621	87.44
559.833	85.44
560.046	84.44
560.258	73.44
560.47	90.44
560.683	89.44
560.895	71.44
561.107	79.44
561.32	77.44
561.532	71.44
561.744	83.44
561.956	98.44
562.168	82.44
562.381	89.44
562.593	75.44
562.805	75.44
563.017	95.44
563.229	91.44
563.441	82.44
563.653	89.44
563.865	87.44
564.077	89.44
564.289	81.44
564.501	88.44
564.713	85.44
564.925	71.44
565.137	84.44
565.349	87.44
565.561	86.44
565.773	93.44
565.985	70.44
566.197	89.44
566.408	82.44
566.62	86.44
566.832	62.44
567.044	88.44
567.255	79.44
567.467	83.44
567.679	74.44
567.891	78.44
568.102	77.44
568.314	89.44
568.526	77.44
568.737	92.44
568.949	83.44
569.161	87.44
569.372	75.44
569.584	80.44
569.795	102.44
570.007	114.44
570.218	220.44
570.43	127.44
570.641	91.44
570.853	78.44
571.064	68.44
571.276	90.44
571.487	82.44
571.698	69.44
571.91	66.44
572.121	86.44
572.333	80.44
572.544	63.44
572.755	70.44
572.966	84.44
573.178	77.44
573.389	78.44
573.6	97.44
573.811	80.44
574.023	72.44
574.234	73.44
574.445	91.44
574.656	83.44
574.867	85.44
575.078	84.44
575.289	83.44
575.501	89.44
575.712	85.44
575.923	96.44
576.134	83.44
576.345	82.44
576.556	80.44
576.767	72.44
576.978	88.44
577.188	86.44
577.399	107.44
577.61	90.44
577.821	101.44
578.032	124.44
578.243	232.44
578.454	649.44
578.665	200.44
578.875	88.44
579.086	89.44
579.297	84.44
579.508	80.44
579.718	84.44
579.929	98.44
580.14	65.44
580.35	79.44
580.561	93.44
580.772	77.44
580.982	74.44
581.193	98.44
581.403	72.44
581.614	73.44
581.825	85.44
582.035	77.44
582.246	78.44
582.456	75.44
582.667	72.44
582.877	92.44
583.087	94.44
583.298	86.44
583.508	70.44
583.719	71.44
583.929	79.44
584.139	77.44
584.35	80.44
584.56	82.44
584.77	84.44
584.981	76.44
585.191	87.44
585.401	84.44
585.611	96.44
585.821	97.44
586.032	94.44
586.242	87.44
586.452	74.44
586.662	99.44
586.872	79.44
587.082	68.44
587.292	89.44
587.502	84.44
587.713	82.44
587.923	84.44
588.133	96.44
588.343	70.44
588.553	73.44
588.762	79.44
588.972	68.44
589.182	92.44
589.392	94.44
589.602	89.44
589.812	72.44
590.022	79.44
590.232	83.44
590.441	84.44
590.651	82.44
590.861	87.44
591.071	76.44
591.281	84.44
591.49	79.44
591.7	76.44
591.91	95.44
592.119	87.44
592.329	80.44
592.539	91.44
592.748	86.44
592.958	76.44
593.167	72.44
593.377	89.44
593.587	90.44
593.796	81.44
594.006	88.44
594.215	82.44
594.424	84.44
594.634	83.44
594.843	74.44
595.053	73.44
595.262	80.44
595.472	61.44
595.681	79.44
595.89	80.44
596.1	80.44
596.309	78.44
596.518	61.44
596.727	89.44
596.937	79.44
597.146	78.44
597.355	65.44
597.564	74.44
597.774	82.44
597.983	77.44
598.192	90.44
598.401	85.44
598.61	84.44
598.819	88.44
599.028	98.44
599.237	80.44
599.446	89.44
599.655	87.44
599.864	80.44
600.073	61.44
600.282	84.44
600.491	75.44
600.7	87.44
600.909	80.44
601.118	73.44
601.327	78.44
601.536	88.44
601.745	71.44
601.953	85.44
602.162	80.44
602.371	84.44
602.58	89.44
602.789	92.44
602.997	71.44
603.206	92.44
603.415	89.44
603.623	76.44
603.832	85.44
604.041	94.44
604.249	74.44
604.458	86.44
604.666	83.44
604.875	90.44
605.084	81.44
605.292	84.44
605.501	84.44
605.709	74.44
605.918	62.44
606.126	69.44
606.334	82.44
606.543	103.44
606.751	83.44
606.96	81.44
607.168	88.44
607.376	82.44
607.585	76.44
607.793	88.44
608.001	82.44
608.21	89.44
608.418	85.44
608.626	86.44
608.834	79.44
609.043	78.44
609.251	82.44
609.459	86.44
609.667	80.44
609.875	80.44
610.083	94.44
610.291	92.44
610.499	96.44
610.707	77.44
610.916	72.44
611.124	88.44
611.332	67.44
611.54	79.44
611.748	86.44
611.955	82.44
612.163	70.44
612.371	80.44
612.579	70.44
612.787	75.44
612.995	87.44
613.203	75.44
613.411	77.44
613.618	84.44
613.826	81.44
614.034	81.44
614.242	81.44
614.449	73.44
614.657	64.44
614.865	63.44
615.072	95.44
615.28	88.44
615.488	84.44
615.695	87.44
615.903	85.44
616.111	93.44
616.318	87.44
616.526	94.44
616.733	92.44
616.941	85.44
617.148	94.44
617.356	85.44
617.563	96.44
617.771	94.44
617.978	87.44
618.185	77.44
618.393	80.44
618.6	76.44
618.807	84.44
619.015	80.44
619.222	76.44
619.429	85.44
619.637	77.44
619.844	78.44
620.051	79.44
620.258	85.44
620.466	69.44
620.673	74.44
620.88	94.44
621.087	81.44
621.294	75.44
621.501	74.44
621.708	86.44
621.915	70.44
622.122	75.44
622.329	82.44
622.536	74.44
622.743	80.44
622.95	97.44
623.157	76.44
623.364	89.44
623.571	78.44
623.778	81.44
623.985	85.44
624.192	77.44
624.399	77.44
624.606	74.44
624.812	89.44
625.019	78.44
625.226	66.44
625.433	73.44
625.639	67.44
625.846	76.44
626.053	94.44
626.259	72.44
626.466	87.44
626.673	94.44
626.879	77.44
627.086	84.44
627.293	74.44
627.499	73.44
627.706	92.44
627.912	80.44
628.119	87.44
628.325	81.44
628.532	92.44
628.738	80.44
628.945	76.44
629.151	72.44
629.357	79.44
629.564	70.44
629.77	83.44
629.976	78.44
630.183	80.44
630.389	66.44
630.595	82.44
630.802	94.44
631.008	79.44
631.214	76.44
631.42	85.44
631.627	81.44
631.833	81.44
632.039	90.44
632.245	80.44
632.451	81.44
632.657	72.44
632.863	71.44
633.069	87.44
633.275	80.44
633.481	85.44
633.688	77.44
633.893	74.44
634.099	73.44
634.305	80.44
634.511	78.44
634.717	87.44
634.923	78.44
635.129	68.44
635.335	72.44
635.541	75.44
635.747	101.44
635.952	91.44
636.158	76.44
636.364	82.44
636.57	92.44
636.775	87.44
636.981	85.44
637.187	94.44
637.392	81.44
637.598	78.44
637.804	76.44
638.009	80.44
638.215	84.44
638.421	70.44
638.626	86.44
638.832	73.44
639.037	64.44
639.243	74.44
639.448	80.44
639.654	80.44
639.859	59.44
640.065	80.44
640.27	80.44
640.475	75.44
640.681	66.44
640.886	68.44
641.091	66.44
641.297	88.44
641.502	78.44
641.707	79.44
641.913	65.44
642.118	69.44
642.323	84.44
642.528	85.44
642.733	86.44
642.939	97.44
643.144	71.44
643.349	80.44
643.554	80.44
643.759	81.44
643.964	75.44
644.169	72.44
644.374	72.44
644.579	83.44
644.784	95.44
644.989	78.44
645.194	84.44
645.399	74.44
645.604	77.44
645.809	87.44
646.014	73.44
646.219	77.44
646.423	74.44
646.628	78.44
646.833	92.44
647.038	77.44
647.243	76.44
647.447	84.44
647.652	87.44
647.857	84.44
648.062	88.44
648.266	85.44
648.471	82.44
648.676	80.44
648.88	85.44
649.085	87.44
649.289	84.44
649.494	88.44
649.698	119.44
649.903	94.44
650.107	82.44
650.312	88.44
650.516	77.44
650.721	72.44
650.925	80.44
651.13	61.44
651.334	74.44
651.539	85.44
651.743	90.44
651.947	71.44
652.152	77.44
652.356	78.44
652.56	83.44
652.764	80.44
652.969	92.44
653.173	72.44
653.377	61.44
653.581	65.44
653.785	95.44
653.99	78.44
654.194	81.44
654.398	80.44
654.602	84.44
654.806	88.44
655.01	92.44
655.214	78.44
655.418	80.44
655.622	84.44
655.826	78.44
656.03	80.44
656.234	92.44
656.438	91.44
656.642	94.44
656.846	76.44
657.049	74.44
657.253	89.44
657.457	90.44
657.661	88.44
657.865	86.44
658.068	76.44
658.272	58.44
658.476	81.44
658.68	87.44
658.883	75.44
659.087	74.44
659.291	68.44
659.494	74.44
659.698	76.44
659.901	75.44
660.105	71.44
660.309	73.44
660.512	73.44
660.716	69.44
660.919	71.44
661.123	84.44
661.326	90.44
661.53	68.44
661.733	79.44
661.936	80.44
662.14	67.44
662.343	100.44
662.546	69.44
662.75	80.44
662.953	91.44
663.156	80.44
663.36	68.44
663.563	78.44
663.766	73.44
663.969	91.44
664.173	79.44
664.376	76.44
664.579	72.44
664.782	80.44
664.985	82.44
665.188	72.44
665.391	76.44
665.594	76.44
665.797	92.44
666	69.44
666.203	84.44
666.406	84.44
666.609	68.44
666.812	58.44
667.015	81.44
667.218	80.44
667.421	67.44
667.624	77.44
667.827	74.44
668.03	89.44
668.232	72.44
668.435	77.44
668.638	88.44
668.841	82.44
669.043	75.44
669.246	87.44
669.449	73.44
669.651	80.44
669.854	80.44
670.057	65.44
670.259	80.44
670.462	69.44
670.665	70.44
670.867	59.44
671.07	78.44
671.272	81.44
671.475	82.44
671.677	74.44
671.88	77.44
672.082	76.44
672.284	80.44
672.487	66.44
672.689	78.44
672.892	74.44
