Data from Uncirc_1992_H10_HRD10591_00068.txt Node
Date: Wed Jan 03 11:46:29 EST 2024
User: Yrep
Spectrometer: HR+D1059
Trigger mode: 1
Integration Time (sec): 1.000000E-1
Scans to average: 1
Electric dark correction enabled: true
Nonlinearity correction enabled: false
Boxcar width: 0
XAxis mode: Wavelengths
Number of Pixels in Spectrum: 2048
>>>>>Begin Spectral Data<<<<<
223.165	-8.62
223.4	-8.62
223.635	-8.62
223.869	-18.62
224.104	-26.62
224.338	-14.62
224.573	-22.62
224.808	-11.62
225.042	-18.62
225.277	-3.62
225.511	-0.62
225.746	-0.62
225.98	10.38
226.215	23.38
226.449	24.38
226.683	21.38
226.918	22.38
227.152	24.38
227.387	41.38
227.621	35.38
227.856	34.38
228.09	47.38
228.324	41.38
228.559	58.38
228.793	52.38
229.027	52.38
229.262	74.38
229.496	81.38
229.73	77.38
229.964	71.38
230.199	73.38
230.433	64.38
230.667	71.38
230.901	86.38
231.136	73.38
231.37	63.38
231.604	71.38
231.838	81.38
232.072	85.38
232.306	66.38
232.541	71.38
232.775	74.38
233.009	74.38
233.243	76.38
233.477	80.38
233.711	76.38
233.945	59.38
234.179	65.38
234.413	82.38
234.647	69.38
234.881	71.38
235.115	87.38
235.349	77.38
235.583	65.38
235.817	76.38
236.051	86.38
236.285	79.38
236.519	72.38
236.753	82.38
236.987	79.38
237.221	77.38
237.455	90.38
237.689	77.38
237.922	93.38
238.156	72.38
238.39	65.38
238.624	77.38
238.858	74.38
239.091	67.38
239.325	79.38
239.559	82.38
239.793	67.38
240.027	80.38
240.26	75.38
240.494	87.38
240.728	77.38
240.961	72.38
241.195	84.38
241.429	71.38
241.662	66.38
241.896	66.38
242.13	68.38
242.363	71.38
242.597	68.38
242.83	77.38
243.064	72.38
243.298	79.38
243.531	85.38
243.765	74.38
243.998	90.38
244.232	93.38
244.465	80.38
244.699	78.38
244.932	72.38
245.166	82.38
245.399	83.38
245.633	87.38
245.866	77.38
246.099	64.38
246.333	81.38
246.566	87.38
246.8	81.38
247.033	77.38
247.266	83.38
247.5	85.38
247.733	80.38
247.966	73.38
248.2	83.38
248.433	71.38
248.666	79.38
248.899	87.38
249.133	73.38
249.366	79.38
249.599	84.38
249.832	89.38
250.066	80.38
250.299	85.38
250.532	79.38
250.765	83.38
250.998	73.38
251.231	84.38
251.465	78.38
251.698	83.38
251.931	88.38
252.164	81.38
252.397	84.38
252.63	82.38
252.863	59.38
253.096	87.38
253.329	71.38
253.562	75.38
253.795	73.38
254.028	79.38
254.261	75.38
254.494	78.38
254.727	85.38
254.96	79.38
255.193	61.38
255.426	72.38
255.659	69.38
255.892	71.38
256.124	71.38
256.357	88.38
256.59	98.38
256.823	81.38
257.056	77.38
257.289	84.38
257.521	79.38
257.754	81.38
257.987	75.38
258.22	77.38
258.452	72.38
258.685	79.38
258.918	79.38
259.151	85.38
259.383	77.38
259.616	76.38
259.849	96.38
260.081	88.38
260.314	94.38
260.547	77.38
260.779	75.38
261.012	88.38
261.244	80.38
261.477	78.38
261.71	86.38
261.942	98.38
262.175	102.38
262.407	88.38
262.64	84.38
262.872	87.38
263.105	81.38
263.337	83.38
263.57	82.38
263.802	82.38
264.035	86.38
264.267	75.38
264.499	75.38
264.732	91.38
264.964	90.38
265.197	80.38
265.429	75.38
265.661	87.38
265.894	67.38
266.126	87.38
266.358	78.38
266.591	73.38
266.823	88.38
267.055	94.38
267.287	91.38
267.52	94.38
267.752	83.38
267.984	87.38
268.216	78.38
268.448	78.38
268.681	88.38
268.913	87.38
269.145	85.38
269.377	75.38
269.609	70.38
269.841	70.38
270.073	89.38
270.306	89.38
270.538	79.38
270.77	88.38
271.002	83.38
271.234	95.38
271.466	85.38
271.698	75.38
271.93	72.38
272.162	87.38
272.394	90.38
272.626	85.38
272.858	81.38
273.09	88.38
273.322	91.38
273.553	81.38
273.785	87.38
274.017	94.38
274.249	89.38
274.481	80.38
274.713	95.38
274.945	87.38
275.176	82.38
275.408	84.38
275.64	76.38
275.872	84.38
276.104	85.38
276.335	96.38
276.567	81.38
276.799	104.38
277.031	92.38
277.262	90.38
277.494	89.38
277.726	92.38
277.957	91.38
278.189	83.38
278.421	77.38
278.652	90.38
278.884	85.38
279.115	84.38
279.347	87.38
279.579	99.38
279.81	84.38
280.042	93.38
280.273	85.38
280.505	72.38
280.736	79.38
280.968	83.38
281.199	90.38
281.431	88.38
281.662	72.38
281.894	81.38
282.125	90.38
282.356	100.38
282.588	107.38
282.819	99.38
283.051	78.38
283.282	76.38
283.513	89.38
283.745	82.38
283.976	81.38
284.207	80.38
284.439	85.38
284.67	89.38
284.901	84.38
285.132	78.38
285.364	85.38
285.595	92.38
285.826	95.38
286.057	80.38
286.288	72.38
286.52	91.38
286.751	84.38
286.982	80.38
287.213	90.38
287.444	71.38
287.675	102.38
287.906	86.38
288.138	82.38
288.369	76.38
288.6	86.38
288.831	92.38
289.062	95.38
289.293	80.38
289.524	90.38
289.755	80.38
289.986	74.38
290.217	84.38
290.448	80.38
290.679	88.38
290.91	61.38
291.141	85.38
291.371	80.38
291.602	83.38
291.833	82.38
292.064	89.38
292.295	83.38
292.526	82.38
292.757	86.38
292.987	98.38
293.218	84.38
293.449	89.38
293.68	68.38
293.91	96.38
294.141	88.38
294.372	94.38
294.603	84.38
294.833	79.38
295.064	76.38
295.295	105.38
295.525	97.38
295.756	111.38
295.987	112.38
296.217	140.38
296.448	104.38
296.679	96.38
296.909	88.38
297.14	106.38
297.37	79.38
297.601	84.38
297.831	94.38
298.062	96.38
298.292	81.38
298.523	95.38
298.753	87.38
298.984	74.38
299.214	81.38
299.445	92.38
299.675	79.38
299.905	87.38
300.136	92.38
300.366	82.38
300.597	97.38
300.827	81.38
301.057	100.38
301.288	97.38
301.518	99.38
301.748	67.38
301.979	90.38
302.209	92.38
302.439	81.38
302.669	81.38
302.9	93.38
303.13	79.38
303.36	74.38
303.59	102.38
303.82	93.38
304.051	105.38
304.281	93.38
304.511	89.38
304.741	84.38
304.971	96.38
305.201	103.38
305.431	85.38
305.661	93.38
305.891	77.38
306.121	100.38
306.352	104.38
306.582	105.38
306.812	99.38
307.042	96.38
307.272	89.38
307.502	79.38
307.731	90.38
307.961	96.38
308.191	84.38
308.421	85.38
308.651	79.38
308.881	78.38
309.111	79.38
309.341	100.38
309.571	101.38
309.8	86.38
310.03	102.38
310.26	78.38
310.49	87.38
310.72	93.38
310.949	88.38
311.179	90.38
311.409	84.38
311.639	81.38
311.868	109.38
312.098	97.38
312.328	95.38
312.557	92.38
312.787	101.38
313.017	87.38
313.246	89.38
313.476	90.38
313.706	96.38
313.935	111.38
314.165	91.38
314.394	104.38
314.624	112.38
314.853	97.38
315.083	96.38
315.312	85.38
315.542	104.38
315.771	84.38
316.001	109.38
316.23	97.38
316.46	97.38
316.689	92.38
316.919	94.38
317.148	86.38
317.377	87.38
317.607	96.38
317.836	81.38
318.065	78.38
318.295	89.38
318.524	88.38
318.753	103.38
318.983	81.38
319.212	90.38
319.441	96.38
319.67	106.38
319.9	95.38
320.129	97.38
320.358	90.38
320.587	88.38
320.816	96.38
321.046	95.38
321.275	105.38
321.504	93.38
321.733	92.38
321.962	97.38
322.191	110.38
322.42	87.38
322.649	107.38
322.878	108.38
323.108	114.38
323.337	103.38
323.566	130.38
323.795	153.38
324.024	185.38
324.253	354.38
324.482	733.38
324.71	1449.38
324.939	1927.38
325.168	696.38
325.397	204.38
325.626	128.38
325.855	125.38
326.084	119.38
326.313	98.38
326.542	142.38
326.77	202.38
326.999	421.38
327.228	827.38
327.457	1457.38
327.686	1157.38
327.914	327.38
328.143	183.38
328.372	133.38
328.6	115.38
328.829	116.38
329.058	112.38
329.287	112.38
329.515	97.38
329.744	112.38
329.972	103.38
330.201	99.38
330.43	99.38
330.658	127.38
330.887	143.38
331.115	102.38
331.344	106.38
331.572	97.38
331.801	103.38
332.03	100.38
332.258	84.38
332.486	98.38
332.715	83.38
332.943	97.38
333.172	97.38
333.4	89.38
333.629	106.38
333.857	106.38
334.085	100.38
334.314	89.38
334.542	100.38
334.771	89.38
334.999	93.38
335.227	101.38
335.455	97.38
335.684	82.38
335.912	85.38
336.14	93.38
336.369	86.38
336.597	90.38
336.825	94.38
337.053	96.38
337.281	100.38
337.51	92.38
337.738	93.38
337.966	83.38
338.194	89.38
338.422	89.38
338.65	80.38
338.878	104.38
339.106	90.38
339.334	104.38
339.562	92.38
339.79	79.38
340.018	97.38
340.246	93.38
340.474	90.38
340.702	87.38
340.93	92.38
341.158	92.38
341.386	98.38
341.614	96.38
341.842	93.38
342.07	85.38
342.298	102.38
342.526	99.38
342.754	74.38
342.981	88.38
343.209	100.38
343.437	93.38
343.665	84.38
343.893	81.38
344.12	88.38
344.348	95.38
344.576	88.38
344.804	83.38
345.031	84.38
345.259	89.38
345.487	92.38
345.714	85.38
345.942	90.38
346.17	82.38
346.397	84.38
346.625	97.38
346.853	107.38
347.08	92.38
347.308	98.38
347.535	88.38
347.763	96.38
347.99	113.38
348.218	109.38
348.445	91.38
348.673	91.38
348.9	99.38
349.128	85.38
349.355	95.38
349.583	100.38
349.81	102.38
350.037	97.38
350.265	89.38
350.492	89.38
350.72	84.38
350.947	91.38
351.174	99.38
351.402	101.38
351.629	114.38
351.856	104.38
352.083	99.38
352.311	98.38
352.538	98.38
352.765	109.38
352.992	111.38
353.22	111.38
353.447	103.38
353.674	78.38
353.901	106.38
354.128	95.38
354.355	97.38
354.583	97.38
354.81	93.38
355.037	94.38
355.264	99.38
355.491	104.38
355.718	92.38
355.945	91.38
356.172	88.38
356.399	85.38
356.626	87.38
356.853	91.38
357.08	88.38
357.307	91.38
357.534	88.38
357.761	91.38
357.988	96.38
358.215	92.38
358.441	80.38
358.668	91.38
358.895	89.38
359.122	95.38
359.349	95.38
359.576	78.38
359.802	95.38
360.029	112.38
360.256	116.38
360.483	91.38
360.709	83.38
360.936	88.38
361.163	81.38
361.39	82.38
361.616	88.38
361.843	92.38
362.07	93.38
362.296	81.38
362.523	85.38
362.749	91.38
362.976	92.38
363.203	89.38
363.429	94.38
363.656	90.38
363.882	73.38
364.109	81.38
364.335	88.38
364.562	79.38
364.788	95.38
365.015	107.38
365.241	109.38
365.468	101.38
365.694	107.38
365.92	90.38
366.147	87.38
366.373	94.38
366.599	93.38
366.826	79.38
367.052	76.38
367.278	96.38
367.505	104.38
367.731	100.38
367.957	80.38
368.184	77.38
368.41	83.38
368.636	107.38
368.862	112.38
369.089	109.38
369.315	90.38
369.541	92.38
369.767	81.38
369.993	100.38
370.219	87.38
370.445	91.38
370.672	100.38
370.898	89.38
371.124	97.38
371.35	89.38
371.576	87.38
371.802	94.38
372.028	98.38
372.254	77.38
372.48	78.38
372.706	73.38
372.932	88.38
373.158	98.38
373.384	79.38
373.61	83.38
373.835	85.38
374.061	87.38
374.287	90.38
374.513	75.38
374.739	74.38
374.965	89.38
375.191	90.38
375.416	91.38
375.642	92.38
375.868	96.38
376.094	83.38
376.319	88.38
376.545	81.38
376.771	99.38
376.997	66.38
377.222	91.38
377.448	93.38
377.674	80.38
377.899	83.38
378.125	93.38
378.35	99.38
378.576	89.38
378.802	97.38
379.027	103.38
379.253	81.38
379.478	87.38
379.704	95.38
379.929	100.38
380.155	89.38
380.38	87.38
380.606	77.38
380.831	96.38
381.057	76.38
381.282	86.38
381.507	85.38
381.733	83.38
381.958	101.38
382.184	80.38
382.409	88.38
382.634	96.38
382.86	93.38
383.085	100.38
383.31	96.38
383.535	103.38
383.761	100.38
383.986	103.38
384.211	96.38
384.436	99.38
384.662	96.38
384.887	91.38
385.112	105.38
385.337	98.38
385.562	89.38
385.787	95.38
386.013	94.38
386.238	100.38
386.463	98.38
386.688	114.38
386.913	101.38
387.138	112.38
387.363	92.38
387.588	89.38
387.813	103.38
388.038	100.38
388.263	87.38
388.488	98.38
388.713	91.38
388.938	95.38
389.163	85.38
389.387	92.38
389.612	98.38
389.837	91.38
390.062	90.38
390.287	97.38
390.512	92.38
390.736	100.38
390.961	88.38
391.186	98.38
391.411	103.38
391.636	91.38
391.86	69.38
392.085	81.38
392.31	71.38
392.534	95.38
392.759	99.38
392.984	75.38
393.208	88.38
393.433	82.38
393.658	88.38
393.882	83.38
394.107	93.38
394.331	81.38
394.556	90.38
394.78	90.38
395.005	100.38
395.229	90.38
395.454	81.38
395.678	68.38
395.903	84.38
396.127	100.38
396.352	88.38
396.576	83.38
396.801	87.38
397.025	79.38
397.249	82.38
397.474	73.38
397.698	84.38
397.922	82.38
398.147	92.38
398.371	94.38
398.595	84.38
398.82	91.38
399.044	88.38
399.268	78.38
399.492	88.38
399.717	83.38
399.941	81.38
400.165	95.38
400.389	87.38
400.613	71.38
400.837	82.38
401.062	84.38
401.286	79.38
401.51	85.38
401.734	90.38
401.958	88.38
402.182	128.38
402.406	153.38
402.63	112.38
402.854	82.38
403.078	90.38
403.302	81.38
403.526	95.38
403.75	86.38
403.974	81.38
404.198	97.38
404.422	73.38
404.645	80.38
404.869	90.38
405.093	100.38
405.317	92.38
405.541	86.38
405.765	86.38
405.988	120.38
406.212	152.38
406.436	192.38
406.66	137.38
406.883	104.38
407.107	85.38
407.331	81.38
407.555	83.38
407.778	99.38
408.002	81.38
408.226	97.38
408.449	97.38
408.673	90.38
408.896	93.38
409.12	85.38
409.344	90.38
409.567	97.38
409.791	94.38
410.014	88.38
410.238	100.38
410.461	94.38
410.685	84.38
410.908	90.38
411.132	99.38
411.355	96.38
411.578	83.38
411.802	84.38
412.025	85.38
412.249	104.38
412.472	94.38
412.695	87.38
412.919	89.38
413.142	90.38
413.365	87.38
413.589	88.38
413.812	99.38
414.035	98.38
414.258	81.38
414.482	89.38
414.705	88.38
414.928	75.38
415.151	93.38
415.374	96.38
415.597	79.38
415.821	90.38
416.044	93.38
416.267	73.38
416.49	86.38
416.713	87.38
416.936	101.38
417.159	82.38
417.382	80.38
417.605	90.38
417.828	88.38
418.051	79.38
418.274	77.38
418.497	87.38
418.72	77.38
418.943	89.38
419.166	77.38
419.389	84.38
419.611	98.38
419.834	74.38
420.057	78.38
420.28	87.38
420.503	85.38
420.726	89.38
420.948	83.38
421.171	94.38
421.394	100.38
421.617	78.38
421.839	87.38
422.062	84.38
422.285	95.38
422.507	79.38
422.73	101.38
422.953	80.38
423.175	89.38
423.398	83.38
423.621	87.38
423.843	99.38
424.066	86.38
424.288	81.38
424.511	85.38
424.733	80.38
424.956	106.38
425.178	93.38
425.401	95.38
425.623	92.38
425.846	69.38
426.068	93.38
426.291	85.38
426.513	99.38
426.735	85.38
426.958	79.38
427.18	93.38
427.402	121.38
427.625	144.38
427.847	108.38
428.069	100.38
428.292	97.38
428.514	73.38
428.736	94.38
428.958	79.38
429.181	87.38
429.403	81.38
429.625	95.38
429.847	86.38
430.069	97.38
430.292	93.38
430.514	85.38
430.736	76.38
430.958	92.38
431.18	81.38
431.402	79.38
431.624	82.38
431.846	74.38
432.068	96.38
432.29	69.38
432.512	88.38
432.734	93.38
432.956	88.38
433.178	105.38
433.4	106.38
433.622	88.38
433.844	85.38
434.066	90.38
434.287	97.38
434.509	91.38
434.731	75.38
434.953	96.38
435.175	81.38
435.397	90.38
435.618	104.38
435.84	106.38
436.062	118.38
436.284	111.38
436.505	87.38
436.727	93.38
436.949	85.38
437.17	82.38
437.392	84.38
437.614	88.38
437.835	103.38
438.057	94.38
438.278	95.38
438.5	94.38
438.721	105.38
438.943	94.38
439.165	92.38
439.386	87.38
439.608	88.38
439.829	93.38
440.05	123.38
440.272	123.38
440.493	93.38
440.715	88.38
440.936	84.38
441.158	90.38
441.379	80.38
441.6	98.38
441.822	85.38
442.043	94.38
442.264	100.38
442.486	99.38
442.707	88.38
442.928	86.38
443.149	112.38
443.371	116.38
443.592	116.38
443.813	113.38
444.034	104.38
444.255	87.38
444.476	89.38
444.698	85.38
444.919	88.38
445.14	121.38
445.361	107.38
445.582	115.38
445.803	124.38
446.024	137.38
446.245	137.38
446.466	100.38
446.687	95.38
446.908	92.38
447.129	95.38
447.35	78.38
447.571	85.38
447.792	84.38
448.013	100.38
448.234	102.38
448.455	90.38
448.675	99.38
448.896	112.38
449.117	100.38
449.338	92.38
449.559	103.38
449.779	119.38
450	95.38
450.221	87.38
450.442	98.38
450.662	65.38
450.883	88.38
451.104	99.38
451.324	98.38
451.545	102.38
451.766	96.38
451.986	95.38
452.207	89.38
452.428	86.38
452.648	93.38
452.869	101.38
453.089	105.38
453.31	115.38
453.53	98.38
453.751	80.38
453.971	99.38
454.192	109.38
454.412	100.38
454.633	92.38
454.853	88.38
455.073	93.38
455.294	97.38
455.514	87.38
455.734	85.38
455.955	78.38
456.175	85.38
456.395	84.38
456.616	75.38
456.836	79.38
457.056	93.38
457.276	91.38
457.497	85.38
457.717	76.38
457.937	81.38
458.157	88.38
458.377	91.38
458.598	104.38
458.818	137.38
459.038	128.38
459.258	109.38
459.478	84.38
459.698	76.38
459.918	93.38
460.138	75.38
460.358	91.38
460.578	87.38
460.798	94.38
461.018	85.38
461.238	82.38
461.458	90.38
461.678	85.38
461.898	65.38
462.118	89.38
462.338	89.38
462.558	87.38
462.777	85.38
462.997	84.38
463.217	89.38
463.437	83.38
463.657	82.38
463.876	89.38
464.096	93.38
464.316	96.38
464.536	81.38
464.755	92.38
464.975	99.38
465.195	152.38
465.414	160.38
465.634	96.38
465.854	84.38
466.073	87.38
466.293	95.38
466.512	86.38
466.732	82.38
466.951	106.38
467.171	91.38
467.391	85.38
467.61	105.38
467.829	85.38
468.049	78.38
468.268	88.38
468.488	92.38
468.707	75.38
468.927	88.38
469.146	90.38
469.365	91.38
469.585	87.38
469.804	73.38
470.023	83.38
470.243	82.38
470.462	88.38
470.681	105.38
470.901	96.38
471.12	83.38
471.339	77.38
471.558	74.38
471.777	82.38
471.997	76.38
472.216	92.38
472.435	83.38
472.654	84.38
472.873	92.38
473.092	82.38
473.311	95.38
473.53	81.38
473.749	77.38
473.968	79.38
474.187	92.38
474.406	85.38
474.625	89.38
474.844	71.38
475.063	84.38
475.282	75.38
475.501	86.38
475.72	80.38
475.939	84.38
476.158	87.38
476.377	78.38
476.596	83.38
476.814	84.38
477.033	88.38
477.252	89.38
477.471	84.38
477.69	98.38
477.908	85.38
478.127	78.38
478.346	77.38
478.564	95.38
478.783	88.38
479.002	84.38
479.22	97.38
479.439	82.38
479.658	91.38
479.876	89.38
480.095	81.38
480.313	86.38
480.532	81.38
480.751	84.38
480.969	108.38
481.188	97.38
481.406	89.38
481.624	82.38
481.843	64.38
482.061	84.38
482.28	92.38
482.498	84.38
482.717	84.38
482.935	100.38
483.153	69.38
483.372	81.38
483.59	91.38
483.808	80.38
484.027	84.38
484.245	83.38
484.463	104.38
484.681	87.38
484.9	82.38
485.118	89.38
485.336	99.38
485.554	108.38
485.772	104.38
485.99	98.38
486.209	109.38
486.427	104.38
486.645	104.38
486.863	108.38
487.081	90.38
487.299	86.38
487.517	88.38
487.735	83.38
487.953	100.38
488.171	109.38
488.389	90.38
488.607	96.38
488.825	79.38
489.043	85.38
489.261	84.38
489.479	89.38
489.696	79.38
489.914	95.38
490.132	85.38
490.35	79.38
490.568	93.38
490.786	85.38
491.003	83.38
491.221	87.38
491.439	84.38
491.657	86.38
491.874	85.38
492.092	87.38
492.31	83.38
492.527	90.38
492.745	74.38
492.963	91.38
493.18	73.38
493.398	101.38
493.615	83.38
493.833	84.38
494.05	76.38
494.268	89.38
494.485	76.38
494.703	87.38
494.92	79.38
495.138	90.38
495.355	84.38
495.573	79.38
495.79	86.38
496.008	92.38
496.225	92.38
496.442	92.38
496.66	97.38
496.877	87.38
497.094	79.38
497.312	84.38
497.529	80.38
497.746	81.38
497.963	85.38
498.181	94.38
498.398	104.38
498.615	105.38
498.832	107.38
499.049	92.38
499.267	94.38
499.484	80.38
499.701	81.38
499.918	98.38
500.135	88.38
500.352	83.38
500.569	94.38
500.786	79.38
501.003	80.38
501.22	88.38
501.437	79.38
501.654	95.38
501.871	95.38
502.088	93.38
502.305	92.38
502.522	81.38
502.739	91.38
502.956	87.38
503.172	75.38
503.389	105.38
503.606	94.38
503.823	113.38
504.04	84.38
504.256	80.38
504.473	85.38
504.69	83.38
504.907	89.38
505.123	82.38
505.34	89.38
505.557	86.38
505.773	81.38
505.99	75.38
506.207	86.38
506.423	79.38
506.64	91.38
506.856	85.38
507.073	85.38
507.289	97.38
507.506	98.38
507.722	106.38
507.939	95.38
508.155	90.38
508.372	77.38
508.588	88.38
508.805	92.38
509.021	79.38
509.238	85.38
509.454	106.38
509.67	101.38
509.887	93.38
510.103	123.38
510.319	194.38
510.536	742.38
510.752	2101.38
510.968	585.38
511.184	146.38
511.401	115.38
511.617	112.38
511.833	97.38
512.049	100.38
512.265	88.38
512.481	74.38
512.698	88.38
512.914	106.38
513.13	88.38
513.346	90.38
513.562	98.38
513.778	95.38
513.994	80.38
514.21	102.38
514.426	113.38
514.642	121.38
514.858	122.38
515.074	153.38
515.29	415.38
515.506	1327.38
515.721	477.38
515.937	139.38
516.153	90.38
516.369	113.38
516.585	94.38
516.801	87.38
517.016	100.38
517.232	81.38
517.448	92.38
517.664	99.38
517.879	83.38
518.095	81.38
518.311	97.38
518.527	79.38
518.742	97.38
518.958	87.38
519.173	100.38
519.389	92.38
519.605	93.38
519.82	85.38
520.036	84.38
520.251	103.38
520.467	111.38
520.682	94.38
520.898	112.38
521.113	105.38
521.329	131.38
521.544	184.38
521.76	528.38
521.975	2172.38
522.19	1268.38
522.406	282.38
522.621	109.38
522.836	92.38
523.052	109.38
523.267	100.38
523.482	97.38
523.698	92.38
523.913	111.38
524.128	92.38
524.343	89.38
524.559	98.38
524.774	93.38
524.989	95.38
525.204	98.38
525.419	94.38
525.634	82.38
525.849	91.38
526.064	92.38
526.28	93.38
526.495	83.38
526.71	92.38
526.925	72.38
527.14	92.38
527.355	88.38
527.57	93.38
527.785	87.38
527.999	85.38
528.214	90.38
528.429	88.38
528.644	94.38
528.859	89.38
529.074	82.38
529.289	118.38
529.503	178.38
529.718	100.38
529.933	77.38
530.148	81.38
530.363	101.38
530.577	90.38
530.792	84.38
531.007	92.38
531.221	93.38
531.436	94.38
531.651	99.38
531.865	89.38
532.08	82.38
532.295	80.38
532.509	92.38
532.724	98.38
532.938	92.38
533.153	84.38
533.367	82.38
533.582	85.38
533.796	88.38
534.011	82.38
534.225	93.38
534.44	72.38
534.654	80.38
534.868	80.38
535.083	87.38
535.297	98.38
535.511	103.38
535.726	98.38
535.94	79.38
536.154	89.38
536.369	91.38
536.583	87.38
536.797	79.38
537.011	93.38
537.225	89.38
537.44	83.38
537.654	88.38
537.868	79.38
538.082	90.38
538.296	86.38
538.51	79.38
538.724	100.38
538.938	84.38
539.153	104.38
539.367	93.38
539.581	88.38
539.795	93.38
540.009	95.38
540.222	85.38
540.436	73.38
540.65	79.38
540.864	98.38
541.078	94.38
541.292	77.38
541.506	88.38
541.72	93.38
541.934	85.38
542.147	98.38
542.361	91.38
542.575	78.38
542.789	89.38
543.002	84.38
543.216	94.38
543.43	86.38
543.644	77.38
543.857	79.38
544.071	91.38
544.285	91.38
544.498	84.38
544.712	89.38
544.925	95.38
545.139	103.38
545.352	91.38
545.566	77.38
545.779	77.38
545.993	88.38
546.206	73.38
546.42	88.38
546.633	103.38
546.847	89.38
547.06	96.38
547.274	96.38
547.487	86.38
547.7	79.38
547.914	75.38
548.127	84.38
548.34	75.38
548.554	91.38
548.767	77.38
548.98	90.38
549.193	98.38
549.407	89.38
549.62	91.38
549.833	93.38
550.046	89.38
550.259	74.38
550.473	73.38
550.686	79.38
550.899	81.38
551.112	81.38
551.325	84.38
551.538	78.38
551.751	81.38
551.964	92.38
552.177	87.38
552.39	79.38
552.603	87.38
552.816	82.38
553.029	93.38
553.242	87.38
553.455	106.38
553.667	95.38
553.88	104.38
554.093	97.38
554.306	65.38
554.519	88.38
554.732	67.38
554.944	84.38
555.157	79.38
555.37	77.38
555.583	92.38
555.795	84.38
556.008	94.38
556.221	100.38
556.433	94.38
556.646	100.38
556.859	86.38
557.071	84.38
557.284	81.38
557.496	96.38
557.709	84.38
557.921	83.38
558.134	95.38
558.346	86.38
558.559	95.38
558.771	83.38
558.984	80.38
559.196	101.38
559.409	83.38
559.621	85.38
559.833	95.38
560.046	79.38
560.258	89.38
560.47	85.38
560.683	94.38
560.895	92.38
561.107	113.38
561.32	91.38
561.532	88.38
561.744	100.38
561.956	86.38
562.168	90.38
562.381	100.38
562.593	90.38
562.805	97.38
563.017	91.38
563.229	79.38
563.441	95.38
563.653	85.38
563.865	93.38
564.077	77.38
564.289	86.38
564.501	80.38
564.713	77.38
564.925	94.38
565.137	107.38
565.349	93.38
565.561	91.38
565.773	83.38
565.985	95.38
566.197	93.38
566.408	78.38
566.62	91.38
566.832	78.38
567.044	83.38
567.255	89.38
567.467	96.38
567.679	88.38
567.891	93.38
568.102	88.38
568.314	63.38
568.526	87.38
568.737	81.38
568.949	87.38
569.161	92.38
569.372	86.38
569.584	88.38
569.795	83.38
570.007	113.38
570.218	232.38
570.43	127.38
570.641	79.38
570.853	82.38
571.064	95.38
571.276	96.38
571.487	85.38
571.698	88.38
571.91	80.38
572.121	78.38
572.333	70.38
572.544	78.38
572.755	85.38
572.966	91.38
573.178	86.38
573.389	96.38
573.6	84.38
573.811	78.38
574.023	103.38
574.234	82.38
574.445	71.38
574.656	80.38
574.867	81.38
575.078	79.38
575.289	113.38
575.501	85.38
575.712	97.38
575.923	86.38
576.134	78.38
576.345	74.38
576.556	85.38
576.767	89.38
576.978	99.38
577.188	89.38
577.399	95.38
577.61	86.38
577.821	100.38
578.032	108.38
578.243	259.38
578.454	724.38
578.665	200.38
578.875	93.38
579.086	104.38
579.297	83.38
579.508	85.38
579.718	86.38
579.929	83.38
580.14	92.38
580.35	90.38
580.561	98.38
580.772	98.38
580.982	79.38
581.193	88.38
581.403	83.38
581.614	77.38
581.825	83.38
582.035	84.38
582.246	87.38
582.456	78.38
582.667	97.38
582.877	98.38
583.087	82.38
583.298	95.38
583.508	82.38
583.719	90.38
583.929	84.38
584.139	100.38
584.35	76.38
584.56	78.38
584.77	91.38
584.981	87.38
585.191	80.38
585.401	85.38
585.611	94.38
585.821	100.38
586.032	96.38
586.242	87.38
586.452	91.38
586.662	97.38
586.872	99.38
587.082	91.38
587.292	104.38
587.502	85.38
587.713	90.38
587.923	89.38
588.133	95.38
588.343	81.38
588.553	77.38
588.762	84.38
588.972	91.38
589.182	91.38
589.392	83.38
589.602	97.38
589.812	85.38
590.022	87.38
590.232	85.38
590.441	80.38
590.651	84.38
590.861	90.38
591.071	87.38
591.281	80.38
591.49	90.38
591.7	83.38
591.91	82.38
592.119	91.38
592.329	89.38
592.539	89.38
592.748	71.38
592.958	77.38
593.167	75.38
593.377	92.38
593.587	88.38
593.796	84.38
594.006	82.38
594.215	84.38
594.424	89.38
594.634	92.38
594.843	76.38
595.053	82.38
595.262	85.38
595.472	91.38
595.681	86.38
595.89	83.38
596.1	88.38
596.309	77.38
596.518	90.38
596.727	84.38
596.937	92.38
597.146	83.38
597.355	97.38
597.564	99.38
597.774	84.38
597.983	74.38
598.192	83.38
598.401	85.38
598.61	79.38
598.819	84.38
599.028	68.38
599.237	77.38
599.446	88.38
599.655	88.38
599.864	101.38
600.073	80.38
600.282	91.38
600.491	98.38
600.7	77.38
600.909	86.38
601.118	92.38
601.327	92.38
601.536	80.38
601.745	89.38
601.953	89.38
602.162	97.38
602.371	84.38
602.58	101.38
602.789	77.38
602.997	82.38
603.206	83.38
603.415	87.38
603.623	81.38
603.832	91.38
604.041	84.38
604.249	92.38
604.458	82.38
604.666	76.38
604.875	80.38
605.084	80.38
605.292	75.38
605.501	94.38
605.709	85.38
605.918	99.38
606.126	86.38
606.334	93.38
606.543	77.38
606.751	82.38
606.96	87.38
607.168	84.38
607.376	87.38
607.585	92.38
607.793	80.38
608.001	87.38
608.21	92.38
608.418	94.38
608.626	79.38
608.834	83.38
609.043	76.38
609.251	87.38
609.459	80.38
609.667	71.38
609.875	86.38
610.083	87.38
610.291	97.38
610.499	86.38
610.707	81.38
610.916	89.38
611.124	90.38
611.332	80.38
611.54	87.38
611.748	92.38
611.955	88.38
612.163	89.38
612.371	71.38
612.579	77.38
612.787	64.38
612.995	82.38
613.203	113.38
613.411	87.38
613.618	88.38
613.826	82.38
614.034	74.38
614.242	66.38
614.449	83.38
614.657	79.38
614.865	91.38
615.072	83.38
615.28	91.38
615.488	89.38
615.695	83.38
615.903	100.38
616.111	83.38
616.318	93.38
616.526	100.38
616.733	91.38
616.941	98.38
617.148	88.38
617.356	88.38
617.563	85.38
617.771	84.38
617.978	78.38
618.185	92.38
618.393	78.38
618.6	78.38
618.807	93.38
619.015	97.38
619.222	90.38
619.429	72.38
619.637	84.38
619.844	92.38
620.051	79.38
620.258	92.38
620.466	96.38
620.673	88.38
620.88	88.38
621.087	74.38
621.294	90.38
621.501	79.38
621.708	78.38
621.915	64.38
622.122	78.38
622.329	93.38
622.536	93.38
622.743	71.38
622.95	95.38
623.157	82.38
623.364	91.38
623.571	73.38
623.778	83.38
623.985	85.38
624.192	86.38
624.399	87.38
624.606	84.38
624.812	85.38
625.019	91.38
625.226	95.38
625.433	92.38
625.639	83.38
625.846	82.38
626.053	88.38
626.259	82.38
626.466	83.38
626.673	95.38
626.879	69.38
627.086	87.38
627.293	98.38
627.499	89.38
627.706	76.38
627.912	78.38
628.119	72.38
628.325	85.38
628.532	86.38
628.738	82.38
628.945	85.38
629.151	85.38
629.357	90.38
629.564	107.38
629.77	87.38
629.976	89.38
630.183	88.38
630.389	81.38
630.595	73.38
630.802	82.38
631.008	73.38
631.214	94.38
631.42	90.38
631.627	75.38
631.833	84.38
632.039	98.38
632.245	75.38
632.451	86.38
632.657	98.38
632.863	74.38
633.069	84.38
633.275	73.38
633.481	84.38
633.688	87.38
633.893	100.38
634.099	72.38
634.305	66.38
634.511	77.38
634.717	68.38
634.923	81.38
635.129	71.38
635.335	83.38
635.541	77.38
635.747	71.38
635.952	80.38
636.158	92.38
636.364	87.38
636.57	86.38
636.775	89.38
636.981	88.38
637.187	96.38
637.392	82.38
637.598	82.38
637.804	82.38
638.009	73.38
638.215	89.38
638.421	86.38
638.626	91.38
638.832	80.38
639.037	79.38
639.243	75.38
639.448	100.38
639.654	78.38
639.859	87.38
640.065	79.38
640.27	88.38
640.475	87.38
640.681	79.38
640.886	84.38
641.091	105.38
641.297	93.38
641.502	87.38
641.707	81.38
641.913	86.38
642.118	88.38
642.323	86.38
642.528	86.38
642.733	84.38
642.939	83.38
643.144	104.38
643.349	91.38
643.554	78.38
643.759	79.38
643.964	86.38
644.169	73.38
644.374	93.38
644.579	93.38
644.784	65.38
644.989	73.38
645.194	77.38
645.399	84.38
645.604	91.38
645.809	91.38
646.014	80.38
646.219	86.38
646.423	80.38
646.628	93.38
646.833	81.38
647.038	80.38
647.243	95.38
647.447	83.38
647.652	83.38
647.857	80.38
648.062	89.38
648.266	71.38
648.471	75.38
648.676	93.38
648.88	91.38
649.085	86.38
649.289	88.38
649.494	107.38
649.698	117.38
649.903	108.38
650.107	98.38
650.312	89.38
650.516	79.38
650.721	76.38
650.925	94.38
651.13	88.38
651.334	66.38
651.539	84.38
651.743	85.38
651.947	89.38
652.152	84.38
652.356	81.38
652.56	66.38
652.764	75.38
652.969	98.38
653.173	71.38
653.377	88.38
653.581	93.38
653.785	88.38
653.99	79.38
654.194	83.38
654.398	74.38
654.602	75.38
654.806	88.38
655.01	85.38
655.214	85.38
655.418	80.38
655.622	105.38
655.826	93.38
656.03	71.38
656.234	94.38
656.438	91.38
656.642	97.38
656.846	96.38
657.049	98.38
657.253	90.38
657.457	82.38
657.661	75.38
657.865	82.38
658.068	84.38
658.272	91.38
658.476	70.38
658.68	76.38
658.883	93.38
659.087	88.38
659.291	71.38
659.494	85.38
659.698	83.38
659.901	76.38
660.105	88.38
660.309	73.38
660.512	93.38
660.716	69.38
660.919	71.38
661.123	85.38
661.326	84.38
661.53	86.38
661.733	80.38
661.936	91.38
662.14	85.38
662.343	75.38
662.546	83.38
662.75	83.38
662.953	78.38
663.156	72.38
663.36	87.38
663.563	89.38
663.766	75.38
663.969	82.38
664.173	85.38
664.376	76.38
664.579	74.38
664.782	80.38
664.985	67.38
665.188	89.38
665.391	85.38
665.594	72.38
665.797	84.38
666	93.38
666.203	83.38
666.406	65.38
666.609	83.38
666.812	91.38
667.015	81.38
667.218	93.38
667.421	79.38
667.624	79.38
667.827	85.38
668.03	79.38
668.232	88.38
668.435	75.38
668.638	77.38
668.841	76.38
669.043	77.38
669.246	72.38
669.449	72.38
669.651	75.38
669.854	81.38
670.057	78.38
670.259	69.38
670.462	73.38
670.665	81.38
670.867	98.38
671.07	78.38
671.272	89.38
671.475	83.38
671.677	66.38
671.88	88.38
672.082	96.38
672.284	82.38
672.487	82.38
672.689	97.38
672.892	79.38
