Data from Uncirc_1994_H10_HRD10591_00053.txt Node
Date: Wed Jan 03 11:39:31 EST 2024
User: Yrep
Spectrometer: HR+D1059
Trigger mode: 1
Integration Time (sec): 1.000000E-1
Scans to average: 1
Electric dark correction enabled: true
Nonlinearity correction enabled: false
Boxcar width: 0
XAxis mode: Wavelengths
Number of Pixels in Spectrum: 2048
>>>>>Begin Spectral Data<<<<<
223.165	-26.06
223.4	-26.06
223.635	-26.06
223.869	-23.06
224.104	-27.06
224.338	-17.06
224.573	-7.06
224.808	-0.06
225.042	-6.06
225.277	-2.06
225.511	-1.06
225.746	13.94
225.98	4.94
226.215	11.94
226.449	16.94
226.683	13.94
226.918	19.94
227.152	27.94
227.387	60.94
227.621	42.94
227.856	41.94
228.09	35.94
228.324	52.94
228.559	45.94
228.793	55.94
229.027	79.94
229.262	71.94
229.496	76.94
229.73	73.94
229.964	85.94
230.199	85.94
230.433	95.94
230.667	93.94
230.901	81.94
231.136	77.94
231.37	79.94
231.604	90.94
231.838	65.94
232.072	79.94
232.306	84.94
232.541	81.94
232.775	63.94
233.009	81.94
233.243	75.94
233.477	78.94
233.711	74.94
233.945	67.94
234.179	74.94
234.413	84.94
234.647	87.94
234.881	84.94
235.115	70.94
235.349	93.94
235.583	93.94
235.817	77.94
236.051	74.94
236.285	92.94
236.519	73.94
236.753	66.94
236.987	77.94
237.221	88.94
237.455	102.94
237.689	95.94
237.922	77.94
238.156	71.94
238.39	96.94
238.624	86.94
238.858	73.94
239.091	68.94
239.325	77.94
239.559	85.94
239.793	79.94
240.027	75.94
240.26	59.94
240.494	79.94
240.728	81.94
240.961	75.94
241.195	92.94
241.429	79.94
241.662	79.94
241.896	75.94
242.13	70.94
242.363	75.94
242.597	78.94
242.83	66.94
243.064	90.94
243.298	75.94
243.531	82.94
243.765	77.94
243.998	84.94
244.232	95.94
244.465	87.94
244.699	77.94
244.932	84.94
245.166	68.94
245.399	73.94
245.633	71.94
245.866	84.94
246.099	83.94
246.333	83.94
246.566	69.94
246.8	73.94
247.033	73.94
247.266	86.94
247.5	83.94
247.733	80.94
247.966	74.94
248.2	84.94
248.433	81.94
248.666	68.94
248.899	79.94
249.133	87.94
249.366	90.94
249.599	97.94
249.832	78.94
250.066	87.94
250.299	79.94
250.532	81.94
250.765	81.94
250.998	92.94
251.231	75.94
251.465	75.94
251.698	91.94
251.931	76.94
252.164	93.94
252.397	81.94
252.63	89.94
252.863	74.94
253.096	76.94
253.329	77.94
253.562	86.94
253.795	77.94
254.028	66.94
254.261	82.94
254.494	82.94
254.727	80.94
254.96	76.94
255.193	85.94
255.426	80.94
255.659	91.94
255.892	83.94
256.124	84.94
256.357	81.94
256.59	73.94
256.823	79.94
257.056	83.94
257.289	87.94
257.521	101.94
257.754	78.94
257.987	81.94
258.22	75.94
258.452	90.94
258.685	76.94
258.918	77.94
259.151	92.94
259.383	88.94
259.616	71.94
259.849	79.94
260.081	90.94
260.314	87.94
260.547	81.94
260.779	90.94
261.012	86.94
261.244	93.94
261.477	94.94
261.71	90.94
261.942	111.94
262.175	112.94
262.407	107.94
262.64	97.94
262.872	87.94
263.105	79.94
263.337	101.94
263.57	87.94
263.802	78.94
264.035	83.94
264.267	87.94
264.499	85.94
264.732	84.94
264.964	76.94
265.197	90.94
265.429	85.94
265.661	79.94
265.894	97.94
266.126	79.94
266.358	79.94
266.591	92.94
266.823	81.94
267.055	76.94
267.287	72.94
267.52	81.94
267.752	95.94
267.984	82.94
268.216	82.94
268.448	79.94
268.681	81.94
268.913	97.94
269.145	87.94
269.377	76.94
269.609	99.94
269.841	88.94
270.073	103.94
270.306	89.94
270.538	91.94
270.77	78.94
271.002	79.94
271.234	92.94
271.466	76.94
271.698	76.94
271.93	74.94
272.162	91.94
272.394	82.94
272.626	92.94
272.858	88.94
273.09	87.94
273.322	84.94
273.553	74.94
273.785	83.94
274.017	100.94
274.249	86.94
274.481	97.94
274.713	77.94
274.945	107.94
275.176	96.94
275.408	83.94
275.64	93.94
275.872	85.94
276.104	79.94
276.335	86.94
276.567	103.94
276.799	117.94
277.031	102.94
277.262	94.94
277.494	93.94
277.726	99.94
277.957	92.94
278.189	89.94
278.421	94.94
278.652	100.94
278.884	93.94
279.115	71.94
279.347	75.94
279.579	88.94
279.81	92.94
280.042	79.94
280.273	96.94
280.505	85.94
280.736	79.94
280.968	84.94
281.199	83.94
281.431	85.94
281.662	82.94
281.894	92.94
282.125	102.94
282.356	116.94
282.588	134.94
282.819	111.94
283.051	92.94
283.282	84.94
283.513	100.94
283.745	96.94
283.976	94.94
284.207	88.94
284.439	92.94
284.67	96.94
284.901	95.94
285.132	95.94
285.364	89.94
285.595	87.94
285.826	89.94
286.057	90.94
286.288	81.94
286.52	82.94
286.751	103.94
286.982	98.94
287.213	92.94
287.444	81.94
287.675	97.94
287.906	103.94
288.138	87.94
288.369	94.94
288.6	109.94
288.831	87.94
289.062	94.94
289.293	90.94
289.524	86.94
289.755	82.94
289.986	87.94
290.217	102.94
290.448	87.94
290.679	92.94
290.91	94.94
291.141	77.94
291.371	83.94
291.602	80.94
291.833	85.94
292.064	86.94
292.295	83.94
292.526	100.94
292.757	87.94
292.987	79.94
293.218	75.94
293.449	95.94
293.68	85.94
293.91	94.94
294.141	97.94
294.372	105.94
294.603	84.94
294.833	85.94
295.064	88.94
295.295	91.94
295.525	85.94
295.756	102.94
295.987	114.94
296.217	132.94
296.448	131.94
296.679	96.94
296.909	103.94
297.14	95.94
297.37	101.94
297.601	85.94
297.831	88.94
298.062	101.94
298.292	87.94
298.523	96.94
298.753	94.94
298.984	89.94
299.214	84.94
299.445	110.94
299.675	75.94
299.905	92.94
300.136	91.94
300.366	99.94
300.597	101.94
300.827	86.94
301.057	89.94
301.288	109.94
301.518	92.94
301.748	68.94
301.979	114.94
302.209	90.94
302.439	92.94
302.669	99.94
302.9	101.94
303.13	79.94
303.36	83.94
303.59	86.94
303.82	93.94
304.051	96.94
304.281	91.94
304.511	107.94
304.741	86.94
304.971	84.94
305.201	73.94
305.431	95.94
305.661	92.94
305.891	86.94
306.121	101.94
306.352	95.94
306.582	107.94
306.812	98.94
307.042	86.94
307.272	90.94
307.502	92.94
307.731	99.94
307.961	87.94
308.191	78.94
308.421	92.94
308.651	84.94
308.881	87.94
309.111	89.94
309.341	106.94
309.571	99.94
309.8	102.94
310.03	89.94
310.26	113.94
310.49	102.94
310.72	106.94
310.949	102.94
311.179	103.94
311.409	91.94
311.639	105.94
311.868	87.94
312.098	95.94
312.328	87.94
312.557	102.94
312.787	108.94
313.017	105.94
313.246	91.94
313.476	78.94
313.706	90.94
313.935	89.94
314.165	96.94
314.394	108.94
314.624	91.94
314.853	92.94
315.083	85.94
315.312	99.94
315.542	94.94
315.771	93.94
316.001	100.94
316.23	90.94
316.46	94.94
316.689	101.94
316.919	105.94
317.148	89.94
317.377	89.94
317.607	96.94
317.836	103.94
318.065	102.94
318.295	94.94
318.524	94.94
318.753	90.94
318.983	91.94
319.212	93.94
319.441	107.94
319.67	99.94
319.9	97.94
320.129	90.94
320.358	84.94
320.587	107.94
320.816	95.94
321.046	108.94
321.275	97.94
321.504	76.94
321.733	92.94
321.962	103.94
322.191	103.94
322.42	109.94
322.649	109.94
322.878	89.94
323.108	97.94
323.337	110.94
323.566	134.94
323.795	180.94
324.024	196.94
324.253	385.94
324.482	791.94
324.71	1621.94
324.939	2049.94
325.168	731.94
325.397	246.94
325.626	151.94
325.855	119.94
326.084	117.94
326.313	134.94
326.542	158.94
326.77	214.94
326.999	433.94
327.228	887.94
327.457	1581.94
327.686	1268.94
327.914	364.94
328.143	179.94
328.372	144.94
328.6	125.94
328.829	115.94
329.058	115.94
329.287	132.94
329.515	113.94
329.744	100.94
329.972	106.94
330.201	101.94
330.43	103.94
330.658	123.94
330.887	134.94
331.115	124.94
331.344	104.94
331.572	93.94
331.801	107.94
332.03	102.94
332.258	82.94
332.486	89.94
332.715	73.94
332.943	98.94
333.172	97.94
333.4	103.94
333.629	89.94
333.857	106.94
334.085	95.94
334.314	98.94
334.542	100.94
334.771	102.94
334.999	87.94
335.227	95.94
335.455	97.94
335.684	99.94
335.912	103.94
336.14	121.94
336.369	109.94
336.597	83.94
336.825	114.94
337.053	103.94
337.281	100.94
337.51	82.94
337.738	95.94
337.966	99.94
338.194	109.94
338.422	104.94
338.65	102.94
338.878	106.94
339.106	90.94
339.334	84.94
339.562	85.94
339.79	93.94
340.018	97.94
340.246	81.94
340.474	107.94
340.702	90.94
340.93	96.94
341.158	89.94
341.386	95.94
341.614	98.94
341.842	84.94
342.07	87.94
342.298	97.94
342.526	97.94
342.754	91.94
342.981	100.94
343.209	93.94
343.437	85.94
343.665	86.94
343.893	90.94
344.12	103.94
344.348	99.94
344.576	92.94
344.804	97.94
345.031	119.94
345.259	84.94
345.487	89.94
345.714	90.94
345.942	94.94
346.17	98.94
346.397	100.94
346.625	99.94
346.853	104.94
347.08	96.94
347.308	92.94
347.535	81.94
347.763	83.94
347.99	89.94
348.218	100.94
348.445	103.94
348.673	105.94
348.9	103.94
349.128	102.94
349.355	101.94
349.583	85.94
349.81	99.94
350.037	98.94
350.265	96.94
350.492	103.94
350.72	112.94
350.947	99.94
351.174	105.94
351.402	111.94
351.629	118.94
351.856	92.94
352.083	106.94
352.311	109.94
352.538	108.94
352.765	112.94
352.992	106.94
353.22	101.94
353.447	102.94
353.674	94.94
353.901	110.94
354.128	95.94
354.355	94.94
354.583	94.94
354.81	100.94
355.037	102.94
355.264	90.94
355.491	91.94
355.718	97.94
355.945	101.94
356.172	94.94
356.399	93.94
356.626	102.94
356.853	109.94
357.08	93.94
357.307	84.94
357.534	91.94
357.761	95.94
357.988	99.94
358.215	97.94
358.441	91.94
358.668	86.94
358.895	105.94
359.122	98.94
359.349	99.94
359.576	91.94
359.802	98.94
360.029	102.94
360.256	106.94
360.483	105.94
360.709	93.94
360.936	106.94
361.163	96.94
361.39	103.94
361.616	77.94
361.843	100.94
362.07	93.94
362.296	94.94
362.523	90.94
362.749	99.94
362.976	88.94
363.203	105.94
363.429	85.94
363.656	95.94
363.882	99.94
364.109	85.94
364.335	93.94
364.562	94.94
364.788	88.94
365.015	76.94
365.241	95.94
365.468	105.94
365.694	109.94
365.92	91.94
366.147	79.94
366.373	75.94
366.599	86.94
366.826	85.94
367.052	77.94
367.278	107.94
367.505	81.94
367.731	88.94
367.957	90.94
368.184	91.94
368.41	109.94
368.636	118.94
368.862	115.94
369.089	95.94
369.315	94.94
369.541	100.94
369.767	79.94
369.993	97.94
370.219	91.94
370.445	98.94
370.672	107.94
370.898	103.94
371.124	88.94
371.35	84.94
371.576	100.94
371.802	93.94
372.028	92.94
372.254	85.94
372.48	82.94
372.706	81.94
372.932	89.94
373.158	88.94
373.384	95.94
373.61	106.94
373.835	87.94
374.061	82.94
374.287	89.94
374.513	86.94
374.739	85.94
374.965	102.94
375.191	93.94
375.416	97.94
375.642	95.94
375.868	99.94
376.094	107.94
376.319	85.94
376.545	90.94
376.771	93.94
376.997	97.94
377.222	81.94
377.448	110.94
377.674	91.94
377.899	88.94
378.125	97.94
378.35	92.94
378.576	91.94
378.802	78.94
379.027	94.94
379.253	85.94
379.478	87.94
379.704	90.94
379.929	87.94
380.155	97.94
380.38	99.94
380.606	87.94
380.831	98.94
381.057	104.94
381.282	94.94
381.507	89.94
381.733	89.94
381.958	98.94
382.184	97.94
382.409	84.94
382.634	117.94
382.86	114.94
383.085	91.94
383.31	98.94
383.535	98.94
383.761	103.94
383.986	97.94
384.211	102.94
384.436	96.94
384.662	94.94
384.887	97.94
385.112	92.94
385.337	100.94
385.562	103.94
385.787	114.94
386.013	116.94
386.238	102.94
386.463	112.94
386.688	103.94
386.913	107.94
387.138	112.94
387.363	92.94
387.588	101.94
387.813	99.94
388.038	112.94
388.263	109.94
388.488	96.94
388.713	103.94
388.938	83.94
389.163	107.94
389.387	87.94
389.612	101.94
389.837	79.94
390.062	91.94
390.287	87.94
390.512	89.94
390.736	92.94
390.961	87.94
391.186	89.94
391.411	106.94
391.636	87.94
391.86	89.94
392.085	97.94
392.31	80.94
392.534	85.94
392.759	85.94
392.984	69.94
393.208	79.94
393.433	97.94
393.658	95.94
393.882	96.94
394.107	86.94
394.331	95.94
394.556	89.94
394.78	87.94
395.005	83.94
395.229	81.94
395.454	85.94
395.678	85.94
395.903	98.94
396.127	92.94
396.352	100.94
396.576	92.94
396.801	85.94
397.025	89.94
397.249	76.94
397.474	93.94
397.698	85.94
397.922	93.94
398.147	98.94
398.371	87.94
398.595	70.94
398.82	107.94
399.044	83.94
399.268	98.94
399.492	93.94
399.717	91.94
399.941	86.94
400.165	89.94
400.389	89.94
400.613	99.94
400.837	94.94
401.062	80.94
401.286	89.94
401.51	91.94
401.734	88.94
401.958	112.94
402.182	120.94
402.406	150.94
402.63	108.94
402.854	96.94
403.078	87.94
403.302	86.94
403.526	87.94
403.75	83.94
403.974	76.94
404.198	97.94
404.422	90.94
404.645	99.94
404.869	111.94
405.093	88.94
405.317	96.94
405.541	90.94
405.765	101.94
405.988	111.94
406.212	162.94
406.436	214.94
406.66	141.94
406.883	111.94
407.107	96.94
407.331	98.94
407.555	101.94
407.778	82.94
408.002	77.94
408.226	93.94
408.449	87.94
408.673	96.94
408.896	78.94
409.12	100.94
409.344	98.94
409.567	91.94
409.791	95.94
410.014	92.94
410.238	79.94
410.461	94.94
410.685	83.94
410.908	91.94
411.132	112.94
411.355	97.94
411.578	93.94
411.802	93.94
412.025	90.94
412.249	88.94
412.472	90.94
412.695	94.94
412.919	85.94
413.142	70.94
413.365	92.94
413.589	98.94
413.812	95.94
414.035	80.94
414.258	76.94
414.482	97.94
414.705	91.94
414.928	85.94
415.151	81.94
415.374	97.94
415.597	101.94
415.821	90.94
416.044	89.94
416.267	110.94
416.49	91.94
416.713	83.94
416.936	68.94
417.159	91.94
417.382	95.94
417.605	81.94
417.828	89.94
418.051	97.94
418.274	98.94
418.497	85.94
418.72	79.94
418.943	97.94
419.166	91.94
419.389	98.94
419.611	93.94
419.834	96.94
420.057	87.94
420.28	92.94
420.503	66.94
420.726	83.94
420.948	95.94
421.171	99.94
421.394	95.94
421.617	78.94
421.839	90.94
422.062	89.94
422.285	101.94
422.507	105.94
422.73	96.94
422.953	93.94
423.175	95.94
423.398	98.94
423.621	98.94
423.843	94.94
424.066	99.94
424.288	90.94
424.511	105.94
424.733	105.94
424.956	98.94
425.178	101.94
425.401	113.94
425.623	97.94
425.846	93.94
426.068	88.94
426.291	93.94
426.513	85.94
426.735	101.94
426.958	93.94
427.18	115.94
427.402	145.94
427.625	160.94
427.847	118.94
428.069	92.94
428.292	93.94
428.514	88.94
428.736	82.94
428.958	73.94
429.181	79.94
429.403	83.94
429.625	97.94
429.847	106.94
430.069	85.94
430.292	107.94
430.514	91.94
430.736	77.94
430.958	93.94
431.18	94.94
431.402	103.94
431.624	88.94
431.846	89.94
432.068	96.94
432.29	83.94
432.512	89.94
432.734	89.94
432.956	87.94
433.178	116.94
433.4	105.94
433.622	92.94
433.844	91.94
434.066	91.94
434.287	71.94
434.509	90.94
434.731	109.94
434.953	84.94
435.175	90.94
435.397	95.94
435.618	102.94
435.84	96.94
436.062	121.94
436.284	108.94
436.505	107.94
436.727	111.94
436.949	92.94
437.17	101.94
437.392	86.94
437.614	109.94
437.835	103.94
438.057	112.94
438.278	115.94
438.5	100.94
438.721	129.94
438.943	116.94
439.165	91.94
439.386	86.94
439.608	99.94
439.829	93.94
440.05	106.94
440.272	139.94
440.493	90.94
440.715	81.94
440.936	86.94
441.158	89.94
441.379	93.94
441.6	78.94
441.822	94.94
442.043	97.94
442.264	97.94
442.486	100.94
442.707	85.94
442.928	92.94
443.149	116.94
443.371	127.94
443.592	113.94
443.813	110.94
444.034	112.94
444.255	93.94
444.476	99.94
444.698	86.94
444.919	85.94
445.14	127.94
445.361	119.94
445.582	112.94
445.803	118.94
446.024	123.94
446.245	134.94
446.466	121.94
446.687	97.94
446.908	95.94
447.129	86.94
447.35	104.94
447.571	81.94
447.792	95.94
448.013	89.94
448.234	104.94
448.455	108.94
448.675	119.94
448.896	115.94
449.117	111.94
449.338	98.94
449.559	127.94
449.779	124.94
450	80.94
450.221	77.94
450.442	90.94
450.662	89.94
450.883	103.94
451.104	110.94
451.324	83.94
451.545	82.94
451.766	90.94
451.986	82.94
452.207	100.94
452.428	97.94
452.648	97.94
452.869	99.94
453.089	89.94
453.31	108.94
453.53	92.94
453.751	97.94
453.971	86.94
454.192	108.94
454.412	82.94
454.633	93.94
454.853	95.94
455.073	90.94
455.294	93.94
455.514	92.94
455.734	90.94
455.955	86.94
456.175	97.94
456.395	93.94
456.616	94.94
456.836	84.94
457.056	87.94
457.276	86.94
457.497	91.94
457.717	90.94
457.937	96.94
458.157	81.94
458.377	94.94
458.598	103.94
458.818	145.94
459.038	165.94
459.258	124.94
459.478	103.94
459.698	82.94
459.918	95.94
460.138	90.94
460.358	84.94
460.578	74.94
460.798	76.94
461.018	84.94
461.238	96.94
461.458	101.94
461.678	93.94
461.898	85.94
462.118	96.94
462.338	87.94
462.558	95.94
462.777	86.94
462.997	89.94
463.217	83.94
463.437	76.94
463.657	81.94
463.876	90.94
464.096	96.94
464.316	96.94
464.536	99.94
464.755	77.94
464.975	104.94
465.195	154.94
465.414	147.94
465.634	89.94
465.854	83.94
466.073	87.94
466.293	91.94
466.512	93.94
466.732	81.94
466.951	106.94
467.171	91.94
467.391	98.94
467.61	97.94
467.829	106.94
468.049	82.94
468.268	83.94
468.488	87.94
468.707	75.94
468.927	89.94
469.146	100.94
469.365	91.94
469.585	88.94
469.804	92.94
470.023	98.94
470.243	97.94
470.462	95.94
470.681	106.94
470.901	102.94
471.12	86.94
471.339	97.94
471.558	90.94
471.777	99.94
471.997	93.94
472.216	90.94
472.435	80.94
472.654	84.94
472.873	84.94
473.092	84.94
473.311	76.94
473.53	86.94
473.749	87.94
473.968	90.94
474.187	116.94
474.406	105.94
474.625	81.94
474.844	91.94
475.063	82.94
475.282	73.94
475.501	83.94
475.72	106.94
475.939	94.94
476.158	89.94
476.377	92.94
476.596	88.94
476.814	89.94
477.033	98.94
477.252	90.94
477.471	90.94
477.69	91.94
477.908	101.94
478.127	91.94
478.346	82.94
478.564	99.94
478.783	95.94
479.002	104.94
479.22	107.94
479.439	85.94
479.658	102.94
479.876	99.94
480.095	74.94
480.313	90.94
480.532	106.94
480.751	98.94
480.969	98.94
481.188	98.94
481.406	103.94
481.624	90.94
481.843	82.94
482.061	73.94
482.28	82.94
482.498	77.94
482.717	103.94
482.935	89.94
483.153	88.94
483.372	85.94
483.59	100.94
483.808	92.94
484.027	100.94
484.245	67.94
484.463	87.94
484.681	110.94
484.9	90.94
485.118	94.94
485.336	91.94
485.554	89.94
485.772	94.94
485.99	96.94
486.209	119.94
486.427	107.94
486.645	110.94
486.863	101.94
487.081	95.94
487.299	111.94
487.517	88.94
487.735	105.94
487.953	95.94
488.171	90.94
488.389	91.94
488.607	90.94
488.825	93.94
489.043	100.94
489.261	85.94
489.479	82.94
489.696	77.94
489.914	96.94
490.132	84.94
490.35	94.94
490.568	85.94
490.786	90.94
491.003	89.94
491.221	96.94
491.439	107.94
491.657	105.94
491.874	93.94
492.092	92.94
492.31	79.94
492.527	100.94
492.745	97.94
492.963	98.94
493.18	78.94
493.398	93.94
493.615	84.94
493.833	101.94
494.05	109.94
494.268	99.94
494.485	98.94
494.703	100.94
494.92	106.94
495.138	91.94
495.355	94.94
495.573	87.94
495.79	91.94
496.008	86.94
496.225	93.94
496.442	100.94
496.66	94.94
496.877	103.94
497.094	88.94
497.312	92.94
497.529	81.94
497.746	101.94
497.963	83.94
498.181	88.94
498.398	113.94
498.615	103.94
498.832	108.94
499.049	99.94
499.267	89.94
499.484	93.94
499.701	89.94
499.918	99.94
500.135	99.94
500.352	89.94
500.569	73.94
500.786	92.94
501.003	81.94
501.22	89.94
501.437	89.94
501.654	92.94
501.871	96.94
502.088	90.94
502.305	97.94
502.522	82.94
502.739	90.94
502.956	96.94
503.172	81.94
503.389	96.94
503.606	115.94
503.823	95.94
504.04	98.94
504.256	100.94
504.473	83.94
504.69	91.94
504.907	92.94
505.123	87.94
505.34	90.94
505.557	92.94
505.773	107.94
505.99	88.94
506.207	87.94
506.423	90.94
506.64	96.94
506.856	83.94
507.073	95.94
507.289	99.94
507.506	110.94
507.722	116.94
507.939	110.94
508.155	97.94
508.372	93.94
508.588	100.94
508.805	102.94
509.021	110.94
509.238	97.94
509.454	103.94
509.67	99.94
509.887	116.94
510.103	146.94
510.319	225.94
510.536	749.94
510.752	2255.94
510.968	630.94
511.184	145.94
511.401	96.94
511.617	101.94
511.833	100.94
512.049	92.94
512.265	100.94
512.481	63.94
512.698	91.94
512.914	85.94
513.13	97.94
513.346	82.94
513.562	100.94
513.778	98.94
513.994	94.94
514.21	102.94
514.426	110.94
514.642	125.94
514.858	124.94
515.074	150.94
515.29	409.94
515.506	1309.94
515.721	499.94
515.937	162.94
516.153	108.94
516.369	98.94
516.585	102.94
516.801	93.94
517.016	90.94
517.232	91.94
517.448	96.94
517.664	95.94
517.879	108.94
518.095	105.94
518.311	101.94
518.527	90.94
518.742	96.94
518.958	85.94
519.173	98.94
519.389	99.94
519.605	100.94
519.82	110.94
520.036	90.94
520.251	118.94
520.467	115.94
520.682	105.94
520.898	94.94
521.113	113.94
521.329	146.94
521.544	194.94
521.76	516.94
521.975	2239.94
522.19	1347.94
522.406	293.94
522.621	118.94
522.836	107.94
523.052	99.94
523.267	110.94
523.482	91.94
523.698	95.94
523.913	119.94
524.128	116.94
524.343	83.94
524.559	102.94
524.774	89.94
524.989	95.94
525.204	111.94
525.419	102.94
525.634	77.94
525.849	101.94
526.064	86.94
526.28	96.94
526.495	95.94
526.71	93.94
526.925	85.94
527.14	102.94
527.355	90.94
527.57	89.94
527.785	82.94
527.999	89.94
528.214	100.94
528.429	105.94
528.644	95.94
528.859	101.94
529.074	101.94
529.289	121.94
529.503	175.94
529.718	91.94
529.933	98.94
530.148	103.94
530.363	91.94
530.577	80.94
530.792	102.94
531.007	95.94
531.221	93.94
531.436	78.94
531.651	94.94
531.865	84.94
532.08	84.94
532.295	100.94
532.509	113.94
532.724	93.94
532.938	89.94
533.153	100.94
533.367	93.94
533.582	93.94
533.796	90.94
534.011	95.94
534.225	95.94
534.44	90.94
534.654	100.94
534.868	114.94
535.083	103.94
535.297	103.94
535.511	97.94
535.726	92.94
535.94	110.94
536.154	100.94
536.369	88.94
536.583	81.94
536.797	86.94
537.011	92.94
537.225	91.94
537.44	95.94
537.654	99.94
537.868	93.94
538.082	93.94
538.296	88.94
538.51	90.94
538.724	80.94
538.938	95.94
539.153	92.94
539.367	110.94
539.581	93.94
539.795	92.94
540.009	95.94
540.222	97.94
540.436	97.94
540.65	91.94
540.864	99.94
541.078	93.94
541.292	98.94
541.506	100.94
541.72	88.94
541.934	93.94
542.147	86.94
542.361	84.94
542.575	79.94
542.789	109.94
543.002	85.94
543.216	103.94
543.43	102.94
543.644	105.94
543.857	95.94
544.071	83.94
544.285	98.94
544.498	101.94
544.712	98.94
544.925	90.94
545.139	89.94
545.352	91.94
545.566	93.94
545.779	102.94
545.993	107.94
546.206	100.94
546.42	97.94
546.633	99.94
546.847	94.94
547.06	99.94
547.274	101.94
547.487	81.94
547.7	102.94
547.914	98.94
548.127	92.94
548.34	99.94
548.554	83.94
548.767	82.94
548.98	100.94
549.193	93.94
549.407	106.94
549.62	92.94
549.833	83.94
550.046	113.94
550.259	90.94
550.473	85.94
550.686	86.94
550.899	85.94
551.112	97.94
551.325	92.94
551.538	85.94
551.751	95.94
551.964	83.94
552.177	86.94
552.39	100.94
552.603	90.94
552.816	101.94
553.029	90.94
553.242	102.94
553.455	93.94
553.667	106.94
553.88	105.94
554.093	96.94
554.306	100.94
554.519	89.94
554.732	93.94
554.944	98.94
555.157	99.94
555.37	81.94
555.583	82.94
555.795	89.94
556.008	85.94
556.221	93.94
556.433	85.94
556.646	88.94
556.859	96.94
557.071	80.94
557.284	98.94
557.496	94.94
557.709	83.94
557.921	89.94
558.134	85.94
558.346	102.94
558.559	85.94
558.771	89.94
558.984	94.94
559.196	87.94
559.409	71.94
559.621	99.94
559.833	87.94
560.046	80.94
560.258	94.94
560.47	101.94
560.683	93.94
560.895	94.94
561.107	86.94
561.32	84.94
561.532	85.94
561.744	95.94
561.956	81.94
562.168	81.94
562.381	100.94
562.593	85.94
562.805	76.94
563.017	95.94
563.229	83.94
563.441	94.94
563.653	92.94
563.865	82.94
564.077	92.94
564.289	99.94
564.501	95.94
564.713	92.94
564.925	88.94
565.137	100.94
565.349	93.94
565.561	94.94
565.773	79.94
565.985	98.94
566.197	93.94
566.408	90.94
566.62	87.94
566.832	92.94
567.044	83.94
567.255	92.94
567.467	73.94
567.679	97.94
567.891	81.94
568.102	79.94
568.314	97.94
568.526	79.94
568.737	77.94
568.949	99.94
569.161	82.94
569.372	89.94
569.584	90.94
569.795	91.94
570.007	107.94
570.218	240.94
570.43	125.94
570.641	110.94
570.853	98.94
571.064	96.94
571.276	89.94
571.487	89.94
571.698	93.94
571.91	80.94
572.121	91.94
572.333	82.94
572.544	86.94
572.755	89.94
572.966	91.94
573.178	96.94
573.389	104.94
573.6	80.94
573.811	92.94
574.023	91.94
574.234	95.94
574.445	97.94
574.656	96.94
574.867	84.94
575.078	85.94
575.289	95.94
575.501	89.94
575.712	86.94
575.923	102.94
576.134	99.94
576.345	100.94
576.556	86.94
576.767	95.94
576.978	94.94
577.188	100.94
577.399	101.94
577.61	100.94
577.821	95.94
578.032	109.94
578.243	287.94
578.454	740.94
578.665	205.94
578.875	91.94
579.086	100.94
579.297	101.94
579.508	95.94
579.718	78.94
579.929	86.94
580.14	69.94
580.35	98.94
580.561	89.94
580.772	81.94
580.982	99.94
581.193	69.94
581.403	94.94
581.614	81.94
581.825	81.94
582.035	93.94
582.246	96.94
582.456	90.94
582.667	85.94
582.877	102.94
583.087	71.94
583.298	95.94
583.508	77.94
583.719	85.94
583.929	95.94
584.139	110.94
584.35	83.94
584.56	94.94
584.77	87.94
584.981	86.94
585.191	87.94
585.401	70.94
585.611	103.94
585.821	98.94
586.032	81.94
586.242	91.94
586.452	92.94
586.662	95.94
586.872	84.94
587.082	91.94
587.292	89.94
587.502	89.94
587.713	90.94
587.923	84.94
588.133	92.94
588.343	87.94
588.553	89.94
588.762	91.94
588.972	99.94
589.182	81.94
589.392	78.94
589.602	102.94
589.812	90.94
590.022	100.94
590.232	97.94
590.441	103.94
590.651	89.94
590.861	93.94
591.071	88.94
591.281	87.94
591.49	87.94
591.7	92.94
591.91	90.94
592.119	86.94
592.329	80.94
592.539	102.94
592.748	80.94
592.958	95.94
593.167	85.94
593.377	81.94
593.587	88.94
593.796	99.94
594.006	88.94
594.215	82.94
594.424	88.94
594.634	69.94
594.843	89.94
595.053	84.94
595.262	89.94
595.472	92.94
595.681	91.94
595.89	97.94
596.1	88.94
596.309	102.94
596.518	107.94
596.727	97.94
596.937	91.94
597.146	87.94
597.355	85.94
597.564	96.94
597.774	87.94
597.983	91.94
598.192	93.94
598.401	92.94
598.61	80.94
598.819	94.94
599.028	96.94
599.237	99.94
599.446	98.94
599.655	83.94
599.864	91.94
600.073	83.94
600.282	80.94
600.491	85.94
600.7	85.94
600.909	86.94
601.118	91.94
601.327	86.94
601.536	74.94
601.745	75.94
601.953	79.94
602.162	96.94
602.371	82.94
602.58	91.94
602.789	95.94
602.997	92.94
603.206	81.94
603.415	80.94
603.623	93.94
603.832	99.94
604.041	101.94
604.249	91.94
604.458	102.94
604.666	90.94
604.875	93.94
605.084	79.94
605.292	85.94
605.501	91.94
605.709	77.94
605.918	84.94
606.126	104.94
606.334	97.94
606.543	98.94
606.751	86.94
606.96	91.94
607.168	93.94
607.376	78.94
607.585	92.94
607.793	92.94
608.001	93.94
608.21	96.94
608.418	87.94
608.626	65.94
608.834	103.94
609.043	92.94
609.251	89.94
609.459	96.94
609.667	76.94
609.875	87.94
610.083	76.94
610.291	86.94
610.499	93.94
610.707	80.94
610.916	87.94
611.124	87.94
611.332	96.94
611.54	85.94
611.748	83.94
611.955	85.94
612.163	98.94
612.371	94.94
612.579	79.94
612.787	88.94
612.995	89.94
613.203	95.94
613.411	95.94
613.618	90.94
613.826	94.94
614.034	92.94
614.242	75.94
614.449	76.94
614.657	89.94
614.865	84.94
615.072	77.94
615.28	90.94
615.488	98.94
615.695	100.94
615.903	92.94
616.111	100.94
616.318	85.94
616.526	85.94
616.733	100.94
616.941	107.94
617.148	91.94
617.356	77.94
617.563	91.94
617.771	81.94
617.978	82.94
618.185	85.94
618.393	88.94
618.6	89.94
618.807	85.94
619.015	95.94
619.222	98.94
619.429	87.94
619.637	90.94
619.844	80.94
620.051	80.94
620.258	87.94
620.466	100.94
620.673	81.94
620.88	82.94
621.087	91.94
621.294	98.94
621.501	81.94
621.708	93.94
621.915	103.94
622.122	97.94
622.329	94.94
622.536	102.94
622.743	77.94
622.95	90.94
623.157	89.94
623.364	84.94
623.571	92.94
623.778	92.94
623.985	85.94
624.192	86.94
624.399	91.94
624.606	79.94
624.812	89.94
625.019	83.94
625.226	96.94
625.433	98.94
625.639	84.94
625.846	89.94
626.053	96.94
626.259	86.94
626.466	89.94
626.673	84.94
626.879	91.94
627.086	72.94
627.293	85.94
627.499	81.94
627.706	82.94
627.912	80.94
628.119	83.94
628.325	84.94
628.532	86.94
628.738	94.94
628.945	89.94
629.151	86.94
629.357	86.94
629.564	91.94
629.77	86.94
629.976	80.94
630.183	87.94
630.389	93.94
630.595	81.94
630.802	83.94
631.008	78.94
631.214	86.94
631.42	87.94
631.627	94.94
631.833	79.94
632.039	82.94
632.245	84.94
632.451	89.94
632.657	88.94
632.863	74.94
633.069	80.94
633.275	77.94
633.481	81.94
633.688	71.94
633.893	71.94
634.099	85.94
634.305	75.94
634.511	85.94
634.717	84.94
634.923	94.94
635.129	82.94
635.335	73.94
635.541	89.94
635.747	91.94
635.952	82.94
636.158	86.94
636.364	75.94
636.57	96.94
636.775	79.94
636.981	84.94
637.187	84.94
637.392	90.94
637.598	82.94
637.804	83.94
638.009	95.94
638.215	83.94
638.421	90.94
638.626	101.94
638.832	95.94
639.037	86.94
639.243	84.94
639.448	95.94
639.654	85.94
639.859	93.94
640.065	85.94
640.27	97.94
640.475	102.94
640.681	89.94
640.886	83.94
641.091	83.94
641.297	95.94
641.502	91.94
641.707	98.94
641.913	92.94
642.118	79.94
642.323	85.94
642.528	88.94
642.733	93.94
642.939	91.94
643.144	75.94
643.349	85.94
643.554	83.94
643.759	93.94
643.964	95.94
644.169	99.94
644.374	100.94
644.579	83.94
644.784	91.94
644.989	84.94
645.194	79.94
645.399	87.94
645.604	84.94
645.809	93.94
646.014	75.94
646.219	102.94
646.423	83.94
646.628	104.94
646.833	94.94
647.038	85.94
647.243	77.94
647.447	86.94
647.652	89.94
647.857	89.94
648.062	94.94
648.266	93.94
648.471	90.94
648.676	81.94
648.88	89.94
649.085	100.94
649.289	95.94
649.494	89.94
649.698	120.94
649.903	93.94
650.107	97.94
650.312	84.94
650.516	78.94
650.721	81.94
650.925	87.94
651.13	90.94
651.334	87.94
651.539	83.94
651.743	93.94
651.947	77.94
652.152	82.94
652.356	87.94
652.56	90.94
652.764	85.94
652.969	75.94
653.173	73.94
653.377	77.94
653.581	84.94
653.785	100.94
653.99	93.94
654.194	81.94
654.398	92.94
654.602	85.94
654.806	97.94
655.01	94.94
655.214	94.94
655.418	89.94
655.622	94.94
655.826	82.94
656.03	89.94
656.234	81.94
656.438	99.94
656.642	84.94
656.846	77.94
657.049	77.94
657.253	61.94
657.457	90.94
657.661	86.94
657.865	66.94
658.068	81.94
658.272	84.94
658.476	77.94
658.68	91.94
658.883	90.94
659.087	86.94
659.291	91.94
659.494	70.94
659.698	68.94
659.901	96.94
660.105	73.94
660.309	78.94
660.512	81.94
660.716	79.94
660.919	78.94
661.123	98.94
661.326	91.94
661.53	86.94
661.733	83.94
661.936	85.94
662.14	81.94
662.343	81.94
662.546	84.94
662.75	84.94
662.953	82.94
663.156	75.94
663.36	74.94
663.563	85.94
663.766	77.94
663.969	94.94
664.173	83.94
664.376	83.94
664.579	76.94
664.782	77.94
664.985	85.94
665.188	95.94
665.391	95.94
665.594	81.94
665.797	82.94
666	90.94
666.203	92.94
666.406	84.94
666.609	74.94
666.812	91.94
667.015	83.94
667.218	84.94
667.421	81.94
667.624	73.94
667.827	94.94
668.03	88.94
668.232	94.94
668.435	81.94
668.638	70.94
668.841	81.94
669.043	86.94
669.246	78.94
669.449	93.94
669.651	64.94
669.854	91.94
670.057	78.94
670.259	77.94
670.462	70.94
670.665	92.94
670.867	93.94
671.07	92.94
671.272	78.94
671.475	102.94
671.677	79.94
671.88	76.94
672.082	76.94
672.284	80.94
672.487	83.94
672.689	78.94
672.892	83.94
