Data from Uncirc_1994_H10_HRD10591_00079.txt Node
Date: Wed Jan 03 11:39:36 EST 2024
User: Yrep
Spectrometer: HR+D1059
Trigger mode: 1
Integration Time (sec): 1.000000E-1
Scans to average: 1
Electric dark correction enabled: true
Nonlinearity correction enabled: false
Boxcar width: 0
XAxis mode: Wavelengths
Number of Pixels in Spectrum: 2048
>>>>>Begin Spectral Data<<<<<
223.165	-16.06
223.4	-16.06
223.635	-16.06
223.869	-30.06
224.104	-37.06
224.338	-12.06
224.573	-13.06
224.808	-3.06
225.042	-18.06
225.277	-7.06
225.511	8.94
225.746	11.94
225.98	8.94
226.215	12.94
226.449	5.94
226.683	24.94
226.918	28.94
227.152	33.94
227.387	30.94
227.621	29.94
227.856	42.94
228.09	46.94
228.324	51.94
228.559	65.94
228.793	66.94
229.027	57.94
229.262	59.94
229.496	77.94
229.73	88.94
229.964	83.94
230.199	74.94
230.433	69.94
230.667	64.94
230.901	79.94
231.136	85.94
231.37	79.94
231.604	85.94
231.838	77.94
232.072	79.94
232.306	68.94
232.541	75.94
232.775	78.94
233.009	77.94
233.243	88.94
233.477	80.94
233.711	85.94
233.945	89.94
234.179	77.94
234.413	73.94
234.647	89.94
234.881	68.94
235.115	91.94
235.349	78.94
235.583	84.94
235.817	88.94
236.051	74.94
236.285	88.94
236.519	76.94
236.753	62.94
236.987	77.94
237.221	81.94
237.455	89.94
237.689	71.94
237.922	80.94
238.156	64.94
238.39	83.94
238.624	68.94
238.858	93.94
239.091	74.94
239.325	88.94
239.559	78.94
239.793	81.94
240.027	81.94
240.26	85.94
240.494	76.94
240.728	84.94
240.961	83.94
241.195	81.94
241.429	76.94
241.662	76.94
241.896	63.94
242.13	84.94
242.363	75.94
242.597	76.94
242.83	82.94
243.064	63.94
243.298	65.94
243.531	69.94
243.765	77.94
243.998	82.94
244.232	81.94
244.465	66.94
244.699	85.94
244.932	74.94
245.166	76.94
245.399	84.94
245.633	80.94
245.866	84.94
246.099	76.94
246.333	87.94
246.566	78.94
246.8	83.94
247.033	71.94
247.266	75.94
247.5	75.94
247.733	87.94
247.966	86.94
248.2	85.94
248.433	85.94
248.666	81.94
248.899	63.94
249.133	78.94
249.366	91.94
249.599	82.94
249.832	74.94
250.066	78.94
250.299	77.94
250.532	92.94
250.765	82.94
250.998	76.94
251.231	66.94
251.465	84.94
251.698	67.94
251.931	76.94
252.164	72.94
252.397	71.94
252.63	77.94
252.863	90.94
253.096	87.94
253.329	77.94
253.562	73.94
253.795	87.94
254.028	96.94
254.261	88.94
254.494	74.94
254.727	79.94
254.96	96.94
255.193	79.94
255.426	88.94
255.659	83.94
255.892	71.94
256.124	82.94
256.357	90.94
256.59	88.94
256.823	89.94
257.056	99.94
257.289	79.94
257.521	90.94
257.754	89.94
257.987	83.94
258.22	92.94
258.452	77.94
258.685	70.94
258.918	87.94
259.151	85.94
259.383	82.94
259.616	88.94
259.849	84.94
260.081	81.94
260.314	79.94
260.547	75.94
260.779	82.94
261.012	80.94
261.244	85.94
261.477	89.94
261.71	92.94
261.942	105.94
262.175	119.94
262.407	72.94
262.64	80.94
262.872	76.94
263.105	84.94
263.337	89.94
263.57	74.94
263.802	84.94
264.035	83.94
264.267	83.94
264.499	80.94
264.732	76.94
264.964	80.94
265.197	73.94
265.429	83.94
265.661	80.94
265.894	74.94
266.126	92.94
266.358	89.94
266.591	81.94
266.823	82.94
267.055	92.94
267.287	70.94
267.52	75.94
267.752	78.94
267.984	82.94
268.216	87.94
268.448	91.94
268.681	70.94
268.913	84.94
269.145	87.94
269.377	68.94
269.609	83.94
269.841	76.94
270.073	84.94
270.306	80.94
270.538	83.94
270.77	96.94
271.002	64.94
271.234	78.94
271.466	93.94
271.698	75.94
271.93	91.94
272.162	92.94
272.394	92.94
272.626	78.94
272.858	70.94
273.09	78.94
273.322	83.94
273.553	73.94
273.785	94.94
274.017	85.94
274.249	82.94
274.481	70.94
274.713	81.94
274.945	84.94
275.176	82.94
275.408	93.94
275.64	83.94
275.872	84.94
276.104	93.94
276.335	87.94
276.567	90.94
276.799	104.94
277.031	97.94
277.262	97.94
277.494	79.94
277.726	80.94
277.957	77.94
278.189	80.94
278.421	71.94
278.652	83.94
278.884	79.94
279.115	81.94
279.347	75.94
279.579	93.94
279.81	97.94
280.042	97.94
280.273	93.94
280.505	80.94
280.736	81.94
280.968	83.94
281.199	86.94
281.431	80.94
281.662	79.94
281.894	93.94
282.125	98.94
282.356	114.94
282.588	129.94
282.819	112.94
283.051	95.94
283.282	83.94
283.513	81.94
283.745	92.94
283.976	93.94
284.207	87.94
284.439	80.94
284.67	78.94
284.901	79.94
285.132	90.94
285.364	88.94
285.595	77.94
285.826	95.94
286.057	77.94
286.288	87.94
286.52	96.94
286.751	72.94
286.982	84.94
287.213	85.94
287.444	84.94
287.675	90.94
287.906	95.94
288.138	82.94
288.369	105.94
288.6	92.94
288.831	86.94
289.062	85.94
289.293	87.94
289.524	84.94
289.755	87.94
289.986	81.94
290.217	94.94
290.448	81.94
290.679	85.94
290.91	93.94
291.141	80.94
291.371	92.94
291.602	76.94
291.833	88.94
292.064	89.94
292.295	90.94
292.526	87.94
292.757	95.94
292.987	92.94
293.218	88.94
293.449	92.94
293.68	88.94
293.91	106.94
294.141	93.94
294.372	89.94
294.603	94.94
294.833	97.94
295.064	92.94
295.295	73.94
295.525	91.94
295.756	104.94
295.987	114.94
296.217	128.94
296.448	115.94
296.679	95.94
296.909	86.94
297.14	85.94
297.37	87.94
297.601	80.94
297.831	89.94
298.062	101.94
298.292	104.94
298.523	89.94
298.753	73.94
298.984	92.94
299.214	78.94
299.445	87.94
299.675	91.94
299.905	95.94
300.136	94.94
300.366	92.94
300.597	88.94
300.827	95.94
301.057	96.94
301.288	108.94
301.518	86.94
301.748	87.94
301.979	101.94
302.209	92.94
302.439	92.94
302.669	93.94
302.9	81.94
303.13	93.94
303.36	85.94
303.59	95.94
303.82	107.94
304.051	76.94
304.281	88.94
304.511	94.94
304.741	72.94
304.971	83.94
305.201	87.94
305.431	88.94
305.661	85.94
305.891	95.94
306.121	80.94
306.352	98.94
306.582	94.94
306.812	73.94
307.042	80.94
307.272	89.94
307.502	99.94
307.731	90.94
307.961	91.94
308.191	88.94
308.421	90.94
308.651	90.94
308.881	102.94
309.111	86.94
309.341	91.94
309.571	94.94
309.8	101.94
310.03	99.94
310.26	92.94
310.49	105.94
310.72	100.94
310.949	84.94
311.179	110.94
311.409	87.94
311.639	86.94
311.868	86.94
312.098	94.94
312.328	90.94
312.557	95.94
312.787	93.94
313.017	101.94
313.246	102.94
313.476	88.94
313.706	88.94
313.935	96.94
314.165	114.94
314.394	106.94
314.624	97.94
314.853	99.94
315.083	108.94
315.312	88.94
315.542	85.94
315.771	76.94
316.001	100.94
316.23	94.94
316.46	81.94
316.689	73.94
316.919	89.94
317.148	93.94
317.377	96.94
317.607	92.94
317.836	92.94
318.065	90.94
318.295	83.94
318.524	90.94
318.753	94.94
318.983	88.94
319.212	93.94
319.441	98.94
319.67	101.94
319.9	99.94
320.129	92.94
320.358	94.94
320.587	82.94
320.816	100.94
321.046	98.94
321.275	78.94
321.504	100.94
321.733	94.94
321.962	101.94
322.191	100.94
322.42	103.94
322.649	108.94
322.878	100.94
323.108	116.94
323.337	111.94
323.566	123.94
323.795	142.94
324.024	202.94
324.253	374.94
324.482	786.94
324.71	1580.94
324.939	2048.94
325.168	754.94
325.397	237.94
325.626	152.94
325.855	138.94
326.084	124.94
326.313	122.94
326.542	145.94
326.77	208.94
326.999	410.94
327.228	888.94
327.457	1629.94
327.686	1256.94
327.914	353.94
328.143	173.94
328.372	136.94
328.6	106.94
328.829	102.94
329.058	120.94
329.287	124.94
329.515	98.94
329.744	93.94
329.972	97.94
330.201	99.94
330.43	96.94
330.658	113.94
330.887	120.94
331.115	114.94
331.344	100.94
331.572	91.94
331.801	99.94
332.03	94.94
332.258	102.94
332.486	89.94
332.715	78.94
332.943	85.94
333.172	103.94
333.4	107.94
333.629	109.94
333.857	120.94
334.085	94.94
334.314	100.94
334.542	92.94
334.771	86.94
334.999	106.94
335.227	97.94
335.455	91.94
335.684	91.94
335.912	93.94
336.14	91.94
336.369	98.94
336.597	85.94
336.825	97.94
337.053	93.94
337.281	100.94
337.51	80.94
337.738	99.94
337.966	110.94
338.194	106.94
338.422	96.94
338.65	82.94
338.878	84.94
339.106	81.94
339.334	102.94
339.562	96.94
339.79	92.94
340.018	101.94
340.246	101.94
340.474	110.94
340.702	90.94
340.93	86.94
341.158	101.94
341.386	105.94
341.614	91.94
341.842	100.94
342.07	90.94
342.298	92.94
342.526	92.94
342.754	80.94
342.981	76.94
343.209	85.94
343.437	102.94
343.665	83.94
343.893	96.94
344.12	96.94
344.348	91.94
344.576	81.94
344.804	87.94
345.031	82.94
345.259	102.94
345.487	93.94
345.714	99.94
345.942	80.94
346.17	92.94
346.397	100.94
346.625	97.94
346.853	95.94
347.08	92.94
347.308	84.94
347.535	107.94
347.763	97.94
347.99	79.94
348.218	94.94
348.445	97.94
348.673	95.94
348.9	95.94
349.128	105.94
349.355	74.94
349.583	89.94
349.81	84.94
350.037	81.94
350.265	88.94
350.492	97.94
350.72	88.94
350.947	92.94
351.174	121.94
351.402	108.94
351.629	101.94
351.856	102.94
352.083	117.94
352.311	109.94
352.538	114.94
352.765	110.94
352.992	110.94
353.22	94.94
353.447	97.94
353.674	106.94
353.901	81.94
354.128	85.94
354.355	91.94
354.583	96.94
354.81	99.94
355.037	92.94
355.264	89.94
355.491	97.94
355.718	87.94
355.945	96.94
356.172	96.94
356.399	92.94
356.626	96.94
356.853	84.94
357.08	91.94
357.307	92.94
357.534	92.94
357.761	96.94
357.988	91.94
358.215	97.94
358.441	108.94
358.668	100.94
358.895	81.94
359.122	92.94
359.349	115.94
359.576	88.94
359.802	110.94
360.029	107.94
360.256	107.94
360.483	93.94
360.709	101.94
360.936	85.94
361.163	88.94
361.39	80.94
361.616	89.94
361.843	98.94
362.07	104.94
362.296	96.94
362.523	86.94
362.749	90.94
362.976	86.94
363.203	87.94
363.429	82.94
363.656	88.94
363.882	89.94
364.109	92.94
364.335	89.94
364.562	98.94
364.788	87.94
365.015	88.94
365.241	90.94
365.468	112.94
365.694	111.94
365.92	100.94
366.147	85.94
366.373	90.94
366.599	93.94
366.826	89.94
367.052	80.94
367.278	89.94
367.505	86.94
367.731	104.94
367.957	81.94
368.184	84.94
368.41	114.94
368.636	99.94
368.862	105.94
369.089	106.94
369.315	98.94
369.541	87.94
369.767	90.94
369.993	82.94
370.219	98.94
370.445	97.94
370.672	89.94
370.898	85.94
371.124	90.94
371.35	91.94
371.576	83.94
371.802	86.94
372.028	93.94
372.254	82.94
372.48	92.94
372.706	93.94
372.932	90.94
373.158	87.94
373.384	88.94
373.61	102.94
373.835	96.94
374.061	84.94
374.287	103.94
374.513	96.94
374.739	74.94
374.965	82.94
375.191	88.94
375.416	90.94
375.642	79.94
375.868	89.94
376.094	95.94
376.319	95.94
376.545	89.94
376.771	92.94
376.997	74.94
377.222	91.94
377.448	94.94
377.674	89.94
377.899	104.94
378.125	82.94
378.35	84.94
378.576	82.94
378.802	102.94
379.027	85.94
379.253	78.94
379.478	85.94
379.704	94.94
379.929	101.94
380.155	89.94
380.38	107.94
380.606	101.94
380.831	94.94
381.057	96.94
381.282	86.94
381.507	87.94
381.733	98.94
381.958	96.94
382.184	102.94
382.409	99.94
382.634	106.94
382.86	96.94
383.085	104.94
383.31	107.94
383.535	96.94
383.761	86.94
383.986	92.94
384.211	90.94
384.436	91.94
384.662	80.94
384.887	105.94
385.112	90.94
385.337	100.94
385.562	87.94
385.787	102.94
386.013	123.94
386.238	99.94
386.463	94.94
386.688	96.94
386.913	93.94
387.138	100.94
387.363	100.94
387.588	98.94
387.813	101.94
388.038	91.94
388.263	114.94
388.488	99.94
388.713	94.94
388.938	107.94
389.163	97.94
389.387	99.94
389.612	93.94
389.837	96.94
390.062	98.94
390.287	106.94
390.512	92.94
390.736	91.94
390.961	89.94
391.186	88.94
391.411	89.94
391.636	90.94
391.86	84.94
392.085	102.94
392.31	92.94
392.534	92.94
392.759	85.94
392.984	103.94
393.208	96.94
393.433	96.94
393.658	92.94
393.882	80.94
394.107	103.94
394.331	102.94
394.556	93.94
394.78	88.94
395.005	85.94
395.229	85.94
395.454	82.94
395.678	81.94
395.903	80.94
396.127	85.94
396.352	98.94
396.576	78.94
396.801	95.94
397.025	102.94
397.249	93.94
397.474	83.94
397.698	90.94
397.922	89.94
398.147	84.94
398.371	96.94
398.595	84.94
398.82	92.94
399.044	85.94
399.268	96.94
399.492	84.94
399.717	94.94
399.941	96.94
400.165	94.94
400.389	94.94
400.613	97.94
400.837	90.94
401.062	95.94
401.286	76.94
401.51	98.94
401.734	89.94
401.958	89.94
402.182	123.94
402.406	158.94
402.63	112.94
402.854	100.94
403.078	70.94
403.302	93.94
403.526	93.94
403.75	88.94
403.974	93.94
404.198	78.94
404.422	92.94
404.645	76.94
404.869	80.94
405.093	97.94
405.317	92.94
405.541	94.94
405.765	90.94
405.988	117.94
406.212	155.94
406.436	212.94
406.66	139.94
406.883	90.94
407.107	91.94
407.331	90.94
407.555	101.94
407.778	80.94
408.002	74.94
408.226	77.94
408.449	89.94
408.673	90.94
408.896	99.94
409.12	94.94
409.344	81.94
409.567	78.94
409.791	83.94
410.014	84.94
410.238	80.94
410.461	89.94
410.685	96.94
410.908	101.94
411.132	110.94
411.355	100.94
411.578	99.94
411.802	93.94
412.025	92.94
412.249	86.94
412.472	87.94
412.695	93.94
412.919	93.94
413.142	93.94
413.365	73.94
413.589	97.94
413.812	92.94
414.035	99.94
414.258	68.94
414.482	101.94
414.705	91.94
414.928	93.94
415.151	98.94
415.374	80.94
415.597	74.94
415.821	80.94
416.044	95.94
416.267	98.94
416.49	84.94
416.713	95.94
416.936	84.94
417.159	86.94
417.382	87.94
417.605	85.94
417.828	91.94
418.051	88.94
418.274	90.94
418.497	87.94
418.72	99.94
418.943	97.94
419.166	88.94
419.389	68.94
419.611	90.94
419.834	70.94
420.057	77.94
420.28	79.94
420.503	88.94
420.726	86.94
420.948	93.94
421.171	75.94
421.394	80.94
421.617	73.94
421.839	94.94
422.062	94.94
422.285	103.94
422.507	110.94
422.73	107.94
422.953	107.94
423.175	97.94
423.398	84.94
423.621	92.94
423.843	92.94
424.066	91.94
424.288	89.94
424.511	94.94
424.733	89.94
424.956	116.94
425.178	104.94
425.401	111.94
425.623	102.94
425.846	107.94
426.068	89.94
426.291	101.94
426.513	82.94
426.735	85.94
426.958	95.94
427.18	105.94
427.402	136.94
427.625	140.94
427.847	118.94
428.069	93.94
428.292	98.94
428.514	98.94
428.736	78.94
428.958	87.94
429.181	74.94
429.403	64.94
429.625	69.94
429.847	73.94
430.069	100.94
430.292	95.94
430.514	94.94
430.736	91.94
430.958	91.94
431.18	90.94
431.402	100.94
431.624	89.94
431.846	79.94
432.068	84.94
432.29	89.94
432.512	96.94
432.734	84.94
432.956	86.94
433.178	82.94
433.4	93.94
433.622	93.94
433.844	80.94
434.066	95.94
434.287	102.94
434.509	97.94
434.731	89.94
434.953	85.94
435.175	86.94
435.397	94.94
435.618	106.94
435.84	107.94
436.062	114.94
436.284	114.94
436.505	95.94
436.727	87.94
436.949	89.94
437.17	89.94
437.392	91.94
437.614	102.94
437.835	96.94
438.057	109.94
438.278	119.94
438.5	101.94
438.721	114.94
438.943	96.94
439.165	80.94
439.386	75.94
439.608	97.94
439.829	102.94
440.05	127.94
440.272	129.94
440.493	88.94
440.715	84.94
440.936	80.94
441.158	91.94
441.379	92.94
441.6	102.94
441.822	97.94
442.043	92.94
442.264	101.94
442.486	96.94
442.707	89.94
442.928	101.94
443.149	119.94
443.371	115.94
443.592	112.94
443.813	100.94
444.034	112.94
444.255	94.94
444.476	81.94
444.698	81.94
444.919	88.94
445.14	132.94
445.361	125.94
445.582	108.94
445.803	130.94
446.024	120.94
446.245	118.94
446.466	116.94
446.687	86.94
446.908	81.94
447.129	84.94
447.35	107.94
447.571	85.94
447.792	90.94
448.013	110.94
448.234	105.94
448.455	107.94
448.675	124.94
448.896	130.94
449.117	99.94
449.338	121.94
449.559	124.94
449.779	128.94
450	96.94
450.221	88.94
450.442	92.94
450.662	88.94
450.883	92.94
451.104	109.94
451.324	107.94
451.545	96.94
451.766	85.94
451.986	85.94
452.207	97.94
452.428	85.94
452.648	101.94
452.869	111.94
453.089	109.94
453.31	106.94
453.53	97.94
453.751	86.94
453.971	95.94
454.192	95.94
454.412	90.94
454.633	92.94
454.853	83.94
455.073	90.94
455.294	93.94
455.514	90.94
455.734	88.94
455.955	93.94
456.175	80.94
456.395	90.94
456.616	95.94
456.836	88.94
457.056	82.94
457.276	85.94
457.497	86.94
457.717	77.94
457.937	85.94
458.157	90.94
458.377	99.94
458.598	102.94
458.818	142.94
459.038	141.94
459.258	124.94
459.478	80.94
459.698	95.94
459.918	92.94
460.138	95.94
460.358	96.94
460.578	96.94
460.798	84.94
461.018	89.94
461.238	82.94
461.458	92.94
461.678	80.94
461.898	81.94
462.118	80.94
462.338	91.94
462.558	93.94
462.777	96.94
462.997	83.94
463.217	87.94
463.437	94.94
463.657	91.94
463.876	80.94
464.096	95.94
464.316	84.94
464.536	94.94
464.755	91.94
464.975	102.94
465.195	154.94
465.414	152.94
465.634	96.94
465.854	88.94
466.073	84.94
466.293	84.94
466.512	84.94
466.732	82.94
466.951	94.94
467.171	89.94
467.391	98.94
467.61	98.94
467.829	97.94
468.049	90.94
468.268	103.94
468.488	91.94
468.707	102.94
468.927	90.94
469.146	70.94
469.365	100.94
469.585	89.94
469.804	102.94
470.023	108.94
470.243	78.94
470.462	84.94
470.681	101.94
470.901	91.94
471.12	92.94
471.339	75.94
471.558	95.94
471.777	89.94
471.997	86.94
472.216	79.94
472.435	80.94
472.654	95.94
472.873	100.94
473.092	88.94
473.311	83.94
473.53	87.94
473.749	88.94
473.968	91.94
474.187	102.94
474.406	91.94
474.625	80.94
474.844	86.94
475.063	76.94
475.282	99.94
475.501	93.94
475.72	89.94
475.939	89.94
476.158	75.94
476.377	97.94
476.596	88.94
476.814	80.94
477.033	90.94
477.252	105.94
477.471	77.94
477.69	94.94
477.908	83.94
478.127	98.94
478.346	92.94
478.564	99.94
478.783	106.94
479.002	82.94
479.22	88.94
479.439	99.94
479.658	95.94
479.876	94.94
480.095	92.94
480.313	97.94
480.532	85.94
480.751	88.94
480.969	95.94
481.188	89.94
481.406	98.94
481.624	78.94
481.843	70.94
482.061	89.94
482.28	95.94
482.498	99.94
482.717	93.94
482.935	75.94
483.153	86.94
483.372	93.94
483.59	81.94
483.808	91.94
484.027	89.94
484.245	78.94
484.463	82.94
484.681	102.94
484.9	93.94
485.118	103.94
485.336	88.94
485.554	102.94
485.772	107.94
485.99	97.94
486.209	106.94
486.427	93.94
486.645	106.94
486.863	120.94
487.081	88.94
487.299	106.94
487.517	92.94
487.735	107.94
487.953	82.94
488.171	92.94
488.389	91.94
488.607	100.94
488.825	93.94
489.043	95.94
489.261	91.94
489.479	93.94
489.696	95.94
489.914	87.94
490.132	98.94
490.35	87.94
490.568	87.94
490.786	88.94
491.003	86.94
491.221	85.94
491.439	91.94
491.657	103.94
491.874	88.94
492.092	77.94
492.31	76.94
492.527	74.94
492.745	93.94
492.963	94.94
493.18	82.94
493.398	97.94
493.615	99.94
493.833	86.94
494.05	96.94
494.268	93.94
494.485	85.94
494.703	91.94
494.92	91.94
495.138	94.94
495.355	98.94
495.573	80.94
495.79	98.94
496.008	84.94
496.225	98.94
496.442	90.94
496.66	82.94
496.877	96.94
497.094	103.94
497.312	90.94
497.529	94.94
497.746	85.94
497.963	99.94
498.181	93.94
498.398	94.94
498.615	118.94
498.832	98.94
499.049	80.94
499.267	93.94
499.484	88.94
499.701	84.94
499.918	99.94
500.135	97.94
500.352	89.94
500.569	90.94
500.786	81.94
501.003	107.94
501.22	105.94
501.437	85.94
501.654	81.94
501.871	107.94
502.088	91.94
502.305	79.94
502.522	83.94
502.739	100.94
502.956	97.94
503.172	77.94
503.389	88.94
503.606	100.94
503.823	98.94
504.04	89.94
504.256	92.94
504.473	98.94
504.69	91.94
504.907	82.94
505.123	101.94
505.34	106.94
505.557	84.94
505.773	97.94
505.99	86.94
506.207	90.94
506.423	95.94
506.64	107.94
506.856	87.94
507.073	90.94
507.289	102.94
507.506	99.94
507.722	114.94
507.939	114.94
508.155	89.94
508.372	88.94
508.588	94.94
508.805	103.94
509.021	100.94
509.238	107.94
509.454	93.94
509.67	99.94
509.887	98.94
510.103	120.94
510.319	219.94
510.536	714.94
510.752	2263.94
510.968	613.94
511.184	166.94
511.401	110.94
511.617	98.94
511.833	87.94
512.049	96.94
512.265	80.94
512.481	91.94
512.698	101.94
512.914	110.94
513.13	88.94
513.346	86.94
513.562	91.94
513.778	97.94
513.994	96.94
514.21	102.94
514.426	105.94
514.642	130.94
514.858	121.94
515.074	146.94
515.29	412.94
515.506	1324.94
515.721	475.94
515.937	134.94
516.153	107.94
516.369	88.94
516.585	91.94
516.801	91.94
517.016	94.94
517.232	96.94
517.448	104.94
517.664	101.94
517.879	88.94
518.095	90.94
518.311	96.94
518.527	105.94
518.742	83.94
518.958	85.94
519.173	92.94
519.389	100.94
519.605	92.94
519.82	91.94
520.036	98.94
520.251	115.94
520.467	116.94
520.682	108.94
520.898	102.94
521.113	115.94
521.329	117.94
521.544	190.94
521.76	520.94
521.975	2178.94
522.19	1300.94
522.406	282.94
522.621	133.94
522.836	113.94
523.052	82.94
523.267	91.94
523.482	88.94
523.698	97.94
523.913	109.94
524.128	110.94
524.343	96.94
524.559	91.94
524.774	88.94
524.989	100.94
525.204	97.94
525.419	93.94
525.634	95.94
525.849	100.94
526.064	90.94
526.28	97.94
526.495	82.94
526.71	100.94
526.925	103.94
527.14	96.94
527.355	79.94
527.57	106.94
527.785	111.94
527.999	81.94
528.214	100.94
528.429	97.94
528.644	90.94
528.859	83.94
529.074	95.94
529.289	113.94
529.503	154.94
529.718	100.94
529.933	99.94
530.148	78.94
530.363	83.94
530.577	84.94
530.792	104.94
531.007	95.94
531.221	96.94
531.436	89.94
531.651	88.94
531.865	85.94
532.08	79.94
532.295	92.94
532.509	97.94
532.724	92.94
532.938	96.94
533.153	109.94
533.367	89.94
533.582	102.94
533.796	85.94
534.011	93.94
534.225	85.94
534.44	95.94
534.654	84.94
534.868	92.94
535.083	88.94
535.297	90.94
535.511	101.94
535.726	99.94
535.94	97.94
536.154	99.94
536.369	77.94
536.583	89.94
536.797	95.94
537.011	90.94
537.225	102.94
537.44	84.94
537.654	83.94
537.868	89.94
538.082	97.94
538.296	93.94
538.51	90.94
538.724	93.94
538.938	78.94
539.153	96.94
539.367	96.94
539.581	104.94
539.795	84.94
540.009	91.94
540.222	92.94
540.436	96.94
540.65	94.94
540.864	77.94
541.078	87.94
541.292	94.94
541.506	84.94
541.72	79.94
541.934	100.94
542.147	85.94
542.361	96.94
542.575	76.94
542.789	87.94
543.002	79.94
543.216	80.94
543.43	92.94
543.644	108.94
543.857	98.94
544.071	90.94
544.285	88.94
544.498	95.94
544.712	86.94
544.925	91.94
545.139	84.94
545.352	76.94
545.566	74.94
545.779	93.94
545.993	84.94
546.206	94.94
546.42	81.94
546.633	95.94
546.847	84.94
547.06	92.94
547.274	84.94
547.487	89.94
547.7	74.94
547.914	88.94
548.127	92.94
548.34	95.94
548.554	81.94
548.767	92.94
548.98	96.94
549.193	83.94
549.407	89.94
549.62	90.94
549.833	88.94
550.046	82.94
550.259	81.94
550.473	100.94
550.686	91.94
550.899	94.94
551.112	82.94
551.325	93.94
551.538	93.94
551.751	93.94
551.964	93.94
552.177	83.94
552.39	85.94
552.603	88.94
552.816	95.94
553.029	94.94
553.242	91.94
553.455	93.94
553.667	99.94
553.88	92.94
554.093	100.94
554.306	91.94
554.519	94.94
554.732	99.94
554.944	115.94
555.157	81.94
555.37	99.94
555.583	91.94
555.795	88.94
556.008	91.94
556.221	87.94
556.433	99.94
556.646	92.94
556.859	89.94
557.071	92.94
557.284	92.94
557.496	91.94
557.709	93.94
557.921	84.94
558.134	97.94
558.346	79.94
558.559	91.94
558.771	92.94
558.984	91.94
559.196	86.94
559.409	80.94
559.621	90.94
559.833	95.94
560.046	87.94
560.258	91.94
560.47	61.94
560.683	82.94
560.895	84.94
561.107	84.94
561.32	96.94
561.532	101.94
561.744	85.94
561.956	82.94
562.168	84.94
562.381	101.94
562.593	98.94
562.805	85.94
563.017	97.94
563.229	83.94
563.441	104.94
563.653	84.94
563.865	82.94
564.077	92.94
564.289	104.94
564.501	99.94
564.713	94.94
564.925	92.94
565.137	92.94
565.349	98.94
565.561	79.94
565.773	73.94
565.985	94.94
566.197	94.94
566.408	85.94
566.62	77.94
566.832	92.94
567.044	87.94
567.255	84.94
567.467	90.94
567.679	87.94
567.891	84.94
568.102	76.94
568.314	93.94
568.526	93.94
568.737	100.94
568.949	86.94
569.161	85.94
569.372	88.94
569.584	89.94
569.795	91.94
570.007	108.94
570.218	233.94
570.43	152.94
570.641	91.94
570.853	82.94
571.064	85.94
571.276	97.94
571.487	81.94
571.698	93.94
571.91	73.94
572.121	90.94
572.333	92.94
572.544	85.94
572.755	92.94
572.966	85.94
573.178	85.94
573.389	85.94
573.6	96.94
573.811	82.94
574.023	102.94
574.234	82.94
574.445	87.94
574.656	89.94
574.867	94.94
575.078	94.94
575.289	89.94
575.501	98.94
575.712	89.94
575.923	86.94
576.134	91.94
576.345	80.94
576.556	84.94
576.767	91.94
576.978	91.94
577.188	96.94
577.399	91.94
577.61	103.94
577.821	98.94
578.032	119.94
578.243	270.94
578.454	706.94
578.665	208.94
578.875	104.94
579.086	77.94
579.297	76.94
579.508	90.94
579.718	95.94
579.929	92.94
580.14	80.94
580.35	82.94
580.561	95.94
580.772	89.94
580.982	99.94
581.193	100.94
581.403	89.94
581.614	86.94
581.825	81.94
582.035	70.94
582.246	91.94
582.456	88.94
582.667	90.94
582.877	79.94
583.087	90.94
583.298	83.94
583.508	91.94
583.719	86.94
583.929	100.94
584.139	80.94
584.35	101.94
584.56	81.94
584.77	65.94
584.981	89.94
585.191	81.94
585.401	84.94
585.611	95.94
585.821	89.94
586.032	97.94
586.242	83.94
586.452	82.94
586.662	83.94
586.872	92.94
587.082	96.94
587.292	83.94
587.502	93.94
587.713	78.94
587.923	94.94
588.133	90.94
588.343	89.94
588.553	98.94
588.762	86.94
588.972	83.94
589.182	85.94
589.392	82.94
589.602	90.94
589.812	82.94
590.022	91.94
590.232	74.94
590.441	83.94
590.651	82.94
590.861	77.94
591.071	88.94
591.281	79.94
591.49	78.94
591.7	86.94
591.91	80.94
592.119	94.94
592.329	90.94
592.539	89.94
592.748	88.94
592.958	94.94
593.167	84.94
593.377	90.94
593.587	83.94
593.796	78.94
594.006	85.94
594.215	94.94
594.424	81.94
594.634	82.94
594.843	76.94
595.053	70.94
595.262	70.94
595.472	84.94
595.681	93.94
595.89	69.94
596.1	90.94
596.309	74.94
596.518	90.94
596.727	86.94
596.937	85.94
597.146	79.94
597.355	91.94
597.564	76.94
597.774	74.94
597.983	97.94
598.192	87.94
598.401	96.94
598.61	95.94
598.819	74.94
599.028	77.94
599.237	88.94
599.446	81.94
599.655	85.94
599.864	97.94
600.073	80.94
600.282	88.94
600.491	111.94
600.7	90.94
600.909	89.94
601.118	97.94
601.327	96.94
601.536	91.94
601.745	101.94
601.953	95.94
602.162	97.94
602.371	84.94
602.58	90.94
602.789	77.94
602.997	77.94
603.206	96.94
603.415	84.94
603.623	81.94
603.832	90.94
604.041	84.94
604.249	91.94
604.458	97.94
604.666	92.94
604.875	94.94
605.084	91.94
605.292	82.94
605.501	78.94
605.709	91.94
605.918	91.94
606.126	80.94
606.334	90.94
606.543	89.94
606.751	68.94
606.96	101.94
607.168	83.94
607.376	93.94
607.585	86.94
607.793	97.94
608.001	85.94
608.21	70.94
608.418	79.94
608.626	80.94
608.834	84.94
609.043	78.94
609.251	101.94
609.459	96.94
609.667	87.94
609.875	90.94
610.083	73.94
610.291	86.94
610.499	100.94
610.707	84.94
610.916	70.94
611.124	81.94
611.332	92.94
611.54	73.94
611.748	86.94
611.955	83.94
612.163	85.94
612.371	97.94
612.579	87.94
612.787	95.94
612.995	96.94
613.203	77.94
613.411	80.94
613.618	79.94
613.826	79.94
614.034	97.94
614.242	96.94
614.449	92.94
614.657	81.94
614.865	90.94
615.072	86.94
615.28	88.94
615.488	80.94
615.695	94.94
615.903	95.94
616.111	118.94
616.318	98.94
616.526	98.94
616.733	79.94
616.941	95.94
617.148	96.94
617.356	80.94
617.563	80.94
617.771	89.94
617.978	80.94
618.185	91.94
618.393	90.94
618.6	74.94
618.807	92.94
619.015	97.94
619.222	105.94
619.429	83.94
619.637	80.94
619.844	102.94
620.051	78.94
620.258	87.94
620.466	78.94
620.673	98.94
620.88	93.94
621.087	89.94
621.294	93.94
621.501	79.94
621.708	79.94
621.915	100.94
622.122	97.94
622.329	89.94
622.536	90.94
622.743	78.94
622.95	79.94
623.157	80.94
623.364	99.94
623.571	85.94
623.778	85.94
623.985	90.94
624.192	81.94
624.399	86.94
624.606	76.94
624.812	90.94
625.019	64.94
625.226	93.94
625.433	91.94
625.639	100.94
625.846	81.94
626.053	86.94
626.259	84.94
626.466	82.94
626.673	77.94
626.879	91.94
627.086	82.94
627.293	93.94
627.499	90.94
627.706	82.94
627.912	92.94
628.119	100.94
628.325	81.94
628.532	84.94
628.738	83.94
628.945	90.94
629.151	85.94
629.357	97.94
629.564	89.94
629.77	101.94
629.976	93.94
630.183	76.94
630.389	76.94
630.595	88.94
630.802	92.94
631.008	82.94
631.214	82.94
631.42	95.94
631.627	88.94
631.833	83.94
632.039	82.94
632.245	73.94
632.451	87.94
632.657	83.94
632.863	94.94
633.069	79.94
633.275	86.94
633.481	92.94
633.688	86.94
633.893	86.94
634.099	85.94
634.305	80.94
634.511	84.94
634.717	84.94
634.923	89.94
635.129	96.94
635.335	85.94
635.541	80.94
635.747	92.94
635.952	86.94
636.158	96.94
636.364	97.94
636.57	88.94
636.775	74.94
636.981	91.94
637.187	88.94
637.392	89.94
637.598	83.94
637.804	77.94
638.009	83.94
638.215	68.94
638.421	91.94
638.626	74.94
638.832	101.94
639.037	72.94
639.243	84.94
639.448	78.94
639.654	89.94
639.859	84.94
640.065	74.94
640.27	96.94
640.475	83.94
640.681	78.94
640.886	77.94
641.091	84.94
641.297	91.94
641.502	102.94
641.707	89.94
641.913	93.94
642.118	93.94
642.323	98.94
642.528	102.94
642.733	88.94
642.939	92.94
643.144	92.94
643.349	95.94
643.554	88.94
643.759	85.94
643.964	79.94
644.169	96.94
644.374	84.94
644.579	82.94
644.784	87.94
644.989	96.94
645.194	75.94
645.399	84.94
645.604	86.94
645.809	74.94
646.014	88.94
646.219	73.94
646.423	84.94
646.628	76.94
646.833	80.94
647.038	88.94
647.243	88.94
647.447	83.94
647.652	83.94
647.857	80.94
648.062	97.94
648.266	105.94
648.471	80.94
648.676	95.94
648.88	104.94
649.085	98.94
649.289	84.94
649.494	95.94
649.698	137.94
649.903	106.94
650.107	85.94
650.312	93.94
650.516	85.94
650.721	67.94
650.925	76.94
651.13	76.94
651.334	76.94
651.539	73.94
651.743	89.94
651.947	85.94
652.152	82.94
652.356	79.94
652.56	74.94
652.764	81.94
652.969	91.94
653.173	76.94
653.377	99.94
653.581	84.94
653.785	80.94
653.99	88.94
654.194	81.94
654.398	83.94
654.602	84.94
654.806	94.94
655.01	110.94
655.214	94.94
655.418	71.94
655.622	80.94
655.826	99.94
656.03	84.94
656.234	91.94
656.438	87.94
656.642	96.94
656.846	91.94
657.049	97.94
657.253	98.94
657.457	66.94
657.661	83.94
657.865	93.94
658.068	82.94
658.272	87.94
658.476	78.94
658.68	84.94
658.883	76.94
659.087	78.94
659.291	84.94
659.494	78.94
659.698	80.94
659.901	72.94
660.105	87.94
660.309	86.94
660.512	81.94
660.716	98.94
660.919	90.94
661.123	96.94
661.326	94.94
661.53	80.94
661.733	77.94
661.936	93.94
662.14	89.94
662.343	86.94
662.546	93.94
662.75	67.94
662.953	74.94
663.156	68.94
663.36	80.94
663.563	73.94
663.766	85.94
663.969	79.94
664.173	83.94
664.376	81.94
664.579	69.94
664.782	74.94
664.985	71.94
665.188	86.94
665.391	70.94
665.594	93.94
665.797	74.94
666	77.94
666.203	80.94
666.406	73.94
666.609	75.94
666.812	100.94
667.015	69.94
667.218	89.94
667.421	81.94
667.624	80.94
667.827	76.94
668.03	89.94
668.232	76.94
668.435	90.94
668.638	69.94
668.841	78.94
669.043	74.94
669.246	94.94
669.449	77.94
669.651	76.94
669.854	94.94
670.057	93.94
670.259	74.94
670.462	82.94
670.665	89.94
670.867	74.94
671.07	81.94
671.272	92.94
671.475	69.94
671.677	77.94
671.88	73.94
672.082	89.94
672.284	79.94
672.487	84.94
672.689	76.94
672.892	94.94
