Data from Uncirc_1994_H10_HRD10591_00067.txt Node
Date: Wed Jan 03 11:39:34 EST 2024
User: Yrep
Spectrometer: HR+D1059
Trigger mode: 1
Integration Time (sec): 1.000000E-1
Scans to average: 1
Electric dark correction enabled: true
Nonlinearity correction enabled: false
Boxcar width: 0
XAxis mode: Wavelengths
Number of Pixels in Spectrum: 2048
>>>>>Begin Spectral Data<<<<<
223.165	-24.88
223.4	-24.88
223.635	-24.88
223.869	-16.88
224.104	-28.88
224.338	-13.88
224.573	-8.88
224.808	-15.88
225.042	-5.88
225.277	-1.88
225.511	-3.88
225.746	20.12
225.98	12.12
226.215	2.12
226.449	22.12
226.683	15.12
226.918	27.12
227.152	22.12
227.387	39.12
227.621	32.12
227.856	32.12
228.09	53.12
228.324	44.12
228.559	48.12
228.793	52.12
229.027	64.12
229.262	61.12
229.496	70.12
229.73	78.12
229.964	83.12
230.199	64.12
230.433	76.12
230.667	76.12
230.901	71.12
231.136	76.12
231.37	71.12
231.604	77.12
231.838	65.12
232.072	89.12
232.306	71.12
232.541	75.12
232.775	81.12
233.009	86.12
233.243	81.12
233.477	73.12
233.711	83.12
233.945	83.12
234.179	62.12
234.413	89.12
234.647	61.12
234.881	74.12
235.115	80.12
235.349	66.12
235.583	55.12
235.817	75.12
236.051	75.12
236.285	67.12
236.519	83.12
236.753	87.12
236.987	65.12
237.221	92.12
237.455	87.12
237.689	63.12
237.922	67.12
238.156	71.12
238.39	74.12
238.624	78.12
238.858	76.12
239.091	72.12
239.325	83.12
239.559	78.12
239.793	78.12
240.027	87.12
240.26	75.12
240.494	78.12
240.728	90.12
240.961	79.12
241.195	75.12
241.429	80.12
241.662	74.12
241.896	82.12
242.13	79.12
242.363	74.12
242.597	85.12
242.83	78.12
243.064	90.12
243.298	82.12
243.531	73.12
243.765	76.12
243.998	74.12
244.232	95.12
244.465	83.12
244.699	80.12
244.932	79.12
245.166	88.12
245.399	71.12
245.633	76.12
245.866	75.12
246.099	75.12
246.333	81.12
246.566	63.12
246.8	82.12
247.033	82.12
247.266	80.12
247.5	73.12
247.733	68.12
247.966	76.12
248.2	74.12
248.433	72.12
248.666	70.12
248.899	80.12
249.133	82.12
249.366	93.12
249.599	90.12
249.832	87.12
250.066	93.12
250.299	76.12
250.532	86.12
250.765	83.12
250.998	76.12
251.231	72.12
251.465	83.12
251.698	80.12
251.931	65.12
252.164	72.12
252.397	78.12
252.63	77.12
252.863	82.12
253.096	79.12
253.329	76.12
253.562	70.12
253.795	76.12
254.028	82.12
254.261	77.12
254.494	78.12
254.727	77.12
254.96	64.12
255.193	75.12
255.426	78.12
255.659	83.12
255.892	70.12
256.124	76.12
256.357	76.12
256.59	66.12
256.823	72.12
257.056	91.12
257.289	79.12
257.521	78.12
257.754	91.12
257.987	85.12
258.22	78.12
258.452	76.12
258.685	89.12
258.918	83.12
259.151	79.12
259.383	81.12
259.616	87.12
259.849	83.12
260.081	96.12
260.314	82.12
260.547	94.12
260.779	88.12
261.012	82.12
261.244	87.12
261.477	93.12
261.71	91.12
261.942	94.12
262.175	99.12
262.407	103.12
262.64	74.12
262.872	88.12
263.105	74.12
263.337	79.12
263.57	82.12
263.802	68.12
264.035	76.12
264.267	65.12
264.499	70.12
264.732	82.12
264.964	78.12
265.197	102.12
265.429	76.12
265.661	93.12
265.894	75.12
266.126	82.12
266.358	82.12
266.591	105.12
266.823	75.12
267.055	85.12
267.287	92.12
267.52	67.12
267.752	77.12
267.984	80.12
268.216	84.12
268.448	92.12
268.681	72.12
268.913	85.12
269.145	95.12
269.377	88.12
269.609	81.12
269.841	88.12
270.073	78.12
270.306	67.12
270.538	84.12
270.77	72.12
271.002	84.12
271.234	77.12
271.466	74.12
271.698	78.12
271.93	80.12
272.162	82.12
272.394	78.12
272.626	84.12
272.858	94.12
273.09	90.12
273.322	84.12
273.553	75.12
273.785	93.12
274.017	87.12
274.249	90.12
274.481	88.12
274.713	79.12
274.945	76.12
275.176	99.12
275.408	77.12
275.64	89.12
275.872	81.12
276.104	83.12
276.335	90.12
276.567	91.12
276.799	92.12
277.031	89.12
277.262	65.12
277.494	85.12
277.726	81.12
277.957	92.12
278.189	90.12
278.421	74.12
278.652	82.12
278.884	77.12
279.115	82.12
279.347	105.12
279.579	88.12
279.81	78.12
280.042	78.12
280.273	84.12
280.505	88.12
280.736	82.12
280.968	78.12
281.199	90.12
281.431	90.12
281.662	100.12
281.894	93.12
282.125	102.12
282.356	104.12
282.588	119.12
282.819	112.12
283.051	74.12
283.282	92.12
283.513	95.12
283.745	74.12
283.976	88.12
284.207	87.12
284.439	79.12
284.67	97.12
284.901	82.12
285.132	87.12
285.364	80.12
285.595	83.12
285.826	90.12
286.057	79.12
286.288	82.12
286.52	88.12
286.751	88.12
286.982	84.12
287.213	86.12
287.444	98.12
287.675	95.12
287.906	94.12
288.138	102.12
288.369	107.12
288.6	88.12
288.831	83.12
289.062	98.12
289.293	87.12
289.524	81.12
289.755	94.12
289.986	91.12
290.217	84.12
290.448	88.12
290.679	89.12
290.91	83.12
291.141	82.12
291.371	98.12
291.602	63.12
291.833	74.12
292.064	87.12
292.295	73.12
292.526	97.12
292.757	78.12
292.987	85.12
293.218	83.12
293.449	78.12
293.68	96.12
293.91	90.12
294.141	80.12
294.372	92.12
294.603	96.12
294.833	87.12
295.064	93.12
295.295	81.12
295.525	81.12
295.756	109.12
295.987	105.12
296.217	130.12
296.448	121.12
296.679	93.12
296.909	90.12
297.14	83.12
297.37	90.12
297.601	91.12
297.831	85.12
298.062	82.12
298.292	99.12
298.523	74.12
298.753	110.12
298.984	81.12
299.214	93.12
299.445	88.12
299.675	72.12
299.905	96.12
300.136	88.12
300.366	81.12
300.597	98.12
300.827	103.12
301.057	94.12
301.288	86.12
301.518	86.12
301.748	93.12
301.979	104.12
302.209	87.12
302.439	101.12
302.669	87.12
302.9	95.12
303.13	94.12
303.36	90.12
303.59	104.12
303.82	91.12
304.051	86.12
304.281	88.12
304.511	89.12
304.741	85.12
304.971	94.12
305.201	83.12
305.431	82.12
305.661	86.12
305.891	78.12
306.121	91.12
306.352	104.12
306.582	85.12
306.812	91.12
307.042	89.12
307.272	102.12
307.502	87.12
307.731	95.12
307.961	92.12
308.191	90.12
308.421	99.12
308.651	90.12
308.881	101.12
309.111	89.12
309.341	85.12
309.571	97.12
309.8	101.12
310.03	95.12
310.26	94.12
310.49	96.12
310.72	90.12
310.949	84.12
311.179	96.12
311.409	94.12
311.639	85.12
311.868	104.12
312.098	104.12
312.328	90.12
312.557	91.12
312.787	100.12
313.017	98.12
313.246	99.12
313.476	87.12
313.706	101.12
313.935	97.12
314.165	96.12
314.394	102.12
314.624	94.12
314.853	103.12
315.083	101.12
315.312	92.12
315.542	82.12
315.771	91.12
316.001	82.12
316.23	89.12
316.46	100.12
316.689	90.12
316.919	89.12
317.148	108.12
317.377	97.12
317.607	87.12
317.836	87.12
318.065	86.12
318.295	103.12
318.524	99.12
318.753	90.12
318.983	93.12
319.212	99.12
319.441	101.12
319.67	106.12
319.9	88.12
320.129	90.12
320.358	87.12
320.587	106.12
320.816	93.12
321.046	105.12
321.275	90.12
321.504	89.12
321.733	97.12
321.962	96.12
322.191	94.12
322.42	95.12
322.649	110.12
322.878	116.12
323.108	108.12
323.337	126.12
323.566	118.12
323.795	147.12
324.024	200.12
324.253	379.12
324.482	840.12
324.71	1694.12
324.939	2202.12
325.168	825.12
325.397	240.12
325.626	158.12
325.855	134.12
326.084	114.12
326.313	128.12
326.542	159.12
326.77	245.12
326.999	444.12
327.228	934.12
327.457	1719.12
327.686	1300.12
327.914	352.12
328.143	186.12
328.372	131.12
328.6	111.12
328.829	123.12
329.058	122.12
329.287	113.12
329.515	112.12
329.744	97.12
329.972	111.12
330.201	103.12
330.43	103.12
330.658	122.12
330.887	146.12
331.115	135.12
331.344	112.12
331.572	112.12
331.801	95.12
332.03	97.12
332.258	95.12
332.486	87.12
332.715	94.12
332.943	97.12
333.172	91.12
333.4	96.12
333.629	97.12
333.857	110.12
334.085	100.12
334.314	81.12
334.542	103.12
334.771	97.12
334.999	97.12
335.227	74.12
335.455	78.12
335.684	94.12
335.912	97.12
336.14	84.12
336.369	99.12
336.597	95.12
336.825	101.12
337.053	99.12
337.281	100.12
337.51	91.12
337.738	102.12
337.966	88.12
338.194	91.12
338.422	92.12
338.65	91.12
338.878	88.12
339.106	83.12
339.334	77.12
339.562	93.12
339.79	77.12
340.018	97.12
340.246	109.12
340.474	105.12
340.702	101.12
340.93	98.12
341.158	92.12
341.386	103.12
341.614	88.12
341.842	100.12
342.07	91.12
342.298	82.12
342.526	91.12
342.754	91.12
342.981	86.12
343.209	83.12
343.437	83.12
343.665	90.12
343.893	104.12
344.12	78.12
344.348	82.12
344.576	92.12
344.804	103.12
345.031	90.12
345.259	87.12
345.487	90.12
345.714	96.12
345.942	91.12
346.17	91.12
346.397	99.12
346.625	95.12
346.853	99.12
347.08	95.12
347.308	85.12
347.535	105.12
347.763	87.12
347.99	107.12
348.218	105.12
348.445	91.12
348.673	96.12
348.9	90.12
349.128	84.12
349.355	100.12
349.583	87.12
349.81	88.12
350.037	82.12
350.265	90.12
350.492	88.12
350.72	104.12
350.947	111.12
351.174	103.12
351.402	107.12
351.629	105.12
351.856	97.12
352.083	99.12
352.311	112.12
352.538	114.12
352.765	113.12
352.992	106.12
353.22	110.12
353.447	88.12
353.674	100.12
353.901	86.12
354.128	94.12
354.355	89.12
354.583	95.12
354.81	99.12
355.037	100.12
355.264	100.12
355.491	107.12
355.718	92.12
355.945	95.12
356.172	97.12
356.399	92.12
356.626	90.12
356.853	89.12
357.08	100.12
357.307	76.12
357.534	86.12
357.761	95.12
357.988	92.12
358.215	97.12
358.441	93.12
358.668	92.12
358.895	90.12
359.122	84.12
359.349	91.12
359.576	80.12
359.802	97.12
360.029	106.12
360.256	114.12
360.483	104.12
360.709	90.12
360.936	83.12
361.163	82.12
361.39	86.12
361.616	96.12
361.843	90.12
362.07	94.12
362.296	80.12
362.523	95.12
362.749	89.12
362.976	91.12
363.203	80.12
363.429	92.12
363.656	88.12
363.882	79.12
364.109	90.12
364.335	83.12
364.562	78.12
364.788	94.12
365.015	97.12
365.241	97.12
365.468	99.12
365.694	98.12
365.92	95.12
366.147	92.12
366.373	90.12
366.599	69.12
366.826	90.12
367.052	96.12
367.278	94.12
367.505	83.12
367.731	76.12
367.957	95.12
368.184	81.12
368.41	97.12
368.636	96.12
368.862	122.12
369.089	100.12
369.315	84.12
369.541	91.12
369.767	104.12
369.993	83.12
370.219	86.12
370.445	83.12
370.672	90.12
370.898	80.12
371.124	86.12
371.35	87.12
371.576	81.12
371.802	86.12
372.028	82.12
372.254	100.12
372.48	91.12
372.706	85.12
372.932	94.12
373.158	89.12
373.384	79.12
373.61	81.12
373.835	79.12
374.061	92.12
374.287	95.12
374.513	86.12
374.739	81.12
374.965	74.12
375.191	90.12
375.416	86.12
375.642	89.12
375.868	94.12
376.094	90.12
376.319	89.12
376.545	96.12
376.771	89.12
376.997	83.12
377.222	83.12
377.448	70.12
377.674	85.12
377.899	91.12
378.125	80.12
378.35	93.12
378.576	89.12
378.802	88.12
379.027	89.12
379.253	88.12
379.478	98.12
379.704	101.12
379.929	99.12
380.155	83.12
380.38	98.12
380.606	91.12
380.831	75.12
381.057	106.12
381.282	98.12
381.507	84.12
381.733	111.12
381.958	94.12
382.184	95.12
382.409	104.12
382.634	96.12
382.86	96.12
383.085	95.12
383.31	78.12
383.535	103.12
383.761	100.12
383.986	104.12
384.211	78.12
384.436	79.12
384.662	79.12
384.887	103.12
385.112	91.12
385.337	103.12
385.562	91.12
385.787	102.12
386.013	94.12
386.238	109.12
386.463	115.12
386.688	106.12
386.913	83.12
387.138	98.12
387.363	89.12
387.588	92.12
387.813	91.12
388.038	100.12
388.263	103.12
388.488	93.12
388.713	101.12
388.938	92.12
389.163	78.12
389.387	99.12
389.612	91.12
389.837	91.12
390.062	105.12
390.287	87.12
390.512	88.12
390.736	91.12
390.961	83.12
391.186	90.12
391.411	89.12
391.636	87.12
391.86	81.12
392.085	82.12
392.31	87.12
392.534	73.12
392.759	85.12
392.984	94.12
393.208	86.12
393.433	86.12
393.658	100.12
393.882	90.12
394.107	86.12
394.331	77.12
394.556	76.12
394.78	78.12
395.005	93.12
395.229	83.12
395.454	86.12
395.678	82.12
395.903	87.12
396.127	93.12
396.352	86.12
396.576	75.12
396.801	72.12
397.025	83.12
397.249	99.12
397.474	91.12
397.698	94.12
397.922	84.12
398.147	71.12
398.371	83.12
398.595	81.12
398.82	89.12
399.044	93.12
399.268	89.12
399.492	86.12
399.717	83.12
399.941	100.12
400.165	95.12
400.389	97.12
400.613	91.12
400.837	99.12
401.062	83.12
401.286	87.12
401.51	76.12
401.734	91.12
401.958	91.12
402.182	121.12
402.406	150.12
402.63	122.12
402.854	92.12
403.078	98.12
403.302	98.12
403.526	80.12
403.75	89.12
403.974	90.12
404.198	78.12
404.422	87.12
404.645	94.12
404.869	84.12
405.093	86.12
405.317	96.12
405.541	88.12
405.765	97.12
405.988	111.12
406.212	158.12
406.436	196.12
406.66	129.12
406.883	93.12
407.107	105.12
407.331	103.12
407.555	105.12
407.778	100.12
408.002	78.12
408.226	75.12
408.449	88.12
408.673	83.12
408.896	82.12
409.12	100.12
409.344	97.12
409.567	93.12
409.791	88.12
410.014	91.12
410.238	98.12
410.461	81.12
410.685	80.12
410.908	107.12
411.132	104.12
411.355	95.12
411.578	97.12
411.802	90.12
412.025	86.12
412.249	87.12
412.472	85.12
412.695	87.12
412.919	88.12
413.142	94.12
413.365	88.12
413.589	91.12
413.812	86.12
414.035	85.12
414.258	85.12
414.482	78.12
414.705	73.12
414.928	94.12
415.151	86.12
415.374	98.12
415.597	88.12
415.821	82.12
416.044	102.12
416.267	78.12
416.49	80.12
416.713	83.12
416.936	97.12
417.159	82.12
417.382	81.12
417.605	92.12
417.828	89.12
418.051	93.12
418.274	86.12
418.497	98.12
418.72	83.12
418.943	84.12
419.166	94.12
419.389	82.12
419.611	87.12
419.834	79.12
420.057	91.12
420.28	78.12
420.503	86.12
420.726	89.12
420.948	80.12
421.171	92.12
421.394	100.12
421.617	84.12
421.839	106.12
422.062	76.12
422.285	93.12
422.507	87.12
422.73	91.12
422.953	93.12
423.175	99.12
423.398	78.12
423.621	90.12
423.843	93.12
424.066	89.12
424.288	92.12
424.511	104.12
424.733	100.12
424.956	94.12
425.178	95.12
425.401	94.12
425.623	102.12
425.846	96.12
426.068	93.12
426.291	76.12
426.513	61.12
426.735	82.12
426.958	87.12
427.18	96.12
427.402	130.12
427.625	143.12
427.847	98.12
428.069	94.12
428.292	93.12
428.514	95.12
428.736	78.12
428.958	79.12
429.181	79.12
429.403	82.12
429.625	91.12
429.847	95.12
430.069	106.12
430.292	97.12
430.514	89.12
430.736	70.12
430.958	92.12
431.18	98.12
431.402	86.12
431.624	78.12
431.846	82.12
432.068	91.12
432.29	99.12
432.512	82.12
432.734	84.12
432.956	82.12
433.178	104.12
433.4	86.12
433.622	87.12
433.844	86.12
434.066	87.12
434.287	89.12
434.509	85.12
434.731	96.12
434.953	96.12
435.175	90.12
435.397	98.12
435.618	98.12
435.84	113.12
436.062	119.12
436.284	108.12
436.505	100.12
436.727	97.12
436.949	85.12
437.17	93.12
437.392	77.12
437.614	87.12
437.835	111.12
438.057	91.12
438.278	107.12
438.5	108.12
438.721	123.12
438.943	93.12
439.165	84.12
439.386	83.12
439.608	103.12
439.829	92.12
440.05	118.12
440.272	130.12
440.493	86.12
440.715	84.12
440.936	86.12
441.158	79.12
441.379	84.12
441.6	83.12
441.822	84.12
442.043	97.12
442.264	88.12
442.486	94.12
442.707	84.12
442.928	103.12
443.149	119.12
443.371	116.12
443.592	108.12
443.813	131.12
444.034	121.12
444.255	103.12
444.476	74.12
444.698	84.12
444.919	92.12
445.14	131.12
445.361	107.12
445.582	108.12
445.803	128.12
446.024	127.12
446.245	125.12
446.466	110.12
446.687	97.12
446.908	92.12
447.129	78.12
447.35	81.12
447.571	69.12
447.792	98.12
448.013	99.12
448.234	102.12
448.455	106.12
448.675	115.12
448.896	112.12
449.117	96.12
449.338	99.12
449.559	138.12
449.779	153.12
450	93.12
450.221	73.12
450.442	94.12
450.662	90.12
450.883	96.12
451.104	102.12
451.324	100.12
451.545	98.12
451.766	76.12
451.986	89.12
452.207	76.12
452.428	90.12
452.648	95.12
452.869	103.12
453.089	123.12
453.31	109.12
453.53	84.12
453.751	95.12
453.971	105.12
454.192	110.12
454.412	93.12
454.633	87.12
454.853	85.12
455.073	88.12
455.294	94.12
455.514	95.12
455.734	80.12
455.955	86.12
456.175	82.12
456.395	78.12
456.616	75.12
456.836	100.12
457.056	84.12
457.276	82.12
457.497	80.12
457.717	79.12
457.937	82.12
458.157	78.12
458.377	94.12
458.598	111.12
458.818	138.12
459.038	143.12
459.258	114.12
459.478	83.12
459.698	81.12
459.918	89.12
460.138	98.12
460.358	80.12
460.578	72.12
460.798	95.12
461.018	87.12
461.238	83.12
461.458	100.12
461.678	83.12
461.898	78.12
462.118	89.12
462.338	83.12
462.558	83.12
462.777	66.12
462.997	64.12
463.217	77.12
463.437	95.12
463.657	83.12
463.876	100.12
464.096	93.12
464.316	92.12
464.536	94.12
464.755	106.12
464.975	110.12
465.195	161.12
465.414	164.12
465.634	99.12
465.854	84.12
466.073	94.12
466.293	80.12
466.512	97.12
466.732	82.12
466.951	94.12
467.171	80.12
467.391	106.12
467.61	95.12
467.829	108.12
468.049	91.12
468.268	81.12
468.488	82.12
468.707	80.12
468.927	82.12
469.146	73.12
469.365	80.12
469.585	81.12
469.804	88.12
470.023	96.12
470.243	111.12
470.462	82.12
470.681	94.12
470.901	83.12
471.12	91.12
471.339	77.12
471.558	75.12
471.777	87.12
471.997	102.12
472.216	80.12
472.435	79.12
472.654	75.12
472.873	92.12
473.092	86.12
473.311	91.12
473.53	76.12
473.749	88.12
473.968	87.12
474.187	110.12
474.406	100.12
474.625	99.12
474.844	97.12
475.063	90.12
475.282	82.12
475.501	73.12
475.72	100.12
475.939	95.12
476.158	100.12
476.377	65.12
476.596	90.12
476.814	72.12
477.033	95.12
477.252	89.12
477.471	99.12
477.69	79.12
477.908	90.12
478.127	89.12
478.346	94.12
478.564	88.12
478.783	91.12
479.002	99.12
479.22	90.12
479.439	89.12
479.658	105.12
479.876	100.12
480.095	92.12
480.313	100.12
480.532	98.12
480.751	94.12
480.969	92.12
481.188	100.12
481.406	81.12
481.624	95.12
481.843	96.12
482.061	90.12
482.28	90.12
482.498	98.12
482.717	77.12
482.935	82.12
483.153	92.12
483.372	91.12
483.59	89.12
483.808	80.12
484.027	88.12
484.245	82.12
484.463	86.12
484.681	97.12
484.9	103.12
485.118	94.12
485.336	97.12
485.554	81.12
485.772	102.12
485.99	105.12
486.209	97.12
486.427	95.12
486.645	95.12
486.863	103.12
487.081	97.12
487.299	109.12
487.517	100.12
487.735	96.12
487.953	95.12
488.171	94.12
488.389	96.12
488.607	91.12
488.825	94.12
489.043	89.12
489.261	96.12
489.479	97.12
489.696	94.12
489.914	86.12
490.132	84.12
490.35	95.12
490.568	83.12
490.786	95.12
491.003	95.12
491.221	94.12
491.439	100.12
491.657	94.12
491.874	91.12
492.092	92.12
492.31	90.12
492.527	75.12
492.745	91.12
492.963	76.12
493.18	72.12
493.398	89.12
493.615	102.12
493.833	82.12
494.05	82.12
494.268	104.12
494.485	99.12
494.703	90.12
494.92	97.12
495.138	83.12
495.355	99.12
495.573	82.12
495.79	82.12
496.008	80.12
496.225	93.12
496.442	93.12
496.66	88.12
496.877	108.12
497.094	97.12
497.312	78.12
497.529	79.12
497.746	90.12
497.963	88.12
498.181	104.12
498.398	104.12
498.615	104.12
498.832	106.12
499.049	101.12
499.267	86.12
499.484	82.12
499.701	100.12
499.918	94.12
500.135	87.12
500.352	98.12
500.569	104.12
500.786	88.12
501.003	81.12
501.22	95.12
501.437	76.12
501.654	88.12
501.871	93.12
502.088	93.12
502.305	98.12
502.522	87.12
502.739	98.12
502.956	100.12
503.172	83.12
503.389	96.12
503.606	97.12
503.823	90.12
504.04	82.12
504.256	84.12
504.473	81.12
504.69	92.12
504.907	93.12
505.123	89.12
505.34	86.12
505.557	76.12
505.773	84.12
505.99	89.12
506.207	94.12
506.423	98.12
506.64	89.12
506.856	100.12
507.073	87.12
507.289	85.12
507.506	84.12
507.722	114.12
507.939	100.12
508.155	98.12
508.372	102.12
508.588	80.12
508.805	93.12
509.021	95.12
509.238	96.12
509.454	105.12
509.67	88.12
509.887	92.12
510.103	143.12
510.319	226.12
510.536	759.12
510.752	2362.12
510.968	639.12
511.184	146.12
511.401	126.12
511.617	94.12
511.833	94.12
512.049	76.12
512.265	81.12
512.481	76.12
512.698	86.12
512.914	92.12
513.13	85.12
513.346	99.12
513.562	108.12
513.778	87.12
513.994	115.12
514.21	99.12
514.426	105.12
514.642	130.12
514.858	116.12
515.074	159.12
515.29	437.12
515.506	1379.12
515.721	495.12
515.937	136.12
516.153	110.12
516.369	109.12
516.585	83.12
516.801	100.12
517.016	106.12
517.232	97.12
517.448	84.12
517.664	99.12
517.879	91.12
518.095	92.12
518.311	89.12
518.527	75.12
518.742	77.12
518.958	97.12
519.173	104.12
519.389	84.12
519.605	92.12
519.82	98.12
520.036	100.12
520.251	105.12
520.467	94.12
520.682	82.12
520.898	107.12
521.113	111.12
521.329	123.12
521.544	216.12
521.76	555.12
521.975	2308.12
522.19	1378.12
522.406	297.12
522.621	130.12
522.836	93.12
523.052	101.12
523.267	96.12
523.482	99.12
523.698	94.12
523.913	118.12
524.128	104.12
524.343	89.12
524.559	89.12
524.774	87.12
524.989	100.12
525.204	102.12
525.419	93.12
525.634	91.12
525.849	91.12
526.064	86.12
526.28	79.12
526.495	77.12
526.71	78.12
526.925	98.12
527.14	93.12
527.355	80.12
527.57	91.12
527.785	89.12
527.999	79.12
528.214	80.12
528.429	92.12
528.644	88.12
528.859	75.12
529.074	89.12
529.289	127.12
529.503	168.12
529.718	96.12
529.933	87.12
530.148	92.12
530.363	95.12
530.577	90.12
530.792	87.12
531.007	91.12
531.221	81.12
531.436	96.12
531.651	83.12
531.865	76.12
532.08	81.12
532.295	94.12
532.509	92.12
532.724	96.12
532.938	102.12
533.153	107.12
533.367	84.12
533.582	95.12
533.796	84.12
534.011	97.12
534.225	87.12
534.44	83.12
534.654	100.12
534.868	84.12
535.083	105.12
535.297	106.12
535.511	93.12
535.726	100.12
535.94	94.12
536.154	92.12
536.369	106.12
536.583	86.12
536.797	81.12
537.011	82.12
537.225	93.12
537.44	82.12
537.654	89.12
537.868	80.12
538.082	72.12
538.296	84.12
538.51	90.12
538.724	76.12
538.938	97.12
539.153	90.12
539.367	100.12
539.581	96.12
539.795	89.12
540.009	96.12
540.222	83.12
540.436	88.12
540.65	72.12
540.864	85.12
541.078	95.12
541.292	73.12
541.506	82.12
541.72	90.12
541.934	70.12
542.147	91.12
542.361	102.12
542.575	90.12
542.789	82.12
543.002	99.12
543.216	97.12
543.43	86.12
543.644	95.12
543.857	79.12
544.071	94.12
544.285	87.12
544.498	89.12
544.712	96.12
544.925	95.12
545.139	87.12
545.352	90.12
545.566	86.12
545.779	94.12
545.993	80.12
546.206	92.12
546.42	88.12
546.633	83.12
546.847	91.12
547.06	98.12
547.274	81.12
547.487	81.12
547.7	86.12
547.914	91.12
548.127	88.12
548.34	91.12
548.554	85.12
548.767	89.12
548.98	83.12
549.193	100.12
549.407	82.12
549.62	72.12
549.833	70.12
550.046	71.12
550.259	90.12
550.473	99.12
550.686	89.12
550.899	81.12
551.112	89.12
551.325	87.12
551.538	80.12
551.751	84.12
551.964	94.12
552.177	92.12
552.39	84.12
552.603	103.12
552.816	90.12
553.029	89.12
553.242	106.12
553.455	88.12
553.667	88.12
553.88	95.12
554.093	96.12
554.306	85.12
554.519	90.12
554.732	104.12
554.944	78.12
555.157	97.12
555.37	84.12
555.583	90.12
555.795	89.12
556.008	91.12
556.221	89.12
556.433	94.12
556.646	86.12
556.859	81.12
557.071	95.12
557.284	95.12
557.496	77.12
557.709	100.12
557.921	87.12
558.134	93.12
558.346	89.12
558.559	82.12
558.771	87.12
558.984	96.12
559.196	102.12
559.409	89.12
559.621	94.12
559.833	95.12
560.046	81.12
560.258	87.12
560.47	75.12
560.683	92.12
560.895	78.12
561.107	82.12
561.32	89.12
561.532	81.12
561.744	84.12
561.956	82.12
562.168	85.12
562.381	98.12
562.593	88.12
562.805	90.12
563.017	99.12
563.229	98.12
563.441	90.12
563.653	90.12
563.865	95.12
564.077	87.12
564.289	71.12
564.501	98.12
564.713	99.12
564.925	88.12
565.137	94.12
565.349	88.12
565.561	76.12
565.773	74.12
565.985	89.12
566.197	96.12
566.408	77.12
566.62	86.12
566.832	86.12
567.044	83.12
567.255	80.12
567.467	90.12
567.679	87.12
567.891	95.12
568.102	98.12
568.314	87.12
568.526	87.12
568.737	93.12
568.949	88.12
569.161	87.12
569.372	83.12
569.584	82.12
569.795	96.12
570.007	121.12
570.218	249.12
570.43	121.12
570.641	94.12
570.853	82.12
571.064	77.12
571.276	88.12
571.487	96.12
571.698	83.12
571.91	72.12
572.121	90.12
572.333	82.12
572.544	75.12
572.755	74.12
572.966	95.12
573.178	90.12
573.389	98.12
573.6	83.12
573.811	90.12
574.023	85.12
574.234	90.12
574.445	65.12
574.656	92.12
574.867	100.12
575.078	76.12
575.289	90.12
575.501	98.12
575.712	72.12
575.923	92.12
576.134	83.12
576.345	88.12
576.556	86.12
576.767	81.12
576.978	94.12
577.188	105.12
577.399	98.12
577.61	102.12
577.821	102.12
578.032	115.12
578.243	271.12
578.454	753.12
578.665	207.12
578.875	102.12
579.086	94.12
579.297	87.12
579.508	87.12
579.718	105.12
579.929	94.12
580.14	91.12
580.35	72.12
580.561	87.12
580.772	88.12
580.982	81.12
581.193	76.12
581.403	82.12
581.614	84.12
581.825	80.12
582.035	86.12
582.246	91.12
582.456	86.12
582.667	85.12
582.877	74.12
583.087	86.12
583.298	81.12
583.508	86.12
583.719	92.12
583.929	108.12
584.139	88.12
584.35	76.12
584.56	83.12
584.77	92.12
584.981	89.12
585.191	89.12
585.401	86.12
585.611	102.12
585.821	82.12
586.032	92.12
586.242	87.12
586.452	91.12
586.662	83.12
586.872	91.12
587.082	86.12
587.292	70.12
587.502	90.12
587.713	75.12
587.923	72.12
588.133	83.12
588.343	93.12
588.553	81.12
588.762	98.12
588.972	83.12
589.182	83.12
589.392	95.12
589.602	100.12
589.812	72.12
590.022	93.12
590.232	89.12
590.441	94.12
590.651	77.12
590.861	87.12
591.071	75.12
591.281	87.12
591.49	70.12
591.7	67.12
591.91	86.12
592.119	92.12
592.329	81.12
592.539	93.12
592.748	90.12
592.958	82.12
593.167	82.12
593.377	97.12
593.587	99.12
593.796	92.12
594.006	89.12
594.215	89.12
594.424	87.12
594.634	98.12
594.843	97.12
595.053	77.12
595.262	78.12
595.472	79.12
595.681	92.12
595.89	96.12
596.1	81.12
596.309	88.12
596.518	78.12
596.727	95.12
596.937	94.12
597.146	87.12
597.355	83.12
597.564	81.12
597.774	88.12
597.983	93.12
598.192	92.12
598.401	81.12
598.61	88.12
598.819	86.12
599.028	94.12
599.237	92.12
599.446	83.12
599.655	94.12
599.864	82.12
600.073	82.12
600.282	86.12
600.491	86.12
600.7	86.12
600.909	96.12
601.118	94.12
601.327	86.12
601.536	91.12
601.745	100.12
601.953	83.12
602.162	91.12
602.371	79.12
602.58	90.12
602.789	89.12
602.997	82.12
603.206	81.12
603.415	82.12
603.623	104.12
603.832	64.12
604.041	75.12
604.249	83.12
604.458	95.12
604.666	78.12
604.875	88.12
605.084	98.12
605.292	86.12
605.501	82.12
605.709	78.12
605.918	81.12
606.126	79.12
606.334	87.12
606.543	89.12
606.751	85.12
606.96	81.12
607.168	79.12
607.376	94.12
607.585	87.12
607.793	77.12
608.001	70.12
608.21	90.12
608.418	77.12
608.626	101.12
608.834	86.12
609.043	79.12
609.251	91.12
609.459	94.12
609.667	91.12
609.875	87.12
610.083	85.12
610.291	85.12
610.499	92.12
610.707	92.12
610.916	80.12
611.124	75.12
611.332	75.12
611.54	78.12
611.748	89.12
611.955	87.12
612.163	80.12
612.371	86.12
612.579	76.12
612.787	91.12
612.995	93.12
613.203	93.12
613.411	92.12
613.618	83.12
613.826	84.12
614.034	78.12
614.242	106.12
614.449	90.12
614.657	88.12
614.865	79.12
615.072	88.12
615.28	94.12
615.488	87.12
615.695	98.12
615.903	96.12
616.111	83.12
616.318	106.12
616.526	96.12
616.733	96.12
616.941	90.12
617.148	98.12
617.356	99.12
617.563	80.12
617.771	96.12
617.978	98.12
618.185	83.12
618.393	90.12
618.6	86.12
618.807	75.12
619.015	86.12
619.222	86.12
619.429	74.12
619.637	93.12
619.844	86.12
620.051	90.12
620.258	79.12
620.466	74.12
620.673	89.12
620.88	89.12
621.087	89.12
621.294	81.12
621.501	65.12
621.708	88.12
621.915	91.12
622.122	91.12
622.329	79.12
622.536	78.12
622.743	80.12
622.95	79.12
623.157	80.12
623.364	83.12
623.571	75.12
623.778	80.12
623.985	82.12
624.192	78.12
624.399	84.12
624.606	88.12
624.812	83.12
625.019	80.12
625.226	92.12
625.433	87.12
625.639	83.12
625.846	93.12
626.053	93.12
626.259	84.12
626.466	97.12
626.673	72.12
626.879	83.12
627.086	78.12
627.293	90.12
627.499	86.12
627.706	89.12
627.912	80.12
628.119	81.12
628.325	87.12
628.532	78.12
628.738	74.12
628.945	74.12
629.151	73.12
629.357	87.12
629.564	84.12
629.77	91.12
629.976	82.12
630.183	76.12
630.389	74.12
630.595	90.12
630.802	88.12
631.008	77.12
631.214	94.12
631.42	91.12
631.627	87.12
631.833	78.12
632.039	77.12
632.245	83.12
632.451	82.12
632.657	90.12
632.863	80.12
633.069	91.12
633.275	86.12
633.481	88.12
633.688	81.12
633.893	73.12
634.099	81.12
634.305	75.12
634.511	75.12
634.717	77.12
634.923	78.12
635.129	80.12
635.335	94.12
635.541	89.12
635.747	100.12
635.952	97.12
636.158	92.12
636.364	101.12
636.57	80.12
636.775	82.12
636.981	78.12
637.187	83.12
637.392	87.12
637.598	73.12
637.804	87.12
638.009	94.12
638.215	83.12
638.421	80.12
638.626	84.12
638.832	94.12
639.037	89.12
639.243	87.12
639.448	77.12
639.654	85.12
639.859	88.12
640.065	83.12
640.27	94.12
640.475	94.12
640.681	86.12
640.886	87.12
641.091	93.12
641.297	86.12
641.502	74.12
641.707	93.12
641.913	96.12
642.118	82.12
642.323	91.12
642.528	93.12
642.733	90.12
642.939	87.12
643.144	83.12
643.349	78.12
643.554	89.12
643.759	82.12
643.964	82.12
644.169	77.12
644.374	100.12
644.579	93.12
644.784	87.12
644.989	96.12
645.194	90.12
645.399	88.12
645.604	91.12
645.809	79.12
646.014	83.12
646.219	83.12
646.423	87.12
646.628	83.12
646.833	89.12
647.038	84.12
647.243	88.12
647.447	92.12
647.652	97.12
647.857	78.12
648.062	83.12
648.266	79.12
648.471	90.12
648.676	103.12
648.88	95.12
649.085	89.12
649.289	82.12
649.494	94.12
649.698	139.12
649.903	102.12
650.107	94.12
650.312	96.12
650.516	90.12
650.721	82.12
650.925	79.12
651.13	67.12
651.334	78.12
651.539	71.12
651.743	68.12
651.947	88.12
652.152	101.12
652.356	75.12
652.56	93.12
652.764	70.12
652.969	84.12
653.173	77.12
653.377	82.12
653.581	88.12
653.785	77.12
653.99	82.12
654.194	73.12
654.398	80.12
654.602	80.12
654.806	84.12
655.01	111.12
655.214	99.12
655.418	89.12
655.622	88.12
655.826	74.12
656.03	82.12
656.234	82.12
656.438	96.12
656.642	92.12
656.846	79.12
657.049	92.12
657.253	92.12
657.457	67.12
657.661	86.12
657.865	80.12
658.068	86.12
658.272	79.12
658.476	96.12
658.68	84.12
658.883	67.12
659.087	59.12
659.291	91.12
659.494	68.12
659.698	74.12
659.901	74.12
660.105	86.12
660.309	83.12
660.512	84.12
660.716	100.12
660.919	81.12
661.123	90.12
661.326	63.12
661.53	57.12
661.733	83.12
661.936	75.12
662.14	76.12
662.343	62.12
662.546	82.12
662.75	80.12
662.953	81.12
663.156	83.12
663.36	85.12
663.563	67.12
663.766	75.12
663.969	84.12
664.173	76.12
664.376	72.12
664.579	80.12
664.782	82.12
664.985	80.12
665.188	77.12
665.391	77.12
665.594	71.12
665.797	82.12
666	88.12
666.203	82.12
666.406	78.12
666.609	75.12
666.812	88.12
667.015	80.12
667.218	87.12
667.421	80.12
667.624	80.12
667.827	76.12
668.03	93.12
668.232	80.12
668.435	86.12
668.638	89.12
668.841	66.12
669.043	65.12
669.246	76.12
669.449	73.12
669.651	82.12
669.854	89.12
670.057	95.12
670.259	85.12
670.462	82.12
670.665	82.12
670.867	80.12
671.07	69.12
671.272	90.12
671.475	77.12
671.677	74.12
671.88	77.12
672.082	62.12
672.284	84.12
672.487	80.12
672.689	84.12
672.892	80.12
