Data from Uncirc_1994_H10_HRD10591_00008.txt Node
Date: Wed Jan 03 11:39:22 EST 2024
User: Yrep
Spectrometer: HR+D1059
Trigger mode: 1
Integration Time (sec): 1.000000E-1
Scans to average: 1
Electric dark correction enabled: true
Nonlinearity correction enabled: false
Boxcar width: 0
XAxis mode: Wavelengths
Number of Pixels in Spectrum: 2048
>>>>>Begin Spectral Data<<<<<
223.165	-15.31
223.4	-15.31
223.635	-15.31
223.869	-27.31
224.104	-16.31
224.338	-21.31
224.573	-1.31
224.808	-6.31
225.042	-9.31
225.277	-9.31
225.511	-0.31
225.746	3.69
225.98	3.69
226.215	0.69
226.449	15.69
226.683	22.69
226.918	26.69
227.152	33.69
227.387	41.69
227.621	42.69
227.856	44.69
228.09	52.69
228.324	55.69
228.559	41.69
228.793	54.69
229.027	63.69
229.262	59.69
229.496	84.69
229.73	87.69
229.964	74.69
230.199	70.69
230.433	74.69
230.667	79.69
230.901	79.69
231.136	84.69
231.37	81.69
231.604	97.69
231.838	83.69
232.072	74.69
232.306	74.69
232.541	86.69
232.775	76.69
233.009	76.69
233.243	79.69
233.477	79.69
233.711	83.69
233.945	77.69
234.179	94.69
234.413	80.69
234.647	83.69
234.881	70.69
235.115	64.69
235.349	86.69
235.583	72.69
235.817	79.69
236.051	77.69
236.285	88.69
236.519	88.69
236.753	80.69
236.987	70.69
237.221	79.69
237.455	84.69
237.689	70.69
237.922	86.69
238.156	86.69
238.39	75.69
238.624	90.69
238.858	70.69
239.091	93.69
239.325	93.69
239.559	90.69
239.793	73.69
240.027	73.69
240.26	79.69
240.494	90.69
240.728	82.69
240.961	79.69
241.195	71.69
241.429	76.69
241.662	92.69
241.896	84.69
242.13	92.69
242.363	72.69
242.597	86.69
242.83	86.69
243.064	77.69
243.298	78.69
243.531	77.69
243.765	58.69
243.998	93.69
244.232	95.69
244.465	75.69
244.699	82.69
244.932	83.69
245.166	63.69
245.399	68.69
245.633	74.69
245.866	81.69
246.099	88.69
246.333	93.69
246.566	83.69
246.8	69.69
247.033	82.69
247.266	78.69
247.5	73.69
247.733	79.69
247.966	74.69
248.2	96.69
248.433	95.69
248.666	84.69
248.899	82.69
249.133	87.69
249.366	77.69
249.599	80.69
249.832	72.69
250.066	91.69
250.299	88.69
250.532	67.69
250.765	72.69
250.998	91.69
251.231	82.69
251.465	70.69
251.698	78.69
251.931	83.69
252.164	75.69
252.397	68.69
252.63	86.69
252.863	87.69
253.096	84.69
253.329	72.69
253.562	73.69
253.795	76.69
254.028	83.69
254.261	79.69
254.494	95.69
254.727	83.69
254.96	78.69
255.193	70.69
255.426	87.69
255.659	74.69
255.892	87.69
256.124	76.69
256.357	80.69
256.59	82.69
256.823	78.69
257.056	82.69
257.289	80.69
257.521	78.69
257.754	89.69
257.987	82.69
258.22	76.69
258.452	83.69
258.685	70.69
258.918	74.69
259.151	79.69
259.383	80.69
259.616	79.69
259.849	79.69
260.081	80.69
260.314	76.69
260.547	75.69
260.779	74.69
261.012	79.69
261.244	96.69
261.477	74.69
261.71	82.69
261.942	92.69
262.175	110.69
262.407	94.69
262.64	76.69
262.872	76.69
263.105	63.69
263.337	78.69
263.57	59.69
263.802	68.69
264.035	90.69
264.267	75.69
264.499	84.69
264.732	101.69
264.964	76.69
265.197	85.69
265.429	74.69
265.661	73.69
265.894	87.69
266.126	91.69
266.358	71.69
266.591	70.69
266.823	73.69
267.055	84.69
267.287	76.69
267.52	93.69
267.752	82.69
267.984	91.69
268.216	85.69
268.448	82.69
268.681	94.69
268.913	83.69
269.145	79.69
269.377	100.69
269.609	85.69
269.841	103.69
270.073	86.69
270.306	98.69
270.538	85.69
270.77	86.69
271.002	82.69
271.234	82.69
271.466	82.69
271.698	86.69
271.93	84.69
272.162	81.69
272.394	84.69
272.626	85.69
272.858	87.69
273.09	86.69
273.322	86.69
273.553	74.69
273.785	80.69
274.017	65.69
274.249	67.69
274.481	100.69
274.713	87.69
274.945	81.69
275.176	87.69
275.408	88.69
275.64	94.69
275.872	84.69
276.104	78.69
276.335	75.69
276.567	101.69
276.799	116.69
277.031	95.69
277.262	90.69
277.494	88.69
277.726	84.69
277.957	70.69
278.189	91.69
278.421	80.69
278.652	76.69
278.884	78.69
279.115	78.69
279.347	89.69
279.579	72.69
279.81	73.69
280.042	97.69
280.273	67.69
280.505	84.69
280.736	82.69
280.968	83.69
281.199	83.69
281.431	81.69
281.662	90.69
281.894	82.69
282.125	91.69
282.356	98.69
282.588	126.69
282.819	98.69
283.051	98.69
283.282	91.69
283.513	96.69
283.745	77.69
283.976	100.69
284.207	95.69
284.439	91.69
284.67	76.69
284.901	82.69
285.132	89.69
285.364	66.69
285.595	71.69
285.826	82.69
286.057	88.69
286.288	88.69
286.52	78.69
286.751	78.69
286.982	90.69
287.213	94.69
287.444	71.69
287.675	85.69
287.906	88.69
288.138	80.69
288.369	98.69
288.6	100.69
288.831	104.69
289.062	70.69
289.293	99.69
289.524	97.69
289.755	89.69
289.986	88.69
290.217	87.69
290.448	85.69
290.679	95.69
290.91	68.69
291.141	80.69
291.371	89.69
291.602	81.69
291.833	71.69
292.064	95.69
292.295	82.69
292.526	80.69
292.757	86.69
292.987	74.69
293.218	81.69
293.449	84.69
293.68	92.69
293.91	85.69
294.141	99.69
294.372	101.69
294.603	81.69
294.833	86.69
295.064	91.69
295.295	78.69
295.525	75.69
295.756	107.69
295.987	110.69
296.217	120.69
296.448	117.69
296.679	91.69
296.909	76.69
297.14	80.69
297.37	96.69
297.601	90.69
297.831	87.69
298.062	88.69
298.292	81.69
298.523	90.69
298.753	86.69
298.984	85.69
299.214	87.69
299.445	95.69
299.675	105.69
299.905	89.69
300.136	86.69
300.366	65.69
300.597	94.69
300.827	105.69
301.057	96.69
301.288	97.69
301.518	89.69
301.748	82.69
301.979	107.69
302.209	104.69
302.439	87.69
302.669	96.69
302.9	93.69
303.13	97.69
303.36	100.69
303.59	111.69
303.82	109.69
304.051	97.69
304.281	89.69
304.511	99.69
304.741	79.69
304.971	98.69
305.201	87.69
305.431	94.69
305.661	89.69
305.891	104.69
306.121	95.69
306.352	88.69
306.582	95.69
306.812	82.69
307.042	88.69
307.272	90.69
307.502	98.69
307.731	102.69
307.961	80.69
308.191	84.69
308.421	93.69
308.651	80.69
308.881	86.69
309.111	86.69
309.341	76.69
309.571	99.69
309.8	102.69
310.03	88.69
310.26	76.69
310.49	96.69
310.72	102.69
310.949	110.69
311.179	96.69
311.409	93.69
311.639	97.69
311.868	76.69
312.098	83.69
312.328	100.69
312.557	112.69
312.787	98.69
313.017	89.69
313.246	99.69
313.476	89.69
313.706	98.69
313.935	84.69
314.165	76.69
314.394	95.69
314.624	92.69
314.853	105.69
315.083	86.69
315.312	97.69
315.542	88.69
315.771	90.69
316.001	92.69
316.23	90.69
316.46	91.69
316.689	94.69
316.919	96.69
317.148	91.69
317.377	102.69
317.607	99.69
317.836	91.69
318.065	89.69
318.295	79.69
318.524	91.69
318.753	97.69
318.983	107.69
319.212	102.69
319.441	105.69
319.67	96.69
319.9	92.69
320.129	83.69
320.358	106.69
320.587	106.69
320.816	97.69
321.046	89.69
321.275	86.69
321.504	83.69
321.733	94.69
321.962	98.69
322.191	86.69
322.42	98.69
322.649	91.69
322.878	104.69
323.108	112.69
323.337	112.69
323.566	119.69
323.795	133.69
324.024	187.69
324.253	337.69
324.482	705.69
324.71	1455.69
324.939	1860.69
325.168	662.69
325.397	220.69
325.626	154.69
325.855	115.69
326.084	126.69
326.313	123.69
326.542	137.69
326.77	183.69
326.999	396.69
327.228	848.69
327.457	1494.69
327.686	1185.69
327.914	322.69
328.143	168.69
328.372	137.69
328.6	125.69
328.829	114.69
329.058	122.69
329.287	122.69
329.515	97.69
329.744	98.69
329.972	102.69
330.201	102.69
330.43	97.69
330.658	117.69
330.887	109.69
331.115	104.69
331.344	99.69
331.572	99.69
331.801	109.69
332.03	97.69
332.258	86.69
332.486	94.69
332.715	83.69
332.943	93.69
333.172	93.69
333.4	103.69
333.629	102.69
333.857	107.69
334.085	102.69
334.314	89.69
334.542	83.69
334.771	87.69
334.999	92.69
335.227	95.69
335.455	96.69
335.684	99.69
335.912	101.69
336.14	93.69
336.369	87.69
336.597	91.69
336.825	99.69
337.053	87.69
337.281	109.69
337.51	95.69
337.738	111.69
337.966	92.69
338.194	98.69
338.422	95.69
338.65	99.69
338.878	91.69
339.106	80.69
339.334	79.69
339.562	85.69
339.79	93.69
340.018	100.69
340.246	85.69
340.474	77.69
340.702	99.69
340.93	92.69
341.158	97.69
341.386	91.69
341.614	94.69
341.842	79.69
342.07	95.69
342.298	95.69
342.526	85.69
342.754	80.69
342.981	89.69
343.209	104.69
343.437	94.69
343.665	91.69
343.893	90.69
344.12	87.69
344.348	90.69
344.576	94.69
344.804	94.69
345.031	100.69
345.259	104.69
345.487	83.69
345.714	90.69
345.942	91.69
346.17	73.69
346.397	91.69
346.625	92.69
346.853	107.69
347.08	82.69
347.308	94.69
347.535	94.69
347.763	80.69
347.99	100.69
348.218	89.69
348.445	85.69
348.673	92.69
348.9	103.69
349.128	89.69
349.355	95.69
349.583	82.69
349.81	87.69
350.037	98.69
350.265	90.69
350.492	83.69
350.72	97.69
350.947	112.69
351.174	109.69
351.402	103.69
351.629	101.69
351.856	99.69
352.083	98.69
352.311	83.69
352.538	103.69
352.765	103.69
352.992	104.69
353.22	98.69
353.447	114.69
353.674	106.69
353.901	90.69
354.128	87.69
354.355	88.69
354.583	95.69
354.81	105.69
355.037	112.69
355.264	96.69
355.491	100.69
355.718	89.69
355.945	94.69
356.172	87.69
356.399	94.69
356.626	93.69
356.853	97.69
357.08	87.69
357.307	94.69
357.534	88.69
357.761	94.69
357.988	92.69
358.215	97.69
358.441	93.69
358.668	87.69
358.895	97.69
359.122	86.69
359.349	98.69
359.576	101.69
359.802	90.69
360.029	91.69
360.256	109.69
360.483	80.69
360.709	92.69
360.936	105.69
361.163	104.69
361.39	87.69
361.616	97.69
361.843	85.69
362.07	86.69
362.296	82.69
362.523	88.69
362.749	80.69
362.976	90.69
363.203	72.69
363.429	83.69
363.656	89.69
363.882	101.69
364.109	85.69
364.335	97.69
364.562	90.69
364.788	83.69
365.015	82.69
365.241	85.69
365.468	99.69
365.694	109.69
365.92	96.69
366.147	87.69
366.373	97.69
366.599	96.69
366.826	82.69
367.052	84.69
367.278	78.69
367.505	90.69
367.731	83.69
367.957	83.69
368.184	98.69
368.41	80.69
368.636	109.69
368.862	112.69
369.089	92.69
369.315	82.69
369.541	105.69
369.767	87.69
369.993	99.69
370.219	82.69
370.445	82.69
370.672	90.69
370.898	79.69
371.124	82.69
371.35	85.69
371.576	86.69
371.802	79.69
372.028	82.69
372.254	76.69
372.48	91.69
372.706	91.69
372.932	86.69
373.158	99.69
373.384	88.69
373.61	94.69
373.835	96.69
374.061	93.69
374.287	80.69
374.513	88.69
374.739	77.69
374.965	81.69
375.191	94.69
375.416	80.69
375.642	88.69
375.868	89.69
376.094	87.69
376.319	82.69
376.545	83.69
376.771	77.69
376.997	80.69
377.222	95.69
377.448	89.69
377.674	80.69
377.899	74.69
378.125	94.69
378.35	71.69
378.576	96.69
378.802	83.69
379.027	89.69
379.253	97.69
379.478	98.69
379.704	86.69
379.929	86.69
380.155	75.69
380.38	89.69
380.606	76.69
380.831	95.69
381.057	105.69
381.282	91.69
381.507	99.69
381.733	88.69
381.958	84.69
382.184	87.69
382.409	103.69
382.634	106.69
382.86	99.69
383.085	110.69
383.31	85.69
383.535	110.69
383.761	96.69
383.986	96.69
384.211	109.69
384.436	106.69
384.662	102.69
384.887	95.69
385.112	114.69
385.337	89.69
385.562	108.69
385.787	114.69
386.013	103.69
386.238	108.69
386.463	125.69
386.688	102.69
386.913	105.69
387.138	98.69
387.363	94.69
387.588	100.69
387.813	104.69
388.038	103.69
388.263	126.69
388.488	103.69
388.713	88.69
388.938	99.69
389.163	104.69
389.387	101.69
389.612	78.69
389.837	92.69
390.062	108.69
390.287	98.69
390.512	89.69
390.736	102.69
390.961	93.69
391.186	92.69
391.411	94.69
391.636	98.69
391.86	83.69
392.085	101.69
392.31	82.69
392.534	81.69
392.759	77.69
392.984	87.69
393.208	94.69
393.433	120.69
393.658	99.69
393.882	84.69
394.107	93.69
394.331	86.69
394.556	90.69
394.78	87.69
395.005	79.69
395.229	85.69
395.454	81.69
395.678	96.69
395.903	72.69
396.127	98.69
396.352	89.69
396.576	91.69
396.801	94.69
397.025	97.69
397.249	96.69
397.474	90.69
397.698	90.69
397.922	90.69
398.147	87.69
398.371	85.69
398.595	86.69
398.82	83.69
399.044	82.69
399.268	83.69
399.492	84.69
399.717	83.69
399.941	105.69
400.165	86.69
400.389	90.69
400.613	95.69
400.837	103.69
401.062	81.69
401.286	78.69
401.51	90.69
401.734	78.69
401.958	89.69
402.182	113.69
402.406	130.69
402.63	106.69
402.854	90.69
403.078	87.69
403.302	80.69
403.526	84.69
403.75	75.69
403.974	86.69
404.198	98.69
404.422	87.69
404.645	95.69
404.869	83.69
405.093	96.69
405.317	92.69
405.541	96.69
405.765	98.69
405.988	113.69
406.212	170.69
406.436	190.69
406.66	116.69
406.883	97.69
407.107	96.69
407.331	83.69
407.555	81.69
407.778	92.69
408.002	88.69
408.226	83.69
408.449	88.69
408.673	87.69
408.896	77.69
409.12	85.69
409.344	79.69
409.567	96.69
409.791	93.69
410.014	89.69
410.238	105.69
410.461	90.69
410.685	96.69
410.908	94.69
411.132	92.69
411.355	93.69
411.578	76.69
411.802	84.69
412.025	85.69
412.249	86.69
412.472	91.69
412.695	104.69
412.919	86.69
413.142	90.69
413.365	79.69
413.589	84.69
413.812	68.69
414.035	95.69
414.258	92.69
414.482	92.69
414.705	94.69
414.928	81.69
415.151	86.69
415.374	80.69
415.597	88.69
415.821	83.69
416.044	81.69
416.267	78.69
416.49	90.69
416.713	105.69
416.936	83.69
417.159	89.69
417.382	78.69
417.605	92.69
417.828	94.69
418.051	80.69
418.274	88.69
418.497	80.69
418.72	74.69
418.943	80.69
419.166	77.69
419.389	86.69
419.611	92.69
419.834	89.69
420.057	76.69
420.28	92.69
420.503	85.69
420.726	81.69
420.948	95.69
421.171	88.69
421.394	81.69
421.617	93.69
421.839	88.69
422.062	90.69
422.285	98.69
422.507	103.69
422.73	114.69
422.953	82.69
423.175	83.69
423.398	92.69
423.621	100.69
423.843	81.69
424.066	100.69
424.288	80.69
424.511	100.69
424.733	105.69
424.956	90.69
425.178	100.69
425.401	90.69
425.623	99.69
425.846	92.69
426.068	93.69
426.291	82.69
426.513	88.69
426.735	93.69
426.958	84.69
427.18	100.69
427.402	122.69
427.625	163.69
427.847	110.69
428.069	106.69
428.292	83.69
428.514	90.69
428.736	75.69
428.958	86.69
429.181	88.69
429.403	76.69
429.625	87.69
429.847	91.69
430.069	91.69
430.292	90.69
430.514	86.69
430.736	87.69
430.958	78.69
431.18	83.69
431.402	83.69
431.624	72.69
431.846	89.69
432.068	86.69
432.29	87.69
432.512	85.69
432.734	78.69
432.956	102.69
433.178	98.69
433.4	95.69
433.622	97.69
433.844	92.69
434.066	85.69
434.287	94.69
434.509	79.69
434.731	86.69
434.953	99.69
435.175	92.69
435.397	94.69
435.618	90.69
435.84	100.69
436.062	121.69
436.284	109.69
436.505	90.69
436.727	106.69
436.949	95.69
437.17	88.69
437.392	88.69
437.614	97.69
437.835	96.69
438.057	106.69
438.278	97.69
438.5	113.69
438.721	118.69
438.943	107.69
439.165	88.69
439.386	81.69
439.608	91.69
439.829	85.69
440.05	110.69
440.272	117.69
440.493	86.69
440.715	91.69
440.936	68.69
441.158	88.69
441.379	97.69
441.6	90.69
441.822	96.69
442.043	94.69
442.264	85.69
442.486	94.69
442.707	94.69
442.928	105.69
443.149	115.69
443.371	124.69
443.592	111.69
443.813	104.69
444.034	88.69
444.255	87.69
444.476	91.69
444.698	66.69
444.919	99.69
445.14	115.69
445.361	122.69
445.582	113.69
445.803	124.69
446.024	121.69
446.245	113.69
446.466	104.69
446.687	99.69
446.908	86.69
447.129	92.69
447.35	95.69
447.571	95.69
447.792	96.69
448.013	89.69
448.234	100.69
448.455	75.69
448.675	104.69
448.896	111.69
449.117	109.69
449.338	102.69
449.559	112.69
449.779	119.69
450	96.69
450.221	70.69
450.442	87.69
450.662	98.69
450.883	105.69
451.104	101.69
451.324	86.69
451.545	94.69
451.766	83.69
451.986	91.69
452.207	99.69
452.428	88.69
452.648	89.69
452.869	96.69
453.089	102.69
453.31	101.69
453.53	81.69
453.751	81.69
453.971	87.69
454.192	101.69
454.412	92.69
454.633	76.69
454.853	90.69
455.073	86.69
455.294	78.69
455.514	93.69
455.734	97.69
455.955	74.69
456.175	97.69
456.395	83.69
456.616	74.69
456.836	74.69
457.056	101.69
457.276	77.69
457.497	82.69
457.717	58.69
457.937	80.69
458.157	75.69
458.377	86.69
458.598	93.69
458.818	130.69
459.038	145.69
459.258	87.69
459.478	86.69
459.698	88.69
459.918	94.69
460.138	90.69
460.358	87.69
460.578	79.69
460.798	91.69
461.018	91.69
461.238	102.69
461.458	76.69
461.678	94.69
461.898	85.69
462.118	87.69
462.338	79.69
462.558	82.69
462.777	77.69
462.997	76.69
463.217	76.69
463.437	87.69
463.657	88.69
463.876	93.69
464.096	90.69
464.316	85.69
464.536	93.69
464.755	88.69
464.975	97.69
465.195	139.69
465.414	152.69
465.634	84.69
465.854	75.69
466.073	89.69
466.293	92.69
466.512	78.69
466.732	84.69
466.951	85.69
467.171	79.69
467.391	67.69
467.61	99.69
467.829	83.69
468.049	76.69
468.268	85.69
468.488	79.69
468.707	81.69
468.927	83.69
469.146	77.69
469.365	100.69
469.585	100.69
469.804	97.69
470.023	100.69
470.243	99.69
470.462	108.69
470.681	115.69
470.901	87.69
471.12	95.69
471.339	87.69
471.558	83.69
471.777	86.69
471.997	80.69
472.216	91.69
472.435	95.69
472.654	100.69
472.873	96.69
473.092	98.69
473.311	74.69
473.53	87.69
473.749	74.69
473.968	86.69
474.187	99.69
474.406	88.69
474.625	77.69
474.844	94.69
475.063	80.69
475.282	82.69
475.501	110.69
475.72	102.69
475.939	94.69
476.158	84.69
476.377	88.69
476.596	83.69
476.814	103.69
477.033	89.69
477.252	77.69
477.471	84.69
477.69	80.69
477.908	83.69
478.127	76.69
478.346	88.69
478.564	94.69
478.783	85.69
479.002	91.69
479.22	92.69
479.439	107.69
479.658	104.69
479.876	89.69
480.095	89.69
480.313	78.69
480.532	93.69
480.751	85.69
480.969	97.69
481.188	98.69
481.406	95.69
481.624	97.69
481.843	89.69
482.061	80.69
482.28	81.69
482.498	90.69
482.717	80.69
482.935	80.69
483.153	74.69
483.372	94.69
483.59	88.69
483.808	88.69
484.027	102.69
484.245	87.69
484.463	95.69
484.681	89.69
484.9	88.69
485.118	95.69
485.336	92.69
485.554	102.69
485.772	98.69
485.99	94.69
486.209	95.69
486.427	95.69
486.645	99.69
486.863	101.69
487.081	101.69
487.299	85.69
487.517	99.69
487.735	97.69
487.953	98.69
488.171	86.69
488.389	91.69
488.607	87.69
488.825	89.69
489.043	93.69
489.261	99.69
489.479	80.69
489.696	91.69
489.914	90.69
490.132	88.69
490.35	84.69
490.568	74.69
490.786	94.69
491.003	91.69
491.221	94.69
491.439	84.69
491.657	99.69
491.874	84.69
492.092	104.69
492.31	99.69
492.527	94.69
492.745	91.69
492.963	83.69
493.18	76.69
493.398	94.69
493.615	100.69
493.833	90.69
494.05	89.69
494.268	96.69
494.485	84.69
494.703	91.69
494.92	92.69
495.138	96.69
495.355	73.69
495.573	90.69
495.79	96.69
496.008	95.69
496.225	86.69
496.442	77.69
496.66	79.69
496.877	86.69
497.094	79.69
497.312	82.69
497.529	98.69
497.746	97.69
497.963	74.69
498.181	87.69
498.398	90.69
498.615	111.69
498.832	88.69
499.049	103.69
499.267	96.69
499.484	96.69
499.701	87.69
499.918	86.69
500.135	87.69
500.352	104.69
500.569	82.69
500.786	95.69
501.003	94.69
501.22	95.69
501.437	87.69
501.654	102.69
501.871	95.69
502.088	90.69
502.305	82.69
502.522	88.69
502.739	93.69
502.956	87.69
503.172	90.69
503.389	87.69
503.606	97.69
503.823	95.69
504.04	94.69
504.256	95.69
504.473	78.69
504.69	93.69
504.907	89.69
505.123	88.69
505.34	92.69
505.557	86.69
505.773	90.69
505.99	78.69
506.207	70.69
506.423	92.69
506.64	87.69
506.856	88.69
507.073	87.69
507.289	85.69
507.506	91.69
507.722	97.69
507.939	110.69
508.155	93.69
508.372	86.69
508.588	83.69
508.805	91.69
509.021	97.69
509.238	102.69
509.454	105.69
509.67	108.69
509.887	99.69
510.103	131.69
510.319	197.69
510.536	649.69
510.752	1976.69
510.968	538.69
511.184	140.69
511.401	111.69
511.617	101.69
511.833	85.69
512.049	96.69
512.265	95.69
512.481	85.69
512.698	75.69
512.914	87.69
513.13	84.69
513.346	83.69
513.562	79.69
513.778	105.69
513.994	100.69
514.21	112.69
514.426	111.69
514.642	112.69
514.858	121.69
515.074	152.69
515.29	363.69
515.506	1195.69
515.721	445.69
515.937	137.69
516.153	97.69
516.369	91.69
516.585	87.69
516.801	97.69
517.016	99.69
517.232	98.69
517.448	102.69
517.664	97.69
517.879	95.69
518.095	78.69
518.311	88.69
518.527	97.69
518.742	86.69
518.958	86.69
519.173	81.69
519.389	103.69
519.605	91.69
519.82	86.69
520.036	97.69
520.251	112.69
520.467	106.69
520.682	97.69
520.898	106.69
521.113	111.69
521.329	117.69
521.544	194.69
521.76	480.69
521.975	1958.69
522.19	1159.69
522.406	256.69
522.621	108.69
522.836	110.69
523.052	74.69
523.267	94.69
523.482	106.69
523.698	86.69
523.913	101.69
524.128	85.69
524.343	87.69
524.559	94.69
524.774	86.69
524.989	82.69
525.204	109.69
525.419	93.69
525.634	101.69
525.849	82.69
526.064	94.69
526.28	92.69
526.495	82.69
526.71	73.69
526.925	76.69
527.14	89.69
527.355	100.69
527.57	93.69
527.785	103.69
527.999	94.69
528.214	82.69
528.429	92.69
528.644	97.69
528.859	93.69
529.074	80.69
529.289	107.69
529.503	159.69
529.718	99.69
529.933	85.69
530.148	83.69
530.363	97.69
530.577	91.69
530.792	77.69
531.007	92.69
531.221	90.69
531.436	89.69
531.651	86.69
531.865	84.69
532.08	78.69
532.295	82.69
532.509	79.69
532.724	102.69
532.938	107.69
533.153	95.69
533.367	81.69
533.582	74.69
533.796	81.69
534.011	94.69
534.225	96.69
534.44	89.69
534.654	99.69
534.868	95.69
535.083	88.69
535.297	78.69
535.511	89.69
535.726	85.69
535.94	105.69
536.154	98.69
536.369	89.69
536.583	92.69
536.797	105.69
537.011	95.69
537.225	93.69
537.44	85.69
537.654	94.69
537.868	78.69
538.082	93.69
538.296	103.69
538.51	91.69
538.724	89.69
538.938	81.69
539.153	98.69
539.367	105.69
539.581	101.69
539.795	89.69
540.009	95.69
540.222	91.69
540.436	102.69
540.65	109.69
540.864	89.69
541.078	74.69
541.292	92.69
541.506	102.69
541.72	86.69
541.934	86.69
542.147	90.69
542.361	81.69
542.575	82.69
542.789	82.69
543.002	80.69
543.216	102.69
543.43	85.69
543.644	97.69
543.857	90.69
544.071	78.69
544.285	96.69
544.498	91.69
544.712	91.69
544.925	89.69
545.139	65.69
545.352	94.69
545.566	71.69
545.779	70.69
545.993	88.69
546.206	76.69
546.42	85.69
546.633	75.69
546.847	87.69
547.06	89.69
547.274	92.69
547.487	86.69
547.7	78.69
547.914	84.69
548.127	87.69
548.34	81.69
548.554	81.69
548.767	100.69
548.98	95.69
549.193	86.69
549.407	81.69
549.62	87.69
549.833	83.69
550.046	93.69
550.259	93.69
550.473	87.69
550.686	88.69
550.899	69.69
551.112	74.69
551.325	100.69
551.538	88.69
551.751	87.69
551.964	89.69
552.177	86.69
552.39	79.69
552.603	85.69
552.816	84.69
553.029	90.69
553.242	73.69
553.455	105.69
553.667	103.69
553.88	99.69
554.093	80.69
554.306	89.69
554.519	88.69
554.732	94.69
554.944	103.69
555.157	83.69
555.37	88.69
555.583	78.69
555.795	94.69
556.008	87.69
556.221	77.69
556.433	87.69
556.646	88.69
556.859	88.69
557.071	100.69
557.284	93.69
557.496	91.69
557.709	96.69
557.921	86.69
558.134	83.69
558.346	96.69
558.559	82.69
558.771	87.69
558.984	99.69
559.196	88.69
559.409	82.69
559.621	83.69
559.833	83.69
560.046	82.69
560.258	89.69
560.47	83.69
560.683	82.69
560.895	82.69
561.107	101.69
561.32	90.69
561.532	93.69
561.744	78.69
561.956	87.69
562.168	95.69
562.381	105.69
562.593	89.69
562.805	100.69
563.017	102.69
563.229	86.69
563.441	85.69
563.653	93.69
563.865	87.69
564.077	98.69
564.289	96.69
564.501	83.69
564.713	81.69
564.925	106.69
565.137	105.69
565.349	88.69
565.561	85.69
565.773	97.69
565.985	92.69
566.197	85.69
566.408	80.69
566.62	90.69
566.832	81.69
567.044	77.69
567.255	82.69
567.467	78.69
567.679	87.69
567.891	83.69
568.102	89.69
568.314	92.69
568.526	75.69
568.737	92.69
568.949	82.69
569.161	95.69
569.372	81.69
569.584	85.69
569.795	88.69
570.007	111.69
570.218	229.69
570.43	126.69
570.641	103.69
570.853	86.69
571.064	81.69
571.276	86.69
571.487	77.69
571.698	88.69
571.91	91.69
572.121	81.69
572.333	78.69
572.544	92.69
572.755	93.69
572.966	84.69
573.178	86.69
573.389	86.69
573.6	90.69
573.811	87.69
574.023	91.69
574.234	91.69
574.445	97.69
574.656	65.69
574.867	90.69
575.078	87.69
575.289	92.69
575.501	88.69
575.712	82.69
575.923	79.69
576.134	102.69
576.345	87.69
576.556	88.69
576.767	90.69
576.978	95.69
577.188	95.69
577.399	82.69
577.61	90.69
577.821	106.69
578.032	116.69
578.243	267.69
578.454	688.69
578.665	220.69
578.875	100.69
579.086	83.69
579.297	89.69
579.508	92.69
579.718	89.69
579.929	80.69
580.14	84.69
580.35	82.69
580.561	80.69
580.772	76.69
580.982	79.69
581.193	97.69
581.403	87.69
581.614	103.69
581.825	100.69
582.035	94.69
582.246	92.69
582.456	90.69
582.667	88.69
582.877	86.69
583.087	76.69
583.298	92.69
583.508	97.69
583.719	79.69
583.929	93.69
584.139	84.69
584.35	66.69
584.56	86.69
584.77	99.69
584.981	84.69
585.191	80.69
585.401	93.69
585.611	75.69
585.821	82.69
586.032	88.69
586.242	89.69
586.452	97.69
586.662	95.69
586.872	74.69
587.082	78.69
587.292	91.69
587.502	82.69
587.713	84.69
587.923	95.69
588.133	94.69
588.343	72.69
588.553	80.69
588.762	93.69
588.972	82.69
589.182	102.69
589.392	104.69
589.602	84.69
589.812	95.69
590.022	94.69
590.232	77.69
590.441	89.69
590.651	99.69
590.861	96.69
591.071	76.69
591.281	82.69
591.49	79.69
591.7	74.69
591.91	78.69
592.119	91.69
592.329	90.69
592.539	92.69
592.748	92.69
592.958	91.69
593.167	91.69
593.377	75.69
593.587	82.69
593.796	89.69
594.006	74.69
594.215	86.69
594.424	82.69
594.634	83.69
594.843	78.69
595.053	93.69
595.262	84.69
595.472	99.69
595.681	90.69
595.89	91.69
596.1	82.69
596.309	70.69
596.518	90.69
596.727	80.69
596.937	76.69
597.146	85.69
597.355	88.69
597.564	94.69
597.774	89.69
597.983	91.69
598.192	92.69
598.401	84.69
598.61	83.69
598.819	72.69
599.028	91.69
599.237	92.69
599.446	73.69
599.655	79.69
599.864	94.69
600.073	94.69
600.282	83.69
600.491	80.69
600.7	91.69
600.909	84.69
601.118	96.69
601.327	96.69
601.536	71.69
601.745	96.69
601.953	85.69
602.162	88.69
602.371	78.69
602.58	87.69
602.789	91.69
602.997	88.69
603.206	89.69
603.415	78.69
603.623	81.69
603.832	72.69
604.041	92.69
604.249	74.69
604.458	74.69
604.666	96.69
604.875	82.69
605.084	82.69
605.292	92.69
605.501	82.69
605.709	79.69
605.918	90.69
606.126	86.69
606.334	100.69
606.543	82.69
606.751	87.69
606.96	73.69
607.168	86.69
607.376	84.69
607.585	77.69
607.793	70.69
608.001	77.69
608.21	91.69
608.418	83.69
608.626	93.69
608.834	83.69
609.043	93.69
609.251	78.69
609.459	78.69
609.667	74.69
609.875	83.69
610.083	88.69
610.291	89.69
610.499	71.69
610.707	80.69
610.916	72.69
611.124	92.69
611.332	91.69
611.54	81.69
611.748	83.69
611.955	82.69
612.163	79.69
612.371	95.69
612.579	86.69
612.787	80.69
612.995	81.69
613.203	90.69
613.411	97.69
613.618	89.69
613.826	76.69
614.034	86.69
614.242	97.69
614.449	92.69
614.657	86.69
614.865	91.69
615.072	91.69
615.28	80.69
615.488	89.69
615.695	105.69
615.903	97.69
616.111	83.69
616.318	98.69
616.526	88.69
616.733	96.69
616.941	74.69
617.148	85.69
617.356	73.69
617.563	77.69
617.771	79.69
617.978	76.69
618.185	86.69
618.393	100.69
618.6	87.69
618.807	71.69
619.015	86.69
619.222	77.69
619.429	87.69
619.637	68.69
619.844	88.69
620.051	80.69
620.258	77.69
620.466	89.69
620.673	87.69
620.88	72.69
621.087	82.69
621.294	76.69
621.501	76.69
621.708	83.69
621.915	92.69
622.122	86.69
622.329	93.69
622.536	97.69
622.743	78.69
622.95	75.69
623.157	80.69
623.364	86.69
623.571	75.69
623.778	85.69
623.985	97.69
624.192	88.69
624.399	84.69
624.606	88.69
624.812	81.69
625.019	86.69
625.226	81.69
625.433	88.69
625.639	75.69
625.846	93.69
626.053	81.69
626.259	79.69
626.466	88.69
626.673	90.69
626.879	84.69
627.086	76.69
627.293	83.69
627.499	76.69
627.706	82.69
627.912	94.69
628.119	81.69
628.325	72.69
628.532	82.69
628.738	70.69
628.945	83.69
629.151	81.69
629.357	81.69
629.564	80.69
629.77	74.69
629.976	76.69
630.183	90.69
630.389	103.69
630.595	75.69
630.802	67.69
631.008	75.69
631.214	73.69
631.42	88.69
631.627	75.69
631.833	86.69
632.039	88.69
632.245	85.69
632.451	88.69
632.657	86.69
632.863	79.69
633.069	82.69
633.275	71.69
633.481	91.69
633.688	93.69
633.893	72.69
634.099	65.69
634.305	90.69
634.511	82.69
634.717	78.69
634.923	79.69
635.129	83.69
635.335	78.69
635.541	95.69
635.747	76.69
635.952	73.69
636.158	79.69
636.364	76.69
636.57	89.69
636.775	86.69
636.981	68.69
637.187	87.69
637.392	86.69
637.598	101.69
637.804	86.69
638.009	81.69
638.215	76.69
638.421	86.69
638.626	91.69
638.832	86.69
639.037	96.69
639.243	84.69
639.448	89.69
639.654	90.69
639.859	86.69
640.065	84.69
640.27	87.69
640.475	80.69
640.681	84.69
640.886	81.69
641.091	84.69
641.297	82.69
641.502	79.69
641.707	85.69
641.913	66.69
642.118	86.69
642.323	91.69
642.528	84.69
642.733	70.69
642.939	86.69
643.144	83.69
643.349	91.69
643.554	66.69
643.759	83.69
643.964	87.69
644.169	75.69
644.374	88.69
644.579	79.69
644.784	88.69
644.989	99.69
645.194	81.69
645.399	81.69
645.604	90.69
645.809	77.69
646.014	88.69
646.219	81.69
646.423	76.69
646.628	79.69
646.833	80.69
647.038	89.69
647.243	89.69
647.447	75.69
647.652	88.69
647.857	86.69
648.062	92.69
648.266	92.69
648.471	88.69
648.676	99.69
648.88	91.69
649.085	107.69
649.289	82.69
649.494	87.69
649.698	124.69
649.903	96.69
650.107	92.69
650.312	94.69
650.516	93.69
650.721	100.69
650.925	91.69
651.13	74.69
651.334	87.69
651.539	78.69
651.743	84.69
651.947	83.69
652.152	81.69
652.356	90.69
652.56	70.69
652.764	83.69
652.969	90.69
653.173	68.69
653.377	88.69
653.581	76.69
653.785	89.69
653.99	83.69
654.194	83.69
654.398	99.69
654.602	86.69
654.806	79.69
655.01	99.69
655.214	83.69
655.418	81.69
655.622	85.69
655.826	81.69
656.03	93.69
656.234	90.69
656.438	90.69
656.642	91.69
656.846	74.69
657.049	73.69
657.253	86.69
657.457	74.69
657.661	70.69
657.865	67.69
658.068	83.69
658.272	86.69
658.476	78.69
658.68	80.69
658.883	78.69
659.087	78.69
659.291	95.69
659.494	72.69
659.698	79.69
659.901	70.69
660.105	86.69
660.309	89.69
660.512	83.69
660.716	70.69
660.919	84.69
661.123	79.69
661.326	79.69
661.53	88.69
661.733	74.69
661.936	89.69
662.14	81.69
662.343	61.69
662.546	77.69
662.75	91.69
662.953	85.69
663.156	79.69
663.36	83.69
663.563	96.69
663.766	87.69
663.969	85.69
664.173	93.69
664.376	79.69
664.579	56.69
664.782	84.69
664.985	91.69
665.188	84.69
665.391	86.69
665.594	78.69
665.797	78.69
666	79.69
666.203	72.69
666.406	83.69
666.609	87.69
666.812	77.69
667.015	76.69
667.218	88.69
667.421	60.69
667.624	79.69
667.827	81.69
668.03	68.69
668.232	82.69
668.435	90.69
668.638	77.69
668.841	76.69
669.043	87.69
669.246	74.69
669.449	89.69
669.651	93.69
669.854	72.69
670.057	88.69
670.259	83.69
670.462	82.69
670.665	70.69
670.867	67.69
671.07	70.69
671.272	82.69
671.475	95.69
671.677	77.69
671.88	74.69
672.082	95.69
672.284	65.69
672.487	80.69
672.689	71.69
672.892	83.69
