Data from Circ_2000_H10_HRD10591_00097.txt Node
Date: Wed Jan 03 10:49:53 EST 2024
User: Yrep
Spectrometer: HR+D1059
Trigger mode: 1
Integration Time (sec): 1.000000E-1
Scans to average: 1
Electric dark correction enabled: true
Nonlinearity correction enabled: false
Boxcar width: 0
XAxis mode: Wavelengths
Number of Pixels in Spectrum: 2048
>>>>>Begin Spectral Data<<<<<
223.165	-16.38
223.4	-16.38
223.635	-16.38
223.869	-26.38
224.104	-12.38
224.338	-16.38
224.573	-1.38
224.808	-10.38
225.042	-23.38
225.277	-11.38
225.511	-6.38
225.746	4.62
225.98	10.62
226.215	2.62
226.449	22.62
226.683	22.62
226.918	30.62
227.152	30.62
227.387	35.62
227.621	30.62
227.856	35.62
228.09	49.62
228.324	49.62
228.559	52.62
228.793	51.62
229.027	69.62
229.262	86.62
229.496	78.62
229.73	109.62
229.964	94.62
230.199	73.62
230.433	77.62
230.667	102.62
230.901	87.62
231.136	95.62
231.37	75.62
231.604	86.62
231.838	86.62
232.072	75.62
232.306	79.62
232.541	83.62
232.775	83.62
233.009	74.62
233.243	79.62
233.477	79.62
233.711	74.62
233.945	85.62
234.179	88.62
234.413	88.62
234.647	84.62
234.881	92.62
235.115	89.62
235.349	86.62
235.583	89.62
235.817	74.62
236.051	75.62
236.285	80.62
236.519	60.62
236.753	69.62
236.987	91.62
237.221	97.62
237.455	110.62
237.689	82.62
237.922	82.62
238.156	82.62
238.39	70.62
238.624	79.62
238.858	78.62
239.091	60.62
239.325	78.62
239.559	89.62
239.793	85.62
240.027	87.62
240.26	90.62
240.494	99.62
240.728	91.62
240.961	91.62
241.195	81.62
241.429	65.62
241.662	70.62
241.896	89.62
242.13	75.62
242.363	76.62
242.597	68.62
242.83	89.62
243.064	91.62
243.298	72.62
243.531	84.62
243.765	74.62
243.998	71.62
244.232	94.62
244.465	87.62
244.699	90.62
244.932	79.62
245.166	74.62
245.399	87.62
245.633	87.62
245.866	99.62
246.099	63.62
246.333	85.62
246.566	69.62
246.8	71.62
247.033	84.62
247.266	75.62
247.5	77.62
247.733	82.62
247.966	71.62
248.2	99.62
248.433	83.62
248.666	77.62
248.899	86.62
249.133	83.62
249.366	110.62
249.599	102.62
249.832	90.62
250.066	77.62
250.299	95.62
250.532	82.62
250.765	80.62
250.998	86.62
251.231	99.62
251.465	67.62
251.698	89.62
251.931	89.62
252.164	92.62
252.397	93.62
252.63	86.62
252.863	90.62
253.096	88.62
253.329	83.62
253.562	87.62
253.795	85.62
254.028	88.62
254.261	89.62
254.494	79.62
254.727	101.62
254.96	79.62
255.193	75.62
255.426	77.62
255.659	92.62
255.892	94.62
256.124	94.62
256.357	84.62
256.59	63.62
256.823	91.62
257.056	98.62
257.289	86.62
257.521	78.62
257.754	77.62
257.987	82.62
258.22	101.62
258.452	101.62
258.685	81.62
258.918	82.62
259.151	79.62
259.383	84.62
259.616	84.62
259.849	78.62
260.081	74.62
260.314	88.62
260.547	89.62
260.779	91.62
261.012	101.62
261.244	120.62
261.477	97.62
261.71	98.62
261.942	135.62
262.175	154.62
262.407	102.62
262.64	98.62
262.872	89.62
263.105	93.62
263.337	102.62
263.57	86.62
263.802	76.62
264.035	86.62
264.267	88.62
264.499	95.62
264.732	82.62
264.964	85.62
265.197	87.62
265.429	83.62
265.661	100.62
265.894	76.62
266.126	84.62
266.358	86.62
266.591	82.62
266.823	85.62
267.055	77.62
267.287	90.62
267.52	78.62
267.752	89.62
267.984	81.62
268.216	84.62
268.448	85.62
268.681	95.62
268.913	87.62
269.145	79.62
269.377	85.62
269.609	85.62
269.841	88.62
270.073	88.62
270.306	94.62
270.538	84.62
270.77	84.62
271.002	94.62
271.234	84.62
271.466	78.62
271.698	94.62
271.93	93.62
272.162	91.62
272.394	92.62
272.626	93.62
272.858	88.62
273.09	87.62
273.322	91.62
273.553	78.62
273.785	84.62
274.017	89.62
274.249	97.62
274.481	88.62
274.713	84.62
274.945	78.62
275.176	96.62
275.408	107.62
275.64	119.62
275.872	124.62
276.104	105.62
276.335	105.62
276.567	118.62
276.799	155.62
277.031	157.62
277.262	172.62
277.494	141.62
277.726	110.62
277.957	91.62
278.189	94.62
278.421	95.62
278.652	85.62
278.884	83.62
279.115	90.62
279.347	92.62
279.579	101.62
279.81	110.62
280.042	175.62
280.273	223.62
280.505	169.62
280.736	109.62
280.968	95.62
281.199	107.62
281.431	95.62
281.662	104.62
281.894	86.62
282.125	103.62
282.356	132.62
282.588	168.62
282.819	146.62
283.051	99.62
283.282	77.62
283.513	86.62
283.745	97.62
283.976	83.62
284.207	83.62
284.439	92.62
284.67	98.62
284.901	84.62
285.132	86.62
285.364	97.62
285.595	94.62
285.826	78.62
286.057	82.62
286.288	76.62
286.52	89.62
286.751	92.62
286.982	79.62
287.213	86.62
287.444	95.62
287.675	90.62
287.906	93.62
288.138	85.62
288.369	101.62
288.6	98.62
288.831	86.62
289.062	93.62
289.293	98.62
289.524	115.62
289.755	90.62
289.986	75.62
290.217	95.62
290.448	88.62
290.679	94.62
290.91	90.62
291.141	92.62
291.371	89.62
291.602	95.62
291.833	78.62
292.064	83.62
292.295	85.62
292.526	90.62
292.757	84.62
292.987	82.62
293.218	89.62
293.449	103.62
293.68	95.62
293.91	92.62
294.141	100.62
294.372	100.62
294.603	90.62
294.833	88.62
295.064	87.62
295.295	94.62
295.525	95.62
295.756	107.62
295.987	131.62
296.217	166.62
296.448	157.62
296.679	109.62
296.909	92.62
297.14	107.62
297.37	93.62
297.601	93.62
297.831	81.62
298.062	84.62
298.292	95.62
298.523	99.62
298.753	91.62
298.984	95.62
299.214	98.62
299.445	109.62
299.675	101.62
299.905	110.62
300.136	90.62
300.366	106.62
300.597	110.62
300.827	94.62
301.057	97.62
301.288	121.62
301.518	90.62
301.748	106.62
301.979	118.62
302.209	100.62
302.439	94.62
302.669	97.62
302.9	108.62
303.13	85.62
303.36	95.62
303.59	138.62
303.82	144.62
304.051	115.62
304.281	92.62
304.511	105.62
304.741	99.62
304.971	95.62
305.201	96.62
305.431	96.62
305.661	115.62
305.891	84.62
306.121	112.62
306.352	108.62
306.582	120.62
306.812	108.62
307.042	138.62
307.272	150.62
307.502	165.62
307.731	155.62
307.961	115.62
308.191	98.62
308.421	102.62
308.651	99.62
308.881	99.62
309.111	114.62
309.341	103.62
309.571	96.62
309.8	111.62
310.03	102.62
310.26	99.62
310.49	105.62
310.72	113.62
310.949	118.62
311.179	113.62
311.409	99.62
311.639	109.62
311.868	104.62
312.098	104.62
312.328	111.62
312.557	118.62
312.787	142.62
313.017	134.62
313.246	96.62
313.476	112.62
313.706	106.62
313.935	101.62
314.165	109.62
314.394	118.62
314.624	115.62
314.853	115.62
315.083	101.62
315.312	109.62
315.542	89.62
315.771	99.62
316.001	91.62
316.23	93.62
316.46	88.62
316.689	81.62
316.919	95.62
317.148	107.62
317.377	105.62
317.607	98.62
317.836	99.62
318.065	92.62
318.295	102.62
318.524	90.62
318.753	89.62
318.983	108.62
319.212	115.62
319.441	121.62
319.67	129.62
319.9	95.62
320.129	90.62
320.358	109.62
320.587	94.62
320.816	100.62
321.046	124.62
321.275	111.62
321.504	103.62
321.733	121.62
321.962	113.62
322.191	114.62
322.42	113.62
322.649	126.62
322.878	125.62
323.108	143.62
323.337	163.62
323.566	163.62
323.795	212.62
324.024	246.62
324.253	532.62
324.482	1155.62
324.71	2407.62
324.939	3139.62
325.168	1137.62
325.397	327.62
325.626	181.62
325.855	176.62
326.084	153.62
326.313	165.62
326.542	188.62
326.77	279.62
326.999	586.62
327.228	1244.62
327.457	2311.62
327.686	1858.62
327.914	577.62
328.143	510.62
328.372	589.62
328.6	348.62
328.829	193.62
329.058	185.62
329.287	206.62
329.515	175.62
329.744	251.62
329.972	434.62
330.201	883.62
330.43	1242.62
330.658	582.62
330.887	280.62
331.115	208.62
331.344	131.62
331.572	134.62
331.801	114.62
332.03	133.62
332.258	129.62
332.486	126.62
332.715	95.62
332.943	118.62
333.172	127.62
333.4	119.62
333.629	158.62
333.857	219.62
334.085	408.62
334.314	841.62
334.542	1558.62
334.771	1413.62
334.999	377.62
335.227	165.62
335.455	135.62
335.684	116.62
335.912	113.62
336.14	108.62
336.369	122.62
336.597	123.62
336.825	104.62
337.053	98.62
337.281	95.62
337.51	111.62
337.738	99.62
337.966	99.62
338.194	114.62
338.422	105.62
338.65	113.62
338.878	115.62
339.106	109.62
339.334	103.62
339.562	106.62
339.79	93.62
340.018	101.62
340.246	103.62
340.474	108.62
340.702	98.62
340.93	109.62
341.158	101.62
341.386	108.62
341.614	112.62
341.842	102.62
342.07	96.62
342.298	99.62
342.526	92.62
342.754	95.62
342.981	103.62
343.209	102.62
343.437	108.62
343.665	106.62
343.893	76.62
344.12	76.62
344.348	83.62
344.576	95.62
344.804	94.62
345.031	96.62
345.259	110.62
345.487	113.62
345.714	100.62
345.942	107.62
346.17	94.62
346.397	102.62
346.625	96.62
346.853	109.62
347.08	93.62
347.308	106.62
347.535	99.62
347.763	106.62
347.99	103.62
348.218	111.62
348.445	114.62
348.673	114.62
348.9	100.62
349.128	82.62
349.355	90.62
349.583	110.62
349.81	96.62
350.037	107.62
350.265	93.62
350.492	101.62
350.72	94.62
350.947	112.62
351.174	120.62
351.402	135.62
351.629	129.62
351.856	110.62
352.083	107.62
352.311	107.62
352.538	121.62
352.765	121.62
352.992	124.62
353.22	113.62
353.447	106.62
353.674	102.62
353.901	94.62
354.128	100.62
354.355	98.62
354.583	105.62
354.81	93.62
355.037	95.62
355.264	85.62
355.491	82.62
355.718	97.62
355.945	97.62
356.172	86.62
356.399	105.62
356.626	79.62
356.853	105.62
357.08	98.62
357.307	104.62
357.534	78.62
357.761	98.62
357.988	92.62
358.215	86.62
358.441	97.62
358.668	103.62
358.895	95.62
359.122	85.62
359.349	91.62
359.576	109.62
359.802	122.62
360.029	143.62
360.256	134.62
360.483	122.62
360.709	97.62
360.936	104.62
361.163	97.62
361.39	96.62
361.616	101.62
361.843	104.62
362.07	109.62
362.296	102.62
362.523	109.62
362.749	98.62
362.976	102.62
363.203	102.62
363.429	86.62
363.656	98.62
363.882	99.62
364.109	97.62
364.335	102.62
364.562	110.62
364.788	96.62
365.015	106.62
365.241	100.62
365.468	124.62
365.694	110.62
365.92	115.62
366.147	99.62
366.373	86.62
366.599	93.62
366.826	101.62
367.052	90.62
367.278	95.62
367.505	89.62
367.731	94.62
367.957	101.62
368.184	102.62
368.41	124.62
368.636	144.62
368.862	147.62
369.089	132.62
369.315	98.62
369.541	112.62
369.767	92.62
369.993	107.62
370.219	98.62
370.445	89.62
370.672	109.62
370.898	91.62
371.124	101.62
371.35	82.62
371.576	91.62
371.802	80.62
372.028	71.62
372.254	95.62
372.48	90.62
372.706	98.62
372.932	90.62
373.158	85.62
373.384	85.62
373.61	75.62
373.835	88.62
374.061	89.62
374.287	100.62
374.513	95.62
374.739	84.62
374.965	82.62
375.191	101.62
375.416	75.62
375.642	92.62
375.868	103.62
376.094	89.62
376.319	82.62
376.545	110.62
376.771	78.62
376.997	90.62
377.222	98.62
377.448	98.62
377.674	95.62
377.899	86.62
378.125	92.62
378.35	90.62
378.576	102.62
378.802	93.62
379.027	100.62
379.253	99.62
379.478	106.62
379.704	89.62
379.929	87.62
380.155	97.62
380.38	103.62
380.606	97.62
380.831	85.62
381.057	102.62
381.282	99.62
381.507	97.62
381.733	104.62
381.958	105.62
382.184	101.62
382.409	99.62
382.634	98.62
382.86	94.62
383.085	106.62
383.31	105.62
383.535	89.62
383.761	87.62
383.986	106.62
384.211	92.62
384.436	109.62
384.662	93.62
384.887	92.62
385.112	104.62
385.337	107.62
385.562	101.62
385.787	113.62
386.013	110.62
386.238	122.62
386.463	115.62
386.688	107.62
386.913	100.62
387.138	93.62
387.363	94.62
387.588	101.62
387.813	98.62
388.038	105.62
388.263	109.62
388.488	92.62
388.713	83.62
388.938	95.62
389.163	106.62
389.387	97.62
389.612	90.62
389.837	92.62
390.062	93.62
390.287	95.62
390.512	97.62
390.736	95.62
390.961	85.62
391.186	89.62
391.411	104.62
391.636	92.62
391.86	84.62
392.085	78.62
392.31	82.62
392.534	91.62
392.759	101.62
392.984	92.62
393.208	93.62
393.433	92.62
393.658	108.62
393.882	73.62
394.107	86.62
394.331	98.62
394.556	81.62
394.78	81.62
395.005	96.62
395.229	85.62
395.454	76.62
395.678	98.62
395.903	88.62
396.127	89.62
396.352	102.62
396.576	83.62
396.801	83.62
397.025	88.62
397.249	79.62
397.474	77.62
397.698	89.62
397.922	86.62
398.147	97.62
398.371	95.62
398.595	88.62
398.82	67.62
399.044	89.62
399.268	88.62
399.492	96.62
399.717	101.62
399.941	95.62
400.165	83.62
400.389	90.62
400.613	89.62
400.837	94.62
401.062	97.62
401.286	96.62
401.51	99.62
401.734	97.62
401.958	123.62
402.182	160.62
402.406	204.62
402.63	151.62
402.854	110.62
403.078	89.62
403.302	72.62
403.526	103.62
403.75	96.62
403.974	87.62
404.198	85.62
404.422	95.62
404.645	81.62
404.869	120.62
405.093	127.62
405.317	161.62
405.541	152.62
405.765	125.62
405.988	145.62
406.212	228.62
406.436	328.62
406.66	216.62
406.883	135.62
407.107	111.62
407.331	119.62
407.555	124.62
407.778	116.62
408.002	118.62
408.226	100.62
408.449	105.62
408.673	97.62
408.896	89.62
409.12	126.62
409.344	89.62
409.567	106.62
409.791	83.62
410.014	91.62
410.238	89.62
410.461	106.62
410.685	95.62
410.908	105.62
411.132	102.62
411.355	117.62
411.578	100.62
411.802	87.62
412.025	93.62
412.249	100.62
412.472	104.62
412.695	147.62
412.919	115.62
413.142	94.62
413.365	85.62
413.589	102.62
413.812	94.62
414.035	89.62
414.258	91.62
414.482	93.62
414.705	88.62
414.928	90.62
415.151	94.62
415.374	87.62
415.597	91.62
415.821	81.62
416.044	85.62
416.267	105.62
416.49	99.62
416.713	88.62
416.936	95.62
417.159	104.62
417.382	98.62
417.605	108.62
417.828	107.62
418.051	102.62
418.274	86.62
418.497	77.62
418.72	88.62
418.943	90.62
419.166	90.62
419.389	95.62
419.611	109.62
419.834	96.62
420.057	87.62
420.28	97.62
420.503	99.62
420.726	88.62
420.948	111.62
421.171	111.62
421.394	114.62
421.617	102.62
421.839	92.62
422.062	74.62
422.285	99.62
422.507	102.62
422.73	118.62
422.953	85.62
423.175	106.62
423.398	100.62
423.621	88.62
423.843	76.62
424.066	89.62
424.288	97.62
424.511	93.62
424.733	110.62
424.956	134.62
425.178	105.62
425.401	121.62
425.623	93.62
425.846	94.62
426.068	74.62
426.291	92.62
426.513	111.62
426.735	102.62
426.958	103.62
427.18	131.62
427.402	188.62
427.625	267.62
427.847	244.62
428.069	211.62
428.292	123.62
428.514	100.62
428.736	111.62
428.958	93.62
429.181	89.62
429.403	93.62
429.625	85.62
429.847	101.62
430.069	98.62
430.292	106.62
430.514	93.62
430.736	92.62
430.958	100.62
431.18	105.62
431.402	76.62
431.624	84.62
431.846	83.62
432.068	81.62
432.29	82.62
432.512	88.62
432.734	77.62
432.956	90.62
433.178	118.62
433.4	109.62
433.622	87.62
433.844	85.62
434.066	105.62
434.287	92.62
434.509	115.62
434.731	103.62
434.953	94.62
435.175	92.62
435.397	99.62
435.618	89.62
435.84	119.62
436.062	143.62
436.284	131.62
436.505	129.62
436.727	116.62
436.949	102.62
437.17	99.62
437.392	90.62
437.614	112.62
437.835	129.62
438.057	159.62
438.278	136.62
438.5	129.62
438.721	150.62
438.943	118.62
439.165	91.62
439.386	104.62
439.608	98.62
439.829	115.62
440.05	156.62
440.272	201.62
440.493	121.62
440.715	109.62
440.936	84.62
441.158	94.62
441.379	95.62
441.6	102.62
441.822	99.62
442.043	108.62
442.264	122.62
442.486	117.62
442.707	108.62
442.928	137.62
443.149	184.62
443.371	171.62
443.592	150.62
443.813	140.62
444.034	123.62
444.255	101.62
444.476	86.62
444.698	103.62
444.919	104.62
445.14	139.62
445.361	122.62
445.582	133.62
445.803	195.62
446.024	197.62
446.245	178.62
446.466	122.62
446.687	101.62
446.908	99.62
447.129	89.62
447.35	102.62
447.571	115.62
447.792	103.62
448.013	105.62
448.234	130.62
448.455	116.62
448.675	131.62
448.896	144.62
449.117	108.62
449.338	149.62
449.559	147.62
449.779	176.62
450	105.62
450.221	111.62
450.442	93.62
450.662	107.62
450.883	148.62
451.104	145.62
451.324	111.62
451.545	90.62
451.766	78.62
451.986	84.62
452.207	101.62
452.428	95.62
452.648	112.62
452.869	131.62
453.089	132.62
453.31	149.62
453.53	103.62
453.751	102.62
453.971	106.62
454.192	143.62
454.412	107.62
454.633	84.62
454.853	85.62
455.073	86.62
455.294	89.62
455.514	117.62
455.734	95.62
455.955	90.62
456.175	85.62
456.395	77.62
456.616	85.62
456.836	78.62
457.056	87.62
457.276	83.62
457.497	92.62
457.717	93.62
457.937	69.62
458.157	75.62
458.377	95.62
458.598	131.62
458.818	225.62
459.038	257.62
459.258	154.62
459.478	96.62
459.698	87.62
459.918	105.62
460.138	85.62
460.358	94.62
460.578	82.62
460.798	91.62
461.018	102.62
461.238	101.62
461.458	83.62
461.678	88.62
461.898	101.62
462.118	95.62
462.338	89.62
462.558	82.62
462.777	99.62
462.997	94.62
463.217	100.62
463.437	99.62
463.657	87.62
463.876	85.62
464.096	83.62
464.316	105.62
464.536	93.62
464.755	97.62
464.975	131.62
465.195	252.62
465.414	257.62
465.634	100.62
465.854	95.62
466.073	94.62
466.293	93.62
466.512	87.62
466.732	102.62
466.951	90.62
467.171	98.62
467.391	106.62
467.61	141.62
467.829	198.62
468.049	484.62
468.268	709.62
468.488	209.62
468.707	107.62
468.927	97.62
469.146	93.62
469.365	94.62
469.585	101.62
469.804	109.62
470.023	107.62
470.243	101.62
470.462	127.62
470.681	137.62
470.901	117.62
471.12	94.62
471.339	121.62
471.558	122.62
471.777	136.62
471.997	257.62
472.216	977.62
472.435	2102.62
472.654	518.62
472.873	143.62
473.092	99.62
473.311	90.62
473.53	102.62
473.749	106.62
473.968	110.62
474.187	135.62
474.406	111.62
474.625	98.62
474.844	86.62
475.063	84.62
475.282	101.62
475.501	95.62
475.72	99.62
475.939	82.62
476.158	96.62
476.377	86.62
476.596	95.62
476.814	103.62
477.033	113.62
477.252	90.62
477.471	106.62
477.69	105.62
477.908	90.62
478.127	99.62
478.346	106.62
478.564	98.62
478.783	101.62
479.002	87.62
479.22	123.62
479.439	116.62
479.658	139.62
479.876	113.62
480.095	116.62
480.313	130.62
480.532	157.62
480.751	273.62
480.969	874.62
481.188	3726.62
481.406	2141.62
481.624	331.62
481.843	133.62
482.061	112.62
482.28	95.62
482.498	98.62
482.717	107.62
482.935	105.62
483.153	95.62
483.372	95.62
483.59	99.62
483.808	88.62
484.027	97.62
484.245	98.62
484.463	101.62
484.681	102.62
484.9	99.62
485.118	107.62
485.336	88.62
485.554	101.62
485.772	109.62
485.99	94.62
486.209	102.62
486.427	110.62
486.645	119.62
486.863	137.62
487.081	100.62
487.299	86.62
487.517	101.62
487.735	85.62
487.953	100.62
488.171	95.62
488.389	108.62
488.607	116.62
488.825	105.62
489.043	94.62
489.261	94.62
489.479	98.62
489.696	85.62
489.914	83.62
490.132	100.62
490.35	93.62
490.568	83.62
490.786	83.62
491.003	85.62
491.221	97.62
491.439	90.62
491.657	99.62
491.874	118.62
492.092	83.62
492.31	104.62
492.527	94.62
492.745	106.62
492.963	105.62
493.18	94.62
493.398	93.62
493.615	88.62
493.833	88.62
494.05	85.62
494.268	93.62
494.485	99.62
494.703	80.62
494.92	103.62
495.138	78.62
495.355	94.62
495.573	98.62
495.79	102.62
496.008	87.62
496.225	91.62
496.442	93.62
496.66	92.62
496.877	87.62
497.094	98.62
497.312	81.62
497.529	92.62
497.746	99.62
497.963	89.62
498.181	106.62
498.398	85.62
498.615	114.62
498.832	128.62
499.049	101.62
499.267	92.62
499.484	99.62
499.701	91.62
499.918	83.62
500.135	85.62
500.352	89.62
500.569	97.62
500.786	98.62
501.003	94.62
501.22	104.62
501.437	104.62
501.654	106.62
501.871	132.62
502.088	97.62
502.305	95.62
502.522	73.62
502.739	96.62
502.956	83.62
503.172	99.62
503.389	102.62
503.606	129.62
503.823	99.62
504.04	106.62
504.256	94.62
504.473	91.62
504.69	101.62
504.907	84.62
505.123	85.62
505.34	93.62
505.557	86.62
505.773	92.62
505.99	82.62
506.207	103.62
506.423	99.62
506.64	90.62
506.856	88.62
507.073	108.62
507.289	96.62
507.506	114.62
507.722	142.62
507.939	124.62
508.155	106.62
508.372	89.62
508.588	89.62
508.805	107.62
509.021	104.62
509.238	107.62
509.454	117.62
509.67	113.62
509.887	131.62
510.103	154.62
510.319	263.62
510.536	989.62
510.752	3532.62
510.968	948.62
511.184	197.62
511.401	148.62
511.617	108.62
511.833	103.62
512.049	102.62
512.265	100.62
512.481	92.62
512.698	107.62
512.914	93.62
513.13	99.62
513.346	100.62
513.562	86.62
513.778	111.62
513.994	112.62
514.21	120.62
514.426	153.62
514.642	178.62
514.858	182.62
515.074	260.62
515.29	757.62
515.506	2765.62
515.721	954.62
515.937	226.62
516.153	129.62
516.369	104.62
516.585	125.62
516.801	120.62
517.016	103.62
517.232	114.62
517.448	100.62
517.664	102.62
517.879	102.62
518.095	103.62
518.311	99.62
518.527	103.62
518.742	93.62
518.958	85.62
519.173	92.62
519.389	91.62
519.605	100.62
519.82	110.62
520.036	121.62
520.251	150.62
520.467	148.62
520.682	130.62
520.898	146.62
521.113	139.62
521.329	171.62
521.544	311.62
521.76	953.62
521.975	4635.62
522.19	2697.62
522.406	525.62
522.621	168.62
522.836	106.62
523.052	101.62
523.267	105.62
523.482	107.62
523.698	113.62
523.913	161.62
524.128	120.62
524.343	103.62
524.559	116.62
524.774	100.62
524.989	91.62
525.204	115.62
525.419	103.62
525.634	94.62
525.849	93.62
526.064	91.62
526.28	88.62
526.495	90.62
526.71	92.62
526.925	99.62
527.14	100.62
527.355	81.62
527.57	85.62
527.785	98.62
527.999	86.62
528.214	95.62
528.429	92.62
528.644	84.62
528.859	91.62
529.074	106.62
529.289	182.62
529.503	288.62
529.718	122.62
529.933	109.62
530.148	99.62
530.363	98.62
530.577	92.62
530.792	91.62
531.007	94.62
531.221	89.62
531.436	101.62
531.651	94.62
531.865	94.62
532.08	97.62
532.295	108.62
532.509	103.62
532.724	91.62
532.938	85.62
533.153	90.62
533.367	91.62
533.582	113.62
533.796	102.62
534.011	82.62
534.225	92.62
534.44	90.62
534.654	94.62
534.868	92.62
535.083	93.62
535.297	90.62
535.511	115.62
535.726	124.62
535.94	100.62
536.154	95.62
536.369	94.62
536.583	90.62
536.797	98.62
537.011	76.62
537.225	88.62
537.44	90.62
537.654	92.62
537.868	98.62
538.082	75.62
538.296	94.62
538.51	99.62
538.724	101.62
538.938	87.62
539.153	105.62
539.367	117.62
539.581	102.62
539.795	102.62
540.009	100.62
540.222	87.62
540.436	91.62
540.65	82.62
540.864	101.62
541.078	102.62
541.292	106.62
541.506	98.62
541.72	98.62
541.934	86.62
542.147	81.62
542.361	88.62
542.575	98.62
542.789	103.62
543.002	104.62
543.216	99.62
543.43	118.62
543.644	96.62
543.857	85.62
544.071	107.62
544.285	92.62
544.498	77.62
544.712	87.62
544.925	92.62
545.139	87.62
545.352	106.62
545.566	109.62
545.779	106.62
545.993	83.62
546.206	98.62
546.42	99.62
546.633	99.62
546.847	96.62
547.06	83.62
547.274	79.62
547.487	87.62
547.7	92.62
547.914	90.62
548.127	91.62
548.34	86.62
548.554	94.62
548.767	93.62
548.98	82.62
549.193	83.62
549.407	91.62
549.62	92.62
549.833	85.62
550.046	100.62
550.259	97.62
550.473	93.62
550.686	93.62
550.899	100.62
551.112	81.62
551.325	86.62
551.538	103.62
551.751	92.62
551.964	94.62
552.177	96.62
552.39	100.62
552.603	98.62
552.816	94.62
553.029	79.62
553.242	100.62
553.455	102.62
553.667	137.62
553.88	103.62
554.093	109.62
554.306	107.62
554.519	114.62
554.732	92.62
554.944	97.62
555.157	101.62
555.37	94.62
555.583	94.62
555.795	99.62
556.008	98.62
556.221	90.62
556.433	85.62
556.646	95.62
556.859	111.62
557.071	99.62
557.284	86.62
557.496	83.62
557.709	93.62
557.921	90.62
558.134	105.62
558.346	90.62
558.559	99.62
558.771	84.62
558.984	92.62
559.196	88.62
559.409	79.62
559.621	107.62
559.833	100.62
560.046	93.62
560.258	94.62
560.47	134.62
560.683	106.62
560.895	97.62
561.107	90.62
561.32	95.62
561.532	99.62
561.744	80.62
561.956	87.62
562.168	96.62
562.381	101.62
562.593	99.62
562.805	96.62
563.017	97.62
563.229	94.62
563.441	96.62
563.653	97.62
563.865	86.62
564.077	88.62
564.289	102.62
564.501	97.62
564.713	108.62
564.925	113.62
565.137	114.62
565.349	101.62
565.561	85.62
565.773	88.62
565.985	95.62
566.197	85.62
566.408	95.62
566.62	83.62
566.832	86.62
567.044	92.62
567.255	95.62
567.467	95.62
567.679	102.62
567.891	89.62
568.102	96.62
568.314	94.62
568.526	88.62
568.737	88.62
568.949	86.62
569.161	88.62
569.372	83.62
569.584	88.62
569.795	88.62
570.007	140.62
570.218	313.62
570.43	161.62
570.641	92.62
570.853	90.62
571.064	94.62
571.276	95.62
571.487	86.62
571.698	89.62
571.91	93.62
572.121	90.62
572.333	102.62
572.544	106.62
572.755	93.62
572.966	92.62
573.178	83.62
573.389	89.62
573.6	83.62
573.811	83.62
574.023	95.62
574.234	109.62
574.445	81.62
574.656	88.62
574.867	79.62
575.078	89.62
575.289	85.62
575.501	93.62
575.712	93.62
575.923	76.62
576.134	92.62
576.345	93.62
576.556	94.62
576.767	97.62
576.978	105.62
577.188	90.62
577.399	94.62
577.61	86.62
577.821	106.62
578.032	126.62
578.243	341.62
578.454	1078.62
578.665	274.62
578.875	102.62
579.086	103.62
579.297	88.62
579.508	77.62
579.718	90.62
579.929	98.62
580.14	91.62
580.35	89.62
580.561	94.62
580.772	77.62
580.982	74.62
581.193	85.62
581.403	89.62
581.614	80.62
581.825	85.62
582.035	85.62
582.246	94.62
582.456	91.62
582.667	100.62
582.877	96.62
583.087	102.62
583.298	79.62
583.508	72.62
583.719	86.62
583.929	83.62
584.139	89.62
584.35	93.62
584.56	91.62
584.77	81.62
584.981	93.62
585.191	78.62
585.401	91.62
585.611	87.62
585.821	79.62
586.032	62.62
586.242	84.62
586.452	83.62
586.662	87.62
586.872	97.62
587.082	79.62
587.292	103.62
587.502	88.62
587.713	92.62
587.923	85.62
588.133	85.62
588.343	103.62
588.553	79.62
588.762	94.62
588.972	87.62
589.182	103.62
589.392	102.62
589.602	94.62
589.812	90.62
590.022	81.62
590.232	89.62
590.441	88.62
590.651	96.62
590.861	94.62
591.071	80.62
591.281	88.62
591.49	102.62
591.7	72.62
591.91	87.62
592.119	89.62
592.329	97.62
592.539	98.62
592.748	109.62
592.958	84.62
593.167	90.62
593.377	82.62
593.587	87.62
593.796	79.62
594.006	82.62
594.215	95.62
594.424	71.62
594.634	84.62
594.843	83.62
595.053	102.62
595.262	86.62
595.472	88.62
595.681	84.62
595.89	96.62
596.1	94.62
596.309	90.62
596.518	93.62
596.727	100.62
596.937	92.62
597.146	98.62
597.355	92.62
597.564	84.62
597.774	87.62
597.983	71.62
598.192	82.62
598.401	88.62
598.61	98.62
598.819	90.62
599.028	104.62
599.237	87.62
599.446	89.62
599.655	99.62
599.864	82.62
600.073	96.62
600.282	87.62
600.491	88.62
600.7	82.62
600.909	98.62
601.118	90.62
601.327	98.62
601.536	88.62
601.745	85.62
601.953	90.62
602.162	85.62
602.371	101.62
602.58	88.62
602.789	87.62
602.997	71.62
603.206	83.62
603.415	81.62
603.623	94.62
603.832	91.62
604.041	86.62
604.249	77.62
604.458	83.62
604.666	73.62
604.875	92.62
605.084	79.62
605.292	96.62
605.501	88.62
605.709	85.62
605.918	100.62
606.126	99.62
606.334	91.62
606.543	90.62
606.751	82.62
606.96	95.62
607.168	92.62
607.376	108.62
607.585	90.62
607.793	85.62
608.001	87.62
608.21	82.62
608.418	92.62
608.626	94.62
608.834	69.62
609.043	83.62
609.251	94.62
609.459	99.62
609.667	87.62
609.875	93.62
610.083	94.62
610.291	87.62
610.499	91.62
610.707	78.62
610.916	90.62
611.124	94.62
611.332	76.62
611.54	72.62
611.748	85.62
611.955	89.62
612.163	82.62
612.371	89.62
612.579	93.62
612.787	98.62
612.995	90.62
613.203	97.62
613.411	78.62
613.618	75.62
613.826	88.62
614.034	90.62
614.242	77.62
614.449	91.62
614.657	90.62
614.865	82.62
615.072	94.62
615.28	101.62
615.488	86.62
615.695	89.62
615.903	92.62
616.111	96.62
616.318	103.62
616.526	104.62
616.733	97.62
616.941	95.62
617.148	87.62
617.356	75.62
617.563	89.62
617.771	89.62
617.978	81.62
618.185	74.62
618.393	84.62
618.6	98.62
618.807	95.62
619.015	92.62
619.222	78.62
619.429	95.62
619.637	92.62
619.844	76.62
620.051	89.62
620.258	77.62
620.466	79.62
620.673	94.62
620.88	79.62
621.087	92.62
621.294	80.62
621.501	92.62
621.708	82.62
621.915	83.62
622.122	83.62
622.329	92.62
622.536	89.62
622.743	74.62
622.95	66.62
623.157	86.62
623.364	95.62
623.571	87.62
623.778	84.62
623.985	89.62
624.192	71.62
624.399	88.62
624.606	93.62
624.812	89.62
625.019	81.62
625.226	79.62
625.433	92.62
625.639	97.62
625.846	93.62
626.053	77.62
626.259	96.62
626.466	96.62
626.673	99.62
626.879	86.62
627.086	93.62
627.293	93.62
627.499	92.62
627.706	90.62
627.912	85.62
628.119	85.62
628.325	85.62
628.532	98.62
628.738	80.62
628.945	73.62
629.151	84.62
629.357	76.62
629.564	85.62
629.77	85.62
629.976	93.62
630.183	87.62
630.389	83.62
630.595	85.62
630.802	100.62
631.008	83.62
631.214	83.62
631.42	80.62
631.627	97.62
631.833	89.62
632.039	97.62
632.245	86.62
632.451	92.62
632.657	71.62
632.863	81.62
633.069	74.62
633.275	98.62
633.481	87.62
633.688	77.62
633.893	94.62
634.099	79.62
634.305	99.62
634.511	86.62
634.717	77.62
634.923	88.62
635.129	83.62
635.335	88.62
635.541	91.62
635.747	87.62
635.952	90.62
636.158	129.62
636.364	327.62
636.57	289.62
636.775	118.62
636.981	95.62
637.187	94.62
637.392	93.62
637.598	88.62
637.804	89.62
638.009	93.62
638.215	84.62
638.421	92.62
638.626	67.62
638.832	81.62
639.037	92.62
639.243	86.62
639.448	74.62
639.654	86.62
639.859	83.62
640.065	86.62
640.27	77.62
640.475	58.62
640.681	94.62
640.886	87.62
641.091	88.62
641.297	86.62
641.502	75.62
641.707	99.62
641.913	88.62
642.118	70.62
642.323	89.62
642.528	85.62
642.733	94.62
642.939	84.62
643.144	86.62
643.349	87.62
643.554	79.62
643.759	86.62
643.964	92.62
644.169	100.62
644.374	87.62
644.579	87.62
644.784	94.62
644.989	95.62
645.194	89.62
645.399	89.62
645.604	89.62
645.809	93.62
646.014	81.62
646.219	83.62
646.423	96.62
646.628	86.62
646.833	92.62
647.038	88.62
647.243	83.62
647.447	87.62
647.652	84.62
647.857	82.62
648.062	90.62
648.266	79.62
648.471	102.62
648.676	99.62
648.88	81.62
649.085	90.62
649.289	99.62
649.494	123.62
649.698	150.62
649.903	109.62
650.107	94.62
650.312	84.62
650.516	92.62
650.721	95.62
650.925	102.62
651.13	82.62
651.334	74.62
651.539	76.62
651.743	88.62
651.947	85.62
652.152	84.62
652.356	84.62
652.56	86.62
652.764	79.62
652.969	87.62
653.173	68.62
653.377	74.62
653.581	84.62
653.785	82.62
653.99	92.62
654.194	100.62
654.398	80.62
654.602	85.62
654.806	95.62
655.01	111.62
655.214	92.62
655.418	97.62
655.622	86.62
655.826	107.62
656.03	89.62
656.234	89.62
656.438	78.62
656.642	94.62
656.846	84.62
657.049	105.62
657.253	98.62
657.457	81.62
657.661	82.62
657.865	81.62
658.068	65.62
658.272	89.62
658.476	86.62
658.68	89.62
658.883	88.62
659.087	80.62
659.291	78.62
659.494	94.62
659.698	74.62
659.901	79.62
660.105	79.62
660.309	83.62
660.512	83.62
660.716	83.62
660.919	77.62
661.123	80.62
661.326	71.62
661.53	90.62
661.733	76.62
661.936	83.62
662.14	66.62
662.343	70.62
662.546	92.62
662.75	86.62
662.953	89.62
663.156	92.62
663.36	86.62
663.563	75.62
663.766	82.62
663.969	91.62
664.173	88.62
664.376	82.62
664.579	73.62
664.782	71.62
664.985	76.62
665.188	87.62
665.391	75.62
665.594	82.62
665.797	92.62
666	74.62
666.203	86.62
666.406	95.62
666.609	92.62
666.812	72.62
667.015	88.62
667.218	76.62
667.421	87.62
667.624	76.62
667.827	81.62
668.03	77.62
668.232	71.62
668.435	84.62
668.638	88.62
668.841	83.62
669.043	85.62
669.246	96.62
669.449	85.62
669.651	65.62
669.854	66.62
670.057	88.62
670.259	88.62
670.462	73.62
670.665	82.62
670.867	84.62
671.07	87.62
671.272	81.62
671.475	86.62
671.677	82.62
671.88	71.62
672.082	87.62
672.284	78.62
672.487	83.62
672.689	90.62
672.892	67.62
