Data from Circ_2000_H10_HRD10591_00013.txt Node
Date: Wed Jan 03 10:49:36 EST 2024
User: Yrep
Spectrometer: HR+D1059
Trigger mode: 1
Integration Time (sec): 1.000000E-1
Scans to average: 1
Electric dark correction enabled: true
Nonlinearity correction enabled: false
Boxcar width: 0
XAxis mode: Wavelengths
Number of Pixels in Spectrum: 2048
>>>>>Begin Spectral Data<<<<<
223.165	-18.81
223.4	-18.81
223.635	-18.81
223.869	-16.81
224.104	-11.81
224.338	-35.81
224.573	-20.81
224.808	-12.81
225.042	-12.81
225.277	9.19
225.511	-5.81
225.746	14.19
225.98	11.19
226.215	10.19
226.449	16.19
226.683	22.19
226.918	14.19
227.152	38.19
227.387	45.19
227.621	50.19
227.856	43.19
228.09	43.19
228.324	58.19
228.559	54.19
228.793	48.19
229.027	69.19
229.262	67.19
229.496	94.19
229.73	104.19
229.964	97.19
230.199	76.19
230.433	86.19
230.667	76.19
230.901	86.19
231.136	82.19
231.37	83.19
231.604	78.19
231.838	90.19
232.072	69.19
232.306	82.19
232.541	88.19
232.775	87.19
233.009	91.19
233.243	82.19
233.477	78.19
233.711	76.19
233.945	78.19
234.179	87.19
234.413	71.19
234.647	79.19
234.881	84.19
235.115	77.19
235.349	83.19
235.583	83.19
235.817	99.19
236.051	78.19
236.285	87.19
236.519	87.19
236.753	91.19
236.987	91.19
237.221	90.19
237.455	91.19
237.689	86.19
237.922	86.19
238.156	88.19
238.39	82.19
238.624	74.19
238.858	83.19
239.091	79.19
239.325	78.19
239.559	105.19
239.793	90.19
240.027	90.19
240.26	85.19
240.494	79.19
240.728	83.19
240.961	84.19
241.195	101.19
241.429	72.19
241.662	70.19
241.896	90.19
242.13	72.19
242.363	78.19
242.597	88.19
242.83	79.19
243.064	80.19
243.298	84.19
243.531	89.19
243.765	76.19
243.998	96.19
244.232	80.19
244.465	84.19
244.699	83.19
244.932	72.19
245.166	82.19
245.399	75.19
245.633	83.19
245.866	83.19
246.099	83.19
246.333	80.19
246.566	78.19
246.8	84.19
247.033	86.19
247.266	87.19
247.5	81.19
247.733	69.19
247.966	96.19
248.2	96.19
248.433	85.19
248.666	100.19
248.899	91.19
249.133	95.19
249.366	96.19
249.599	120.19
249.832	91.19
250.066	90.19
250.299	82.19
250.532	90.19
250.765	73.19
250.998	95.19
251.231	83.19
251.465	92.19
251.698	80.19
251.931	77.19
252.164	89.19
252.397	89.19
252.63	82.19
252.863	91.19
253.096	83.19
253.329	85.19
253.562	77.19
253.795	82.19
254.028	84.19
254.261	92.19
254.494	95.19
254.727	100.19
254.96	76.19
255.193	88.19
255.426	89.19
255.659	95.19
255.892	82.19
256.124	96.19
256.357	104.19
256.59	77.19
256.823	79.19
257.056	98.19
257.289	87.19
257.521	92.19
257.754	80.19
257.987	84.19
258.22	96.19
258.452	100.19
258.685	102.19
258.918	82.19
259.151	74.19
259.383	84.19
259.616	75.19
259.849	100.19
260.081	88.19
260.314	91.19
260.547	112.19
260.779	84.19
261.012	90.19
261.244	102.19
261.477	87.19
261.71	103.19
261.942	118.19
262.175	138.19
262.407	84.19
262.64	91.19
262.872	92.19
263.105	92.19
263.337	91.19
263.57	68.19
263.802	95.19
264.035	84.19
264.267	89.19
264.499	98.19
264.732	95.19
264.964	94.19
265.197	84.19
265.429	106.19
265.661	80.19
265.894	90.19
266.126	102.19
266.358	92.19
266.591	90.19
266.823	83.19
267.055	93.19
267.287	87.19
267.52	90.19
267.752	76.19
267.984	95.19
268.216	87.19
268.448	88.19
268.681	88.19
268.913	95.19
269.145	91.19
269.377	84.19
269.609	82.19
269.841	94.19
270.073	85.19
270.306	95.19
270.538	82.19
270.77	70.19
271.002	82.19
271.234	101.19
271.466	82.19
271.698	94.19
271.93	98.19
272.162	93.19
272.394	86.19
272.626	88.19
272.858	92.19
273.09	85.19
273.322	86.19
273.553	94.19
273.785	88.19
274.017	88.19
274.249	102.19
274.481	90.19
274.713	86.19
274.945	82.19
275.176	105.19
275.408	102.19
275.64	112.19
275.872	113.19
276.104	98.19
276.335	101.19
276.567	123.19
276.799	142.19
277.031	150.19
277.262	154.19
277.494	114.19
277.726	95.19
277.957	88.19
278.189	100.19
278.421	94.19
278.652	100.19
278.884	102.19
279.115	88.19
279.347	92.19
279.579	102.19
279.81	116.19
280.042	151.19
280.273	173.19
280.505	144.19
280.736	103.19
280.968	93.19
281.199	99.19
281.431	96.19
281.662	82.19
281.894	95.19
282.125	100.19
282.356	135.19
282.588	187.19
282.819	138.19
283.051	99.19
283.282	92.19
283.513	75.19
283.745	91.19
283.976	89.19
284.207	91.19
284.439	76.19
284.67	95.19
284.901	100.19
285.132	100.19
285.364	111.19
285.595	92.19
285.826	96.19
286.057	95.19
286.288	99.19
286.52	86.19
286.751	79.19
286.982	91.19
287.213	98.19
287.444	93.19
287.675	95.19
287.906	92.19
288.138	87.19
288.369	93.19
288.6	89.19
288.831	96.19
289.062	93.19
289.293	93.19
289.524	87.19
289.755	77.19
289.986	86.19
290.217	79.19
290.448	95.19
290.679	86.19
290.91	94.19
291.141	88.19
291.371	93.19
291.602	83.19
291.833	84.19
292.064	91.19
292.295	96.19
292.526	95.19
292.757	96.19
292.987	86.19
293.218	87.19
293.449	105.19
293.68	102.19
293.91	96.19
294.141	87.19
294.372	104.19
294.603	95.19
294.833	92.19
295.064	103.19
295.295	94.19
295.525	106.19
295.756	102.19
295.987	117.19
296.217	159.19
296.448	164.19
296.679	102.19
296.909	89.19
297.14	92.19
297.37	85.19
297.601	96.19
297.831	95.19
298.062	101.19
298.292	87.19
298.523	97.19
298.753	98.19
298.984	97.19
299.214	103.19
299.445	91.19
299.675	106.19
299.905	109.19
300.136	106.19
300.366	95.19
300.597	82.19
300.827	100.19
301.057	106.19
301.288	129.19
301.518	96.19
301.748	99.19
301.979	100.19
302.209	87.19
302.439	99.19
302.669	95.19
302.9	97.19
303.13	98.19
303.36	104.19
303.59	124.19
303.82	122.19
304.051	115.19
304.281	105.19
304.511	95.19
304.741	87.19
304.971	88.19
305.201	93.19
305.431	106.19
305.661	94.19
305.891	100.19
306.121	102.19
306.352	113.19
306.582	110.19
306.812	106.19
307.042	109.19
307.272	123.19
307.502	132.19
307.731	117.19
307.961	96.19
308.191	99.19
308.421	96.19
308.651	100.19
308.881	99.19
309.111	111.19
309.341	114.19
309.571	95.19
309.8	112.19
310.03	111.19
310.26	123.19
310.49	91.19
310.72	117.19
310.949	158.19
311.179	127.19
311.409	107.19
311.639	95.19
311.868	96.19
312.098	90.19
312.328	101.19
312.557	126.19
312.787	125.19
313.017	110.19
313.246	101.19
313.476	111.19
313.706	103.19
313.935	104.19
314.165	108.19
314.394	115.19
314.624	110.19
314.853	109.19
315.083	112.19
315.312	100.19
315.542	83.19
315.771	104.19
316.001	113.19
316.23	94.19
316.46	84.19
316.689	98.19
316.919	109.19
317.148	105.19
317.377	95.19
317.607	111.19
317.836	112.19
318.065	86.19
318.295	98.19
318.524	100.19
318.753	108.19
318.983	112.19
319.212	103.19
319.441	107.19
319.67	120.19
319.9	90.19
320.129	101.19
320.358	105.19
320.587	103.19
320.816	104.19
321.046	112.19
321.275	102.19
321.504	106.19
321.733	107.19
321.962	116.19
322.191	118.19
322.42	125.19
322.649	132.19
322.878	135.19
323.108	147.19
323.337	156.19
323.566	179.19
323.795	196.19
324.024	268.19
324.253	565.19
324.482	1262.19
324.71	2614.19
324.939	3420.19
325.168	1221.19
325.397	342.19
325.626	177.19
325.855	160.19
326.084	140.19
326.313	158.19
326.542	188.19
326.77	315.19
326.999	645.19
327.228	1388.19
327.457	2512.19
327.686	1991.19
327.914	564.19
328.143	416.19
328.372	460.19
328.6	264.19
328.829	171.19
329.058	201.19
329.287	204.19
329.515	166.19
329.744	200.19
329.972	317.19
330.201	575.19
330.43	815.19
330.658	434.19
330.887	269.19
331.115	186.19
331.344	140.19
331.572	119.19
331.801	126.19
332.03	133.19
332.258	123.19
332.486	118.19
332.715	106.19
332.943	110.19
333.172	117.19
333.4	133.19
333.629	150.19
333.857	182.19
334.085	292.19
334.314	599.19
334.542	1088.19
334.771	976.19
334.999	292.19
335.227	157.19
335.455	119.19
335.684	119.19
335.912	98.19
336.14	97.19
336.369	119.19
336.597	119.19
336.825	128.19
337.053	110.19
337.281	101.19
337.51	103.19
337.738	108.19
337.966	101.19
338.194	96.19
338.422	109.19
338.65	106.19
338.878	108.19
339.106	109.19
339.334	87.19
339.562	112.19
339.79	100.19
340.018	114.19
340.246	100.19
340.474	108.19
340.702	87.19
340.93	83.19
341.158	96.19
341.386	105.19
341.614	110.19
341.842	103.19
342.07	96.19
342.298	104.19
342.526	89.19
342.754	90.19
342.981	96.19
343.209	110.19
343.437	97.19
343.665	87.19
343.893	94.19
344.12	109.19
344.348	90.19
344.576	93.19
344.804	112.19
345.031	118.19
345.259	136.19
345.487	112.19
345.714	98.19
345.942	99.19
346.17	103.19
346.397	100.19
346.625	95.19
346.853	91.19
347.08	96.19
347.308	97.19
347.535	116.19
347.763	114.19
347.99	108.19
348.218	118.19
348.445	124.19
348.673	106.19
348.9	112.19
349.128	94.19
349.355	87.19
349.583	102.19
349.81	109.19
350.037	110.19
350.265	96.19
350.492	95.19
350.72	98.19
350.947	114.19
351.174	131.19
351.402	142.19
351.629	112.19
351.856	109.19
352.083	122.19
352.311	135.19
352.538	137.19
352.765	144.19
352.992	127.19
353.22	130.19
353.447	109.19
353.674	109.19
353.901	100.19
354.128	92.19
354.355	99.19
354.583	106.19
354.81	103.19
355.037	103.19
355.264	100.19
355.491	94.19
355.718	92.19
355.945	110.19
356.172	96.19
356.399	95.19
356.626	108.19
356.853	105.19
357.08	104.19
357.307	100.19
357.534	88.19
357.761	100.19
357.988	90.19
358.215	98.19
358.441	110.19
358.668	90.19
358.895	110.19
359.122	114.19
359.349	94.19
359.576	100.19
359.802	133.19
360.029	157.19
360.256	134.19
360.483	109.19
360.709	109.19
360.936	93.19
361.163	112.19
361.39	106.19
361.616	95.19
361.843	106.19
362.07	96.19
362.296	123.19
362.523	105.19
362.749	111.19
362.976	91.19
363.203	92.19
363.429	110.19
363.656	88.19
363.882	94.19
364.109	103.19
364.335	93.19
364.562	93.19
364.788	91.19
365.015	107.19
365.241	106.19
365.468	113.19
365.694	113.19
365.92	99.19
366.147	120.19
366.373	95.19
366.599	80.19
366.826	104.19
367.052	92.19
367.278	99.19
367.505	96.19
367.731	110.19
367.957	106.19
368.184	107.19
368.41	115.19
368.636	129.19
368.862	150.19
369.089	133.19
369.315	101.19
369.541	95.19
369.767	106.19
369.993	102.19
370.219	99.19
370.445	103.19
370.672	95.19
370.898	101.19
371.124	95.19
371.35	98.19
371.576	105.19
371.802	92.19
372.028	93.19
372.254	88.19
372.48	82.19
372.706	89.19
372.932	76.19
373.158	84.19
373.384	96.19
373.61	87.19
373.835	96.19
374.061	94.19
374.287	88.19
374.513	111.19
374.739	96.19
374.965	92.19
375.191	102.19
375.416	78.19
375.642	96.19
375.868	106.19
376.094	111.19
376.319	105.19
376.545	91.19
376.771	85.19
376.997	103.19
377.222	99.19
377.448	101.19
377.674	88.19
377.899	78.19
378.125	96.19
378.35	97.19
378.576	96.19
378.802	95.19
379.027	94.19
379.253	94.19
379.478	107.19
379.704	100.19
379.929	109.19
380.155	105.19
380.38	118.19
380.606	102.19
380.831	99.19
381.057	101.19
381.282	91.19
381.507	95.19
381.733	94.19
381.958	115.19
382.184	119.19
382.409	119.19
382.634	103.19
382.86	103.19
383.085	99.19
383.31	123.19
383.535	99.19
383.761	131.19
383.986	100.19
384.211	128.19
384.436	121.19
384.662	120.19
384.887	119.19
385.112	122.19
385.337	133.19
385.562	141.19
385.787	126.19
386.013	118.19
386.238	161.19
386.463	114.19
386.688	133.19
386.913	133.19
387.138	134.19
387.363	124.19
387.588	114.19
387.813	119.19
388.038	114.19
388.263	146.19
388.488	139.19
388.713	114.19
388.938	99.19
389.163	106.19
389.387	98.19
389.612	84.19
389.837	96.19
390.062	89.19
390.287	88.19
390.512	95.19
390.736	99.19
390.961	106.19
391.186	91.19
391.411	106.19
391.636	104.19
391.86	92.19
392.085	91.19
392.31	94.19
392.534	92.19
392.759	108.19
392.984	99.19
393.208	99.19
393.433	94.19
393.658	98.19
393.882	82.19
394.107	84.19
394.331	90.19
394.556	88.19
394.78	82.19
395.005	89.19
395.229	75.19
395.454	93.19
395.678	90.19
395.903	91.19
396.127	94.19
396.352	112.19
396.576	89.19
396.801	94.19
397.025	98.19
397.249	100.19
397.474	89.19
397.698	90.19
397.922	94.19
398.147	95.19
398.371	78.19
398.595	84.19
398.82	73.19
399.044	75.19
399.268	83.19
399.492	95.19
399.717	107.19
399.941	100.19
400.165	106.19
400.389	93.19
400.613	84.19
400.837	84.19
401.062	110.19
401.286	88.19
401.51	106.19
401.734	109.19
401.958	124.19
402.182	164.19
402.406	210.19
402.63	175.19
402.854	110.19
403.078	107.19
403.302	87.19
403.526	88.19
403.75	98.19
403.974	95.19
404.198	95.19
404.422	95.19
404.645	94.19
404.869	108.19
405.093	120.19
405.317	142.19
405.541	138.19
405.765	123.19
405.988	152.19
406.212	228.19
406.436	347.19
406.66	225.19
406.883	122.19
407.107	98.19
407.331	118.19
407.555	117.19
407.778	107.19
408.002	100.19
408.226	90.19
408.449	100.19
408.673	93.19
408.896	107.19
409.12	106.19
409.344	104.19
409.567	100.19
409.791	107.19
410.014	95.19
410.238	84.19
410.461	97.19
410.685	101.19
410.908	103.19
411.132	103.19
411.355	115.19
411.578	100.19
411.802	101.19
412.025	106.19
412.249	105.19
412.472	101.19
412.695	136.19
412.919	115.19
413.142	98.19
413.365	87.19
413.589	95.19
413.812	95.19
414.035	91.19
414.258	86.19
414.482	88.19
414.705	103.19
414.928	85.19
415.151	82.19
415.374	103.19
415.597	98.19
415.821	99.19
416.044	99.19
416.267	97.19
416.49	92.19
416.713	92.19
416.936	91.19
417.159	91.19
417.382	95.19
417.605	118.19
417.828	118.19
418.051	121.19
418.274	105.19
418.497	90.19
418.72	98.19
418.943	90.19
419.166	71.19
419.389	104.19
419.611	95.19
419.834	86.19
420.057	94.19
420.28	104.19
420.503	83.19
420.726	99.19
420.948	93.19
421.171	111.19
421.394	108.19
421.617	97.19
421.839	101.19
422.062	95.19
422.285	102.19
422.507	108.19
422.73	123.19
422.953	98.19
423.175	96.19
423.398	101.19
423.621	78.19
423.843	90.19
424.066	90.19
424.288	104.19
424.511	108.19
424.733	119.19
424.956	124.19
425.178	110.19
425.401	112.19
425.623	99.19
425.846	98.19
426.068	110.19
426.291	98.19
426.513	101.19
426.735	97.19
426.958	95.19
427.18	128.19
427.402	191.19
427.625	295.19
427.847	245.19
428.069	194.19
428.292	121.19
428.514	95.19
428.736	93.19
428.958	84.19
429.181	87.19
429.403	88.19
429.625	95.19
429.847	100.19
430.069	106.19
430.292	105.19
430.514	98.19
430.736	84.19
430.958	90.19
431.18	101.19
431.402	101.19
431.624	87.19
431.846	104.19
432.068	78.19
432.29	95.19
432.512	85.19
432.734	86.19
432.956	95.19
433.178	103.19
433.4	111.19
433.622	107.19
433.844	84.19
434.066	93.19
434.287	114.19
434.509	89.19
434.731	86.19
434.953	96.19
435.175	88.19
435.397	95.19
435.618	102.19
435.84	116.19
436.062	169.19
436.284	158.19
436.505	129.19
436.727	108.19
436.949	99.19
437.17	103.19
437.392	85.19
437.614	105.19
437.835	139.19
438.057	182.19
438.278	139.19
438.5	113.19
438.721	153.19
438.943	117.19
439.165	109.19
439.386	99.19
439.608	109.19
439.829	111.19
440.05	165.19
440.272	207.19
440.493	129.19
440.715	95.19
440.936	84.19
441.158	99.19
441.379	105.19
441.6	100.19
441.822	118.19
442.043	114.19
442.264	130.19
442.486	124.19
442.707	125.19
442.928	126.19
443.149	189.19
443.371	182.19
443.592	122.19
443.813	125.19
444.034	130.19
444.255	115.19
444.476	80.19
444.698	94.19
444.919	103.19
445.14	154.19
445.361	148.19
445.582	158.19
445.803	206.19
446.024	209.19
446.245	194.19
446.466	132.19
446.687	95.19
446.908	113.19
447.129	100.19
447.35	93.19
447.571	105.19
447.792	88.19
448.013	130.19
448.234	140.19
448.455	131.19
448.675	146.19
448.896	146.19
449.117	114.19
449.338	119.19
449.559	159.19
449.779	178.19
450	106.19
450.221	87.19
450.442	87.19
450.662	105.19
450.883	142.19
451.104	152.19
451.324	106.19
451.545	89.19
451.766	111.19
451.986	100.19
452.207	87.19
452.428	99.19
452.648	127.19
452.869	144.19
453.089	139.19
453.31	155.19
453.53	109.19
453.751	108.19
453.971	116.19
454.192	141.19
454.412	95.19
454.633	92.19
454.853	84.19
455.073	91.19
455.294	82.19
455.514	110.19
455.734	103.19
455.955	90.19
456.175	92.19
456.395	87.19
456.616	88.19
456.836	94.19
457.056	79.19
457.276	90.19
457.497	91.19
457.717	90.19
457.937	95.19
458.157	99.19
458.377	118.19
458.598	149.19
458.818	242.19
459.038	271.19
459.258	161.19
459.478	108.19
459.698	78.19
459.918	92.19
460.138	94.19
460.358	99.19
460.578	86.19
460.798	92.19
461.018	84.19
461.238	99.19
461.458	95.19
461.678	93.19
461.898	102.19
462.118	99.19
462.338	94.19
462.558	85.19
462.777	92.19
462.997	78.19
463.217	110.19
463.437	93.19
463.657	77.19
463.876	99.19
464.096	100.19
464.316	96.19
464.536	117.19
464.755	107.19
464.975	132.19
465.195	251.19
465.414	278.19
465.634	106.19
465.854	101.19
466.073	87.19
466.293	92.19
466.512	90.19
466.732	83.19
466.951	95.19
467.171	113.19
467.391	120.19
467.61	147.19
467.829	169.19
468.049	324.19
468.268	443.19
468.488	147.19
468.707	111.19
468.927	100.19
469.146	87.19
469.365	102.19
469.585	112.19
469.804	111.19
470.023	112.19
470.243	108.19
470.462	119.19
470.681	139.19
470.901	95.19
471.12	81.19
471.339	100.19
471.558	108.19
471.777	135.19
471.997	197.19
472.216	603.19
472.435	1251.19
472.654	352.19
472.873	117.19
473.092	106.19
473.311	89.19
473.53	98.19
473.749	105.19
473.968	111.19
474.187	125.19
474.406	124.19
474.625	96.19
474.844	97.19
475.063	90.19
475.282	96.19
475.501	83.19
475.72	101.19
475.939	82.19
476.158	109.19
476.377	89.19
476.596	84.19
476.814	116.19
477.033	109.19
477.252	94.19
477.471	97.19
477.69	98.19
477.908	99.19
478.127	93.19
478.346	95.19
478.564	103.19
478.783	90.19
479.002	117.19
479.22	113.19
479.439	135.19
479.658	139.19
479.876	121.19
480.095	103.19
480.313	118.19
480.532	136.19
480.751	187.19
480.969	586.19
481.188	2214.19
481.406	1365.19
481.624	263.19
481.843	116.19
482.061	84.19
482.28	94.19
482.498	99.19
482.717	106.19
482.935	104.19
483.153	100.19
483.372	106.19
483.59	108.19
483.808	84.19
484.027	93.19
484.245	98.19
484.463	104.19
484.681	87.19
484.9	90.19
485.118	102.19
485.336	84.19
485.554	95.19
485.772	103.19
485.99	110.19
486.209	112.19
486.427	112.19
486.645	131.19
486.863	142.19
487.081	106.19
487.299	94.19
487.517	99.19
487.735	97.19
487.953	102.19
488.171	94.19
488.389	116.19
488.607	131.19
488.825	100.19
489.043	100.19
489.261	101.19
489.479	99.19
489.696	89.19
489.914	100.19
490.132	100.19
490.35	94.19
490.568	98.19
490.786	101.19
491.003	96.19
491.221	101.19
491.439	96.19
491.657	92.19
491.874	103.19
492.092	96.19
492.31	104.19
492.527	106.19
492.745	92.19
492.963	99.19
493.18	84.19
493.398	96.19
493.615	104.19
493.833	99.19
494.05	73.19
494.268	93.19
494.485	86.19
494.703	95.19
494.92	83.19
495.138	69.19
495.355	91.19
495.573	91.19
495.79	94.19
496.008	90.19
496.225	112.19
496.442	92.19
496.66	109.19
496.877	98.19
497.094	98.19
497.312	100.19
497.529	96.19
497.746	90.19
497.963	88.19
498.181	114.19
498.398	108.19
498.615	123.19
498.832	104.19
499.049	102.19
499.267	92.19
499.484	112.19
499.701	102.19
499.918	96.19
500.135	82.19
500.352	88.19
500.569	106.19
500.786	94.19
501.003	88.19
501.22	90.19
501.437	83.19
501.654	106.19
501.871	133.19
502.088	107.19
502.305	102.19
502.522	91.19
502.739	93.19
502.956	92.19
503.172	95.19
503.389	112.19
503.606	123.19
503.823	114.19
504.04	103.19
504.256	105.19
504.473	79.19
504.69	111.19
504.907	108.19
505.123	103.19
505.34	96.19
505.557	110.19
505.773	95.19
505.99	80.19
506.207	87.19
506.423	91.19
506.64	109.19
506.856	107.19
507.073	92.19
507.289	102.19
507.506	102.19
507.722	144.19
507.939	136.19
508.155	114.19
508.372	90.19
508.588	94.19
508.805	95.19
509.021	98.19
509.238	109.19
509.454	103.19
509.67	109.19
509.887	123.19
510.103	154.19
510.319	270.19
510.536	975.19
510.752	3507.19
510.968	932.19
511.184	206.19
511.401	134.19
511.617	120.19
511.833	109.19
512.049	102.19
512.265	98.19
512.481	103.19
512.698	100.19
512.914	105.19
513.13	94.19
513.346	97.19
513.562	102.19
513.778	106.19
513.994	114.19
514.21	113.19
514.426	158.19
514.642	197.19
514.858	182.19
515.074	249.19
515.29	775.19
515.506	2863.19
515.721	975.19
515.937	227.19
516.153	156.19
516.369	114.19
516.585	97.19
516.801	113.19
517.016	110.19
517.232	111.19
517.448	109.19
517.664	94.19
517.879	103.19
518.095	102.19
518.311	102.19
518.527	112.19
518.742	96.19
518.958	102.19
519.173	103.19
519.389	96.19
519.605	90.19
519.82	106.19
520.036	118.19
520.251	150.19
520.467	155.19
520.682	132.19
520.898	126.19
521.113	132.19
521.329	206.19
521.544	333.19
521.76	1029.19
521.975	4797.19
522.19	2812.19
522.406	544.19
522.621	184.19
522.836	114.19
523.052	126.19
523.267	102.19
523.482	102.19
523.698	116.19
523.913	153.19
524.128	132.19
524.343	96.19
524.559	107.19
524.774	108.19
524.989	106.19
525.204	126.19
525.419	112.19
525.634	105.19
525.849	88.19
526.064	92.19
526.28	88.19
526.495	100.19
526.71	95.19
526.925	88.19
527.14	101.19
527.355	82.19
527.57	78.19
527.785	74.19
527.999	84.19
528.214	102.19
528.429	109.19
528.644	92.19
528.859	92.19
529.074	103.19
529.289	173.19
529.503	311.19
529.718	131.19
529.933	112.19
530.148	103.19
530.363	101.19
530.577	87.19
530.792	83.19
531.007	82.19
531.221	95.19
531.436	102.19
531.651	98.19
531.865	107.19
532.08	96.19
532.295	119.19
532.509	85.19
532.724	90.19
532.938	101.19
533.153	95.19
533.367	96.19
533.582	87.19
533.796	100.19
534.011	91.19
534.225	90.19
534.44	88.19
534.654	93.19
534.868	91.19
535.083	111.19
535.297	101.19
535.511	117.19
535.726	127.19
535.94	113.19
536.154	97.19
536.369	95.19
536.583	92.19
536.797	99.19
537.011	104.19
537.225	109.19
537.44	96.19
537.654	100.19
537.868	93.19
538.082	77.19
538.296	102.19
538.51	90.19
538.724	90.19
538.938	115.19
539.153	110.19
539.367	131.19
539.581	122.19
539.795	89.19
540.009	100.19
540.222	86.19
540.436	90.19
540.65	93.19
540.864	104.19
541.078	116.19
541.292	99.19
541.506	87.19
541.72	87.19
541.934	90.19
542.147	101.19
542.361	99.19
542.575	97.19
542.789	95.19
543.002	85.19
543.216	113.19
543.43	98.19
543.644	88.19
543.857	102.19
544.071	94.19
544.285	101.19
544.498	96.19
544.712	91.19
544.925	95.19
545.139	109.19
545.352	114.19
545.566	86.19
545.779	96.19
545.993	100.19
546.206	101.19
546.42	83.19
546.633	92.19
546.847	87.19
547.06	96.19
547.274	96.19
547.487	108.19
547.7	93.19
547.914	95.19
548.127	91.19
548.34	80.19
548.554	94.19
548.767	102.19
548.98	99.19
549.193	94.19
549.407	83.19
549.62	95.19
549.833	99.19
550.046	83.19
550.259	86.19
550.473	103.19
550.686	101.19
550.899	71.19
551.112	80.19
551.325	96.19
551.538	95.19
551.751	85.19
551.964	84.19
552.177	93.19
552.39	95.19
552.603	82.19
552.816	102.19
553.029	107.19
553.242	83.19
553.455	108.19
553.667	107.19
553.88	125.19
554.093	102.19
554.306	109.19
554.519	119.19
554.732	97.19
554.944	86.19
555.157	86.19
555.37	80.19
555.583	94.19
555.795	105.19
556.008	99.19
556.221	84.19
556.433	94.19
556.646	102.19
556.859	98.19
557.071	101.19
557.284	90.19
557.496	99.19
557.709	99.19
557.921	89.19
558.134	88.19
558.346	91.19
558.559	92.19
558.771	91.19
558.984	87.19
559.196	82.19
559.409	90.19
559.621	90.19
559.833	96.19
560.046	84.19
560.258	97.19
560.47	110.19
560.683	111.19
560.895	104.19
561.107	83.19
561.32	95.19
561.532	99.19
561.744	89.19
561.956	97.19
562.168	92.19
562.381	96.19
562.593	114.19
562.805	90.19
563.017	79.19
563.229	96.19
563.441	85.19
563.653	96.19
563.865	82.19
564.077	82.19
564.289	82.19
564.501	86.19
564.713	97.19
564.925	104.19
565.137	133.19
565.349	100.19
565.561	93.19
565.773	86.19
565.985	87.19
566.197	94.19
566.408	90.19
566.62	84.19
566.832	90.19
567.044	97.19
567.255	83.19
567.467	89.19
567.679	82.19
567.891	77.19
568.102	94.19
568.314	106.19
568.526	90.19
568.737	87.19
568.949	89.19
569.161	98.19
569.372	92.19
569.584	92.19
569.795	85.19
570.007	133.19
570.218	317.19
570.43	143.19
570.641	94.19
570.853	98.19
571.064	91.19
571.276	86.19
571.487	96.19
571.698	88.19
571.91	82.19
572.121	92.19
572.333	105.19
572.544	94.19
572.755	99.19
572.966	90.19
573.178	89.19
573.389	94.19
573.6	85.19
573.811	104.19
574.023	82.19
574.234	72.19
574.445	88.19
574.656	93.19
574.867	87.19
575.078	106.19
575.289	98.19
575.501	85.19
575.712	91.19
575.923	93.19
576.134	87.19
576.345	82.19
576.556	90.19
576.767	98.19
576.978	78.19
577.188	102.19
577.399	112.19
577.61	94.19
577.821	93.19
578.032	126.19
578.243	341.19
578.454	1120.19
578.665	282.19
578.875	104.19
579.086	78.19
579.297	83.19
579.508	84.19
579.718	84.19
579.929	98.19
580.14	73.19
580.35	87.19
580.561	96.19
580.772	73.19
580.982	93.19
581.193	90.19
581.403	101.19
581.614	74.19
581.825	96.19
582.035	78.19
582.246	94.19
582.456	94.19
582.667	85.19
582.877	92.19
583.087	85.19
583.298	93.19
583.508	88.19
583.719	106.19
583.929	94.19
584.139	86.19
584.35	96.19
584.56	100.19
584.77	85.19
584.981	87.19
585.191	97.19
585.401	100.19
585.611	104.19
585.821	97.19
586.032	103.19
586.242	79.19
586.452	96.19
586.662	81.19
586.872	75.19
587.082	103.19
587.292	82.19
587.502	92.19
587.713	86.19
587.923	88.19
588.133	79.19
588.343	85.19
588.553	84.19
588.762	92.19
588.972	103.19
589.182	166.19
589.392	108.19
589.602	100.19
589.812	133.19
590.022	106.19
590.232	85.19
590.441	90.19
590.651	76.19
590.861	94.19
591.071	83.19
591.281	93.19
591.49	83.19
591.7	87.19
591.91	83.19
592.119	85.19
592.329	106.19
592.539	114.19
592.748	96.19
592.958	93.19
593.167	84.19
593.377	93.19
593.587	110.19
593.796	93.19
594.006	88.19
594.215	85.19
594.424	93.19
594.634	85.19
594.843	88.19
595.053	90.19
595.262	82.19
595.472	96.19
595.681	93.19
595.89	103.19
596.1	81.19
596.309	90.19
596.518	92.19
596.727	89.19
596.937	94.19
597.146	96.19
597.355	88.19
597.564	93.19
597.774	99.19
597.983	88.19
598.192	101.19
598.401	88.19
598.61	84.19
598.819	96.19
599.028	96.19
599.237	84.19
599.446	96.19
599.655	92.19
599.864	84.19
600.073	84.19
600.282	82.19
600.491	100.19
600.7	83.19
600.909	79.19
601.118	86.19
601.327	92.19
601.536	98.19
601.745	84.19
601.953	80.19
602.162	99.19
602.371	106.19
602.58	86.19
602.789	88.19
602.997	99.19
603.206	91.19
603.415	90.19
603.623	91.19
603.832	89.19
604.041	88.19
604.249	92.19
604.458	88.19
604.666	91.19
604.875	99.19
605.084	88.19
605.292	79.19
605.501	88.19
605.709	95.19
605.918	95.19
606.126	98.19
606.334	90.19
606.543	84.19
606.751	92.19
606.96	98.19
607.168	94.19
607.376	101.19
607.585	93.19
607.793	81.19
608.001	83.19
608.21	102.19
608.418	95.19
608.626	97.19
608.834	93.19
609.043	91.19
609.251	91.19
609.459	90.19
609.667	86.19
609.875	102.19
610.083	83.19
610.291	81.19
610.499	91.19
610.707	90.19
610.916	86.19
611.124	75.19
611.332	74.19
611.54	93.19
611.748	86.19
611.955	82.19
612.163	76.19
612.371	102.19
612.579	74.19
612.787	83.19
612.995	103.19
613.203	88.19
613.411	94.19
613.618	86.19
613.826	88.19
614.034	103.19
614.242	95.19
614.449	81.19
614.657	83.19
614.865	84.19
615.072	83.19
615.28	82.19
615.488	96.19
615.695	79.19
615.903	98.19
616.111	93.19
616.318	106.19
616.526	96.19
616.733	90.19
616.941	79.19
617.148	77.19
617.356	74.19
617.563	96.19
617.771	92.19
617.978	92.19
618.185	99.19
618.393	96.19
618.6	94.19
618.807	87.19
619.015	70.19
619.222	74.19
619.429	88.19
619.637	104.19
619.844	88.19
620.051	92.19
620.258	90.19
620.466	77.19
620.673	71.19
620.88	92.19
621.087	91.19
621.294	93.19
621.501	90.19
621.708	82.19
621.915	96.19
622.122	91.19
622.329	86.19
622.536	96.19
622.743	94.19
622.95	94.19
623.157	91.19
623.364	87.19
623.571	92.19
623.778	95.19
623.985	104.19
624.192	74.19
624.399	66.19
624.606	86.19
624.812	80.19
625.019	83.19
625.226	84.19
625.433	96.19
625.639	87.19
625.846	77.19
626.053	83.19
626.259	83.19
626.466	105.19
626.673	85.19
626.879	70.19
627.086	88.19
627.293	99.19
627.499	79.19
627.706	105.19
627.912	78.19
628.119	82.19
628.325	89.19
628.532	80.19
628.738	93.19
628.945	93.19
629.151	95.19
629.357	63.19
629.564	93.19
629.77	79.19
629.976	77.19
630.183	77.19
630.389	89.19
630.595	78.19
630.802	74.19
631.008	76.19
631.214	92.19
631.42	74.19
631.627	96.19
631.833	88.19
632.039	85.19
632.245	85.19
632.451	82.19
632.657	91.19
632.863	93.19
633.069	91.19
633.275	86.19
633.481	81.19
633.688	84.19
633.893	83.19
634.099	86.19
634.305	72.19
634.511	83.19
634.717	92.19
634.923	91.19
635.129	85.19
635.335	77.19
635.541	88.19
635.747	104.19
635.952	112.19
636.158	105.19
636.364	230.19
636.57	196.19
636.775	89.19
636.981	85.19
637.187	93.19
637.392	91.19
637.598	105.19
637.804	91.19
638.009	82.19
638.215	89.19
638.421	90.19
638.626	84.19
638.832	91.19
639.037	98.19
639.243	84.19
639.448	75.19
639.654	85.19
639.859	93.19
640.065	76.19
640.27	68.19
640.475	84.19
640.681	78.19
640.886	76.19
641.091	92.19
641.297	86.19
641.502	91.19
641.707	87.19
641.913	75.19
642.118	84.19
642.323	93.19
642.528	86.19
642.733	91.19
642.939	70.19
643.144	81.19
643.349	75.19
643.554	105.19
643.759	85.19
643.964	86.19
644.169	83.19
644.374	63.19
644.579	93.19
644.784	86.19
644.989	80.19
645.194	101.19
645.399	85.19
645.604	78.19
645.809	86.19
646.014	91.19
646.219	82.19
646.423	102.19
646.628	75.19
646.833	88.19
647.038	87.19
647.243	83.19
647.447	90.19
647.652	83.19
647.857	95.19
648.062	85.19
648.266	103.19
648.471	76.19
648.676	97.19
648.88	102.19
649.085	102.19
649.289	88.19
649.494	113.19
649.698	149.19
649.903	107.19
650.107	87.19
650.312	88.19
650.516	104.19
650.721	94.19
650.925	77.19
651.13	80.19
651.334	91.19
651.539	93.19
651.743	87.19
651.947	88.19
652.152	89.19
652.356	78.19
652.56	91.19
652.764	79.19
652.969	64.19
653.173	83.19
653.377	89.19
653.581	98.19
653.785	83.19
653.99	86.19
654.194	92.19
654.398	90.19
654.602	87.19
654.806	85.19
655.01	106.19
655.214	87.19
655.418	89.19
655.622	77.19
655.826	95.19
656.03	88.19
656.234	82.19
656.438	102.19
656.642	94.19
656.846	96.19
657.049	89.19
657.253	101.19
657.457	86.19
657.661	79.19
657.865	70.19
658.068	91.19
658.272	75.19
658.476	83.19
658.68	78.19
658.883	74.19
659.087	86.19
659.291	89.19
659.494	92.19
659.698	70.19
659.901	82.19
660.105	69.19
660.309	66.19
660.512	78.19
660.716	79.19
660.919	104.19
661.123	94.19
661.326	84.19
661.53	61.19
661.733	70.19
661.936	87.19
662.14	88.19
662.343	88.19
662.546	78.19
662.75	76.19
662.953	91.19
663.156	75.19
663.36	91.19
663.563	90.19
663.766	90.19
663.969	101.19
664.173	68.19
664.376	87.19
664.579	86.19
664.782	97.19
664.985	88.19
665.188	77.19
665.391	82.19
665.594	87.19
665.797	89.19
666	85.19
666.203	94.19
666.406	85.19
666.609	82.19
666.812	84.19
667.015	86.19
667.218	75.19
667.421	80.19
667.624	75.19
667.827	71.19
668.03	65.19
668.232	70.19
668.435	92.19
668.638	84.19
668.841	76.19
669.043	79.19
669.246	85.19
669.449	96.19
669.651	92.19
669.854	85.19
670.057	75.19
670.259	72.19
670.462	75.19
670.665	82.19
670.867	80.19
671.07	77.19
671.272	85.19
671.475	84.19
671.677	96.19
671.88	78.19
672.082	73.19
672.284	95.19
672.487	84.19
672.689	84.19
672.892	75.19
