Data from Circ_2000_H10_HRD10591_00025.txt Node
Date: Wed Jan 03 10:49:38 EST 2024
User: Yrep
Spectrometer: HR+D1059
Trigger mode: 1
Integration Time (sec): 1.000000E-1
Scans to average: 1
Electric dark correction enabled: true
Nonlinearity correction enabled: false
Boxcar width: 0
XAxis mode: Wavelengths
Number of Pixels in Spectrum: 2048
>>>>>Begin Spectral Data<<<<<
223.165	-14.69
223.4	-14.69
223.635	-14.69
223.869	-21.69
224.104	-9.69
224.338	-22.69
224.573	-11.69
224.808	-19.69
225.042	-10.69
225.277	-3.69
225.511	9.31
225.746	8.31
225.98	6.31
226.215	-10.69
226.449	5.31
226.683	28.31
226.918	26.31
227.152	41.31
227.387	27.31
227.621	36.31
227.856	49.31
228.09	53.31
228.324	44.31
228.559	47.31
228.793	58.31
229.027	60.31
229.262	81.31
229.496	64.31
229.73	85.31
229.964	90.31
230.199	73.31
230.433	69.31
230.667	81.31
230.901	80.31
231.136	76.31
231.37	80.31
231.604	78.31
231.838	77.31
232.072	76.31
232.306	87.31
232.541	94.31
232.775	81.31
233.009	86.31
233.243	87.31
233.477	87.31
233.711	74.31
233.945	75.31
234.179	73.31
234.413	89.31
234.647	60.31
234.881	76.31
235.115	87.31
235.349	78.31
235.583	79.31
235.817	86.31
236.051	95.31
236.285	81.31
236.519	76.31
236.753	66.31
236.987	76.31
237.221	87.31
237.455	85.31
237.689	69.31
237.922	78.31
238.156	76.31
238.39	86.31
238.624	77.31
238.858	77.31
239.091	84.31
239.325	60.31
239.559	79.31
239.793	86.31
240.027	78.31
240.26	79.31
240.494	78.31
240.728	70.31
240.961	80.31
241.195	72.31
241.429	72.31
241.662	76.31
241.896	80.31
242.13	91.31
242.363	73.31
242.597	63.31
242.83	84.31
243.064	74.31
243.298	75.31
243.531	75.31
243.765	69.31
243.998	71.31
244.232	81.31
244.465	71.31
244.699	72.31
244.932	74.31
245.166	81.31
245.399	62.31
245.633	76.31
245.866	80.31
246.099	76.31
246.333	85.31
246.566	93.31
246.8	84.31
247.033	72.31
247.266	86.31
247.5	91.31
247.733	72.31
247.966	84.31
248.2	77.31
248.433	74.31
248.666	77.31
248.899	73.31
249.133	94.31
249.366	99.31
249.599	91.31
249.832	80.31
250.066	74.31
250.299	77.31
250.532	69.31
250.765	78.31
250.998	71.31
251.231	71.31
251.465	80.31
251.698	79.31
251.931	72.31
252.164	79.31
252.397	71.31
252.63	84.31
252.863	70.31
253.096	71.31
253.329	77.31
253.562	67.31
253.795	80.31
254.028	75.31
254.261	101.31
254.494	84.31
254.727	77.31
254.96	78.31
255.193	75.31
255.426	80.31
255.659	89.31
255.892	85.31
256.124	83.31
256.357	68.31
256.59	82.31
256.823	75.31
257.056	84.31
257.289	80.31
257.521	81.31
257.754	87.31
257.987	84.31
258.22	87.31
258.452	77.31
258.685	79.31
258.918	87.31
259.151	74.31
259.383	82.31
259.616	83.31
259.849	77.31
260.081	96.31
260.314	74.31
260.547	81.31
260.779	83.31
261.012	80.31
261.244	99.31
261.477	106.31
261.71	98.31
261.942	107.31
262.175	131.31
262.407	95.31
262.64	77.31
262.872	75.31
263.105	86.31
263.337	82.31
263.57	81.31
263.802	83.31
264.035	89.31
264.267	72.31
264.499	82.31
264.732	79.31
264.964	73.31
265.197	81.31
265.429	76.31
265.661	88.31
265.894	78.31
266.126	63.31
266.358	87.31
266.591	84.31
266.823	87.31
267.055	101.31
267.287	85.31
267.52	86.31
267.752	83.31
267.984	89.31
268.216	86.31
268.448	82.31
268.681	84.31
268.913	89.31
269.145	81.31
269.377	84.31
269.609	88.31
269.841	95.31
270.073	98.31
270.306	85.31
270.538	75.31
270.77	93.31
271.002	76.31
271.234	98.31
271.466	89.31
271.698	82.31
271.93	86.31
272.162	78.31
272.394	85.31
272.626	91.31
272.858	92.31
273.09	67.31
273.322	76.31
273.553	65.31
273.785	76.31
274.017	83.31
274.249	70.31
274.481	84.31
274.713	79.31
274.945	82.31
275.176	78.31
275.408	77.31
275.64	98.31
275.872	116.31
276.104	93.31
276.335	81.31
276.567	108.31
276.799	112.31
277.031	127.31
277.262	124.31
277.494	89.31
277.726	88.31
277.957	81.31
278.189	92.31
278.421	86.31
278.652	84.31
278.884	95.31
279.115	79.31
279.347	92.31
279.579	72.31
279.81	95.31
280.042	97.31
280.273	147.31
280.505	127.31
280.736	93.31
280.968	82.31
281.199	87.31
281.431	76.31
281.662	83.31
281.894	79.31
282.125	101.31
282.356	111.31
282.588	133.31
282.819	129.31
283.051	93.31
283.282	81.31
283.513	77.31
283.745	83.31
283.976	82.31
284.207	84.31
284.439	81.31
284.67	87.31
284.901	89.31
285.132	88.31
285.364	76.31
285.595	81.31
285.826	83.31
286.057	86.31
286.288	80.31
286.52	77.31
286.751	82.31
286.982	80.31
287.213	67.31
287.444	77.31
287.675	87.31
287.906	83.31
288.138	76.31
288.369	87.31
288.6	89.31
288.831	101.31
289.062	89.31
289.293	87.31
289.524	91.31
289.755	79.31
289.986	101.31
290.217	83.31
290.448	90.31
290.679	70.31
290.91	97.31
291.141	84.31
291.371	83.31
291.602	88.31
291.833	84.31
292.064	77.31
292.295	86.31
292.526	89.31
292.757	95.31
292.987	79.31
293.218	69.31
293.449	79.31
293.68	87.31
293.91	86.31
294.141	77.31
294.372	86.31
294.603	83.31
294.833	83.31
295.064	74.31
295.295	91.31
295.525	89.31
295.756	100.31
295.987	107.31
296.217	136.31
296.448	138.31
296.679	94.31
296.909	103.31
297.14	104.31
297.37	80.31
297.601	89.31
297.831	82.31
298.062	103.31
298.292	102.31
298.523	85.31
298.753	77.31
298.984	94.31
299.214	88.31
299.445	98.31
299.675	98.31
299.905	90.31
300.136	104.31
300.366	95.31
300.597	85.31
300.827	105.31
301.057	92.31
301.288	101.31
301.518	97.31
301.748	93.31
301.979	86.31
302.209	88.31
302.439	104.31
302.669	89.31
302.9	88.31
303.13	93.31
303.36	104.31
303.59	102.31
303.82	106.31
304.051	94.31
304.281	91.31
304.511	89.31
304.741	83.31
304.971	83.31
305.201	97.31
305.431	81.31
305.661	85.31
305.891	100.31
306.121	93.31
306.352	94.31
306.582	111.31
306.812	88.31
307.042	104.31
307.272	113.31
307.502	119.31
307.731	115.31
307.961	107.31
308.191	86.31
308.421	106.31
308.651	91.31
308.881	89.31
309.111	105.31
309.341	107.31
309.571	96.31
309.8	100.31
310.03	107.31
310.26	103.31
310.49	89.31
310.72	90.31
310.949	103.31
311.179	98.31
311.409	91.31
311.639	95.31
311.868	89.31
312.098	95.31
312.328	109.31
312.557	96.31
312.787	102.31
313.017	98.31
313.246	95.31
313.476	98.31
313.706	91.31
313.935	84.31
314.165	92.31
314.394	97.31
314.624	101.31
314.853	102.31
315.083	98.31
315.312	80.31
315.542	97.31
315.771	95.31
316.001	87.31
316.23	82.31
316.46	96.31
316.689	91.31
316.919	97.31
317.148	91.31
317.377	81.31
317.607	91.31
317.836	90.31
318.065	95.31
318.295	88.31
318.524	93.31
318.753	104.31
318.983	104.31
319.212	89.31
319.441	101.31
319.67	92.31
319.9	88.31
320.129	98.31
320.358	92.31
320.587	103.31
320.816	97.31
321.046	93.31
321.275	84.31
321.504	92.31
321.733	100.31
321.962	78.31
322.191	98.31
322.42	106.31
322.649	116.31
322.878	119.31
323.108	111.31
323.337	137.31
323.566	155.31
323.795	163.31
324.024	213.31
324.253	431.31
324.482	921.31
324.71	1889.31
324.939	2515.31
325.168	883.31
325.397	269.31
325.626	170.31
325.855	151.31
326.084	156.31
326.313	131.31
326.542	165.31
326.77	258.31
326.999	517.31
327.228	1104.31
327.457	1926.31
327.686	1515.31
327.914	450.31
328.143	308.31
328.372	305.31
328.6	213.31
328.829	148.31
329.058	147.31
329.287	158.31
329.515	143.31
329.744	159.31
329.972	237.31
330.201	449.31
330.43	594.31
330.658	335.31
330.887	214.31
331.115	151.31
331.344	112.31
331.572	107.31
331.801	119.31
332.03	107.31
332.258	108.31
332.486	107.31
332.715	107.31
332.943	118.31
333.172	103.31
333.4	106.31
333.629	122.31
333.857	151.31
334.085	233.31
334.314	413.31
334.542	765.31
334.771	688.31
334.999	233.31
335.227	132.31
335.455	105.31
335.684	105.31
335.912	93.31
336.14	109.31
336.369	119.31
336.597	88.31
336.825	97.31
337.053	98.31
337.281	90.31
337.51	105.31
337.738	99.31
337.966	102.31
338.194	101.31
338.422	90.31
338.65	83.31
338.878	87.31
339.106	95.31
339.334	89.31
339.562	91.31
339.79	85.31
340.018	97.31
340.246	91.31
340.474	77.31
340.702	90.31
340.93	91.31
341.158	91.31
341.386	100.31
341.614	99.31
341.842	89.31
342.07	98.31
342.298	89.31
342.526	95.31
342.754	85.31
342.981	101.31
343.209	78.31
343.437	101.31
343.665	80.31
343.893	88.31
344.12	85.31
344.348	80.31
344.576	92.31
344.804	96.31
345.031	97.31
345.259	93.31
345.487	102.31
345.714	108.31
345.942	91.31
346.17	99.31
346.397	103.31
346.625	86.31
346.853	81.31
347.08	91.31
347.308	92.31
347.535	94.31
347.763	93.31
347.99	91.31
348.218	95.31
348.445	116.31
348.673	106.31
348.9	91.31
349.128	104.31
349.355	100.31
349.583	96.31
349.81	85.31
350.037	75.31
350.265	91.31
350.492	84.31
350.72	85.31
350.947	108.31
351.174	102.31
351.402	104.31
351.629	95.31
351.856	100.31
352.083	109.31
352.311	93.31
352.538	108.31
352.765	109.31
352.992	116.31
353.22	108.31
353.447	106.31
353.674	106.31
353.901	104.31
354.128	101.31
354.355	94.31
354.583	91.31
354.81	104.31
355.037	88.31
355.264	100.31
355.491	109.31
355.718	92.31
355.945	92.31
356.172	91.31
356.399	112.31
356.626	90.31
356.853	94.31
357.08	77.31
357.307	94.31
357.534	73.31
357.761	86.31
357.988	98.31
358.215	115.31
358.441	101.31
358.668	102.31
358.895	90.31
359.122	101.31
359.349	98.31
359.576	115.31
359.802	111.31
360.029	107.31
360.256	109.31
360.483	104.31
360.709	87.31
360.936	96.31
361.163	94.31
361.39	94.31
361.616	103.31
361.843	93.31
362.07	112.31
362.296	104.31
362.523	103.31
362.749	84.31
362.976	97.31
363.203	91.31
363.429	91.31
363.656	103.31
363.882	91.31
364.109	84.31
364.335	92.31
364.562	97.31
364.788	91.31
365.015	112.31
365.241	97.31
365.468	110.31
365.694	114.31
365.92	92.31
366.147	91.31
366.373	111.31
366.599	88.31
366.826	75.31
367.052	97.31
367.278	100.31
367.505	102.31
367.731	84.31
367.957	94.31
368.184	91.31
368.41	104.31
368.636	116.31
368.862	131.31
369.089	114.31
369.315	97.31
369.541	97.31
369.767	94.31
369.993	99.31
370.219	107.31
370.445	95.31
370.672	82.31
370.898	86.31
371.124	77.31
371.35	85.31
371.576	84.31
371.802	83.31
372.028	93.31
372.254	96.31
372.48	83.31
372.706	79.31
372.932	89.31
373.158	84.31
373.384	96.31
373.61	89.31
373.835	87.31
374.061	86.31
374.287	101.31
374.513	77.31
374.739	94.31
374.965	85.31
375.191	81.31
375.416	92.31
375.642	109.31
375.868	101.31
376.094	106.31
376.319	87.31
376.545	97.31
376.771	91.31
376.997	86.31
377.222	92.31
377.448	91.31
377.674	87.31
377.899	99.31
378.125	97.31
378.35	99.31
378.576	94.31
378.802	87.31
379.027	84.31
379.253	84.31
379.478	107.31
379.704	103.31
379.929	93.31
380.155	105.31
380.38	83.31
380.606	69.31
380.831	96.31
381.057	93.31
381.282	95.31
381.507	87.31
381.733	97.31
381.958	93.31
382.184	110.31
382.409	94.31
382.634	105.31
382.86	97.31
383.085	109.31
383.31	108.31
383.535	100.31
383.761	116.31
383.986	104.31
384.211	97.31
384.436	103.31
384.662	113.31
384.887	116.31
385.112	97.31
385.337	98.31
385.562	114.31
385.787	106.31
386.013	112.31
386.238	131.31
386.463	117.31
386.688	101.31
386.913	100.31
387.138	112.31
387.363	96.31
387.588	85.31
387.813	115.31
388.038	129.31
388.263	116.31
388.488	105.31
388.713	99.31
388.938	89.31
389.163	111.31
389.387	86.31
389.612	93.31
389.837	91.31
390.062	83.31
390.287	90.31
390.512	95.31
390.736	90.31
390.961	93.31
391.186	91.31
391.411	92.31
391.636	86.31
391.86	92.31
392.085	90.31
392.31	96.31
392.534	86.31
392.759	95.31
392.984	78.31
393.208	100.31
393.433	102.31
393.658	90.31
393.882	98.31
394.107	87.31
394.331	92.31
394.556	72.31
394.78	91.31
395.005	81.31
395.229	88.31
395.454	83.31
395.678	82.31
395.903	79.31
396.127	84.31
396.352	89.31
396.576	83.31
396.801	106.31
397.025	81.31
397.249	81.31
397.474	95.31
397.698	77.31
397.922	94.31
398.147	85.31
398.371	83.31
398.595	89.31
398.82	88.31
399.044	77.31
399.268	88.31
399.492	93.31
399.717	103.31
399.941	92.31
400.165	105.31
400.389	93.31
400.613	87.31
400.837	90.31
401.062	104.31
401.286	93.31
401.51	79.31
401.734	93.31
401.958	104.31
402.182	127.31
402.406	175.31
402.63	120.31
402.854	93.31
403.078	91.31
403.302	82.31
403.526	85.31
403.75	87.31
403.974	82.31
404.198	83.31
404.422	93.31
404.645	85.31
404.869	91.31
405.093	106.31
405.317	115.31
405.541	143.31
405.765	89.31
405.988	111.31
406.212	181.31
406.436	246.31
406.66	157.31
406.883	95.31
407.107	102.31
407.331	105.31
407.555	109.31
407.778	97.31
408.002	91.31
408.226	80.31
408.449	85.31
408.673	96.31
408.896	89.31
409.12	111.31
409.344	84.31
409.567	91.31
409.791	87.31
410.014	87.31
410.238	92.31
410.461	99.31
410.685	80.31
410.908	93.31
411.132	112.31
411.355	112.31
411.578	92.31
411.802	100.31
412.025	93.31
412.249	97.31
412.472	101.31
412.695	118.31
412.919	112.31
413.142	102.31
413.365	82.31
413.589	87.31
413.812	85.31
414.035	84.31
414.258	87.31
414.482	97.31
414.705	83.31
414.928	81.31
415.151	96.31
415.374	88.31
415.597	93.31
415.821	85.31
416.044	95.31
416.267	79.31
416.49	91.31
416.713	82.31
416.936	76.31
417.159	83.31
417.382	92.31
417.605	73.31
417.828	105.31
418.051	96.31
418.274	87.31
418.497	96.31
418.72	91.31
418.943	77.31
419.166	89.31
419.389	86.31
419.611	93.31
419.834	92.31
420.057	91.31
420.28	99.31
420.503	96.31
420.726	91.31
420.948	95.31
421.171	108.31
421.394	102.31
421.617	97.31
421.839	85.31
422.062	80.31
422.285	104.31
422.507	95.31
422.73	109.31
422.953	103.31
423.175	79.31
423.398	91.31
423.621	87.31
423.843	82.31
424.066	83.31
424.288	91.31
424.511	108.31
424.733	100.31
424.956	121.31
425.178	106.31
425.401	108.31
425.623	100.31
425.846	92.31
426.068	88.31
426.291	83.31
426.513	82.31
426.735	87.31
426.958	92.31
427.18	113.31
427.402	156.31
427.625	220.31
427.847	177.31
428.069	165.31
428.292	109.31
428.514	82.31
428.736	92.31
428.958	83.31
429.181	87.31
429.403	96.31
429.625	96.31
429.847	107.31
430.069	109.31
430.292	100.31
430.514	83.31
430.736	80.31
430.958	90.31
431.18	72.31
431.402	79.31
431.624	94.31
431.846	89.31
432.068	73.31
432.29	104.31
432.512	84.31
432.734	97.31
432.956	93.31
433.178	103.31
433.4	106.31
433.622	86.31
433.844	81.31
434.066	84.31
434.287	96.31
434.509	87.31
434.731	85.31
434.953	92.31
435.175	90.31
435.397	86.31
435.618	89.31
435.84	112.31
436.062	135.31
436.284	129.31
436.505	104.31
436.727	117.31
436.949	112.31
437.17	79.31
437.392	88.31
437.614	93.31
437.835	127.31
438.057	127.31
438.278	123.31
438.5	121.31
438.721	138.31
438.943	119.31
439.165	89.31
439.386	103.31
439.608	103.31
439.829	105.31
440.05	151.31
440.272	170.31
440.493	105.31
440.715	76.31
440.936	87.31
441.158	93.31
441.379	91.31
441.6	88.31
441.822	111.31
442.043	108.31
442.264	123.31
442.486	108.31
442.707	112.31
442.928	118.31
443.149	152.31
443.371	153.31
443.592	111.31
443.813	107.31
444.034	116.31
444.255	74.31
444.476	87.31
444.698	62.31
444.919	80.31
445.14	127.31
445.361	132.31
445.582	131.31
445.803	164.31
446.024	160.31
446.245	156.31
446.466	114.31
446.687	97.31
446.908	94.31
447.129	90.31
447.35	91.31
447.571	93.31
447.792	82.31
448.013	112.31
448.234	103.31
448.455	105.31
448.675	127.31
448.896	138.31
449.117	105.31
449.338	111.31
449.559	147.31
449.779	167.31
450	100.31
450.221	90.31
450.442	99.31
450.662	85.31
450.883	107.31
451.104	137.31
451.324	90.31
451.545	94.31
451.766	73.31
451.986	85.31
452.207	96.31
452.428	105.31
452.648	99.31
452.869	101.31
453.089	119.31
453.31	116.31
453.53	89.31
453.751	81.31
453.971	117.31
454.192	115.31
454.412	107.31
454.633	78.31
454.853	63.31
455.073	89.31
455.294	88.31
455.514	105.31
455.734	101.31
455.955	85.31
456.175	76.31
456.395	91.31
456.616	74.31
456.836	80.31
457.056	85.31
457.276	80.31
457.497	86.31
457.717	101.31
457.937	95.31
458.157	71.31
458.377	86.31
458.598	116.31
458.818	180.31
459.038	217.31
459.258	143.31
459.478	90.31
459.698	74.31
459.918	92.31
460.138	81.31
460.358	86.31
460.578	85.31
460.798	101.31
461.018	88.31
461.238	90.31
461.458	87.31
461.678	80.31
461.898	94.31
462.118	70.31
462.338	84.31
462.558	73.31
462.777	85.31
462.997	75.31
463.217	92.31
463.437	93.31
463.657	76.31
463.876	88.31
464.096	83.31
464.316	96.31
464.536	89.31
464.755	95.31
464.975	116.31
465.195	197.31
465.414	190.31
465.634	85.31
465.854	98.31
466.073	80.31
466.293	73.31
466.512	90.31
466.732	74.31
466.951	78.31
467.171	91.31
467.391	88.31
467.61	111.31
467.829	130.31
468.049	241.31
468.268	319.31
468.488	143.31
468.707	104.31
468.927	84.31
469.146	74.31
469.365	94.31
469.585	90.31
469.804	100.31
470.023	107.31
470.243	105.31
470.462	102.31
470.681	113.31
470.901	91.31
471.12	93.31
471.339	76.31
471.558	93.31
471.777	115.31
471.997	155.31
472.216	457.31
472.435	917.31
472.654	265.31
472.873	113.31
473.092	79.31
473.311	98.31
473.53	90.31
473.749	88.31
473.968	96.31
474.187	104.31
474.406	112.31
474.625	86.31
474.844	76.31
475.063	67.31
475.282	83.31
475.501	90.31
475.72	96.31
475.939	89.31
476.158	89.31
476.377	85.31
476.596	88.31
476.814	83.31
477.033	100.31
477.252	78.31
477.471	90.31
477.69	95.31
477.908	104.31
478.127	76.31
478.346	86.31
478.564	109.31
478.783	106.31
479.002	116.31
479.22	97.31
479.439	97.31
479.658	108.31
479.876	105.31
480.095	100.31
480.313	95.31
480.532	121.31
480.751	161.31
480.969	419.31
481.188	1575.31
481.406	938.31
481.624	183.31
481.843	100.31
482.061	100.31
482.28	93.31
482.498	93.31
482.717	90.31
482.935	71.31
483.153	77.31
483.372	99.31
483.59	84.31
483.808	92.31
484.027	93.31
484.245	82.31
484.463	92.31
484.681	91.31
484.9	82.31
485.118	91.31
485.336	83.31
485.554	89.31
485.772	105.31
485.99	108.31
486.209	98.31
486.427	105.31
486.645	123.31
486.863	114.31
487.081	89.31
487.299	114.31
487.517	87.31
487.735	103.31
487.953	104.31
488.171	88.31
488.389	92.31
488.607	108.31
488.825	68.31
489.043	99.31
489.261	87.31
489.479	79.31
489.696	83.31
489.914	96.31
490.132	90.31
490.35	80.31
490.568	89.31
490.786	89.31
491.003	97.31
491.221	96.31
491.439	95.31
491.657	93.31
491.874	93.31
492.092	83.31
492.31	91.31
492.527	91.31
492.745	109.31
492.963	93.31
493.18	96.31
493.398	100.31
493.615	84.31
493.833	91.31
494.05	105.31
494.268	82.31
494.485	90.31
494.703	84.31
494.92	100.31
495.138	89.31
495.355	104.31
495.573	104.31
495.79	88.31
496.008	84.31
496.225	90.31
496.442	91.31
496.66	97.31
496.877	95.31
497.094	84.31
497.312	79.31
497.529	92.31
497.746	77.31
497.963	81.31
498.181	91.31
498.398	98.31
498.615	105.31
498.832	105.31
499.049	97.31
499.267	101.31
499.484	93.31
499.701	91.31
499.918	101.31
500.135	81.31
500.352	86.31
500.569	94.31
500.786	97.31
501.003	85.31
501.22	81.31
501.437	96.31
501.654	104.31
501.871	117.31
502.088	93.31
502.305	91.31
502.522	91.31
502.739	91.31
502.956	90.31
503.172	96.31
503.389	95.31
503.606	103.31
503.823	108.31
504.04	95.31
504.256	87.31
504.473	85.31
504.69	91.31
504.907	89.31
505.123	92.31
505.34	82.31
505.557	89.31
505.773	86.31
505.99	87.31
506.207	85.31
506.423	85.31
506.64	83.31
506.856	93.31
507.073	84.31
507.289	81.31
507.506	75.31
507.722	121.31
507.939	129.31
508.155	102.31
508.372	97.31
508.588	102.31
508.805	91.31
509.021	99.31
509.238	95.31
509.454	98.31
509.67	108.31
509.887	123.31
510.103	118.31
510.319	204.31
510.536	769.31
510.752	2565.31
510.968	713.31
511.184	161.31
511.401	115.31
511.617	104.31
511.833	99.31
512.049	98.31
512.265	102.31
512.481	87.31
512.698	81.31
512.914	83.31
513.13	96.31
513.346	82.31
513.562	112.31
513.778	84.31
513.994	89.31
514.21	102.31
514.426	121.31
514.642	145.31
514.858	131.31
515.074	186.31
515.29	533.31
515.506	1835.31
515.721	677.31
515.937	191.31
516.153	115.31
516.369	109.31
516.585	98.31
516.801	99.31
517.016	85.31
517.232	89.31
517.448	82.31
517.664	95.31
517.879	89.31
518.095	98.31
518.311	96.31
518.527	101.31
518.742	82.31
518.958	103.31
519.173	95.31
519.389	84.31
519.605	91.31
519.82	94.31
520.036	106.31
520.251	120.31
520.467	108.31
520.682	99.31
520.898	111.31
521.113	105.31
521.329	155.31
521.544	251.31
521.76	710.31
521.975	3007.31
522.19	1811.31
522.406	367.31
522.621	146.31
522.836	110.31
523.052	105.31
523.267	100.31
523.482	108.31
523.698	108.31
523.913	130.31
524.128	109.31
524.343	99.31
524.559	91.31
524.774	111.31
524.989	101.31
525.204	108.31
525.419	95.31
525.634	97.31
525.849	100.31
526.064	104.31
526.28	88.31
526.495	90.31
526.71	88.31
526.925	92.31
527.14	88.31
527.355	94.31
527.57	88.31
527.785	89.31
527.999	78.31
528.214	89.31
528.429	97.31
528.644	81.31
528.859	101.31
529.074	102.31
529.289	144.31
529.503	218.31
529.718	106.31
529.933	85.31
530.148	78.31
530.363	90.31
530.577	92.31
530.792	81.31
531.007	79.31
531.221	98.31
531.436	89.31
531.651	91.31
531.865	90.31
532.08	79.31
532.295	91.31
532.509	96.31
532.724	97.31
532.938	102.31
533.153	96.31
533.367	86.31
533.582	87.31
533.796	82.31
534.011	83.31
534.225	100.31
534.44	79.31
534.654	111.31
534.868	92.31
535.083	87.31
535.297	87.31
535.511	104.31
535.726	114.31
535.94	105.31
536.154	93.31
536.369	104.31
536.583	82.31
536.797	91.31
537.011	91.31
537.225	89.31
537.44	87.31
537.654	88.31
537.868	81.31
538.082	90.31
538.296	92.31
538.51	93.31
538.724	85.31
538.938	85.31
539.153	111.31
539.367	109.31
539.581	90.31
539.795	83.31
540.009	103.31
540.222	93.31
540.436	88.31
540.65	93.31
540.864	98.31
541.078	76.31
541.292	89.31
541.506	79.31
541.72	88.31
541.934	93.31
542.147	73.31
542.361	97.31
542.575	93.31
542.789	87.31
543.002	72.31
543.216	87.31
543.43	92.31
543.644	99.31
543.857	89.31
544.071	95.31
544.285	77.31
544.498	77.31
544.712	94.31
544.925	91.31
545.139	79.31
545.352	96.31
545.566	99.31
545.779	92.31
545.993	94.31
546.206	92.31
546.42	92.31
546.633	95.31
546.847	85.31
547.06	80.31
547.274	93.31
547.487	92.31
547.7	87.31
547.914	82.31
548.127	76.31
548.34	81.31
548.554	85.31
548.767	88.31
548.98	71.31
549.193	74.31
549.407	85.31
549.62	85.31
549.833	85.31
550.046	102.31
550.259	85.31
550.473	77.31
550.686	92.31
550.899	80.31
551.112	88.31
551.325	91.31
551.538	99.31
551.751	82.31
551.964	84.31
552.177	89.31
552.39	85.31
552.603	81.31
552.816	93.31
553.029	93.31
553.242	91.31
553.455	108.31
553.667	107.31
553.88	92.31
554.093	81.31
554.306	96.31
554.519	108.31
554.732	97.31
554.944	96.31
555.157	74.31
555.37	81.31
555.583	99.31
555.795	95.31
556.008	103.31
556.221	69.31
556.433	86.31
556.646	102.31
556.859	82.31
557.071	97.31
557.284	67.31
557.496	86.31
557.709	95.31
557.921	95.31
558.134	90.31
558.346	89.31
558.559	77.31
558.771	95.31
558.984	101.31
559.196	86.31
559.409	98.31
559.621	105.31
559.833	82.31
560.046	91.31
560.258	98.31
560.47	106.31
560.683	104.31
560.895	86.31
561.107	80.31
561.32	88.31
561.532	92.31
561.744	84.31
561.956	85.31
562.168	99.31
562.381	96.31
562.593	93.31
562.805	99.31
563.017	92.31
563.229	103.31
563.441	95.31
563.653	95.31
563.865	87.31
564.077	83.31
564.289	101.31
564.501	89.31
564.713	85.31
564.925	103.31
565.137	77.31
565.349	88.31
565.561	89.31
565.773	98.31
565.985	71.31
566.197	92.31
566.408	84.31
566.62	87.31
566.832	95.31
567.044	81.31
567.255	86.31
567.467	97.31
567.679	92.31
567.891	99.31
568.102	86.31
568.314	94.31
568.526	87.31
568.737	86.31
568.949	74.31
569.161	90.31
569.372	87.31
569.584	86.31
569.795	83.31
570.007	118.31
570.218	237.31
570.43	137.31
570.641	96.31
570.853	90.31
571.064	89.31
571.276	80.31
571.487	82.31
571.698	89.31
571.91	84.31
572.121	86.31
572.333	89.31
572.544	98.31
572.755	84.31
572.966	81.31
573.178	95.31
573.389	69.31
573.6	80.31
573.811	83.31
574.023	74.31
574.234	83.31
574.445	78.31
574.656	75.31
574.867	81.31
575.078	88.31
575.289	96.31
575.501	98.31
575.712	99.31
575.923	100.31
576.134	93.31
576.345	90.31
576.556	82.31
576.767	82.31
576.978	100.31
577.188	85.31
577.399	98.31
577.61	86.31
577.821	100.31
578.032	104.31
578.243	274.31
578.454	790.31
578.665	213.31
578.875	99.31
579.086	95.31
579.297	79.31
579.508	93.31
579.718	85.31
579.929	87.31
580.14	85.31
580.35	85.31
580.561	76.31
580.772	92.31
580.982	82.31
581.193	83.31
581.403	84.31
581.614	87.31
581.825	74.31
582.035	89.31
582.246	90.31
582.456	77.31
582.667	77.31
582.877	80.31
583.087	75.31
583.298	97.31
583.508	84.31
583.719	79.31
583.929	87.31
584.139	90.31
584.35	80.31
584.56	85.31
584.77	79.31
584.981	81.31
585.191	98.31
585.401	91.31
585.611	83.31
585.821	81.31
586.032	82.31
586.242	84.31
586.452	100.31
586.662	79.31
586.872	82.31
587.082	79.31
587.292	80.31
587.502	80.31
587.713	87.31
587.923	92.31
588.133	98.31
588.343	83.31
588.553	82.31
588.762	93.31
588.972	105.31
589.182	153.31
589.392	102.31
589.602	91.31
589.812	122.31
590.022	98.31
590.232	85.31
590.441	88.31
590.651	76.31
590.861	96.31
591.071	99.31
591.281	101.31
591.49	88.31
591.7	102.31
591.91	89.31
592.119	80.31
592.329	80.31
592.539	100.31
592.748	90.31
592.958	84.31
593.167	87.31
593.377	87.31
593.587	92.31
593.796	97.31
594.006	80.31
594.215	80.31
594.424	91.31
594.634	77.31
594.843	92.31
595.053	85.31
595.262	92.31
595.472	83.31
595.681	81.31
595.89	85.31
596.1	75.31
596.309	82.31
596.518	74.31
596.727	80.31
596.937	82.31
597.146	81.31
597.355	90.31
597.564	93.31
597.774	82.31
597.983	88.31
598.192	67.31
598.401	70.31
598.61	76.31
598.819	85.31
599.028	71.31
599.237	84.31
599.446	79.31
599.655	77.31
599.864	75.31
600.073	76.31
600.282	74.31
600.491	93.31
600.7	101.31
600.909	83.31
601.118	86.31
601.327	67.31
601.536	95.31
601.745	81.31
601.953	86.31
602.162	92.31
602.371	88.31
602.58	98.31
602.789	87.31
602.997	72.31
603.206	86.31
603.415	85.31
603.623	90.31
603.832	86.31
604.041	81.31
604.249	80.31
604.458	82.31
604.666	82.31
604.875	85.31
605.084	68.31
605.292	91.31
605.501	75.31
605.709	99.31
605.918	91.31
606.126	75.31
606.334	73.31
606.543	83.31
606.751	86.31
606.96	88.31
607.168	91.31
607.376	73.31
607.585	88.31
607.793	82.31
608.001	87.31
608.21	79.31
608.418	79.31
608.626	69.31
608.834	76.31
609.043	82.31
609.251	86.31
609.459	90.31
609.667	78.31
609.875	80.31
610.083	89.31
610.291	91.31
610.499	96.31
610.707	81.31
610.916	107.31
611.124	77.31
611.332	59.31
611.54	77.31
611.748	91.31
611.955	79.31
612.163	90.31
612.371	101.31
612.579	90.31
612.787	77.31
612.995	77.31
613.203	96.31
613.411	100.31
613.618	97.31
613.826	80.31
614.034	81.31
614.242	83.31
614.449	72.31
614.657	83.31
614.865	77.31
615.072	82.31
615.28	100.31
615.488	84.31
615.695	77.31
615.903	93.31
616.111	97.31
616.318	106.31
616.526	99.31
616.733	88.31
616.941	97.31
617.148	95.31
617.356	81.31
617.563	80.31
617.771	81.31
617.978	86.31
618.185	89.31
618.393	87.31
618.6	77.31
618.807	74.31
619.015	81.31
619.222	79.31
619.429	76.31
619.637	107.31
619.844	79.31
620.051	80.31
620.258	80.31
620.466	90.31
620.673	93.31
620.88	89.31
621.087	84.31
621.294	81.31
621.501	66.31
621.708	81.31
621.915	87.31
622.122	95.31
622.329	90.31
622.536	88.31
622.743	83.31
622.95	85.31
623.157	83.31
623.364	91.31
623.571	84.31
623.778	82.31
623.985	93.31
624.192	72.31
624.399	79.31
624.606	87.31
624.812	86.31
625.019	84.31
625.226	82.31
625.433	94.31
625.639	76.31
625.846	88.31
626.053	91.31
626.259	87.31
626.466	81.31
626.673	97.31
626.879	91.31
627.086	94.31
627.293	102.31
627.499	90.31
627.706	88.31
627.912	82.31
628.119	72.31
628.325	93.31
628.532	104.31
628.738	76.31
628.945	55.31
629.151	72.31
629.357	75.31
629.564	75.31
629.77	73.31
629.976	89.31
630.183	91.31
630.389	82.31
630.595	74.31
630.802	76.31
631.008	82.31
631.214	80.31
631.42	87.31
631.627	80.31
631.833	84.31
632.039	84.31
632.245	85.31
632.451	88.31
632.657	76.31
632.863	89.31
633.069	72.31
633.275	86.31
633.481	82.31
633.688	80.31
633.893	84.31
634.099	92.31
634.305	75.31
634.511	74.31
634.717	78.31
634.923	74.31
635.129	87.31
635.335	87.31
635.541	80.31
635.747	68.31
635.952	99.31
636.158	108.31
636.364	181.31
636.57	157.31
636.775	92.31
636.981	83.31
637.187	79.31
637.392	83.31
637.598	88.31
637.804	79.31
638.009	77.31
638.215	86.31
638.421	80.31
638.626	83.31
638.832	86.31
639.037	88.31
639.243	87.31
639.448	89.31
639.654	86.31
639.859	83.31
640.065	81.31
640.27	92.31
640.475	88.31
640.681	83.31
640.886	81.31
641.091	84.31
641.297	97.31
641.502	69.31
641.707	77.31
641.913	75.31
642.118	93.31
642.323	75.31
642.528	92.31
642.733	89.31
642.939	87.31
643.144	83.31
643.349	75.31
643.554	83.31
643.759	88.31
643.964	85.31
644.169	87.31
644.374	87.31
644.579	90.31
644.784	92.31
644.989	75.31
645.194	77.31
645.399	85.31
645.604	78.31
645.809	89.31
646.014	88.31
646.219	92.31
646.423	76.31
646.628	87.31
646.833	88.31
647.038	67.31
647.243	84.31
647.447	92.31
647.652	87.31
647.857	75.31
648.062	76.31
648.266	83.31
648.471	80.31
648.676	81.31
648.88	94.31
649.085	87.31
649.289	87.31
649.494	106.31
649.698	127.31
649.903	93.31
650.107	83.31
650.312	77.31
650.516	78.31
650.721	95.31
650.925	85.31
651.13	78.31
651.334	101.31
651.539	79.31
651.743	71.31
651.947	75.31
652.152	84.31
652.356	79.31
652.56	84.31
652.764	61.31
652.969	86.31
653.173	91.31
653.377	86.31
653.581	90.31
653.785	83.31
653.99	80.31
654.194	73.31
654.398	75.31
654.602	91.31
654.806	89.31
655.01	96.31
655.214	88.31
655.418	79.31
655.622	79.31
655.826	72.31
656.03	90.31
656.234	87.31
656.438	88.31
656.642	98.31
656.846	98.31
657.049	96.31
657.253	78.31
657.457	89.31
657.661	73.31
657.865	89.31
658.068	83.31
658.272	70.31
658.476	81.31
658.68	85.31
658.883	87.31
659.087	83.31
659.291	90.31
659.494	75.31
659.698	79.31
659.901	77.31
660.105	82.31
660.309	80.31
660.512	83.31
660.716	85.31
660.919	92.31
661.123	91.31
661.326	73.31
661.53	85.31
661.733	77.31
661.936	92.31
662.14	75.31
662.343	85.31
662.546	77.31
662.75	75.31
662.953	80.31
663.156	65.31
663.36	77.31
663.563	98.31
663.766	91.31
663.969	73.31
664.173	70.31
664.376	70.31
664.579	79.31
664.782	85.31
664.985	71.31
665.188	80.31
665.391	75.31
665.594	88.31
665.797	75.31
666	73.31
666.203	66.31
666.406	68.31
666.609	76.31
666.812	86.31
667.015	87.31
667.218	77.31
667.421	95.31
667.624	68.31
667.827	72.31
668.03	76.31
668.232	78.31
668.435	83.31
668.638	80.31
668.841	75.31
669.043	87.31
669.246	69.31
669.449	74.31
669.651	87.31
669.854	87.31
670.057	78.31
670.259	82.31
670.462	88.31
670.665	77.31
670.867	87.31
671.07	75.31
671.272	80.31
671.475	87.31
671.677	80.31
671.88	87.31
672.082	71.31
672.284	92.31
672.487	84.31
672.689	72.31
672.892	79.31
