Data from Circ_2000_H10_HRD10591_00076.txt Node
Date: Wed Jan 03 10:49:49 EST 2024
User: Yrep
Spectrometer: HR+D1059
Trigger mode: 1
Integration Time (sec): 1.000000E-1
Scans to average: 1
Electric dark correction enabled: true
Nonlinearity correction enabled: false
Boxcar width: 0
XAxis mode: Wavelengths
Number of Pixels in Spectrum: 2048
>>>>>Begin Spectral Data<<<<<
223.165	-4.94
223.4	-4.94
223.635	-4.94
223.869	-18.94
224.104	-12.94
224.338	-12.94
224.573	-29.94
224.808	2.06
225.042	-9.94
225.277	3.06
225.511	1.06
225.746	-0.94
225.98	9.06
226.215	2.06
226.449	14.06
226.683	37.06
226.918	12.06
227.152	10.06
227.387	43.06
227.621	52.06
227.856	42.06
228.09	46.06
228.324	38.06
228.559	39.06
228.793	49.06
229.027	58.06
229.262	58.06
229.496	77.06
229.73	98.06
229.964	83.06
230.199	66.06
230.433	75.06
230.667	77.06
230.901	76.06
231.136	79.06
231.37	74.06
231.604	93.06
231.838	81.06
232.072	92.06
232.306	85.06
232.541	84.06
232.775	73.06
233.009	61.06
233.243	84.06
233.477	77.06
233.711	92.06
233.945	90.06
234.179	80.06
234.413	83.06
234.647	86.06
234.881	92.06
235.115	71.06
235.349	81.06
235.583	83.06
235.817	76.06
236.051	68.06
236.285	84.06
236.519	71.06
236.753	74.06
236.987	82.06
237.221	87.06
237.455	88.06
237.689	80.06
237.922	71.06
238.156	81.06
238.39	78.06
238.624	72.06
238.858	81.06
239.091	78.06
239.325	62.06
239.559	88.06
239.793	73.06
240.027	78.06
240.26	91.06
240.494	80.06
240.728	66.06
240.961	83.06
241.195	76.06
241.429	74.06
241.662	51.06
241.896	79.06
242.13	69.06
242.363	95.06
242.597	77.06
242.83	70.06
243.064	81.06
243.298	67.06
243.531	89.06
243.765	74.06
243.998	76.06
244.232	76.06
244.465	82.06
244.699	97.06
244.932	91.06
245.166	75.06
245.399	81.06
245.633	72.06
245.866	74.06
246.099	65.06
246.333	73.06
246.566	85.06
246.8	75.06
247.033	82.06
247.266	80.06
247.5	72.06
247.733	79.06
247.966	65.06
248.2	74.06
248.433	86.06
248.666	68.06
248.899	99.06
249.133	85.06
249.366	101.06
249.599	110.06
249.832	73.06
250.066	80.06
250.299	94.06
250.532	78.06
250.765	89.06
250.998	70.06
251.231	74.06
251.465	88.06
251.698	84.06
251.931	80.06
252.164	73.06
252.397	77.06
252.63	84.06
252.863	68.06
253.096	85.06
253.329	78.06
253.562	75.06
253.795	80.06
254.028	80.06
254.261	88.06
254.494	90.06
254.727	88.06
254.96	79.06
255.193	87.06
255.426	86.06
255.659	82.06
255.892	83.06
256.124	87.06
256.357	87.06
256.59	87.06
256.823	98.06
257.056	89.06
257.289	86.06
257.521	72.06
257.754	81.06
257.987	82.06
258.22	92.06
258.452	101.06
258.685	82.06
258.918	98.06
259.151	82.06
259.383	74.06
259.616	81.06
259.849	62.06
260.081	84.06
260.314	96.06
260.547	83.06
260.779	97.06
261.012	83.06
261.244	97.06
261.477	92.06
261.71	92.06
261.942	122.06
262.175	123.06
262.407	96.06
262.64	80.06
262.872	78.06
263.105	78.06
263.337	84.06
263.57	72.06
263.802	83.06
264.035	96.06
264.267	77.06
264.499	85.06
264.732	88.06
264.964	87.06
265.197	100.06
265.429	93.06
265.661	74.06
265.894	86.06
266.126	72.06
266.358	81.06
266.591	81.06
266.823	77.06
267.055	82.06
267.287	78.06
267.52	74.06
267.752	80.06
267.984	81.06
268.216	88.06
268.448	89.06
268.681	87.06
268.913	96.06
269.145	91.06
269.377	72.06
269.609	93.06
269.841	72.06
270.073	83.06
270.306	88.06
270.538	77.06
270.77	89.06
271.002	89.06
271.234	76.06
271.466	84.06
271.698	84.06
271.93	72.06
272.162	88.06
272.394	95.06
272.626	79.06
272.858	82.06
273.09	94.06
273.322	90.06
273.553	96.06
273.785	81.06
274.017	68.06
274.249	87.06
274.481	90.06
274.713	85.06
274.945	94.06
275.176	101.06
275.408	92.06
275.64	100.06
275.872	94.06
276.104	91.06
276.335	88.06
276.567	119.06
276.799	132.06
277.031	146.06
277.262	142.06
277.494	123.06
277.726	95.06
277.957	97.06
278.189	85.06
278.421	85.06
278.652	94.06
278.884	91.06
279.115	81.06
279.347	96.06
279.579	98.06
279.81	108.06
280.042	151.06
280.273	176.06
280.505	126.06
280.736	98.06
280.968	82.06
281.199	70.06
281.431	91.06
281.662	95.06
281.894	96.06
282.125	104.06
282.356	117.06
282.588	168.06
282.819	142.06
283.051	106.06
283.282	81.06
283.513	79.06
283.745	87.06
283.976	74.06
284.207	81.06
284.439	97.06
284.67	85.06
284.901	97.06
285.132	91.06
285.364	92.06
285.595	82.06
285.826	94.06
286.057	98.06
286.288	80.06
286.52	81.06
286.751	84.06
286.982	80.06
287.213	86.06
287.444	83.06
287.675	92.06
287.906	89.06
288.138	85.06
288.369	86.06
288.6	99.06
288.831	75.06
289.062	72.06
289.293	92.06
289.524	100.06
289.755	70.06
289.986	84.06
290.217	86.06
290.448	100.06
290.679	104.06
290.91	82.06
291.141	79.06
291.371	88.06
291.602	82.06
291.833	84.06
292.064	99.06
292.295	96.06
292.526	79.06
292.757	105.06
292.987	95.06
293.218	85.06
293.449	87.06
293.68	96.06
293.91	85.06
294.141	93.06
294.372	67.06
294.603	87.06
294.833	105.06
295.064	74.06
295.295	85.06
295.525	93.06
295.756	105.06
295.987	132.06
296.217	158.06
296.448	144.06
296.679	83.06
296.909	92.06
297.14	87.06
297.37	90.06
297.601	88.06
297.831	83.06
298.062	74.06
298.292	88.06
298.523	102.06
298.753	81.06
298.984	84.06
299.214	101.06
299.445	93.06
299.675	96.06
299.905	96.06
300.136	81.06
300.366	78.06
300.597	86.06
300.827	98.06
301.057	97.06
301.288	100.06
301.518	102.06
301.748	99.06
301.979	102.06
302.209	82.06
302.439	96.06
302.669	92.06
302.9	98.06
303.13	99.06
303.36	112.06
303.59	121.06
303.82	114.06
304.051	95.06
304.281	92.06
304.511	100.06
304.741	94.06
304.971	85.06
305.201	91.06
305.431	90.06
305.661	88.06
305.891	89.06
306.121	91.06
306.352	111.06
306.582	108.06
306.812	116.06
307.042	108.06
307.272	124.06
307.502	138.06
307.731	166.06
307.961	115.06
308.191	85.06
308.421	89.06
308.651	93.06
308.881	99.06
309.111	113.06
309.341	98.06
309.571	103.06
309.8	98.06
310.03	96.06
310.26	103.06
310.49	94.06
310.72	102.06
310.949	107.06
311.179	101.06
311.409	102.06
311.639	89.06
311.868	92.06
312.098	99.06
312.328	94.06
312.557	107.06
312.787	128.06
313.017	98.06
313.246	101.06
313.476	91.06
313.706	106.06
313.935	101.06
314.165	105.06
314.394	105.06
314.624	107.06
314.853	103.06
315.083	90.06
315.312	94.06
315.542	93.06
315.771	85.06
316.001	97.06
316.23	97.06
316.46	76.06
316.689	91.06
316.919	90.06
317.148	100.06
317.377	89.06
317.607	99.06
317.836	81.06
318.065	96.06
318.295	97.06
318.524	94.06
318.753	98.06
318.983	94.06
319.212	98.06
319.441	116.06
319.67	115.06
319.9	96.06
320.129	100.06
320.358	92.06
320.587	96.06
320.816	104.06
321.046	94.06
321.275	96.06
321.504	105.06
321.733	102.06
321.962	84.06
322.191	104.06
322.42	97.06
322.649	101.06
322.878	125.06
323.108	132.06
323.337	128.06
323.566	129.06
323.795	164.06
324.024	228.06
324.253	441.06
324.482	996.06
324.71	1972.06
324.939	2653.06
325.168	964.06
325.397	265.06
325.626	177.06
325.855	150.06
326.084	118.06
326.313	145.06
326.542	166.06
326.77	257.06
326.999	514.06
327.228	1041.06
327.457	1967.06
327.686	1609.06
327.914	481.06
328.143	368.06
328.372	412.06
328.6	263.06
328.829	159.06
329.058	178.06
329.287	169.06
329.515	150.06
329.744	184.06
329.972	308.06
330.201	572.06
330.43	835.06
330.658	394.06
330.887	216.06
331.115	152.06
331.344	122.06
331.572	110.06
331.801	105.06
332.03	123.06
332.258	102.06
332.486	105.06
332.715	104.06
332.943	121.06
333.172	92.06
333.4	111.06
333.629	134.06
333.857	184.06
334.085	309.06
334.314	578.06
334.542	1031.06
334.771	968.06
334.999	264.06
335.227	150.06
335.455	104.06
335.684	103.06
335.912	80.06
336.14	115.06
336.369	104.06
336.597	121.06
336.825	110.06
337.053	94.06
337.281	93.06
337.51	90.06
337.738	88.06
337.966	90.06
338.194	88.06
338.422	101.06
338.65	115.06
338.878	87.06
339.106	89.06
339.334	98.06
339.562	99.06
339.79	94.06
340.018	97.06
340.246	104.06
340.474	99.06
340.702	98.06
340.93	108.06
341.158	89.06
341.386	89.06
341.614	109.06
341.842	109.06
342.07	81.06
342.298	85.06
342.526	87.06
342.754	77.06
342.981	85.06
343.209	83.06
343.437	112.06
343.665	86.06
343.893	96.06
344.12	84.06
344.348	91.06
344.576	101.06
344.804	87.06
345.031	101.06
345.259	105.06
345.487	94.06
345.714	93.06
345.942	94.06
346.17	92.06
346.397	90.06
346.625	100.06
346.853	98.06
347.08	79.06
347.308	103.06
347.535	98.06
347.763	98.06
347.99	86.06
348.218	96.06
348.445	93.06
348.673	93.06
348.9	89.06
349.128	90.06
349.355	91.06
349.583	97.06
349.81	85.06
350.037	93.06
350.265	84.06
350.492	97.06
350.72	110.06
350.947	108.06
351.174	113.06
351.402	124.06
351.629	119.06
351.856	108.06
352.083	106.06
352.311	108.06
352.538	106.06
352.765	114.06
352.992	107.06
353.22	113.06
353.447	92.06
353.674	105.06
353.901	105.06
354.128	76.06
354.355	92.06
354.583	107.06
354.81	100.06
355.037	98.06
355.264	92.06
355.491	95.06
355.718	92.06
355.945	109.06
356.172	96.06
356.399	80.06
356.626	89.06
356.853	84.06
357.08	97.06
357.307	89.06
357.534	87.06
357.761	84.06
357.988	94.06
358.215	99.06
358.441	90.06
358.668	109.06
358.895	89.06
359.122	91.06
359.349	90.06
359.576	86.06
359.802	103.06
360.029	133.06
360.256	123.06
360.483	118.06
360.709	98.06
360.936	89.06
361.163	100.06
361.39	99.06
361.616	94.06
361.843	86.06
362.07	94.06
362.296	117.06
362.523	103.06
362.749	106.06
362.976	76.06
363.203	99.06
363.429	92.06
363.656	84.06
363.882	89.06
364.109	89.06
364.335	86.06
364.562	93.06
364.788	93.06
365.015	98.06
365.241	101.06
365.468	119.06
365.694	112.06
365.92	113.06
366.147	87.06
366.373	92.06
366.599	98.06
366.826	82.06
367.052	97.06
367.278	92.06
367.505	86.06
367.731	100.06
367.957	111.06
368.184	87.06
368.41	108.06
368.636	113.06
368.862	131.06
369.089	114.06
369.315	104.06
369.541	82.06
369.767	83.06
369.993	94.06
370.219	103.06
370.445	83.06
370.672	83.06
370.898	96.06
371.124	87.06
371.35	87.06
371.576	83.06
371.802	80.06
372.028	94.06
372.254	91.06
372.48	89.06
372.706	89.06
372.932	85.06
373.158	81.06
373.384	86.06
373.61	97.06
373.835	89.06
374.061	95.06
374.287	76.06
374.513	86.06
374.739	88.06
374.965	79.06
375.191	84.06
375.416	97.06
375.642	94.06
375.868	101.06
376.094	101.06
376.319	98.06
376.545	89.06
376.771	75.06
376.997	84.06
377.222	99.06
377.448	82.06
377.674	98.06
377.899	97.06
378.125	82.06
378.35	79.06
378.576	92.06
378.802	101.06
379.027	92.06
379.253	94.06
379.478	90.06
379.704	94.06
379.929	98.06
380.155	91.06
380.38	91.06
380.606	87.06
380.831	93.06
381.057	90.06
381.282	81.06
381.507	89.06
381.733	108.06
381.958	78.06
382.184	103.06
382.409	100.06
382.634	95.06
382.86	95.06
383.085	102.06
383.31	95.06
383.535	100.06
383.761	95.06
383.986	94.06
384.211	105.06
384.436	90.06
384.662	98.06
384.887	105.06
385.112	104.06
385.337	99.06
385.562	102.06
385.787	102.06
386.013	106.06
386.238	100.06
386.463	117.06
386.688	111.06
386.913	89.06
387.138	101.06
387.363	95.06
387.588	105.06
387.813	91.06
388.038	100.06
388.263	112.06
388.488	97.06
388.713	103.06
388.938	92.06
389.163	94.06
389.387	107.06
389.612	93.06
389.837	96.06
390.062	99.06
390.287	99.06
390.512	105.06
390.736	84.06
390.961	96.06
391.186	93.06
391.411	82.06
391.636	97.06
391.86	83.06
392.085	96.06
392.31	82.06
392.534	87.06
392.759	99.06
392.984	98.06
393.208	94.06
393.433	95.06
393.658	98.06
393.882	90.06
394.107	89.06
394.331	89.06
394.556	87.06
394.78	74.06
395.005	78.06
395.229	78.06
395.454	76.06
395.678	84.06
395.903	88.06
396.127	81.06
396.352	95.06
396.576	92.06
396.801	93.06
397.025	87.06
397.249	94.06
397.474	93.06
397.698	77.06
397.922	78.06
398.147	77.06
398.371	87.06
398.595	80.06
398.82	94.06
399.044	93.06
399.268	97.06
399.492	89.06
399.717	93.06
399.941	99.06
400.165	91.06
400.389	90.06
400.613	80.06
400.837	73.06
401.062	99.06
401.286	76.06
401.51	95.06
401.734	94.06
401.958	116.06
402.182	156.06
402.406	193.06
402.63	142.06
402.854	98.06
403.078	89.06
403.302	93.06
403.526	88.06
403.75	90.06
403.974	90.06
404.198	96.06
404.422	92.06
404.645	82.06
404.869	101.06
405.093	109.06
405.317	144.06
405.541	131.06
405.765	116.06
405.988	122.06
406.212	187.06
406.436	276.06
406.66	173.06
406.883	114.06
407.107	103.06
407.331	85.06
407.555	108.06
407.778	98.06
408.002	102.06
408.226	73.06
408.449	87.06
408.673	85.06
408.896	84.06
409.12	93.06
409.344	93.06
409.567	100.06
409.791	98.06
410.014	80.06
410.238	93.06
410.461	82.06
410.685	90.06
410.908	97.06
411.132	98.06
411.355	92.06
411.578	109.06
411.802	98.06
412.025	104.06
412.249	105.06
412.472	110.06
412.695	116.06
412.919	98.06
413.142	98.06
413.365	87.06
413.589	91.06
413.812	77.06
414.035	100.06
414.258	77.06
414.482	84.06
414.705	84.06
414.928	86.06
415.151	86.06
415.374	105.06
415.597	89.06
415.821	87.06
416.044	93.06
416.267	97.06
416.49	83.06
416.713	93.06
416.936	77.06
417.159	93.06
417.382	88.06
417.605	105.06
417.828	95.06
418.051	92.06
418.274	91.06
418.497	81.06
418.72	84.06
418.943	98.06
419.166	82.06
419.389	96.06
419.611	78.06
419.834	76.06
420.057	84.06
420.28	103.06
420.503	84.06
420.726	75.06
420.948	88.06
421.171	108.06
421.394	97.06
421.617	90.06
421.839	87.06
422.062	82.06
422.285	86.06
422.507	110.06
422.73	97.06
422.953	96.06
423.175	88.06
423.398	83.06
423.621	71.06
423.843	82.06
424.066	92.06
424.288	96.06
424.511	97.06
424.733	93.06
424.956	136.06
425.178	108.06
425.401	100.06
425.623	115.06
425.846	95.06
426.068	93.06
426.291	100.06
426.513	90.06
426.735	88.06
426.958	100.06
427.18	108.06
427.402	162.06
427.625	233.06
427.847	185.06
428.069	173.06
428.292	106.06
428.514	96.06
428.736	88.06
428.958	93.06
429.181	82.06
429.403	81.06
429.625	84.06
429.847	102.06
430.069	108.06
430.292	97.06
430.514	81.06
430.736	90.06
430.958	87.06
431.18	79.06
431.402	89.06
431.624	85.06
431.846	105.06
432.068	84.06
432.29	79.06
432.512	86.06
432.734	78.06
432.956	89.06
433.178	104.06
433.4	104.06
433.622	112.06
433.844	93.06
434.066	94.06
434.287	97.06
434.509	83.06
434.731	90.06
434.953	84.06
435.175	90.06
435.397	78.06
435.618	94.06
435.84	111.06
436.062	142.06
436.284	134.06
436.505	115.06
436.727	112.06
436.949	91.06
437.17	86.06
437.392	105.06
437.614	100.06
437.835	121.06
438.057	130.06
438.278	126.06
438.5	128.06
438.721	135.06
438.943	111.06
439.165	104.06
439.386	88.06
439.608	93.06
439.829	101.06
440.05	150.06
440.272	174.06
440.493	105.06
440.715	96.06
440.936	93.06
441.158	94.06
441.379	96.06
441.6	100.06
441.822	95.06
442.043	105.06
442.264	108.06
442.486	106.06
442.707	98.06
442.928	111.06
443.149	158.06
443.371	162.06
443.592	119.06
443.813	132.06
444.034	117.06
444.255	92.06
444.476	84.06
444.698	92.06
444.919	89.06
445.14	130.06
445.361	135.06
445.582	136.06
445.803	165.06
446.024	165.06
446.245	158.06
446.466	108.06
446.687	87.06
446.908	89.06
447.129	84.06
447.35	87.06
447.571	91.06
447.792	72.06
448.013	113.06
448.234	128.06
448.455	115.06
448.675	133.06
448.896	131.06
449.117	99.06
449.338	121.06
449.559	132.06
449.779	144.06
450	102.06
450.221	92.06
450.442	90.06
450.662	113.06
450.883	126.06
451.104	106.06
451.324	106.06
451.545	92.06
451.766	79.06
451.986	86.06
452.207	87.06
452.428	76.06
452.648	106.06
452.869	119.06
453.089	133.06
453.31	129.06
453.53	102.06
453.751	96.06
453.971	124.06
454.192	134.06
454.412	93.06
454.633	81.06
454.853	87.06
455.073	99.06
455.294	96.06
455.514	108.06
455.734	98.06
455.955	93.06
456.175	85.06
456.395	86.06
456.616	85.06
456.836	96.06
457.056	85.06
457.276	97.06
457.497	87.06
457.717	104.06
457.937	88.06
458.157	90.06
458.377	99.06
458.598	116.06
458.818	196.06
459.038	204.06
459.258	142.06
459.478	96.06
459.698	93.06
459.918	75.06
460.138	84.06
460.358	77.06
460.578	74.06
460.798	77.06
461.018	98.06
461.238	77.06
461.458	81.06
461.678	88.06
461.898	95.06
462.118	85.06
462.338	90.06
462.558	88.06
462.777	92.06
462.997	84.06
463.217	84.06
463.437	97.06
463.657	100.06
463.876	89.06
464.096	102.06
464.316	108.06
464.536	90.06
464.755	92.06
464.975	124.06
465.195	225.06
465.414	214.06
465.634	105.06
465.854	98.06
466.073	87.06
466.293	100.06
466.512	89.06
466.732	89.06
466.951	91.06
467.171	94.06
467.391	85.06
467.61	122.06
467.829	156.06
468.049	346.06
468.268	481.06
468.488	160.06
468.707	102.06
468.927	109.06
469.146	92.06
469.365	81.06
469.585	94.06
469.804	101.06
470.023	96.06
470.243	101.06
470.462	115.06
470.681	134.06
470.901	101.06
471.12	97.06
471.339	80.06
471.558	108.06
471.777	120.06
471.997	212.06
472.216	675.06
472.435	1379.06
472.654	358.06
472.873	139.06
473.092	96.06
473.311	88.06
473.53	92.06
473.749	92.06
473.968	94.06
474.187	114.06
474.406	103.06
474.625	94.06
474.844	91.06
475.063	81.06
475.282	84.06
475.501	83.06
475.72	86.06
475.939	82.06
476.158	76.06
476.377	87.06
476.596	99.06
476.814	98.06
477.033	100.06
477.252	101.06
477.471	97.06
477.69	93.06
477.908	90.06
478.127	99.06
478.346	87.06
478.564	93.06
478.783	102.06
479.002	104.06
479.22	97.06
479.439	118.06
479.658	112.06
479.876	102.06
480.095	114.06
480.313	116.06
480.532	131.06
480.751	202.06
480.969	621.06
481.188	2450.06
481.406	1440.06
481.624	244.06
481.843	107.06
482.061	96.06
482.28	81.06
482.498	96.06
482.717	91.06
482.935	104.06
483.153	96.06
483.372	97.06
483.59	100.06
483.808	70.06
484.027	91.06
484.245	104.06
484.463	95.06
484.681	112.06
484.9	84.06
485.118	104.06
485.336	106.06
485.554	89.06
485.772	90.06
485.99	93.06
486.209	115.06
486.427	107.06
486.645	116.06
486.863	115.06
487.081	105.06
487.299	94.06
487.517	93.06
487.735	104.06
487.953	90.06
488.171	107.06
488.389	100.06
488.607	106.06
488.825	105.06
489.043	93.06
489.261	94.06
489.479	87.06
489.696	78.06
489.914	83.06
490.132	90.06
490.35	87.06
490.568	90.06
490.786	84.06
491.003	85.06
491.221	88.06
491.439	96.06
491.657	97.06
491.874	81.06
492.092	82.06
492.31	88.06
492.527	104.06
492.745	100.06
492.963	79.06
493.18	87.06
493.398	93.06
493.615	92.06
493.833	94.06
494.05	92.06
494.268	90.06
494.485	96.06
494.703	94.06
494.92	99.06
495.138	93.06
495.355	89.06
495.573	85.06
495.79	84.06
496.008	88.06
496.225	91.06
496.442	71.06
496.66	98.06
496.877	91.06
497.094	88.06
497.312	113.06
497.529	89.06
497.746	98.06
497.963	92.06
498.181	90.06
498.398	94.06
498.615	108.06
498.832	90.06
499.049	98.06
499.267	84.06
499.484	83.06
499.701	91.06
499.918	90.06
500.135	91.06
500.352	88.06
500.569	90.06
500.786	84.06
501.003	99.06
501.22	97.06
501.437	87.06
501.654	92.06
501.871	110.06
502.088	96.06
502.305	87.06
502.522	97.06
502.739	85.06
502.956	100.06
503.172	94.06
503.389	117.06
503.606	125.06
503.823	109.06
504.04	97.06
504.256	94.06
504.473	67.06
504.69	93.06
504.907	87.06
505.123	100.06
505.34	92.06
505.557	90.06
505.773	93.06
505.99	77.06
506.207	81.06
506.423	99.06
506.64	79.06
506.856	93.06
507.073	100.06
507.289	97.06
507.506	97.06
507.722	131.06
507.939	123.06
508.155	91.06
508.372	93.06
508.588	91.06
508.805	97.06
509.021	101.06
509.238	87.06
509.454	110.06
509.67	115.06
509.887	108.06
510.103	138.06
510.319	221.06
510.536	862.06
510.752	2939.06
510.968	800.06
511.184	184.06
511.401	128.06
511.617	102.06
511.833	105.06
512.049	94.06
512.265	100.06
512.481	98.06
512.698	99.06
512.914	97.06
513.13	94.06
513.346	103.06
513.562	108.06
513.778	100.06
513.994	100.06
514.21	108.06
514.426	125.06
514.642	158.06
514.858	125.06
515.074	204.06
515.29	582.06
515.506	2142.06
515.721	757.06
515.937	176.06
516.153	114.06
516.369	103.06
516.585	91.06
516.801	98.06
517.016	105.06
517.232	100.06
517.448	83.06
517.664	78.06
517.879	93.06
518.095	84.06
518.311	86.06
518.527	101.06
518.742	94.06
518.958	85.06
519.173	102.06
519.389	95.06
519.605	85.06
519.82	105.06
520.036	110.06
520.251	129.06
520.467	116.06
520.682	129.06
520.898	110.06
521.113	141.06
521.329	155.06
521.544	263.06
521.76	753.06
521.975	3608.06
522.19	2169.06
522.406	428.06
522.621	138.06
522.836	101.06
523.052	99.06
523.267	100.06
523.482	107.06
523.698	112.06
523.913	140.06
524.128	100.06
524.343	94.06
524.559	84.06
524.774	95.06
524.989	99.06
525.204	111.06
525.419	112.06
525.634	103.06
525.849	89.06
526.064	101.06
526.28	103.06
526.495	99.06
526.71	94.06
526.925	93.06
527.14	85.06
527.355	78.06
527.57	91.06
527.785	78.06
527.999	95.06
528.214	100.06
528.429	112.06
528.644	105.06
528.859	100.06
529.074	97.06
529.289	148.06
529.503	231.06
529.718	111.06
529.933	96.06
530.148	93.06
530.363	95.06
530.577	101.06
530.792	102.06
531.007	88.06
531.221	94.06
531.436	75.06
531.651	93.06
531.865	94.06
532.08	76.06
532.295	93.06
532.509	89.06
532.724	75.06
532.938	84.06
533.153	102.06
533.367	105.06
533.582	94.06
533.796	86.06
534.011	104.06
534.225	86.06
534.44	92.06
534.654	99.06
534.868	84.06
535.083	80.06
535.297	102.06
535.511	100.06
535.726	121.06
535.94	101.06
536.154	78.06
536.369	77.06
536.583	100.06
536.797	84.06
537.011	92.06
537.225	84.06
537.44	95.06
537.654	97.06
537.868	87.06
538.082	90.06
538.296	98.06
538.51	85.06
538.724	91.06
538.938	94.06
539.153	99.06
539.367	113.06
539.581	96.06
539.795	93.06
540.009	89.06
540.222	96.06
540.436	93.06
540.65	95.06
540.864	87.06
541.078	105.06
541.292	94.06
541.506	84.06
541.72	94.06
541.934	98.06
542.147	90.06
542.361	91.06
542.575	97.06
542.789	98.06
543.002	92.06
543.216	77.06
543.43	90.06
543.644	97.06
543.857	81.06
544.071	84.06
544.285	72.06
544.498	109.06
544.712	100.06
544.925	89.06
545.139	82.06
545.352	86.06
545.566	96.06
545.779	86.06
545.993	95.06
546.206	90.06
546.42	74.06
546.633	94.06
546.847	104.06
547.06	86.06
547.274	90.06
547.487	93.06
547.7	87.06
547.914	84.06
548.127	88.06
548.34	86.06
548.554	100.06
548.767	83.06
548.98	97.06
549.193	80.06
549.407	92.06
549.62	80.06
549.833	91.06
550.046	84.06
550.259	75.06
550.473	86.06
550.686	89.06
550.899	90.06
551.112	91.06
551.325	98.06
551.538	82.06
551.751	98.06
551.964	80.06
552.177	91.06
552.39	97.06
552.603	89.06
552.816	88.06
553.029	87.06
553.242	99.06
553.455	104.06
553.667	108.06
553.88	116.06
554.093	96.06
554.306	96.06
554.519	105.06
554.732	82.06
554.944	89.06
555.157	91.06
555.37	92.06
555.583	88.06
555.795	94.06
556.008	100.06
556.221	80.06
556.433	90.06
556.646	88.06
556.859	91.06
557.071	85.06
557.284	76.06
557.496	98.06
557.709	86.06
557.921	73.06
558.134	87.06
558.346	98.06
558.559	85.06
558.771	86.06
558.984	94.06
559.196	87.06
559.409	84.06
559.621	80.06
559.833	84.06
560.046	78.06
560.258	96.06
560.47	102.06
560.683	92.06
560.895	103.06
561.107	84.06
561.32	92.06
561.532	96.06
561.744	92.06
561.956	83.06
562.168	84.06
562.381	98.06
562.593	94.06
562.805	96.06
563.017	93.06
563.229	107.06
563.441	78.06
563.653	94.06
563.865	84.06
564.077	89.06
564.289	77.06
564.501	77.06
564.713	91.06
564.925	95.06
565.137	101.06
565.349	90.06
565.561	98.06
565.773	90.06
565.985	90.06
566.197	88.06
566.408	80.06
566.62	99.06
566.832	88.06
567.044	96.06
567.255	88.06
567.467	100.06
567.679	91.06
567.891	102.06
568.102	97.06
568.314	84.06
568.526	83.06
568.737	86.06
568.949	97.06
569.161	92.06
569.372	103.06
569.584	93.06
569.795	91.06
570.007	109.06
570.218	279.06
570.43	148.06
570.641	100.06
570.853	96.06
571.064	93.06
571.276	92.06
571.487	81.06
571.698	73.06
571.91	90.06
572.121	85.06
572.333	80.06
572.544	79.06
572.755	96.06
572.966	80.06
573.178	89.06
573.389	90.06
573.6	89.06
573.811	93.06
574.023	89.06
574.234	83.06
574.445	105.06
574.656	92.06
574.867	86.06
575.078	77.06
575.289	81.06
575.501	77.06
575.712	88.06
575.923	89.06
576.134	99.06
576.345	85.06
576.556	77.06
576.767	93.06
576.978	107.06
577.188	91.06
577.399	90.06
577.61	89.06
577.821	111.06
578.032	121.06
578.243	313.06
578.454	955.06
578.665	245.06
578.875	102.06
579.086	84.06
579.297	97.06
579.508	99.06
579.718	88.06
579.929	95.06
580.14	92.06
580.35	80.06
580.561	89.06
580.772	81.06
580.982	78.06
581.193	86.06
581.403	86.06
581.614	89.06
581.825	93.06
582.035	90.06
582.246	85.06
582.456	89.06
582.667	101.06
582.877	83.06
583.087	86.06
583.298	94.06
583.508	87.06
583.719	93.06
583.929	89.06
584.139	80.06
584.35	74.06
584.56	85.06
584.77	88.06
584.981	81.06
585.191	81.06
585.401	83.06
585.611	92.06
585.821	101.06
586.032	93.06
586.242	93.06
586.452	89.06
586.662	77.06
586.872	90.06
587.082	80.06
587.292	81.06
587.502	91.06
587.713	95.06
587.923	89.06
588.133	89.06
588.343	93.06
588.553	99.06
588.762	87.06
588.972	93.06
589.182	112.06
589.392	88.06
589.602	102.06
589.812	96.06
590.022	81.06
590.232	84.06
590.441	87.06
590.651	89.06
590.861	89.06
591.071	93.06
591.281	80.06
591.49	74.06
591.7	80.06
591.91	76.06
592.119	73.06
592.329	86.06
592.539	90.06
592.748	100.06
592.958	80.06
593.167	84.06
593.377	102.06
593.587	92.06
593.796	72.06
594.006	74.06
594.215	100.06
594.424	77.06
594.634	92.06
594.843	94.06
595.053	79.06
595.262	91.06
595.472	65.06
595.681	82.06
595.89	86.06
596.1	96.06
596.309	96.06
596.518	102.06
596.727	67.06
596.937	100.06
597.146	82.06
597.355	93.06
597.564	87.06
597.774	83.06
597.983	82.06
598.192	84.06
598.401	86.06
598.61	81.06
598.819	81.06
599.028	80.06
599.237	81.06
599.446	86.06
599.655	93.06
599.864	95.06
600.073	81.06
600.282	94.06
600.491	89.06
600.7	74.06
600.909	77.06
601.118	100.06
601.327	105.06
601.536	96.06
601.745	89.06
601.953	85.06
602.162	75.06
602.371	80.06
602.58	89.06
602.789	87.06
602.997	77.06
603.206	79.06
603.415	80.06
603.623	82.06
603.832	86.06
604.041	80.06
604.249	92.06
604.458	82.06
604.666	83.06
604.875	94.06
605.084	94.06
605.292	80.06
605.501	98.06
605.709	84.06
605.918	76.06
606.126	72.06
606.334	90.06
606.543	80.06
606.751	86.06
606.96	89.06
607.168	84.06
607.376	91.06
607.585	81.06
607.793	76.06
608.001	88.06
608.21	80.06
608.418	82.06
608.626	90.06
608.834	86.06
609.043	90.06
609.251	94.06
609.459	83.06
609.667	84.06
609.875	94.06
610.083	87.06
610.291	81.06
610.499	75.06
610.707	85.06
610.916	90.06
611.124	86.06
611.332	80.06
611.54	93.06
611.748	77.06
611.955	80.06
612.163	81.06
612.371	76.06
612.579	93.06
612.787	94.06
612.995	83.06
613.203	93.06
613.411	84.06
613.618	78.06
613.826	87.06
614.034	84.06
614.242	74.06
614.449	87.06
614.657	93.06
614.865	80.06
615.072	86.06
615.28	80.06
615.488	81.06
615.695	93.06
615.903	97.06
616.111	105.06
616.318	93.06
616.526	89.06
616.733	85.06
616.941	96.06
617.148	94.06
617.356	99.06
617.563	80.06
617.771	85.06
617.978	93.06
618.185	76.06
618.393	81.06
618.6	95.06
618.807	88.06
619.015	81.06
619.222	80.06
619.429	90.06
619.637	80.06
619.844	87.06
620.051	82.06
620.258	78.06
620.466	80.06
620.673	89.06
620.88	93.06
621.087	80.06
621.294	85.06
621.501	78.06
621.708	82.06
621.915	77.06
622.122	83.06
622.329	83.06
622.536	74.06
622.743	92.06
622.95	69.06
623.157	90.06
623.364	89.06
623.571	88.06
623.778	85.06
623.985	91.06
624.192	88.06
624.399	90.06
624.606	85.06
624.812	70.06
625.019	85.06
625.226	89.06
625.433	103.06
625.639	82.06
625.846	86.06
626.053	88.06
626.259	89.06
626.466	85.06
626.673	74.06
626.879	93.06
627.086	91.06
627.293	79.06
627.499	84.06
627.706	80.06
627.912	87.06
628.119	91.06
628.325	81.06
628.532	66.06
628.738	74.06
628.945	86.06
629.151	89.06
629.357	91.06
629.564	89.06
629.77	90.06
629.976	85.06
630.183	72.06
630.389	77.06
630.595	73.06
630.802	79.06
631.008	68.06
631.214	91.06
631.42	95.06
631.627	74.06
631.833	76.06
632.039	89.06
632.245	83.06
632.451	84.06
632.657	84.06
632.863	64.06
633.069	83.06
633.275	76.06
633.481	74.06
633.688	78.06
633.893	75.06
634.099	79.06
634.305	88.06
634.511	83.06
634.717	76.06
634.923	64.06
635.129	77.06
635.335	75.06
635.541	83.06
635.747	87.06
635.952	91.06
636.158	92.06
636.364	247.06
636.57	201.06
636.775	100.06
636.981	106.06
637.187	87.06
637.392	76.06
637.598	92.06
637.804	68.06
638.009	84.06
638.215	85.06
638.421	74.06
638.626	91.06
638.832	82.06
639.037	89.06
639.243	80.06
639.448	84.06
639.654	94.06
639.859	85.06
640.065	88.06
640.27	73.06
640.475	80.06
640.681	70.06
640.886	82.06
641.091	74.06
641.297	97.06
641.502	95.06
641.707	82.06
641.913	86.06
642.118	86.06
642.323	77.06
642.528	78.06
642.733	75.06
642.939	88.06
643.144	89.06
643.349	87.06
643.554	97.06
643.759	88.06
643.964	78.06
644.169	66.06
644.374	90.06
644.579	83.06
644.784	85.06
644.989	77.06
645.194	83.06
645.399	74.06
645.604	67.06
645.809	91.06
646.014	93.06
646.219	88.06
646.423	92.06
646.628	85.06
646.833	89.06
647.038	77.06
647.243	82.06
647.447	78.06
647.652	85.06
647.857	90.06
648.062	90.06
648.266	77.06
648.471	92.06
648.676	90.06
648.88	77.06
649.085	84.06
649.289	89.06
649.494	86.06
649.698	148.06
649.903	94.06
650.107	100.06
650.312	85.06
650.516	69.06
650.721	89.06
650.925	95.06
651.13	78.06
651.334	88.06
651.539	69.06
651.743	82.06
651.947	76.06
652.152	82.06
652.356	83.06
652.56	91.06
652.764	84.06
652.969	83.06
653.173	77.06
653.377	76.06
653.581	75.06
653.785	80.06
653.99	82.06
654.194	83.06
654.398	97.06
654.602	98.06
654.806	88.06
655.01	112.06
655.214	80.06
655.418	90.06
655.622	74.06
655.826	95.06
656.03	97.06
656.234	92.06
656.438	92.06
656.642	94.06
656.846	85.06
657.049	84.06
657.253	89.06
657.457	92.06
657.661	85.06
657.865	80.06
658.068	92.06
658.272	84.06
658.476	73.06
658.68	82.06
658.883	75.06
659.087	77.06
659.291	87.06
659.494	68.06
659.698	81.06
659.901	74.06
660.105	78.06
660.309	77.06
660.512	81.06
660.716	86.06
660.919	69.06
661.123	78.06
661.326	77.06
661.53	80.06
661.733	81.06
661.936	81.06
662.14	78.06
662.343	79.06
662.546	96.06
662.75	78.06
662.953	84.06
663.156	82.06
663.36	88.06
663.563	68.06
663.766	67.06
663.969	74.06
664.173	67.06
664.376	72.06
664.579	79.06
664.782	69.06
664.985	83.06
665.188	77.06
665.391	70.06
665.594	89.06
665.797	88.06
666	79.06
666.203	84.06
666.406	84.06
666.609	88.06
666.812	89.06
667.015	78.06
667.218	81.06
667.421	71.06
667.624	77.06
667.827	85.06
668.03	82.06
668.232	93.06
668.435	68.06
668.638	84.06
668.841	74.06
669.043	91.06
669.246	88.06
669.449	81.06
669.651	89.06
669.854	84.06
670.057	94.06
670.259	78.06
670.462	78.06
670.665	72.06
670.867	73.06
671.07	89.06
671.272	69.06
671.475	86.06
671.677	70.06
671.88	72.06
672.082	76.06
672.284	74.06
672.487	101.06
672.689	73.06
672.892	88.06
