Data from Circ_1984_H10_HRD10591_00051.txt Node
Date: Wed Jan 03 12:22:52 EST 2024
User: Yrep
Spectrometer: HR+D1059
Trigger mode: 1
Integration Time (sec): 1.000000E-1
Scans to average: 1
Electric dark correction enabled: true
Nonlinearity correction enabled: false
Boxcar width: 0
XAxis mode: Wavelengths
Number of Pixels in Spectrum: 2048
>>>>>Begin Spectral Data<<<<<
223.165	-20.75
223.4	-20.75
223.635	-20.75
223.869	-24.75
224.104	-12.75
224.338	-4.75
224.573	-2.75
224.808	-26.75
225.042	-14.75
225.277	7.25
225.511	5.25
225.746	3.25
225.98	-3.75
226.215	0.25
226.449	13.25
226.683	19.25
226.918	34.25
227.152	28.25
227.387	27.25
227.621	41.25
227.856	49.25
228.09	65.25
228.324	52.25
228.559	49.25
228.793	57.25
229.027	59.25
229.262	65.25
229.496	72.25
229.73	70.25
229.964	74.25
230.199	74.25
230.433	63.25
230.667	77.25
230.901	61.25
231.136	80.25
231.37	79.25
231.604	81.25
231.838	70.25
232.072	74.25
232.306	85.25
232.541	72.25
232.775	89.25
233.009	70.25
233.243	77.25
233.477	72.25
233.711	85.25
233.945	81.25
234.179	80.25
234.413	69.25
234.647	85.25
234.881	77.25
235.115	81.25
235.349	86.25
235.583	94.25
235.817	79.25
236.051	84.25
236.285	74.25
236.519	70.25
236.753	64.25
236.987	69.25
237.221	87.25
237.455	82.25
237.689	79.25
237.922	86.25
238.156	81.25
238.39	79.25
238.624	74.25
238.858	79.25
239.091	70.25
239.325	89.25
239.559	77.25
239.793	71.25
240.027	77.25
240.26	82.25
240.494	82.25
240.728	69.25
240.961	85.25
241.195	60.25
241.429	84.25
241.662	83.25
241.896	65.25
242.13	81.25
242.363	79.25
242.597	87.25
242.83	84.25
243.064	75.25
243.298	71.25
243.531	76.25
243.765	85.25
243.998	84.25
244.232	86.25
244.465	76.25
244.699	73.25
244.932	81.25
245.166	78.25
245.399	82.25
245.633	74.25
245.866	74.25
246.099	74.25
246.333	72.25
246.566	81.25
246.8	63.25
247.033	71.25
247.266	79.25
247.5	71.25
247.733	96.25
247.966	66.25
248.2	72.25
248.433	85.25
248.666	76.25
248.899	77.25
249.133	78.25
249.366	96.25
249.599	100.25
249.832	79.25
250.066	78.25
250.299	73.25
250.532	69.25
250.765	83.25
250.998	72.25
251.231	79.25
251.465	70.25
251.698	79.25
251.931	93.25
252.164	66.25
252.397	84.25
252.63	79.25
252.863	85.25
253.096	66.25
253.329	68.25
253.562	96.25
253.795	82.25
254.028	81.25
254.261	88.25
254.494	97.25
254.727	80.25
254.96	89.25
255.193	80.25
255.426	81.25
255.659	81.25
255.892	79.25
256.124	83.25
256.357	92.25
256.59	69.25
256.823	81.25
257.056	78.25
257.289	78.25
257.521	83.25
257.754	79.25
257.987	92.25
258.22	81.25
258.452	86.25
258.685	80.25
258.918	74.25
259.151	68.25
259.383	77.25
259.616	71.25
259.849	72.25
260.081	79.25
260.314	86.25
260.547	80.25
260.779	77.25
261.012	61.25
261.244	79.25
261.477	92.25
261.71	96.25
261.942	107.25
262.175	105.25
262.407	80.25
262.64	66.25
262.872	74.25
263.105	90.25
263.337	84.25
263.57	87.25
263.802	72.25
264.035	63.25
264.267	78.25
264.499	74.25
264.732	90.25
264.964	78.25
265.197	85.25
265.429	73.25
265.661	83.25
265.894	79.25
266.126	78.25
266.358	79.25
266.591	70.25
266.823	91.25
267.055	75.25
267.287	72.25
267.52	85.25
267.752	82.25
267.984	74.25
268.216	97.25
268.448	87.25
268.681	80.25
268.913	77.25
269.145	82.25
269.377	80.25
269.609	75.25
269.841	88.25
270.073	86.25
270.306	81.25
270.538	94.25
270.77	84.25
271.002	79.25
271.234	84.25
271.466	81.25
271.698	82.25
271.93	76.25
272.162	66.25
272.394	85.25
272.626	69.25
272.858	88.25
273.09	92.25
273.322	81.25
273.553	85.25
273.785	71.25
274.017	80.25
274.249	71.25
274.481	77.25
274.713	93.25
274.945	78.25
275.176	96.25
275.408	88.25
275.64	81.25
275.872	73.25
276.104	85.25
276.335	90.25
276.567	91.25
276.799	99.25
277.031	101.25
277.262	100.25
277.494	96.25
277.726	83.25
277.957	64.25
278.189	82.25
278.421	78.25
278.652	89.25
278.884	85.25
279.115	66.25
279.347	82.25
279.579	84.25
279.81	93.25
280.042	107.25
280.273	94.25
280.505	92.25
280.736	87.25
280.968	93.25
281.199	80.25
281.431	64.25
281.662	79.25
281.894	101.25
282.125	95.25
282.356	104.25
282.588	114.25
282.819	102.25
283.051	82.25
283.282	91.25
283.513	83.25
283.745	82.25
283.976	78.25
284.207	92.25
284.439	70.25
284.67	96.25
284.901	90.25
285.132	78.25
285.364	93.25
285.595	93.25
285.826	81.25
286.057	84.25
286.288	69.25
286.52	89.25
286.751	87.25
286.982	86.25
287.213	79.25
287.444	87.25
287.675	90.25
287.906	70.25
288.138	87.25
288.369	85.25
288.6	87.25
288.831	66.25
289.062	91.25
289.293	78.25
289.524	83.25
289.755	80.25
289.986	91.25
290.217	95.25
290.448	94.25
290.679	75.25
290.91	103.25
291.141	94.25
291.371	83.25
291.602	86.25
291.833	85.25
292.064	78.25
292.295	90.25
292.526	82.25
292.757	108.25
292.987	90.25
293.218	73.25
293.449	81.25
293.68	96.25
293.91	84.25
294.141	90.25
294.372	85.25
294.603	91.25
294.833	72.25
295.064	86.25
295.295	79.25
295.525	93.25
295.756	101.25
295.987	99.25
296.217	123.25
296.448	106.25
296.679	87.25
296.909	97.25
297.14	88.25
297.37	79.25
297.601	86.25
297.831	81.25
298.062	80.25
298.292	88.25
298.523	83.25
298.753	86.25
298.984	90.25
299.214	89.25
299.445	86.25
299.675	84.25
299.905	93.25
300.136	91.25
300.366	95.25
300.597	87.25
300.827	94.25
301.057	100.25
301.288	102.25
301.518	82.25
301.748	88.25
301.979	93.25
302.209	99.25
302.439	80.25
302.669	75.25
302.9	89.25
303.13	94.25
303.36	97.25
303.59	106.25
303.82	105.25
304.051	96.25
304.281	93.25
304.511	94.25
304.741	71.25
304.971	97.25
305.201	91.25
305.431	98.25
305.661	91.25
305.891	86.25
306.121	99.25
306.352	99.25
306.582	88.25
306.812	87.25
307.042	90.25
307.272	105.25
307.502	97.25
307.731	102.25
307.961	87.25
308.191	86.25
308.421	70.25
308.651	78.25
308.881	80.25
309.111	102.25
309.341	96.25
309.571	107.25
309.8	91.25
310.03	79.25
310.26	79.25
310.49	90.25
310.72	94.25
310.949	106.25
311.179	99.25
311.409	92.25
311.639	101.25
311.868	88.25
312.098	101.25
312.328	84.25
312.557	107.25
312.787	95.25
313.017	88.25
313.246	97.25
313.476	88.25
313.706	90.25
313.935	90.25
314.165	105.25
314.394	97.25
314.624	97.25
314.853	103.25
315.083	103.25
315.312	87.25
315.542	74.25
315.771	96.25
316.001	84.25
316.23	80.25
316.46	81.25
316.689	85.25
316.919	86.25
317.148	86.25
317.377	107.25
317.607	83.25
317.836	88.25
318.065	78.25
318.295	91.25
318.524	74.25
318.753	102.25
318.983	85.25
319.212	89.25
319.441	106.25
319.67	106.25
319.9	94.25
320.129	96.25
320.358	90.25
320.587	99.25
320.816	91.25
321.046	104.25
321.275	99.25
321.504	97.25
321.733	105.25
321.962	109.25
322.191	115.25
322.42	101.25
322.649	106.25
322.878	99.25
323.108	105.25
323.337	121.25
323.566	133.25
323.795	136.25
324.024	171.25
324.253	327.25
324.482	729.25
324.71	1460.25
324.939	1886.25
325.168	705.25
325.397	217.25
325.626	131.25
325.855	118.25
326.084	132.25
326.313	126.25
326.542	155.25
326.77	185.25
326.999	392.25
327.228	811.25
327.457	1476.25
327.686	1165.25
327.914	339.25
328.143	208.25
328.372	188.25
328.6	136.25
328.829	107.25
329.058	126.25
329.287	123.25
329.515	102.25
329.744	112.25
329.972	150.25
330.201	209.25
330.43	266.25
330.658	165.25
330.887	129.25
331.115	125.25
331.344	89.25
331.572	104.25
331.801	95.25
332.03	101.25
332.258	97.25
332.486	92.25
332.715	101.25
332.943	87.25
333.172	102.25
333.4	104.25
333.629	100.25
333.857	107.25
334.085	147.25
334.314	197.25
334.542	301.25
334.771	278.25
334.999	133.25
335.227	106.25
335.455	104.25
335.684	96.25
335.912	100.25
336.14	86.25
336.369	98.25
336.597	95.25
336.825	72.25
337.053	95.25
337.281	85.25
337.51	95.25
337.738	100.25
337.966	89.25
338.194	107.25
338.422	85.25
338.65	110.25
338.878	84.25
339.106	107.25
339.334	92.25
339.562	97.25
339.79	98.25
340.018	95.25
340.246	96.25
340.474	97.25
340.702	79.25
340.93	89.25
341.158	88.25
341.386	104.25
341.614	96.25
341.842	94.25
342.07	82.25
342.298	91.25
342.526	87.25
342.754	99.25
342.981	93.25
343.209	94.25
343.437	95.25
343.665	85.25
343.893	90.25
344.12	88.25
344.348	93.25
344.576	77.25
344.804	91.25
345.031	98.25
345.259	89.25
345.487	89.25
345.714	94.25
345.942	99.25
346.17	94.25
346.397	88.25
346.625	79.25
346.853	81.25
347.08	81.25
347.308	112.25
347.535	89.25
347.763	91.25
347.99	111.25
348.218	98.25
348.445	97.25
348.673	106.25
348.9	97.25
349.128	106.25
349.355	91.25
349.583	97.25
349.81	92.25
350.037	105.25
350.265	106.25
350.492	80.25
350.72	103.25
350.947	95.25
351.174	98.25
351.402	108.25
351.629	106.25
351.856	94.25
352.083	97.25
352.311	97.25
352.538	94.25
352.765	105.25
352.992	103.25
353.22	115.25
353.447	93.25
353.674	108.25
353.901	97.25
354.128	99.25
354.355	97.25
354.583	114.25
354.81	96.25
355.037	86.25
355.264	87.25
355.491	108.25
355.718	82.25
355.945	92.25
356.172	99.25
356.399	95.25
356.626	78.25
356.853	87.25
357.08	91.25
357.307	93.25
357.534	105.25
357.761	94.25
357.988	89.25
358.215	104.25
358.441	98.25
358.668	93.25
358.895	90.25
359.122	87.25
359.349	93.25
359.576	95.25
359.802	110.25
360.029	94.25
360.256	100.25
360.483	89.25
360.709	86.25
360.936	83.25
361.163	89.25
361.39	104.25
361.616	92.25
361.843	87.25
362.07	81.25
362.296	100.25
362.523	93.25
362.749	87.25
362.976	74.25
363.203	98.25
363.429	99.25
363.656	98.25
363.882	97.25
364.109	83.25
364.335	87.25
364.562	78.25
364.788	72.25
365.015	74.25
365.241	95.25
365.468	97.25
365.694	90.25
365.92	106.25
366.147	105.25
366.373	89.25
366.599	80.25
366.826	88.25
367.052	102.25
367.278	80.25
367.505	97.25
367.731	96.25
367.957	87.25
368.184	88.25
368.41	101.25
368.636	127.25
368.862	127.25
369.089	119.25
369.315	101.25
369.541	80.25
369.767	85.25
369.993	93.25
370.219	77.25
370.445	87.25
370.672	85.25
370.898	78.25
371.124	78.25
371.35	79.25
371.576	87.25
371.802	80.25
372.028	88.25
372.254	82.25
372.48	97.25
372.706	90.25
372.932	83.25
373.158	89.25
373.384	91.25
373.61	98.25
373.835	83.25
374.061	98.25
374.287	90.25
374.513	81.25
374.739	81.25
374.965	91.25
375.191	95.25
375.416	72.25
375.642	82.25
375.868	95.25
376.094	71.25
376.319	78.25
376.545	90.25
376.771	86.25
376.997	86.25
377.222	90.25
377.448	98.25
377.674	82.25
377.899	85.25
378.125	95.25
378.35	80.25
378.576	83.25
378.802	79.25
379.027	86.25
379.253	92.25
379.478	90.25
379.704	93.25
379.929	78.25
380.155	94.25
380.38	89.25
380.606	91.25
380.831	88.25
381.057	87.25
381.282	88.25
381.507	97.25
381.733	84.25
381.958	90.25
382.184	97.25
382.409	101.25
382.634	101.25
382.86	105.25
383.085	105.25
383.31	103.25
383.535	95.25
383.761	96.25
383.986	105.25
384.211	102.25
384.436	99.25
384.662	101.25
384.887	91.25
385.112	96.25
385.337	104.25
385.562	114.25
385.787	107.25
386.013	102.25
386.238	104.25
386.463	99.25
386.688	109.25
386.913	104.25
387.138	102.25
387.363	103.25
387.588	106.25
387.813	90.25
388.038	104.25
388.263	105.25
388.488	103.25
388.713	105.25
388.938	87.25
389.163	84.25
389.387	98.25
389.612	88.25
389.837	94.25
390.062	86.25
390.287	79.25
390.512	83.25
390.736	88.25
390.961	91.25
391.186	89.25
391.411	89.25
391.636	82.25
391.86	88.25
392.085	86.25
392.31	84.25
392.534	81.25
392.759	85.25
392.984	91.25
393.208	91.25
393.433	95.25
393.658	83.25
393.882	85.25
394.107	88.25
394.331	87.25
394.556	78.25
394.78	81.25
395.005	77.25
395.229	72.25
395.454	93.25
395.678	78.25
395.903	83.25
396.127	90.25
396.352	80.25
396.576	94.25
396.801	85.25
397.025	101.25
397.249	89.25
397.474	93.25
397.698	82.25
397.922	81.25
398.147	74.25
398.371	80.25
398.595	81.25
398.82	70.25
399.044	81.25
399.268	86.25
399.492	95.25
399.717	79.25
399.941	81.25
400.165	96.25
400.389	98.25
400.613	90.25
400.837	90.25
401.062	94.25
401.286	75.25
401.51	96.25
401.734	89.25
401.958	103.25
402.182	122.25
402.406	135.25
402.63	110.25
402.854	103.25
403.078	98.25
403.302	105.25
403.526	82.25
403.75	87.25
403.974	100.25
404.198	83.25
404.422	95.25
404.645	80.25
404.869	79.25
405.093	87.25
405.317	106.25
405.541	115.25
405.765	95.25
405.988	117.25
406.212	152.25
406.436	183.25
406.66	129.25
406.883	92.25
407.107	102.25
407.331	91.25
407.555	102.25
407.778	97.25
408.002	79.25
408.226	99.25
408.449	100.25
408.673	72.25
408.896	73.25
409.12	96.25
409.344	77.25
409.567	93.25
409.791	80.25
410.014	95.25
410.238	79.25
410.461	80.25
410.685	79.25
410.908	91.25
411.132	98.25
411.355	92.25
411.578	88.25
411.802	96.25
412.025	89.25
412.249	87.25
412.472	97.25
412.695	85.25
412.919	83.25
413.142	98.25
413.365	72.25
413.589	81.25
413.812	88.25
414.035	93.25
414.258	117.25
414.482	106.25
414.705	87.25
414.928	95.25
415.151	101.25
415.374	85.25
415.597	72.25
415.821	75.25
416.044	101.25
416.267	78.25
416.49	79.25
416.713	87.25
416.936	90.25
417.159	90.25
417.382	71.25
417.605	97.25
417.828	100.25
418.051	89.25
418.274	86.25
418.497	89.25
418.72	94.25
418.943	98.25
419.166	81.25
419.389	89.25
419.611	86.25
419.834	95.25
420.057	93.25
420.28	78.25
420.503	82.25
420.726	88.25
420.948	79.25
421.171	94.25
421.394	94.25
421.617	88.25
421.839	79.25
422.062	77.25
422.285	89.25
422.507	97.25
422.73	117.25
422.953	99.25
423.175	90.25
423.398	99.25
423.621	92.25
423.843	82.25
424.066	83.25
424.288	80.25
424.511	99.25
424.733	100.25
424.956	102.25
425.178	105.25
425.401	105.25
425.623	90.25
425.846	91.25
426.068	96.25
426.291	74.25
426.513	93.25
426.735	85.25
426.958	83.25
427.18	101.25
427.402	126.25
427.625	158.25
427.847	133.25
428.069	116.25
428.292	93.25
428.514	83.25
428.736	80.25
428.958	80.25
429.181	80.25
429.403	87.25
429.625	87.25
429.847	85.25
430.069	94.25
430.292	95.25
430.514	98.25
430.736	85.25
430.958	93.25
431.18	70.25
431.402	89.25
431.624	82.25
431.846	84.25
432.068	68.25
432.29	95.25
432.512	90.25
432.734	72.25
432.956	95.25
433.178	83.25
433.4	93.25
433.622	96.25
433.844	89.25
434.066	94.25
434.287	96.25
434.509	98.25
434.731	81.25
434.953	81.25
435.175	88.25
435.397	85.25
435.618	85.25
435.84	107.25
436.062	112.25
436.284	110.25
436.505	90.25
436.727	91.25
436.949	101.25
437.17	81.25
437.392	72.25
437.614	84.25
437.835	118.25
438.057	114.25
438.278	106.25
438.5	104.25
438.721	114.25
438.943	85.25
439.165	97.25
439.386	82.25
439.608	79.25
439.829	106.25
440.05	113.25
440.272	128.25
440.493	98.25
440.715	93.25
440.936	83.25
441.158	81.25
441.379	90.25
441.6	92.25
441.822	91.25
442.043	87.25
442.264	98.25
442.486	107.25
442.707	96.25
442.928	101.25
443.149	122.25
443.371	116.25
443.592	103.25
443.813	113.25
444.034	99.25
444.255	91.25
444.476	67.25
444.698	81.25
444.919	83.25
445.14	135.25
445.361	117.25
445.582	96.25
445.803	117.25
446.024	115.25
446.245	123.25
446.466	106.25
446.687	84.25
446.908	95.25
447.129	89.25
447.35	88.25
447.571	87.25
447.792	87.25
448.013	91.25
448.234	88.25
448.455	106.25
448.675	114.25
448.896	113.25
449.117	87.25
449.338	101.25
449.559	99.25
449.779	130.25
450	90.25
450.221	88.25
450.442	93.25
450.662	96.25
450.883	107.25
451.104	111.25
451.324	91.25
451.545	90.25
451.766	75.25
451.986	77.25
452.207	80.25
452.428	91.25
452.648	88.25
452.869	106.25
453.089	106.25
453.31	111.25
453.53	74.25
453.751	97.25
453.971	94.25
454.192	101.25
454.412	97.25
454.633	80.25
454.853	95.25
455.073	78.25
455.294	105.25
455.514	95.25
455.734	87.25
455.955	89.25
456.175	88.25
456.395	83.25
456.616	81.25
456.836	90.25
457.056	83.25
457.276	84.25
457.497	89.25
457.717	85.25
457.937	90.25
458.157	82.25
458.377	96.25
458.598	105.25
458.818	135.25
459.038	130.25
459.258	105.25
459.478	90.25
459.698	80.25
459.918	97.25
460.138	80.25
460.358	79.25
460.578	82.25
460.798	87.25
461.018	93.25
461.238	82.25
461.458	89.25
461.678	91.25
461.898	86.25
462.118	71.25
462.338	93.25
462.558	87.25
462.777	78.25
462.997	83.25
463.217	86.25
463.437	81.25
463.657	93.25
463.876	79.25
464.096	96.25
464.316	88.25
464.536	93.25
464.755	97.25
464.975	115.25
465.195	156.25
465.414	137.25
465.634	92.25
465.854	87.25
466.073	90.25
466.293	80.25
466.512	84.25
466.732	81.25
466.951	93.25
467.171	96.25
467.391	88.25
467.61	103.25
467.829	88.25
468.049	136.25
468.268	160.25
468.488	114.25
468.707	99.25
468.927	80.25
469.146	81.25
469.365	99.25
469.585	88.25
469.804	88.25
470.023	85.25
470.243	83.25
470.462	101.25
470.681	105.25
470.901	95.25
471.12	90.25
471.339	97.25
471.558	83.25
471.777	96.25
471.997	119.25
472.216	223.25
472.435	398.25
472.654	141.25
472.873	87.25
473.092	89.25
473.311	90.25
473.53	90.25
473.749	87.25
473.968	107.25
474.187	114.25
474.406	93.25
474.625	92.25
474.844	86.25
475.063	83.25
475.282	80.25
475.501	74.25
475.72	91.25
475.939	75.25
476.158	84.25
476.377	89.25
476.596	93.25
476.814	89.25
477.033	86.25
477.252	85.25
477.471	75.25
477.69	92.25
477.908	95.25
478.127	90.25
478.346	80.25
478.564	93.25
478.783	78.25
479.002	88.25
479.22	92.25
479.439	106.25
479.658	98.25
479.876	96.25
480.095	88.25
480.313	111.25
480.532	114.25
480.751	114.25
480.969	210.25
481.188	679.25
481.406	431.25
481.624	129.25
481.843	97.25
482.061	80.25
482.28	94.25
482.498	83.25
482.717	79.25
482.935	83.25
483.153	88.25
483.372	89.25
483.59	87.25
483.808	70.25
484.027	94.25
484.245	98.25
484.463	89.25
484.681	98.25
484.9	102.25
485.118	107.25
485.336	88.25
485.554	97.25
485.772	100.25
485.99	99.25
486.209	101.25
486.427	96.25
486.645	120.25
486.863	117.25
487.081	85.25
487.299	90.25
487.517	113.25
487.735	101.25
487.953	102.25
488.171	83.25
488.389	89.25
488.607	87.25
488.825	90.25
489.043	71.25
489.261	89.25
489.479	88.25
489.696	96.25
489.914	81.25
490.132	69.25
490.35	86.25
490.568	81.25
490.786	92.25
491.003	101.25
491.221	87.25
491.439	111.25
491.657	96.25
491.874	96.25
492.092	89.25
492.31	90.25
492.527	78.25
492.745	87.25
492.963	95.25
493.18	93.25
493.398	94.25
493.615	99.25
493.833	101.25
494.05	97.25
494.268	83.25
494.485	83.25
494.703	86.25
494.92	80.25
495.138	95.25
495.355	90.25
495.573	93.25
495.79	100.25
496.008	91.25
496.225	88.25
496.442	89.25
496.66	90.25
496.877	99.25
497.094	99.25
497.312	94.25
497.529	86.25
497.746	86.25
497.963	94.25
498.181	106.25
498.398	86.25
498.615	106.25
498.832	106.25
499.049	96.25
499.267	74.25
499.484	81.25
499.701	101.25
499.918	81.25
500.135	83.25
500.352	92.25
500.569	84.25
500.786	90.25
501.003	94.25
501.22	85.25
501.437	87.25
501.654	95.25
501.871	100.25
502.088	95.25
502.305	81.25
502.522	70.25
502.739	91.25
502.956	96.25
503.172	89.25
503.389	91.25
503.606	85.25
503.823	86.25
504.04	99.25
504.256	87.25
504.473	87.25
504.69	89.25
504.907	93.25
505.123	84.25
505.34	84.25
505.557	112.25
505.773	89.25
505.99	90.25
506.207	83.25
506.423	98.25
506.64	80.25
506.856	95.25
507.073	78.25
507.289	84.25
507.506	112.25
507.722	104.25
507.939	110.25
508.155	111.25
508.372	91.25
508.588	99.25
508.805	100.25
509.021	95.25
509.238	95.25
509.454	83.25
509.67	87.25
509.887	100.25
510.103	126.25
510.319	193.25
510.536	635.25
510.752	2030.25
510.968	565.25
511.184	135.25
511.401	101.25
511.617	97.25
511.833	98.25
512.049	108.25
512.265	90.25
512.481	86.25
512.698	89.25
512.914	92.25
513.13	89.25
513.346	95.25
513.562	93.25
513.778	98.25
513.994	95.25
514.21	110.25
514.426	106.25
514.642	136.25
514.858	119.25
515.074	145.25
515.29	370.25
515.506	1203.25
515.721	466.25
515.937	145.25
516.153	102.25
516.369	89.25
516.585	96.25
516.801	97.25
517.016	89.25
517.232	99.25
517.448	89.25
517.664	83.25
517.879	91.25
518.095	89.25
518.311	99.25
518.527	93.25
518.742	86.25
518.958	87.25
519.173	93.25
519.389	106.25
519.605	82.25
519.82	97.25
520.036	110.25
520.251	109.25
520.467	100.25
520.682	98.25
520.898	95.25
521.113	108.25
521.329	119.25
521.544	168.25
521.76	475.25
521.975	1953.25
522.19	1176.25
522.406	254.25
522.621	119.25
522.836	86.25
523.052	99.25
523.267	90.25
523.482	91.25
523.698	103.25
523.913	109.25
524.128	101.25
524.343	91.25
524.559	98.25
524.774	91.25
524.989	85.25
525.204	107.25
525.419	102.25
525.634	83.25
525.849	90.25
526.064	85.25
526.28	81.25
526.495	77.25
526.71	69.25
526.925	98.25
527.14	98.25
527.355	84.25
527.57	79.25
527.785	87.25
527.999	99.25
528.214	107.25
528.429	76.25
528.644	87.25
528.859	89.25
529.074	99.25
529.289	122.25
529.503	154.25
529.718	114.25
529.933	86.25
530.148	97.25
530.363	96.25
530.577	79.25
530.792	86.25
531.007	88.25
531.221	98.25
531.436	93.25
531.651	93.25
531.865	84.25
532.08	98.25
532.295	80.25
532.509	100.25
532.724	106.25
532.938	102.25
533.153	89.25
533.367	86.25
533.582	104.25
533.796	86.25
534.011	94.25
534.225	101.25
534.44	79.25
534.654	87.25
534.868	94.25
535.083	96.25
535.297	88.25
535.511	89.25
535.726	105.25
535.94	89.25
536.154	102.25
536.369	74.25
536.583	79.25
536.797	101.25
537.011	87.25
537.225	86.25
537.44	93.25
537.654	91.25
537.868	85.25
538.082	86.25
538.296	83.25
538.51	79.25
538.724	98.25
538.938	95.25
539.153	89.25
539.367	92.25
539.581	84.25
539.795	111.25
540.009	89.25
540.222	90.25
540.436	90.25
540.65	100.25
540.864	83.25
541.078	97.25
541.292	74.25
541.506	94.25
541.72	82.25
541.934	93.25
542.147	86.25
542.361	84.25
542.575	78.25
542.789	89.25
543.002	80.25
543.216	85.25
543.43	101.25
543.644	85.25
543.857	90.25
544.071	99.25
544.285	100.25
544.498	73.25
544.712	95.25
544.925	80.25
545.139	86.25
545.352	94.25
545.566	89.25
545.779	82.25
545.993	98.25
546.206	93.25
546.42	87.25
546.633	87.25
546.847	70.25
547.06	91.25
547.274	86.25
547.487	83.25
547.7	95.25
547.914	77.25
548.127	103.25
548.34	93.25
548.554	101.25
548.767	97.25
548.98	87.25
549.193	81.25
549.407	85.25
549.62	80.25
549.833	93.25
550.046	91.25
550.259	97.25
550.473	91.25
550.686	88.25
550.899	85.25
551.112	83.25
551.325	88.25
551.538	84.25
551.751	96.25
551.964	95.25
552.177	88.25
552.39	90.25
552.603	81.25
552.816	86.25
553.029	97.25
553.242	86.25
553.455	99.25
553.667	90.25
553.88	113.25
554.093	94.25
554.306	79.25
554.519	99.25
554.732	87.25
554.944	84.25
555.157	81.25
555.37	96.25
555.583	92.25
555.795	78.25
556.008	85.25
556.221	80.25
556.433	81.25
556.646	93.25
556.859	86.25
557.071	80.25
557.284	88.25
557.496	94.25
557.709	81.25
557.921	85.25
558.134	90.25
558.346	93.25
558.559	81.25
558.771	85.25
558.984	71.25
559.196	88.25
559.409	96.25
559.621	95.25
559.833	90.25
560.046	67.25
560.258	79.25
560.47	89.25
560.683	82.25
560.895	94.25
561.107	87.25
561.32	90.25
561.532	90.25
561.744	79.25
561.956	81.25
562.168	101.25
562.381	81.25
562.593	84.25
562.805	93.25
563.017	85.25
563.229	94.25
563.441	81.25
563.653	81.25
563.865	98.25
564.077	88.25
564.289	81.25
564.501	88.25
564.713	73.25
564.925	90.25
565.137	97.25
565.349	84.25
565.561	98.25
565.773	89.25
565.985	90.25
566.197	77.25
566.408	96.25
566.62	87.25
566.832	96.25
567.044	82.25
567.255	94.25
567.467	71.25
567.679	91.25
567.891	68.25
568.102	73.25
568.314	73.25
568.526	86.25
568.737	90.25
568.949	79.25
569.161	84.25
569.372	84.25
569.584	82.25
569.795	80.25
570.007	105.25
570.218	215.25
570.43	121.25
570.641	77.25
570.853	83.25
571.064	86.25
571.276	74.25
571.487	82.25
571.698	95.25
571.91	83.25
572.121	90.25
572.333	85.25
572.544	90.25
572.755	89.25
572.966	87.25
573.178	82.25
573.389	96.25
573.6	74.25
573.811	86.25
574.023	76.25
574.234	88.25
574.445	99.25
574.656	104.25
574.867	96.25
575.078	82.25
575.289	90.25
575.501	97.25
575.712	90.25
575.923	90.25
576.134	94.25
576.345	82.25
576.556	93.25
576.767	102.25
576.978	102.25
577.188	90.25
577.399	82.25
577.61	90.25
577.821	87.25
578.032	117.25
578.243	213.25
578.454	583.25
578.665	179.25
578.875	95.25
579.086	91.25
579.297	89.25
579.508	85.25
579.718	106.25
579.929	96.25
580.14	83.25
580.35	86.25
580.561	80.25
580.772	79.25
580.982	87.25
581.193	90.25
581.403	81.25
581.614	72.25
581.825	78.25
582.035	88.25
582.246	87.25
582.456	98.25
582.667	95.25
582.877	90.25
583.087	85.25
583.298	79.25
583.508	88.25
583.719	90.25
583.929	96.25
584.139	74.25
584.35	91.25
584.56	101.25
584.77	95.25
584.981	79.25
585.191	87.25
585.401	74.25
585.611	78.25
585.821	83.25
586.032	73.25
586.242	93.25
586.452	79.25
586.662	74.25
586.872	71.25
587.082	82.25
587.292	80.25
587.502	88.25
587.713	79.25
587.923	70.25
588.133	87.25
588.343	81.25
588.553	89.25
588.762	94.25
588.972	90.25
589.182	129.25
589.392	107.25
589.602	70.25
589.812	109.25
590.022	80.25
590.232	71.25
590.441	95.25
590.651	74.25
590.861	80.25
591.071	73.25
591.281	104.25
591.49	84.25
591.7	87.25
591.91	80.25
592.119	99.25
592.329	90.25
592.539	85.25
592.748	96.25
592.958	93.25
593.167	81.25
593.377	87.25
593.587	93.25
593.796	86.25
594.006	103.25
594.215	83.25
594.424	95.25
594.634	83.25
594.843	81.25
595.053	73.25
595.262	74.25
595.472	90.25
595.681	93.25
595.89	86.25
596.1	85.25
596.309	79.25
596.518	101.25
596.727	90.25
596.937	96.25
597.146	98.25
597.355	84.25
597.564	81.25
597.774	81.25
597.983	82.25
598.192	87.25
598.401	80.25
598.61	91.25
598.819	81.25
599.028	91.25
599.237	90.25
599.446	88.25
599.655	79.25
599.864	90.25
600.073	70.25
600.282	91.25
600.491	103.25
600.7	105.25
600.909	93.25
601.118	98.25
601.327	70.25
601.536	92.25
601.745	104.25
601.953	89.25
602.162	82.25
602.371	91.25
602.58	103.25
602.789	72.25
602.997	81.25
603.206	98.25
603.415	93.25
603.623	77.25
603.832	79.25
604.041	70.25
604.249	77.25
604.458	88.25
604.666	85.25
604.875	93.25
605.084	76.25
605.292	88.25
605.501	81.25
605.709	87.25
605.918	74.25
606.126	88.25
606.334	78.25
606.543	85.25
606.751	95.25
606.96	91.25
607.168	97.25
607.376	77.25
607.585	83.25
607.793	72.25
608.001	91.25
608.21	78.25
608.418	89.25
608.626	92.25
608.834	77.25
609.043	66.25
609.251	85.25
609.459	79.25
609.667	86.25
609.875	90.25
610.083	81.25
610.291	81.25
610.499	82.25
610.707	73.25
610.916	81.25
611.124	94.25
611.332	72.25
611.54	90.25
611.748	87.25
611.955	92.25
612.163	85.25
612.371	81.25
612.579	72.25
612.787	73.25
612.995	78.25
613.203	90.25
613.411	74.25
613.618	74.25
613.826	81.25
614.034	79.25
614.242	88.25
614.449	92.25
614.657	69.25
614.865	109.25
615.072	83.25
615.28	81.25
615.488	97.25
615.695	78.25
615.903	94.25
616.111	81.25
616.318	105.25
616.526	89.25
616.733	84.25
616.941	95.25
617.148	86.25
617.356	93.25
617.563	93.25
617.771	83.25
617.978	74.25
618.185	85.25
618.393	80.25
618.6	81.25
618.807	91.25
619.015	78.25
619.222	77.25
619.429	91.25
619.637	74.25
619.844	87.25
620.051	88.25
620.258	78.25
620.466	86.25
620.673	77.25
620.88	89.25
621.087	88.25
621.294	65.25
621.501	73.25
621.708	99.25
621.915	79.25
622.122	81.25
622.329	81.25
622.536	87.25
622.743	89.25
622.95	82.25
623.157	75.25
623.364	89.25
623.571	90.25
623.778	86.25
623.985	82.25
624.192	79.25
624.399	82.25
624.606	85.25
624.812	71.25
625.019	77.25
625.226	77.25
625.433	97.25
625.639	81.25
625.846	84.25
626.053	82.25
626.259	70.25
626.466	73.25
626.673	93.25
626.879	74.25
627.086	65.25
627.293	78.25
627.499	81.25
627.706	79.25
627.912	90.25
628.119	78.25
628.325	82.25
628.532	87.25
628.738	74.25
628.945	66.25
629.151	80.25
629.357	90.25
629.564	84.25
629.77	81.25
629.976	83.25
630.183	78.25
630.389	91.25
630.595	89.25
630.802	77.25
631.008	79.25
631.214	70.25
631.42	72.25
631.627	90.25
631.833	93.25
632.039	74.25
632.245	81.25
632.451	72.25
632.657	59.25
632.863	87.25
633.069	89.25
633.275	80.25
633.481	64.25
633.688	87.25
633.893	96.25
634.099	96.25
634.305	87.25
634.511	81.25
634.717	70.25
634.923	87.25
635.129	79.25
635.335	71.25
635.541	74.25
635.747	73.25
635.952	88.25
636.158	86.25
636.364	107.25
636.57	107.25
636.775	94.25
636.981	89.25
637.187	93.25
637.392	79.25
637.598	95.25
637.804	87.25
638.009	84.25
638.215	89.25
638.421	68.25
638.626	79.25
638.832	88.25
639.037	91.25
639.243	81.25
639.448	81.25
639.654	67.25
639.859	88.25
640.065	90.25
640.27	89.25
640.475	83.25
640.681	90.25
640.886	90.25
641.091	82.25
641.297	79.25
641.502	76.25
641.707	88.25
641.913	85.25
642.118	91.25
642.323	81.25
642.528	97.25
642.733	84.25
642.939	71.25
643.144	77.25
643.349	74.25
643.554	69.25
643.759	93.25
643.964	78.25
644.169	90.25
644.374	90.25
644.579	79.25
644.784	78.25
644.989	91.25
645.194	79.25
645.399	90.25
645.604	89.25
645.809	83.25
646.014	79.25
646.219	89.25
646.423	90.25
646.628	97.25
646.833	76.25
647.038	91.25
647.243	83.25
647.447	79.25
647.652	89.25
647.857	91.25
648.062	87.25
648.266	88.25
648.471	91.25
648.676	90.25
648.88	88.25
649.085	110.25
649.289	83.25
649.494	97.25
649.698	120.25
649.903	103.25
650.107	78.25
650.312	87.25
650.516	75.25
650.721	85.25
650.925	77.25
651.13	80.25
651.334	80.25
651.539	77.25
651.743	91.25
651.947	89.25
652.152	90.25
652.356	85.25
652.56	81.25
652.764	80.25
652.969	75.25
653.173	73.25
653.377	83.25
653.581	85.25
653.785	77.25
653.99	77.25
654.194	75.25
654.398	85.25
654.602	74.25
654.806	83.25
655.01	102.25
655.214	100.25
655.418	82.25
655.622	81.25
655.826	69.25
656.03	76.25
656.234	92.25
656.438	90.25
656.642	89.25
656.846	99.25
657.049	74.25
657.253	104.25
657.457	84.25
657.661	82.25
657.865	80.25
658.068	85.25
658.272	84.25
658.476	78.25
658.68	88.25
658.883	83.25
659.087	75.25
659.291	89.25
659.494	81.25
659.698	80.25
659.901	90.25
660.105	83.25
660.309	101.25
660.512	82.25
660.716	83.25
660.919	83.25
661.123	83.25
661.326	75.25
661.53	78.25
661.733	80.25
661.936	89.25
662.14	93.25
662.343	85.25
662.546	79.25
662.75	82.25
662.953	75.25
663.156	82.25
663.36	85.25
663.563	72.25
663.766	85.25
663.969	77.25
664.173	72.25
664.376	79.25
664.579	88.25
664.782	102.25
664.985	64.25
665.188	88.25
665.391	83.25
665.594	86.25
665.797	71.25
666	104.25
666.203	79.25
666.406	102.25
666.609	90.25
666.812	83.25
667.015	77.25
667.218	86.25
667.421	86.25
667.624	101.25
667.827	81.25
668.03	79.25
668.232	70.25
668.435	79.25
668.638	87.25
668.841	83.25
669.043	83.25
669.246	79.25
669.449	78.25
669.651	87.25
669.854	75.25
670.057	86.25
670.259	75.25
670.462	81.25
670.665	78.25
670.867	83.25
671.07	77.25
671.272	90.25
671.475	82.25
671.677	68.25
671.88	68.25
672.082	77.25
672.284	78.25
672.487	88.25
672.689	81.25
672.892	88.25
