Data from Circ_1984_H10_HRD10591_00043.txt Node
Date: Wed Jan 03 12:22:50 EST 2024
User: Yrep
Spectrometer: HR+D1059
Trigger mode: 1
Integration Time (sec): 1.000000E-1
Scans to average: 1
Electric dark correction enabled: true
Nonlinearity correction enabled: false
Boxcar width: 0
XAxis mode: Wavelengths
Number of Pixels in Spectrum: 2048
>>>>>Begin Spectral Data<<<<<
223.165	-16.88
223.4	-16.88
223.635	-16.88
223.869	-29.88
224.104	-7.88
224.338	-18.88
224.573	-11.88
224.808	-1.88
225.042	-10.88
225.277	-5.88
225.511	-3.88
225.746	0.12
225.98	8.12
226.215	18.12
226.449	1.12
226.683	12.12
226.918	25.12
227.152	43.12
227.387	26.12
227.621	38.12
227.856	46.12
228.09	43.12
228.324	59.12
228.559	59.12
228.793	60.12
229.027	64.12
229.262	68.12
229.496	71.12
229.73	75.12
229.964	76.12
230.199	79.12
230.433	69.12
230.667	89.12
230.901	83.12
231.136	83.12
231.37	76.12
231.604	85.12
231.838	83.12
232.072	93.12
232.306	90.12
232.541	83.12
232.775	79.12
233.009	93.12
233.243	72.12
233.477	93.12
233.711	97.12
233.945	75.12
234.179	90.12
234.413	75.12
234.647	76.12
234.881	69.12
235.115	76.12
235.349	73.12
235.583	90.12
235.817	90.12
236.051	66.12
236.285	81.12
236.519	78.12
236.753	89.12
236.987	83.12
237.221	89.12
237.455	66.12
237.689	79.12
237.922	79.12
238.156	86.12
238.39	68.12
238.624	76.12
238.858	79.12
239.091	75.12
239.325	70.12
239.559	70.12
239.793	78.12
240.027	84.12
240.26	78.12
240.494	72.12
240.728	60.12
240.961	83.12
241.195	61.12
241.429	77.12
241.662	87.12
241.896	72.12
242.13	79.12
242.363	69.12
242.597	81.12
242.83	80.12
243.064	83.12
243.298	85.12
243.531	83.12
243.765	75.12
243.998	74.12
244.232	90.12
244.465	69.12
244.699	75.12
244.932	71.12
245.166	71.12
245.399	83.12
245.633	71.12
245.866	74.12
246.099	77.12
246.333	73.12
246.566	67.12
246.8	71.12
247.033	88.12
247.266	72.12
247.5	74.12
247.733	76.12
247.966	75.12
248.2	78.12
248.433	88.12
248.666	73.12
248.899	78.12
249.133	79.12
249.366	94.12
249.599	84.12
249.832	89.12
250.066	87.12
250.299	81.12
250.532	71.12
250.765	75.12
250.998	80.12
251.231	69.12
251.465	76.12
251.698	68.12
251.931	68.12
252.164	76.12
252.397	88.12
252.63	89.12
252.863	85.12
253.096	81.12
253.329	79.12
253.562	81.12
253.795	74.12
254.028	81.12
254.261	92.12
254.494	90.12
254.727	74.12
254.96	91.12
255.193	88.12
255.426	72.12
255.659	82.12
255.892	74.12
256.124	75.12
256.357	81.12
256.59	82.12
256.823	79.12
257.056	74.12
257.289	73.12
257.521	76.12
257.754	76.12
257.987	74.12
258.22	88.12
258.452	85.12
258.685	96.12
258.918	69.12
259.151	85.12
259.383	69.12
259.616	64.12
259.849	74.12
260.081	83.12
260.314	88.12
260.547	85.12
260.779	91.12
261.012	93.12
261.244	89.12
261.477	101.12
261.71	84.12
261.942	102.12
262.175	105.12
262.407	89.12
262.64	85.12
262.872	74.12
263.105	89.12
263.337	81.12
263.57	88.12
263.802	84.12
264.035	100.12
264.267	86.12
264.499	79.12
264.732	89.12
264.964	88.12
265.197	87.12
265.429	83.12
265.661	91.12
265.894	81.12
266.126	83.12
266.358	75.12
266.591	81.12
266.823	85.12
267.055	92.12
267.287	82.12
267.52	82.12
267.752	82.12
267.984	92.12
268.216	96.12
268.448	86.12
268.681	85.12
268.913	86.12
269.145	87.12
269.377	86.12
269.609	75.12
269.841	92.12
270.073	82.12
270.306	80.12
270.538	76.12
270.77	74.12
271.002	88.12
271.234	93.12
271.466	91.12
271.698	82.12
271.93	87.12
272.162	81.12
272.394	76.12
272.626	92.12
272.858	73.12
273.09	75.12
273.322	81.12
273.553	67.12
273.785	87.12
274.017	88.12
274.249	67.12
274.481	89.12
274.713	79.12
274.945	77.12
275.176	77.12
275.408	97.12
275.64	82.12
275.872	74.12
276.104	73.12
276.335	86.12
276.567	95.12
276.799	102.12
277.031	92.12
277.262	100.12
277.494	94.12
277.726	87.12
277.957	75.12
278.189	89.12
278.421	85.12
278.652	80.12
278.884	91.12
279.115	98.12
279.347	90.12
279.579	85.12
279.81	74.12
280.042	92.12
280.273	101.12
280.505	83.12
280.736	96.12
280.968	96.12
281.199	92.12
281.431	87.12
281.662	77.12
281.894	76.12
282.125	82.12
282.356	109.12
282.588	116.12
282.819	101.12
283.051	89.12
283.282	83.12
283.513	106.12
283.745	85.12
283.976	88.12
284.207	79.12
284.439	79.12
284.67	74.12
284.901	87.12
285.132	85.12
285.364	88.12
285.595	85.12
285.826	92.12
286.057	89.12
286.288	80.12
286.52	82.12
286.751	100.12
286.982	95.12
287.213	83.12
287.444	93.12
287.675	76.12
287.906	82.12
288.138	79.12
288.369	84.12
288.6	95.12
288.831	83.12
289.062	85.12
289.293	84.12
289.524	85.12
289.755	76.12
289.986	82.12
290.217	86.12
290.448	94.12
290.679	73.12
290.91	87.12
291.141	80.12
291.371	86.12
291.602	93.12
291.833	89.12
292.064	80.12
292.295	93.12
292.526	96.12
292.757	100.12
292.987	74.12
293.218	83.12
293.449	71.12
293.68	85.12
293.91	75.12
294.141	81.12
294.372	85.12
294.603	102.12
294.833	95.12
295.064	95.12
295.295	88.12
295.525	91.12
295.756	97.12
295.987	119.12
296.217	121.12
296.448	105.12
296.679	103.12
296.909	82.12
297.14	81.12
297.37	87.12
297.601	94.12
297.831	89.12
298.062	84.12
298.292	83.12
298.523	87.12
298.753	83.12
298.984	95.12
299.214	84.12
299.445	80.12
299.675	85.12
299.905	106.12
300.136	95.12
300.366	99.12
300.597	88.12
300.827	86.12
301.057	92.12
301.288	96.12
301.518	89.12
301.748	98.12
301.979	105.12
302.209	91.12
302.439	90.12
302.669	80.12
302.9	93.12
303.13	81.12
303.36	97.12
303.59	87.12
303.82	99.12
304.051	91.12
304.281	91.12
304.511	86.12
304.741	84.12
304.971	88.12
305.201	98.12
305.431	85.12
305.661	89.12
305.891	88.12
306.121	96.12
306.352	106.12
306.582	82.12
306.812	100.12
307.042	100.12
307.272	93.12
307.502	93.12
307.731	113.12
307.961	91.12
308.191	89.12
308.421	86.12
308.651	103.12
308.881	92.12
309.111	95.12
309.341	98.12
309.571	91.12
309.8	89.12
310.03	88.12
310.26	87.12
310.49	97.12
310.72	102.12
310.949	106.12
311.179	90.12
311.409	89.12
311.639	90.12
311.868	96.12
312.098	89.12
312.328	95.12
312.557	92.12
312.787	83.12
313.017	95.12
313.246	92.12
313.476	98.12
313.706	95.12
313.935	89.12
314.165	98.12
314.394	106.12
314.624	88.12
314.853	92.12
315.083	74.12
315.312	95.12
315.542	87.12
315.771	93.12
316.001	95.12
316.23	99.12
316.46	96.12
316.689	93.12
316.919	85.12
317.148	99.12
317.377	86.12
317.607	100.12
317.836	77.12
318.065	86.12
318.295	93.12
318.524	72.12
318.753	85.12
318.983	88.12
319.212	99.12
319.441	98.12
319.67	95.12
319.9	91.12
320.129	92.12
320.358	88.12
320.587	96.12
320.816	100.12
321.046	84.12
321.275	89.12
321.504	72.12
321.733	86.12
321.962	95.12
322.191	88.12
322.42	92.12
322.649	116.12
322.878	97.12
323.108	118.12
323.337	95.12
323.566	108.12
323.795	127.12
324.024	173.12
324.253	315.12
324.482	622.12
324.71	1263.12
324.939	1698.12
325.168	638.12
325.397	218.12
325.626	140.12
325.855	117.12
326.084	120.12
326.313	127.12
326.542	129.12
326.77	188.12
326.999	356.12
327.228	722.12
327.457	1317.12
327.686	1062.12
327.914	313.12
328.143	185.12
328.372	169.12
328.6	144.12
328.829	103.12
329.058	112.12
329.287	126.12
329.515	103.12
329.744	113.12
329.972	132.12
330.201	160.12
330.43	230.12
330.658	148.12
330.887	131.12
331.115	123.12
331.344	116.12
331.572	97.12
331.801	95.12
332.03	87.12
332.258	103.12
332.486	89.12
332.715	98.12
332.943	90.12
333.172	100.12
333.4	97.12
333.629	104.12
333.857	105.12
334.085	134.12
334.314	168.12
334.542	267.12
334.771	229.12
334.999	123.12
335.227	107.12
335.455	108.12
335.684	102.12
335.912	97.12
336.14	104.12
336.369	106.12
336.597	97.12
336.825	99.12
337.053	103.12
337.281	92.12
337.51	90.12
337.738	91.12
337.966	83.12
338.194	93.12
338.422	89.12
338.65	99.12
338.878	92.12
339.106	76.12
339.334	103.12
339.562	93.12
339.79	96.12
340.018	92.12
340.246	120.12
340.474	110.12
340.702	84.12
340.93	107.12
341.158	88.12
341.386	81.12
341.614	91.12
341.842	98.12
342.07	93.12
342.298	99.12
342.526	89.12
342.754	91.12
342.981	93.12
343.209	103.12
343.437	98.12
343.665	98.12
343.893	83.12
344.12	95.12
344.348	99.12
344.576	106.12
344.804	93.12
345.031	87.12
345.259	90.12
345.487	97.12
345.714	99.12
345.942	85.12
346.17	92.12
346.397	93.12
346.625	79.12
346.853	86.12
347.08	94.12
347.308	90.12
347.535	95.12
347.763	97.12
347.99	91.12
348.218	106.12
348.445	94.12
348.673	93.12
348.9	90.12
349.128	92.12
349.355	105.12
349.583	87.12
349.81	101.12
350.037	85.12
350.265	98.12
350.492	92.12
350.72	83.12
350.947	88.12
351.174	93.12
351.402	98.12
351.629	100.12
351.856	104.12
352.083	99.12
352.311	104.12
352.538	103.12
352.765	86.12
352.992	100.12
353.22	102.12
353.447	113.12
353.674	103.12
353.901	93.12
354.128	107.12
354.355	97.12
354.583	98.12
354.81	108.12
355.037	92.12
355.264	99.12
355.491	85.12
355.718	98.12
355.945	84.12
356.172	82.12
356.399	87.12
356.626	82.12
356.853	107.12
357.08	88.12
357.307	87.12
357.534	95.12
357.761	91.12
357.988	97.12
358.215	99.12
358.441	93.12
358.668	91.12
358.895	87.12
359.122	87.12
359.349	86.12
359.576	91.12
359.802	91.12
360.029	94.12
360.256	105.12
360.483	92.12
360.709	92.12
360.936	95.12
361.163	104.12
361.39	107.12
361.616	92.12
361.843	87.12
362.07	94.12
362.296	75.12
362.523	87.12
362.749	81.12
362.976	83.12
363.203	92.12
363.429	82.12
363.656	93.12
363.882	88.12
364.109	83.12
364.335	107.12
364.562	74.12
364.788	76.12
365.015	96.12
365.241	92.12
365.468	103.12
365.694	97.12
365.92	93.12
366.147	85.12
366.373	101.12
366.599	80.12
366.826	81.12
367.052	73.12
367.278	99.12
367.505	83.12
367.731	87.12
367.957	85.12
368.184	96.12
368.41	99.12
368.636	101.12
368.862	91.12
369.089	97.12
369.315	82.12
369.541	83.12
369.767	95.12
369.993	97.12
370.219	95.12
370.445	85.12
370.672	92.12
370.898	92.12
371.124	89.12
371.35	88.12
371.576	92.12
371.802	92.12
372.028	80.12
372.254	91.12
372.48	92.12
372.706	82.12
372.932	77.12
373.158	84.12
373.384	94.12
373.61	91.12
373.835	95.12
374.061	103.12
374.287	88.12
374.513	91.12
374.739	82.12
374.965	85.12
375.191	91.12
375.416	98.12
375.642	90.12
375.868	90.12
376.094	93.12
376.319	86.12
376.545	91.12
376.771	104.12
376.997	80.12
377.222	88.12
377.448	103.12
377.674	77.12
377.899	77.12
378.125	100.12
378.35	83.12
378.576	100.12
378.802	94.12
379.027	70.12
379.253	101.12
379.478	86.12
379.704	90.12
379.929	95.12
380.155	90.12
380.38	86.12
380.606	85.12
380.831	81.12
381.057	90.12
381.282	97.12
381.507	107.12
381.733	95.12
381.958	87.12
382.184	104.12
382.409	107.12
382.634	99.12
382.86	86.12
383.085	83.12
383.31	96.12
383.535	109.12
383.761	90.12
383.986	97.12
384.211	105.12
384.436	92.12
384.662	96.12
384.887	105.12
385.112	99.12
385.337	103.12
385.562	108.12
385.787	98.12
386.013	102.12
386.238	100.12
386.463	100.12
386.688	121.12
386.913	113.12
387.138	103.12
387.363	98.12
387.588	93.12
387.813	105.12
388.038	92.12
388.263	119.12
388.488	104.12
388.713	93.12
388.938	86.12
389.163	82.12
389.387	101.12
389.612	94.12
389.837	95.12
390.062	105.12
390.287	101.12
390.512	98.12
390.736	75.12
390.961	89.12
391.186	93.12
391.411	107.12
391.636	93.12
391.86	81.12
392.085	81.12
392.31	93.12
392.534	82.12
392.759	88.12
392.984	76.12
393.208	82.12
393.433	92.12
393.658	103.12
393.882	86.12
394.107	89.12
394.331	85.12
394.556	92.12
394.78	101.12
395.005	82.12
395.229	88.12
395.454	88.12
395.678	94.12
395.903	90.12
396.127	97.12
396.352	88.12
396.576	90.12
396.801	81.12
397.025	83.12
397.249	87.12
397.474	97.12
397.698	95.12
397.922	85.12
398.147	95.12
398.371	85.12
398.595	87.12
398.82	83.12
399.044	81.12
399.268	86.12
399.492	106.12
399.717	91.12
399.941	93.12
400.165	95.12
400.389	91.12
400.613	85.12
400.837	80.12
401.062	81.12
401.286	84.12
401.51	84.12
401.734	102.12
401.958	109.12
402.182	113.12
402.406	136.12
402.63	107.12
402.854	99.12
403.078	82.12
403.302	90.12
403.526	86.12
403.75	87.12
403.974	92.12
404.198	82.12
404.422	92.12
404.645	90.12
404.869	72.12
405.093	102.12
405.317	110.12
405.541	105.12
405.765	96.12
405.988	108.12
406.212	135.12
406.436	176.12
406.66	111.12
406.883	96.12
407.107	87.12
407.331	92.12
407.555	85.12
407.778	91.12
408.002	92.12
408.226	94.12
408.449	94.12
408.673	85.12
408.896	91.12
409.12	109.12
409.344	87.12
409.567	89.12
409.791	85.12
410.014	95.12
410.238	96.12
410.461	95.12
410.685	88.12
410.908	105.12
411.132	103.12
411.355	83.12
411.578	97.12
411.802	94.12
412.025	92.12
412.249	95.12
412.472	93.12
412.695	90.12
412.919	96.12
413.142	93.12
413.365	93.12
413.589	86.12
413.812	90.12
414.035	93.12
414.258	93.12
414.482	85.12
414.705	98.12
414.928	103.12
415.151	93.12
415.374	95.12
415.597	94.12
415.821	80.12
416.044	86.12
416.267	94.12
416.49	81.12
416.713	99.12
416.936	88.12
417.159	92.12
417.382	96.12
417.605	87.12
417.828	95.12
418.051	95.12
418.274	96.12
418.497	94.12
418.72	85.12
418.943	95.12
419.166	92.12
419.389	95.12
419.611	85.12
419.834	90.12
420.057	95.12
420.28	98.12
420.503	72.12
420.726	95.12
420.948	91.12
421.171	102.12
421.394	92.12
421.617	89.12
421.839	91.12
422.062	85.12
422.285	91.12
422.507	92.12
422.73	95.12
422.953	106.12
423.175	78.12
423.398	74.12
423.621	90.12
423.843	91.12
424.066	84.12
424.288	81.12
424.511	89.12
424.733	99.12
424.956	99.12
425.178	93.12
425.401	106.12
425.623	83.12
425.846	88.12
426.068	89.12
426.291	104.12
426.513	97.12
426.735	101.12
426.958	90.12
427.18	98.12
427.402	122.12
427.625	153.12
427.847	134.12
428.069	118.12
428.292	89.12
428.514	80.12
428.736	81.12
428.958	92.12
429.181	99.12
429.403	101.12
429.625	81.12
429.847	87.12
430.069	91.12
430.292	95.12
430.514	102.12
430.736	77.12
430.958	83.12
431.18	90.12
431.402	72.12
431.624	84.12
431.846	91.12
432.068	90.12
432.29	97.12
432.512	89.12
432.734	75.12
432.956	87.12
433.178	92.12
433.4	94.12
433.622	99.12
433.844	78.12
434.066	84.12
434.287	83.12
434.509	73.12
434.731	95.12
434.953	100.12
435.175	103.12
435.397	88.12
435.618	90.12
435.84	91.12
436.062	110.12
436.284	118.12
436.505	112.12
436.727	100.12
436.949	104.12
437.17	107.12
437.392	100.12
437.614	106.12
437.835	98.12
438.057	96.12
438.278	92.12
438.5	88.12
438.721	120.12
438.943	97.12
439.165	88.12
439.386	98.12
439.608	91.12
439.829	94.12
440.05	120.12
440.272	122.12
440.493	98.12
440.715	89.12
440.936	85.12
441.158	83.12
441.379	88.12
441.6	91.12
441.822	102.12
442.043	89.12
442.264	91.12
442.486	111.12
442.707	96.12
442.928	85.12
443.149	116.12
443.371	128.12
443.592	96.12
443.813	96.12
444.034	95.12
444.255	83.12
444.476	103.12
444.698	79.12
444.919	88.12
445.14	145.12
445.361	138.12
445.582	96.12
445.803	125.12
446.024	118.12
446.245	108.12
446.466	105.12
446.687	96.12
446.908	85.12
447.129	84.12
447.35	82.12
447.571	93.12
447.792	87.12
448.013	96.12
448.234	109.12
448.455	94.12
448.675	107.12
448.896	107.12
449.117	108.12
449.338	109.12
449.559	106.12
449.779	113.12
450	97.12
450.221	96.12
450.442	80.12
450.662	99.12
450.883	97.12
451.104	103.12
451.324	89.12
451.545	96.12
451.766	97.12
451.986	91.12
452.207	80.12
452.428	89.12
452.648	103.12
452.869	95.12
453.089	94.12
453.31	107.12
453.53	99.12
453.751	101.12
453.971	99.12
454.192	104.12
454.412	82.12
454.633	83.12
454.853	99.12
455.073	91.12
455.294	79.12
455.514	108.12
455.734	101.12
455.955	90.12
456.175	97.12
456.395	72.12
456.616	90.12
456.836	79.12
457.056	90.12
457.276	85.12
457.497	76.12
457.717	93.12
457.937	67.12
458.157	89.12
458.377	96.12
458.598	115.12
458.818	135.12
459.038	139.12
459.258	98.12
459.478	91.12
459.698	84.12
459.918	81.12
460.138	79.12
460.358	92.12
460.578	83.12
460.798	90.12
461.018	99.12
461.238	71.12
461.458	91.12
461.678	83.12
461.898	81.12
462.118	84.12
462.338	86.12
462.558	88.12
462.777	75.12
462.997	91.12
463.217	82.12
463.437	72.12
463.657	90.12
463.876	95.12
464.096	88.12
464.316	101.12
464.536	88.12
464.755	79.12
464.975	97.12
465.195	147.12
465.414	127.12
465.634	81.12
465.854	91.12
466.073	95.12
466.293	97.12
466.512	85.12
466.732	93.12
466.951	75.12
467.171	100.12
467.391	79.12
467.61	105.12
467.829	99.12
468.049	131.12
468.268	137.12
468.488	104.12
468.707	87.12
468.927	89.12
469.146	75.12
469.365	85.12
469.585	97.12
469.804	83.12
470.023	98.12
470.243	90.12
470.462	93.12
470.681	110.12
470.901	98.12
471.12	93.12
471.339	83.12
471.558	89.12
471.777	92.12
471.997	105.12
472.216	215.12
472.435	322.12
472.654	127.12
472.873	89.12
473.092	114.12
473.311	86.12
473.53	96.12
473.749	81.12
473.968	99.12
474.187	85.12
474.406	97.12
474.625	93.12
474.844	78.12
475.063	89.12
475.282	72.12
475.501	84.12
475.72	95.12
475.939	94.12
476.158	93.12
476.377	98.12
476.596	92.12
476.814	82.12
477.033	85.12
477.252	83.12
477.471	86.12
477.69	99.12
477.908	91.12
478.127	87.12
478.346	91.12
478.564	99.12
478.783	101.12
479.002	89.12
479.22	88.12
479.439	105.12
479.658	98.12
479.876	82.12
480.095	94.12
480.313	92.12
480.532	97.12
480.751	100.12
480.969	203.12
481.188	542.12
481.406	340.12
481.624	123.12
481.843	93.12
482.061	98.12
482.28	84.12
482.498	81.12
482.717	85.12
482.935	89.12
483.153	99.12
483.372	90.12
483.59	103.12
483.808	89.12
484.027	88.12
484.245	98.12
484.463	80.12
484.681	93.12
484.9	101.12
485.118	91.12
485.336	94.12
485.554	97.12
485.772	93.12
485.99	103.12
486.209	107.12
486.427	96.12
486.645	99.12
486.863	108.12
487.081	85.12
487.299	104.12
487.517	95.12
487.735	91.12
487.953	91.12
488.171	98.12
488.389	87.12
488.607	88.12
488.825	78.12
489.043	96.12
489.261	82.12
489.479	97.12
489.696	92.12
489.914	83.12
490.132	74.12
490.35	104.12
490.568	93.12
490.786	89.12
491.003	93.12
491.221	87.12
491.439	105.12
491.657	91.12
491.874	102.12
492.092	89.12
492.31	83.12
492.527	92.12
492.745	71.12
492.963	88.12
493.18	83.12
493.398	85.12
493.615	100.12
493.833	101.12
494.05	91.12
494.268	97.12
494.485	87.12
494.703	96.12
494.92	87.12
495.138	79.12
495.355	95.12
495.573	69.12
495.79	84.12
496.008	95.12
496.225	94.12
496.442	99.12
496.66	88.12
496.877	101.12
497.094	101.12
497.312	89.12
497.529	80.12
497.746	91.12
497.963	90.12
498.181	100.12
498.398	90.12
498.615	90.12
498.832	102.12
499.049	89.12
499.267	90.12
499.484	88.12
499.701	82.12
499.918	84.12
500.135	86.12
500.352	96.12
500.569	77.12
500.786	97.12
501.003	102.12
501.22	102.12
501.437	90.12
501.654	98.12
501.871	98.12
502.088	93.12
502.305	81.12
502.522	92.12
502.739	102.12
502.956	96.12
503.172	79.12
503.389	97.12
503.606	90.12
503.823	89.12
504.04	86.12
504.256	83.12
504.473	85.12
504.69	84.12
504.907	88.12
505.123	94.12
505.34	96.12
505.557	85.12
505.773	84.12
505.99	103.12
506.207	97.12
506.423	79.12
506.64	90.12
506.856	92.12
507.073	86.12
507.289	90.12
507.506	103.12
507.722	95.12
507.939	108.12
508.155	105.12
508.372	96.12
508.588	90.12
508.805	108.12
509.021	98.12
509.238	100.12
509.454	87.12
509.67	106.12
509.887	101.12
510.103	113.12
510.319	169.12
510.536	573.12
510.752	1766.12
510.968	487.12
511.184	124.12
511.401	108.12
511.617	102.12
511.833	84.12
512.049	94.12
512.265	87.12
512.481	102.12
512.698	98.12
512.914	87.12
513.13	95.12
513.346	96.12
513.562	83.12
513.778	93.12
513.994	81.12
514.21	93.12
514.426	119.12
514.642	117.12
514.858	106.12
515.074	137.12
515.29	353.12
515.506	1080.12
515.721	382.12
515.937	132.12
516.153	108.12
516.369	105.12
516.585	98.12
516.801	99.12
517.016	83.12
517.232	99.12
517.448	90.12
517.664	83.12
517.879	77.12
518.095	91.12
518.311	92.12
518.527	110.12
518.742	97.12
518.958	86.12
519.173	89.12
519.389	107.12
519.605	99.12
519.82	103.12
520.036	89.12
520.251	106.12
520.467	110.12
520.682	100.12
520.898	99.12
521.113	89.12
521.329	124.12
521.544	181.12
521.76	417.12
521.975	1743.12
522.19	1052.12
522.406	264.12
522.621	119.12
522.836	95.12
523.052	83.12
523.267	93.12
523.482	72.12
523.698	102.12
523.913	103.12
524.128	82.12
524.343	87.12
524.559	95.12
524.774	83.12
524.989	87.12
525.204	95.12
525.419	95.12
525.634	97.12
525.849	92.12
526.064	105.12
526.28	94.12
526.495	90.12
526.71	92.12
526.925	80.12
527.14	86.12
527.355	90.12
527.57	93.12
527.785	102.12
527.999	74.12
528.214	75.12
528.429	98.12
528.644	84.12
528.859	86.12
529.074	95.12
529.289	109.12
529.503	158.12
529.718	96.12
529.933	94.12
530.148	85.12
530.363	74.12
530.577	85.12
530.792	100.12
531.007	91.12
531.221	91.12
531.436	92.12
531.651	86.12
531.865	91.12
532.08	79.12
532.295	84.12
532.509	94.12
532.724	82.12
532.938	98.12
533.153	100.12
533.367	98.12
533.582	84.12
533.796	87.12
534.011	86.12
534.225	79.12
534.44	84.12
534.654	82.12
534.868	94.12
535.083	105.12
535.297	90.12
535.511	100.12
535.726	102.12
535.94	106.12
536.154	88.12
536.369	92.12
536.583	88.12
536.797	88.12
537.011	90.12
537.225	95.12
537.44	108.12
537.654	104.12
537.868	89.12
538.082	104.12
538.296	86.12
538.51	92.12
538.724	86.12
538.938	96.12
539.153	81.12
539.367	99.12
539.581	94.12
539.795	103.12
540.009	91.12
540.222	82.12
540.436	91.12
540.65	79.12
540.864	85.12
541.078	70.12
541.292	81.12
541.506	79.12
541.72	82.12
541.934	83.12
542.147	87.12
542.361	97.12
542.575	94.12
542.789	96.12
543.002	95.12
543.216	89.12
543.43	97.12
543.644	80.12
543.857	83.12
544.071	80.12
544.285	105.12
544.498	82.12
544.712	84.12
544.925	91.12
545.139	85.12
545.352	104.12
545.566	88.12
545.779	85.12
545.993	99.12
546.206	86.12
546.42	82.12
546.633	86.12
546.847	88.12
547.06	82.12
547.274	86.12
547.487	69.12
547.7	86.12
547.914	86.12
548.127	93.12
548.34	83.12
548.554	84.12
548.767	88.12
548.98	114.12
549.193	85.12
549.407	82.12
549.62	80.12
549.833	86.12
550.046	79.12
550.259	100.12
550.473	111.12
550.686	99.12
550.899	87.12
551.112	91.12
551.325	91.12
551.538	91.12
551.751	86.12
551.964	89.12
552.177	83.12
552.39	85.12
552.603	84.12
552.816	89.12
553.029	85.12
553.242	92.12
553.455	92.12
553.667	101.12
553.88	84.12
554.093	85.12
554.306	99.12
554.519	88.12
554.732	90.12
554.944	88.12
555.157	91.12
555.37	86.12
555.583	91.12
555.795	103.12
556.008	71.12
556.221	80.12
556.433	91.12
556.646	86.12
556.859	89.12
557.071	85.12
557.284	94.12
557.496	90.12
557.709	81.12
557.921	85.12
558.134	76.12
558.346	87.12
558.559	80.12
558.771	72.12
558.984	81.12
559.196	97.12
559.409	92.12
559.621	86.12
559.833	96.12
560.046	99.12
560.258	89.12
560.47	88.12
560.683	95.12
560.895	97.12
561.107	95.12
561.32	95.12
561.532	85.12
561.744	82.12
561.956	95.12
562.168	81.12
562.381	89.12
562.593	82.12
562.805	92.12
563.017	92.12
563.229	104.12
563.441	95.12
563.653	87.12
563.865	91.12
564.077	71.12
564.289	81.12
564.501	89.12
564.713	75.12
564.925	100.12
565.137	100.12
565.349	89.12
565.561	71.12
565.773	75.12
565.985	96.12
566.197	75.12
566.408	75.12
566.62	91.12
566.832	90.12
567.044	76.12
567.255	80.12
567.467	80.12
567.679	82.12
567.891	81.12
568.102	85.12
568.314	100.12
568.526	82.12
568.737	72.12
568.949	91.12
569.161	84.12
569.372	87.12
569.584	84.12
569.795	82.12
570.007	117.12
570.218	183.12
570.43	115.12
570.641	89.12
570.853	86.12
571.064	90.12
571.276	89.12
571.487	80.12
571.698	87.12
571.91	85.12
572.121	99.12
572.333	96.12
572.544	86.12
572.755	86.12
572.966	97.12
573.178	92.12
573.389	92.12
573.6	69.12
573.811	75.12
574.023	93.12
574.234	96.12
574.445	100.12
574.656	75.12
574.867	91.12
575.078	91.12
575.289	84.12
575.501	80.12
575.712	82.12
575.923	82.12
576.134	92.12
576.345	91.12
576.556	85.12
576.767	104.12
576.978	86.12
577.188	81.12
577.399	88.12
577.61	84.12
577.821	101.12
578.032	101.12
578.243	205.12
578.454	529.12
578.665	156.12
578.875	113.12
579.086	89.12
579.297	92.12
579.508	83.12
579.718	93.12
579.929	83.12
580.14	83.12
580.35	80.12
580.561	100.12
580.772	75.12
580.982	73.12
581.193	87.12
581.403	79.12
581.614	90.12
581.825	85.12
582.035	88.12
582.246	96.12
582.456	84.12
582.667	74.12
582.877	95.12
583.087	95.12
583.298	91.12
583.508	98.12
583.719	94.12
583.929	101.12
584.139	86.12
584.35	92.12
584.56	80.12
584.77	75.12
584.981	74.12
585.191	82.12
585.401	79.12
585.611	85.12
585.821	87.12
586.032	91.12
586.242	87.12
586.452	91.12
586.662	83.12
586.872	77.12
587.082	95.12
587.292	85.12
587.502	86.12
587.713	91.12
587.923	85.12
588.133	86.12
588.343	73.12
588.553	81.12
588.762	95.12
588.972	82.12
589.182	137.12
589.392	107.12
589.602	92.12
589.812	105.12
590.022	105.12
590.232	83.12
590.441	71.12
590.651	79.12
590.861	87.12
591.071	100.12
591.281	94.12
591.49	95.12
591.7	95.12
591.91	85.12
592.119	74.12
592.329	74.12
592.539	101.12
592.748	94.12
592.958	76.12
593.167	79.12
593.377	92.12
593.587	95.12
593.796	85.12
594.006	75.12
594.215	81.12
594.424	100.12
594.634	87.12
594.843	77.12
595.053	83.12
595.262	74.12
595.472	85.12
595.681	73.12
595.89	92.12
596.1	91.12
596.309	79.12
596.518	87.12
596.727	87.12
596.937	84.12
597.146	77.12
597.355	89.12
597.564	93.12
597.774	94.12
597.983	92.12
598.192	87.12
598.401	88.12
598.61	83.12
598.819	84.12
599.028	90.12
599.237	87.12
599.446	93.12
599.655	82.12
599.864	84.12
600.073	87.12
600.282	88.12
600.491	90.12
600.7	93.12
600.909	91.12
601.118	90.12
601.327	93.12
601.536	89.12
601.745	82.12
601.953	109.12
602.162	93.12
602.371	90.12
602.58	88.12
602.789	103.12
602.997	87.12
603.206	82.12
603.415	99.12
603.623	75.12
603.832	76.12
604.041	96.12
604.249	88.12
604.458	77.12
604.666	87.12
604.875	96.12
605.084	95.12
605.292	79.12
605.501	91.12
605.709	84.12
605.918	89.12
606.126	86.12
606.334	91.12
606.543	74.12
606.751	74.12
606.96	78.12
607.168	98.12
607.376	87.12
607.585	84.12
607.793	72.12
608.001	83.12
608.21	76.12
608.418	95.12
608.626	103.12
608.834	73.12
609.043	88.12
609.251	78.12
609.459	82.12
609.667	88.12
609.875	83.12
610.083	88.12
610.291	90.12
610.499	99.12
610.707	90.12
610.916	104.12
611.124	75.12
611.332	88.12
611.54	82.12
611.748	99.12
611.955	84.12
612.163	86.12
612.371	99.12
612.579	87.12
612.787	87.12
612.995	89.12
613.203	87.12
613.411	92.12
613.618	76.12
613.826	79.12
614.034	79.12
614.242	80.12
614.449	77.12
614.657	87.12
614.865	86.12
615.072	83.12
615.28	88.12
615.488	83.12
615.695	79.12
615.903	91.12
616.111	104.12
616.318	93.12
616.526	95.12
616.733	92.12
616.941	99.12
617.148	103.12
617.356	81.12
617.563	74.12
617.771	70.12
617.978	90.12
618.185	90.12
618.393	74.12
618.6	73.12
618.807	88.12
619.015	95.12
619.222	70.12
619.429	97.12
619.637	76.12
619.844	91.12
620.051	87.12
620.258	85.12
620.466	86.12
620.673	91.12
620.88	92.12
621.087	85.12
621.294	85.12
621.501	99.12
621.708	84.12
621.915	97.12
622.122	73.12
622.329	92.12
622.536	87.12
622.743	86.12
622.95	89.12
623.157	73.12
623.364	79.12
623.571	74.12
623.778	97.12
623.985	96.12
624.192	101.12
624.399	77.12
624.606	89.12
624.812	89.12
625.019	83.12
625.226	75.12
625.433	87.12
625.639	88.12
625.846	83.12
626.053	84.12
626.259	79.12
626.466	78.12
626.673	100.12
626.879	98.12
627.086	76.12
627.293	101.12
627.499	86.12
627.706	75.12
627.912	90.12
628.119	91.12
628.325	79.12
628.532	87.12
628.738	88.12
628.945	61.12
629.151	79.12
629.357	79.12
629.564	77.12
629.77	90.12
629.976	79.12
630.183	81.12
630.389	79.12
630.595	83.12
630.802	73.12
631.008	87.12
631.214	78.12
631.42	92.12
631.627	83.12
631.833	97.12
632.039	89.12
632.245	89.12
632.451	84.12
632.657	76.12
632.863	86.12
633.069	91.12
633.275	85.12
633.481	92.12
633.688	94.12
633.893	97.12
634.099	80.12
634.305	87.12
634.511	90.12
634.717	76.12
634.923	84.12
635.129	87.12
635.335	71.12
635.541	85.12
635.747	75.12
635.952	75.12
636.158	87.12
636.364	101.12
636.57	120.12
636.775	69.12
636.981	75.12
637.187	80.12
637.392	89.12
637.598	82.12
637.804	85.12
638.009	94.12
638.215	79.12
638.421	89.12
638.626	82.12
638.832	87.12
639.037	86.12
639.243	83.12
639.448	91.12
639.654	77.12
639.859	70.12
640.065	91.12
640.27	95.12
640.475	79.12
640.681	92.12
640.886	91.12
641.091	74.12
641.297	83.12
641.502	69.12
641.707	93.12
641.913	83.12
642.118	75.12
642.323	77.12
642.528	90.12
642.733	87.12
642.939	89.12
643.144	85.12
643.349	89.12
643.554	88.12
643.759	99.12
643.964	95.12
644.169	88.12
644.374	79.12
644.579	83.12
644.784	86.12
644.989	93.12
645.194	76.12
645.399	86.12
645.604	88.12
645.809	82.12
646.014	83.12
646.219	87.12
646.423	81.12
646.628	77.12
646.833	99.12
647.038	83.12
647.243	88.12
647.447	84.12
647.652	81.12
647.857	88.12
648.062	90.12
648.266	83.12
648.471	91.12
648.676	101.12
648.88	86.12
649.085	87.12
649.289	87.12
649.494	104.12
649.698	108.12
649.903	108.12
650.107	76.12
650.312	74.12
650.516	85.12
650.721	92.12
650.925	83.12
651.13	72.12
651.334	67.12
651.539	81.12
651.743	88.12
651.947	75.12
652.152	91.12
652.356	81.12
652.56	68.12
652.764	75.12
652.969	89.12
653.173	80.12
653.377	96.12
653.581	74.12
653.785	83.12
653.99	71.12
654.194	73.12
654.398	99.12
654.602	95.12
654.806	93.12
655.01	95.12
655.214	100.12
655.418	83.12
655.622	85.12
655.826	75.12
656.03	80.12
656.234	102.12
656.438	96.12
656.642	98.12
656.846	81.12
657.049	86.12
657.253	98.12
657.457	101.12
657.661	85.12
657.865	84.12
658.068	68.12
658.272	89.12
658.476	94.12
658.68	86.12
658.883	84.12
659.087	78.12
659.291	70.12
659.494	92.12
659.698	69.12
659.901	74.12
660.105	71.12
660.309	83.12
660.512	76.12
660.716	92.12
660.919	96.12
661.123	88.12
661.326	76.12
661.53	80.12
661.733	91.12
661.936	90.12
662.14	81.12
662.343	87.12
662.546	90.12
662.75	94.12
662.953	89.12
663.156	78.12
663.36	83.12
663.563	73.12
663.766	73.12
663.969	86.12
664.173	87.12
664.376	91.12
664.579	90.12
664.782	84.12
664.985	83.12
665.188	87.12
665.391	83.12
665.594	80.12
665.797	88.12
666	96.12
666.203	82.12
666.406	88.12
666.609	94.12
666.812	88.12
667.015	85.12
667.218	83.12
667.421	91.12
667.624	75.12
667.827	90.12
668.03	76.12
668.232	87.12
668.435	72.12
668.638	73.12
668.841	86.12
669.043	87.12
669.246	82.12
669.449	72.12
669.651	73.12
669.854	79.12
670.057	89.12
670.259	76.12
670.462	83.12
670.665	77.12
670.867	83.12
671.07	103.12
671.272	81.12
671.475	88.12
671.677	84.12
671.88	69.12
672.082	75.12
672.284	72.12
672.487	86.12
672.689	81.12
672.892	77.12
