Data from Circ_1984_H10_HRD10591_00044.txt Node
Date: Wed Jan 03 12:22:50 EST 2024
User: Yrep
Spectrometer: HR+D1059
Trigger mode: 1
Integration Time (sec): 1.000000E-1
Scans to average: 1
Electric dark correction enabled: true
Nonlinearity correction enabled: false
Boxcar width: 0
XAxis mode: Wavelengths
Number of Pixels in Spectrum: 2048
>>>>>Begin Spectral Data<<<<<
223.165	-18.25
223.4	-18.25
223.635	-18.25
223.869	-14.25
224.104	-20.25
224.338	-26.25
224.573	-17.25
224.808	-20.25
225.042	-0.25
225.277	-16.25
225.511	2.75
225.746	-3.25
225.98	10.75
226.215	12.75
226.449	24.75
226.683	17.75
226.918	34.75
227.152	32.75
227.387	22.75
227.621	47.75
227.856	36.75
228.09	49.75
228.324	59.75
228.559	47.75
228.793	59.75
229.027	53.75
229.262	49.75
229.496	85.75
229.73	88.75
229.964	78.75
230.199	72.75
230.433	70.75
230.667	80.75
230.901	73.75
231.136	85.75
231.37	75.75
231.604	90.75
231.838	81.75
232.072	87.75
232.306	84.75
232.541	85.75
232.775	77.75
233.009	66.75
233.243	79.75
233.477	72.75
233.711	82.75
233.945	63.75
234.179	79.75
234.413	84.75
234.647	73.75
234.881	81.75
235.115	95.75
235.349	76.75
235.583	83.75
235.817	78.75
236.051	81.75
236.285	88.75
236.519	79.75
236.753	79.75
236.987	72.75
237.221	81.75
237.455	89.75
237.689	79.75
237.922	78.75
238.156	81.75
238.39	67.75
238.624	68.75
238.858	75.75
239.091	75.75
239.325	77.75
239.559	84.75
239.793	88.75
240.027	77.75
240.26	69.75
240.494	77.75
240.728	72.75
240.961	84.75
241.195	79.75
241.429	98.75
241.662	80.75
241.896	79.75
242.13	79.75
242.363	70.75
242.597	82.75
242.83	72.75
243.064	73.75
243.298	79.75
243.531	66.75
243.765	66.75
243.998	89.75
244.232	67.75
244.465	89.75
244.699	79.75
244.932	90.75
245.166	86.75
245.399	68.75
245.633	68.75
245.866	68.75
246.099	80.75
246.333	68.75
246.566	83.75
246.8	89.75
247.033	95.75
247.266	87.75
247.5	83.75
247.733	79.75
247.966	83.75
248.2	87.75
248.433	80.75
248.666	67.75
248.899	81.75
249.133	93.75
249.366	106.75
249.599	101.75
249.832	80.75
250.066	88.75
250.299	89.75
250.532	85.75
250.765	81.75
250.998	83.75
251.231	85.75
251.465	80.75
251.698	85.75
251.931	77.75
252.164	65.75
252.397	71.75
252.63	85.75
252.863	88.75
253.096	75.75
253.329	89.75
253.562	79.75
253.795	80.75
254.028	79.75
254.261	77.75
254.494	89.75
254.727	88.75
254.96	86.75
255.193	61.75
255.426	88.75
255.659	66.75
255.892	90.75
256.124	78.75
256.357	83.75
256.59	77.75
256.823	87.75
257.056	84.75
257.289	91.75
257.521	97.75
257.754	93.75
257.987	97.75
258.22	81.75
258.452	81.75
258.685	92.75
258.918	87.75
259.151	88.75
259.383	85.75
259.616	81.75
259.849	65.75
260.081	71.75
260.314	84.75
260.547	85.75
260.779	70.75
261.012	79.75
261.244	83.75
261.477	80.75
261.71	84.75
261.942	97.75
262.175	111.75
262.407	87.75
262.64	82.75
262.872	90.75
263.105	90.75
263.337	76.75
263.57	77.75
263.802	95.75
264.035	76.75
264.267	76.75
264.499	85.75
264.732	83.75
264.964	69.75
265.197	87.75
265.429	77.75
265.661	71.75
265.894	96.75
266.126	76.75
266.358	91.75
266.591	82.75
266.823	86.75
267.055	82.75
267.287	85.75
267.52	86.75
267.752	77.75
267.984	79.75
268.216	81.75
268.448	85.75
268.681	87.75
268.913	70.75
269.145	96.75
269.377	76.75
269.609	99.75
269.841	74.75
270.073	91.75
270.306	102.75
270.538	91.75
270.77	77.75
271.002	82.75
271.234	92.75
271.466	87.75
271.698	83.75
271.93	93.75
272.162	98.75
272.394	90.75
272.626	89.75
272.858	79.75
273.09	81.75
273.322	99.75
273.553	85.75
273.785	101.75
274.017	76.75
274.249	77.75
274.481	93.75
274.713	77.75
274.945	83.75
275.176	102.75
275.408	96.75
275.64	81.75
275.872	98.75
276.104	95.75
276.335	89.75
276.567	99.75
276.799	107.75
277.031	85.75
277.262	104.75
277.494	81.75
277.726	106.75
277.957	77.75
278.189	79.75
278.421	83.75
278.652	80.75
278.884	91.75
279.115	88.75
279.347	76.75
279.579	96.75
279.81	76.75
280.042	84.75
280.273	101.75
280.505	106.75
280.736	91.75
280.968	92.75
281.199	95.75
281.431	82.75
281.662	76.75
281.894	81.75
282.125	99.75
282.356	99.75
282.588	116.75
282.819	90.75
283.051	95.75
283.282	86.75
283.513	86.75
283.745	68.75
283.976	73.75
284.207	85.75
284.439	84.75
284.67	92.75
284.901	83.75
285.132	84.75
285.364	76.75
285.595	100.75
285.826	89.75
286.057	93.75
286.288	87.75
286.52	74.75
286.751	85.75
286.982	84.75
287.213	79.75
287.444	86.75
287.675	81.75
287.906	81.75
288.138	85.75
288.369	91.75
288.6	79.75
288.831	91.75
289.062	87.75
289.293	94.75
289.524	83.75
289.755	91.75
289.986	100.75
290.217	86.75
290.448	79.75
290.679	90.75
290.91	88.75
291.141	85.75
291.371	97.75
291.602	70.75
291.833	88.75
292.064	93.75
292.295	82.75
292.526	87.75
292.757	90.75
292.987	95.75
293.218	84.75
293.449	87.75
293.68	87.75
293.91	89.75
294.141	84.75
294.372	86.75
294.603	90.75
294.833	85.75
295.064	89.75
295.295	84.75
295.525	84.75
295.756	97.75
295.987	98.75
296.217	122.75
296.448	111.75
296.679	95.75
296.909	88.75
297.14	93.75
297.37	99.75
297.601	82.75
297.831	94.75
298.062	90.75
298.292	73.75
298.523	95.75
298.753	83.75
298.984	83.75
299.214	76.75
299.445	90.75
299.675	95.75
299.905	94.75
300.136	89.75
300.366	83.75
300.597	72.75
300.827	87.75
301.057	103.75
301.288	90.75
301.518	87.75
301.748	94.75
301.979	106.75
302.209	101.75
302.439	84.75
302.669	91.75
302.9	88.75
303.13	93.75
303.36	87.75
303.59	86.75
303.82	94.75
304.051	100.75
304.281	89.75
304.511	85.75
304.741	76.75
304.971	85.75
305.201	89.75
305.431	81.75
305.661	71.75
305.891	102.75
306.121	90.75
306.352	76.75
306.582	100.75
306.812	101.75
307.042	98.75
307.272	92.75
307.502	86.75
307.731	105.75
307.961	96.75
308.191	88.75
308.421	97.75
308.651	84.75
308.881	97.75
309.111	100.75
309.341	96.75
309.571	85.75
309.8	96.75
310.03	101.75
310.26	93.75
310.49	96.75
310.72	87.75
310.949	109.75
311.179	99.75
311.409	86.75
311.639	88.75
311.868	85.75
312.098	89.75
312.328	94.75
312.557	97.75
312.787	106.75
313.017	92.75
313.246	87.75
313.476	86.75
313.706	91.75
313.935	87.75
314.165	93.75
314.394	103.75
314.624	105.75
314.853	95.75
315.083	93.75
315.312	86.75
315.542	83.75
315.771	92.75
316.001	82.75
316.23	90.75
316.46	101.75
316.689	87.75
316.919	91.75
317.148	108.75
317.377	96.75
317.607	90.75
317.836	95.75
318.065	85.75
318.295	86.75
318.524	96.75
318.753	74.75
318.983	75.75
319.212	65.75
319.441	99.75
319.67	95.75
319.9	92.75
320.129	89.75
320.358	96.75
320.587	99.75
320.816	93.75
321.046	91.75
321.275	86.75
321.504	93.75
321.733	93.75
321.962	94.75
322.191	112.75
322.42	90.75
322.649	108.75
322.878	117.75
323.108	107.75
323.337	97.75
323.566	100.75
323.795	146.75
324.024	175.75
324.253	312.75
324.482	621.75
324.71	1259.75
324.939	1658.75
325.168	624.75
325.397	196.75
325.626	134.75
325.855	116.75
326.084	121.75
326.313	113.75
326.542	134.75
326.77	161.75
326.999	358.75
327.228	701.75
327.457	1271.75
327.686	1023.75
327.914	299.75
328.143	191.75
328.372	178.75
328.6	127.75
328.829	113.75
329.058	103.75
329.287	126.75
329.515	110.75
329.744	114.75
329.972	143.75
330.201	183.75
330.43	221.75
330.658	143.75
330.887	132.75
331.115	106.75
331.344	98.75
331.572	101.75
331.801	93.75
332.03	99.75
332.258	105.75
332.486	99.75
332.715	91.75
332.943	101.75
333.172	93.75
333.4	96.75
333.629	100.75
333.857	120.75
334.085	138.75
334.314	173.75
334.542	261.75
334.771	235.75
334.999	117.75
335.227	103.75
335.455	91.75
335.684	100.75
335.912	95.75
336.14	111.75
336.369	112.75
336.597	87.75
336.825	88.75
337.053	83.75
337.281	97.75
337.51	82.75
337.738	94.75
337.966	94.75
338.194	75.75
338.422	79.75
338.65	101.75
338.878	93.75
339.106	103.75
339.334	84.75
339.562	107.75
339.79	105.75
340.018	104.75
340.246	87.75
340.474	100.75
340.702	89.75
340.93	77.75
341.158	100.75
341.386	89.75
341.614	93.75
341.842	96.75
342.07	103.75
342.298	95.75
342.526	81.75
342.754	93.75
342.981	75.75
343.209	85.75
343.437	91.75
343.665	88.75
343.893	86.75
344.12	87.75
344.348	81.75
344.576	86.75
344.804	105.75
345.031	76.75
345.259	97.75
345.487	85.75
345.714	104.75
345.942	98.75
346.17	100.75
346.397	86.75
346.625	95.75
346.853	99.75
347.08	91.75
347.308	98.75
347.535	101.75
347.763	95.75
347.99	114.75
348.218	97.75
348.445	103.75
348.673	96.75
348.9	99.75
349.128	93.75
349.355	88.75
349.583	99.75
349.81	95.75
350.037	97.75
350.265	108.75
350.492	92.75
350.72	89.75
350.947	114.75
351.174	101.75
351.402	100.75
351.629	87.75
351.856	111.75
352.083	87.75
352.311	102.75
352.538	107.75
352.765	97.75
352.992	105.75
353.22	104.75
353.447	101.75
353.674	107.75
353.901	100.75
354.128	106.75
354.355	103.75
354.583	104.75
354.81	93.75
355.037	101.75
355.264	87.75
355.491	90.75
355.718	83.75
355.945	99.75
356.172	101.75
356.399	97.75
356.626	99.75
356.853	99.75
357.08	82.75
357.307	77.75
357.534	85.75
357.761	83.75
357.988	102.75
358.215	96.75
358.441	105.75
358.668	88.75
358.895	74.75
359.122	73.75
359.349	92.75
359.576	101.75
359.802	107.75
360.029	103.75
360.256	111.75
360.483	98.75
360.709	91.75
360.936	87.75
361.163	95.75
361.39	95.75
361.616	81.75
361.843	103.75
362.07	91.75
362.296	101.75
362.523	90.75
362.749	79.75
362.976	79.75
363.203	97.75
363.429	99.75
363.656	104.75
363.882	101.75
364.109	98.75
364.335	104.75
364.562	87.75
364.788	88.75
365.015	81.75
365.241	103.75
365.468	100.75
365.694	96.75
365.92	89.75
366.147	98.75
366.373	103.75
366.599	86.75
366.826	90.75
367.052	76.75
367.278	98.75
367.505	103.75
367.731	76.75
367.957	64.75
368.184	74.75
368.41	91.75
368.636	104.75
368.862	107.75
369.089	102.75
369.315	91.75
369.541	94.75
369.767	92.75
369.993	103.75
370.219	97.75
370.445	99.75
370.672	79.75
370.898	81.75
371.124	83.75
371.35	75.75
371.576	100.75
371.802	87.75
372.028	85.75
372.254	108.75
372.48	92.75
372.706	81.75
372.932	88.75
373.158	89.75
373.384	90.75
373.61	90.75
373.835	80.75
374.061	82.75
374.287	88.75
374.513	84.75
374.739	92.75
374.965	96.75
375.191	93.75
375.416	98.75
375.642	90.75
375.868	101.75
376.094	90.75
376.319	94.75
376.545	86.75
376.771	71.75
376.997	79.75
377.222	85.75
377.448	101.75
377.674	91.75
377.899	95.75
378.125	92.75
378.35	96.75
378.576	84.75
378.802	82.75
379.027	92.75
379.253	79.75
379.478	79.75
379.704	100.75
379.929	102.75
380.155	91.75
380.38	80.75
380.606	83.75
380.831	92.75
381.057	96.75
381.282	98.75
381.507	81.75
381.733	89.75
381.958	102.75
382.184	96.75
382.409	94.75
382.634	99.75
382.86	81.75
383.085	103.75
383.31	103.75
383.535	108.75
383.761	99.75
383.986	104.75
384.211	95.75
384.436	103.75
384.662	83.75
384.887	85.75
385.112	105.75
385.337	87.75
385.562	103.75
385.787	116.75
386.013	102.75
386.238	113.75
386.463	105.75
386.688	91.75
386.913	105.75
387.138	95.75
387.363	92.75
387.588	104.75
387.813	96.75
388.038	105.75
388.263	103.75
388.488	116.75
388.713	89.75
388.938	98.75
389.163	83.75
389.387	85.75
389.612	84.75
389.837	99.75
390.062	98.75
390.287	85.75
390.512	84.75
390.736	91.75
390.961	97.75
391.186	105.75
391.411	99.75
391.636	90.75
391.86	87.75
392.085	86.75
392.31	85.75
392.534	91.75
392.759	86.75
392.984	86.75
393.208	91.75
393.433	100.75
393.658	90.75
393.882	82.75
394.107	90.75
394.331	98.75
394.556	79.75
394.78	83.75
395.005	84.75
395.229	86.75
395.454	86.75
395.678	91.75
395.903	90.75
396.127	86.75
396.352	82.75
396.576	76.75
396.801	87.75
397.025	83.75
397.249	86.75
397.474	75.75
397.698	92.75
397.922	88.75
398.147	96.75
398.371	103.75
398.595	85.75
398.82	89.75
399.044	83.75
399.268	80.75
399.492	85.75
399.717	113.75
399.941	96.75
400.165	93.75
400.389	87.75
400.613	90.75
400.837	92.75
401.062	86.75
401.286	103.75
401.51	86.75
401.734	90.75
401.958	91.75
402.182	110.75
402.406	135.75
402.63	100.75
402.854	81.75
403.078	86.75
403.302	81.75
403.526	95.75
403.75	83.75
403.974	99.75
404.198	71.75
404.422	75.75
404.645	70.75
404.869	92.75
405.093	105.75
405.317	103.75
405.541	101.75
405.765	88.75
405.988	110.75
406.212	147.75
406.436	173.75
406.66	116.75
406.883	89.75
407.107	72.75
407.331	82.75
407.555	95.75
407.778	107.75
408.002	102.75
408.226	82.75
408.449	95.75
408.673	101.75
408.896	99.75
409.12	106.75
409.344	98.75
409.567	87.75
409.791	88.75
410.014	94.75
410.238	89.75
410.461	93.75
410.685	84.75
410.908	92.75
411.132	101.75
411.355	87.75
411.578	100.75
411.802	91.75
412.025	92.75
412.249	99.75
412.472	85.75
412.695	104.75
412.919	99.75
413.142	87.75
413.365	105.75
413.589	92.75
413.812	94.75
414.035	83.75
414.258	92.75
414.482	88.75
414.705	77.75
414.928	90.75
415.151	113.75
415.374	87.75
415.597	89.75
415.821	101.75
416.044	92.75
416.267	94.75
416.49	77.75
416.713	89.75
416.936	90.75
417.159	83.75
417.382	84.75
417.605	89.75
417.828	93.75
418.051	101.75
418.274	104.75
418.497	81.75
418.72	79.75
418.943	93.75
419.166	88.75
419.389	82.75
419.611	85.75
419.834	99.75
420.057	95.75
420.28	72.75
420.503	88.75
420.726	78.75
420.948	88.75
421.171	99.75
421.394	103.75
421.617	89.75
421.839	93.75
422.062	82.75
422.285	79.75
422.507	90.75
422.73	104.75
422.953	86.75
423.175	101.75
423.398	91.75
423.621	95.75
423.843	89.75
424.066	81.75
424.288	91.75
424.511	92.75
424.733	102.75
424.956	91.75
425.178	103.75
425.401	98.75
425.623	97.75
425.846	99.75
426.068	86.75
426.291	82.75
426.513	86.75
426.735	85.75
426.958	84.75
427.18	96.75
427.402	147.75
427.625	136.75
427.847	126.75
428.069	116.75
428.292	85.75
428.514	80.75
428.736	76.75
428.958	98.75
429.181	87.75
429.403	79.75
429.625	81.75
429.847	95.75
430.069	101.75
430.292	96.75
430.514	82.75
430.736	76.75
430.958	89.75
431.18	77.75
431.402	87.75
431.624	98.75
431.846	83.75
432.068	81.75
432.29	64.75
432.512	99.75
432.734	90.75
432.956	83.75
433.178	101.75
433.4	88.75
433.622	97.75
433.844	100.75
434.066	80.75
434.287	74.75
434.509	92.75
434.731	71.75
434.953	71.75
435.175	79.75
435.397	120.75
435.618	99.75
435.84	89.75
436.062	122.75
436.284	112.75
436.505	96.75
436.727	77.75
436.949	94.75
437.17	79.75
437.392	92.75
437.614	92.75
437.835	104.75
438.057	101.75
438.278	100.75
438.5	105.75
438.721	112.75
438.943	98.75
439.165	79.75
439.386	95.75
439.608	84.75
439.829	96.75
440.05	110.75
440.272	119.75
440.493	118.75
440.715	95.75
440.936	95.75
441.158	72.75
441.379	76.75
441.6	85.75
441.822	80.75
442.043	79.75
442.264	93.75
442.486	98.75
442.707	89.75
442.928	99.75
443.149	115.75
443.371	117.75
443.592	93.75
443.813	111.75
444.034	95.75
444.255	80.75
444.476	81.75
444.698	94.75
444.919	85.75
445.14	134.75
445.361	117.75
445.582	103.75
445.803	125.75
446.024	125.75
446.245	115.75
446.466	113.75
446.687	96.75
446.908	76.75
447.129	105.75
447.35	79.75
447.571	83.75
447.792	89.75
448.013	103.75
448.234	88.75
448.455	89.75
448.675	108.75
448.896	116.75
449.117	97.75
449.338	102.75
449.559	122.75
449.779	125.75
450	99.75
450.221	76.75
450.442	68.75
450.662	88.75
450.883	90.75
451.104	107.75
451.324	93.75
451.545	87.75
451.766	72.75
451.986	78.75
452.207	80.75
452.428	93.75
452.648	97.75
452.869	98.75
453.089	97.75
453.31	108.75
453.53	91.75
453.751	84.75
453.971	100.75
454.192	97.75
454.412	88.75
454.633	105.75
454.853	84.75
455.073	76.75
455.294	91.75
455.514	92.75
455.734	72.75
455.955	80.75
456.175	94.75
456.395	91.75
456.616	87.75
456.836	89.75
457.056	77.75
457.276	80.75
457.497	82.75
457.717	91.75
457.937	95.75
458.157	91.75
458.377	96.75
458.598	92.75
458.818	132.75
459.038	136.75
459.258	101.75
459.478	80.75
459.698	77.75
459.918	100.75
460.138	76.75
460.358	91.75
460.578	83.75
460.798	92.75
461.018	78.75
461.238	97.75
461.458	86.75
461.678	84.75
461.898	92.75
462.118	75.75
462.338	93.75
462.558	87.75
462.777	87.75
462.997	96.75
463.217	69.75
463.437	83.75
463.657	85.75
463.876	83.75
464.096	94.75
464.316	83.75
464.536	98.75
464.755	89.75
464.975	104.75
465.195	158.75
465.414	134.75
465.634	89.75
465.854	94.75
466.073	83.75
466.293	84.75
466.512	85.75
466.732	91.75
466.951	80.75
467.171	84.75
467.391	106.75
467.61	104.75
467.829	98.75
468.049	130.75
468.268	163.75
468.488	97.75
468.707	89.75
468.927	85.75
469.146	87.75
469.365	87.75
469.585	93.75
469.804	96.75
470.023	93.75
470.243	94.75
470.462	84.75
470.681	111.75
470.901	81.75
471.12	80.75
471.339	83.75
471.558	91.75
471.777	93.75
471.997	121.75
472.216	203.75
472.435	321.75
472.654	127.75
472.873	100.75
473.092	85.75
473.311	98.75
473.53	90.75
473.749	95.75
473.968	74.75
474.187	100.75
474.406	95.75
474.625	97.75
474.844	92.75
475.063	76.75
475.282	87.75
475.501	90.75
475.72	93.75
475.939	92.75
476.158	95.75
476.377	85.75
476.596	77.75
476.814	87.75
477.033	91.75
477.252	79.75
477.471	94.75
477.69	96.75
477.908	81.75
478.127	84.75
478.346	81.75
478.564	97.75
478.783	92.75
479.002	96.75
479.22	74.75
479.439	98.75
479.658	91.75
479.876	104.75
480.095	89.75
480.313	89.75
480.532	92.75
480.751	113.75
480.969	181.75
481.188	561.75
481.406	314.75
481.624	120.75
481.843	87.75
482.061	90.75
482.28	87.75
482.498	79.75
482.717	83.75
482.935	85.75
483.153	92.75
483.372	84.75
483.59	88.75
483.808	97.75
484.027	92.75
484.245	92.75
484.463	83.75
484.681	98.75
484.9	106.75
485.118	96.75
485.336	96.75
485.554	99.75
485.772	97.75
485.99	106.75
486.209	103.75
486.427	102.75
486.645	116.75
486.863	116.75
487.081	94.75
487.299	95.75
487.517	92.75
487.735	85.75
487.953	94.75
488.171	93.75
488.389	91.75
488.607	98.75
488.825	100.75
489.043	88.75
489.261	79.75
489.479	91.75
489.696	91.75
489.914	90.75
490.132	82.75
490.35	79.75
490.568	99.75
490.786	85.75
491.003	74.75
491.221	81.75
491.439	76.75
491.657	93.75
491.874	79.75
492.092	83.75
492.31	77.75
492.527	95.75
492.745	81.75
492.963	67.75
493.18	92.75
493.398	88.75
493.615	99.75
493.833	84.75
494.05	99.75
494.268	91.75
494.485	81.75
494.703	81.75
494.92	73.75
495.138	95.75
495.355	98.75
495.573	74.75
495.79	97.75
496.008	100.75
496.225	81.75
496.442	93.75
496.66	86.75
496.877	88.75
497.094	103.75
497.312	103.75
497.529	95.75
497.746	86.75
497.963	83.75
498.181	108.75
498.398	81.75
498.615	117.75
498.832	97.75
499.049	99.75
499.267	98.75
499.484	89.75
499.701	89.75
499.918	102.75
500.135	97.75
500.352	83.75
500.569	89.75
500.786	104.75
501.003	92.75
501.22	87.75
501.437	77.75
501.654	96.75
501.871	112.75
502.088	100.75
502.305	75.75
502.522	79.75
502.739	101.75
502.956	85.75
503.172	95.75
503.389	98.75
503.606	101.75
503.823	94.75
504.04	87.75
504.256	98.75
504.473	75.75
504.69	83.75
504.907	92.75
505.123	104.75
505.34	89.75
505.557	96.75
505.773	85.75
505.99	97.75
506.207	87.75
506.423	95.75
506.64	88.75
506.856	98.75
507.073	87.75
507.289	93.75
507.506	96.75
507.722	93.75
507.939	95.75
508.155	93.75
508.372	99.75
508.588	107.75
508.805	80.75
509.021	93.75
509.238	107.75
509.454	92.75
509.67	110.75
509.887	106.75
510.103	135.75
510.319	179.75
510.536	593.75
510.752	1886.75
510.968	520.75
511.184	137.75
511.401	118.75
511.617	91.75
511.833	80.75
512.049	76.75
512.265	85.75
512.481	90.75
512.698	93.75
512.914	89.75
513.13	98.75
513.346	85.75
513.562	84.75
513.778	107.75
513.994	105.75
514.21	87.75
514.426	99.75
514.642	101.75
514.858	101.75
515.074	152.75
515.29	359.75
515.506	1059.75
515.721	379.75
515.937	119.75
516.153	101.75
516.369	77.75
516.585	87.75
516.801	90.75
517.016	106.75
517.232	71.75
517.448	91.75
517.664	96.75
517.879	93.75
518.095	90.75
518.311	82.75
518.527	79.75
518.742	107.75
518.958	89.75
519.173	93.75
519.389	91.75
519.605	96.75
519.82	99.75
520.036	92.75
520.251	121.75
520.467	115.75
520.682	95.75
520.898	94.75
521.113	98.75
521.329	125.75
521.544	148.75
521.76	419.75
521.975	1777.75
522.19	1061.75
522.406	250.75
522.621	111.75
522.836	85.75
523.052	88.75
523.267	101.75
523.482	90.75
523.698	103.75
523.913	108.75
524.128	101.75
524.343	95.75
524.559	93.75
524.774	83.75
524.989	92.75
525.204	86.75
525.419	79.75
525.634	98.75
525.849	89.75
526.064	92.75
526.28	93.75
526.495	99.75
526.71	101.75
526.925	88.75
527.14	87.75
527.355	75.75
527.57	90.75
527.785	86.75
527.999	92.75
528.214	100.75
528.429	90.75
528.644	90.75
528.859	92.75
529.074	92.75
529.289	113.75
529.503	155.75
529.718	103.75
529.933	97.75
530.148	91.75
530.363	90.75
530.577	96.75
530.792	101.75
531.007	92.75
531.221	82.75
531.436	80.75
531.651	97.75
531.865	83.75
532.08	85.75
532.295	85.75
532.509	75.75
532.724	101.75
532.938	91.75
533.153	100.75
533.367	94.75
533.582	103.75
533.796	96.75
534.011	89.75
534.225	75.75
534.44	91.75
534.654	95.75
534.868	95.75
535.083	91.75
535.297	105.75
535.511	101.75
535.726	104.75
535.94	81.75
536.154	103.75
536.369	101.75
536.583	104.75
536.797	99.75
537.011	100.75
537.225	85.75
537.44	93.75
537.654	87.75
537.868	102.75
538.082	80.75
538.296	87.75
538.51	101.75
538.724	107.75
538.938	102.75
539.153	97.75
539.367	100.75
539.581	99.75
539.795	83.75
540.009	84.75
540.222	90.75
540.436	84.75
540.65	82.75
540.864	81.75
541.078	90.75
541.292	95.75
541.506	91.75
541.72	84.75
541.934	87.75
542.147	92.75
542.361	102.75
542.575	91.75
542.789	81.75
543.002	91.75
543.216	91.75
543.43	94.75
543.644	92.75
543.857	94.75
544.071	77.75
544.285	79.75
544.498	89.75
544.712	76.75
544.925	81.75
545.139	63.75
545.352	80.75
545.566	90.75
545.779	88.75
545.993	77.75
546.206	85.75
546.42	99.75
546.633	74.75
546.847	84.75
547.06	89.75
547.274	93.75
547.487	90.75
547.7	92.75
547.914	82.75
548.127	98.75
548.34	85.75
548.554	81.75
548.767	97.75
548.98	89.75
549.193	80.75
549.407	74.75
549.62	83.75
549.833	91.75
550.046	85.75
550.259	87.75
550.473	97.75
550.686	77.75
550.899	90.75
551.112	98.75
551.325	83.75
551.538	93.75
551.751	87.75
551.964	107.75
552.177	108.75
552.39	85.75
552.603	102.75
552.816	82.75
553.029	80.75
553.242	81.75
553.455	95.75
553.667	95.75
553.88	105.75
554.093	93.75
554.306	92.75
554.519	92.75
554.732	94.75
554.944	78.75
555.157	91.75
555.37	88.75
555.583	96.75
555.795	96.75
556.008	100.75
556.221	89.75
556.433	83.75
556.646	97.75
556.859	83.75
557.071	88.75
557.284	92.75
557.496	85.75
557.709	92.75
557.921	86.75
558.134	80.75
558.346	84.75
558.559	85.75
558.771	96.75
558.984	85.75
559.196	89.75
559.409	84.75
559.621	87.75
559.833	89.75
560.046	82.75
560.258	95.75
560.47	108.75
560.683	88.75
560.895	88.75
561.107	88.75
561.32	82.75
561.532	77.75
561.744	92.75
561.956	104.75
562.168	91.75
562.381	101.75
562.593	92.75
562.805	92.75
563.017	90.75
563.229	95.75
563.441	74.75
563.653	80.75
563.865	97.75
564.077	81.75
564.289	81.75
564.501	90.75
564.713	105.75
564.925	87.75
565.137	92.75
565.349	94.75
565.561	84.75
565.773	86.75
565.985	95.75
566.197	91.75
566.408	93.75
566.62	73.75
566.832	76.75
567.044	93.75
567.255	95.75
567.467	93.75
567.679	95.75
567.891	87.75
568.102	91.75
568.314	82.75
568.526	102.75
568.737	93.75
568.949	69.75
569.161	80.75
569.372	86.75
569.584	93.75
569.795	111.75
570.007	108.75
570.218	202.75
570.43	131.75
570.641	97.75
570.853	94.75
571.064	86.75
571.276	95.75
571.487	71.75
571.698	76.75
571.91	85.75
572.121	85.75
572.333	89.75
572.544	86.75
572.755	89.75
572.966	82.75
573.178	81.75
573.389	87.75
573.6	84.75
573.811	94.75
574.023	97.75
574.234	71.75
574.445	99.75
574.656	97.75
574.867	83.75
575.078	94.75
575.289	85.75
575.501	81.75
575.712	80.75
575.923	70.75
576.134	91.75
576.345	77.75
576.556	97.75
576.767	89.75
576.978	89.75
577.188	94.75
577.399	85.75
577.61	91.75
577.821	100.75
578.032	112.75
578.243	229.75
578.454	573.75
578.665	177.75
578.875	111.75
579.086	84.75
579.297	70.75
579.508	93.75
579.718	95.75
579.929	73.75
580.14	91.75
580.35	96.75
580.561	79.75
580.772	79.75
580.982	83.75
581.193	80.75
581.403	95.75
581.614	100.75
581.825	88.75
582.035	67.75
582.246	99.75
582.456	96.75
582.667	94.75
582.877	103.75
583.087	94.75
583.298	76.75
583.508	89.75
583.719	97.75
583.929	92.75
584.139	77.75
584.35	91.75
584.56	74.75
584.77	87.75
584.981	87.75
585.191	81.75
585.401	90.75
585.611	77.75
585.821	75.75
586.032	91.75
586.242	83.75
586.452	83.75
586.662	60.75
586.872	96.75
587.082	99.75
587.292	81.75
587.502	97.75
587.713	87.75
587.923	86.75
588.133	84.75
588.343	75.75
588.553	81.75
588.762	96.75
588.972	104.75
589.182	122.75
589.392	116.75
589.602	93.75
589.812	120.75
590.022	100.75
590.232	94.75
590.441	85.75
590.651	83.75
590.861	96.75
591.071	93.75
591.281	86.75
591.49	77.75
591.7	88.75
591.91	80.75
592.119	88.75
592.329	88.75
592.539	94.75
592.748	87.75
592.958	84.75
593.167	93.75
593.377	86.75
593.587	90.75
593.796	75.75
594.006	85.75
594.215	82.75
594.424	96.75
594.634	76.75
594.843	104.75
595.053	100.75
595.262	77.75
595.472	88.75
595.681	97.75
595.89	66.75
596.1	87.75
596.309	91.75
596.518	83.75
596.727	89.75
596.937	83.75
597.146	89.75
597.355	83.75
597.564	93.75
597.774	75.75
597.983	87.75
598.192	92.75
598.401	85.75
598.61	93.75
598.819	89.75
599.028	86.75
599.237	91.75
599.446	87.75
599.655	76.75
599.864	84.75
600.073	92.75
600.282	87.75
600.491	85.75
600.7	93.75
600.909	96.75
601.118	91.75
601.327	75.75
601.536	81.75
601.745	100.75
601.953	80.75
602.162	83.75
602.371	98.75
602.58	97.75
602.789	109.75
602.997	79.75
603.206	98.75
603.415	88.75
603.623	79.75
603.832	76.75
604.041	86.75
604.249	87.75
604.458	93.75
604.666	81.75
604.875	87.75
605.084	92.75
605.292	90.75
605.501	81.75
605.709	92.75
605.918	89.75
606.126	93.75
606.334	76.75
606.543	95.75
606.751	83.75
606.96	94.75
607.168	93.75
607.376	89.75
607.585	87.75
607.793	77.75
608.001	108.75
608.21	89.75
608.418	90.75
608.626	90.75
608.834	73.75
609.043	84.75
609.251	81.75
609.459	83.75
609.667	97.75
609.875	90.75
610.083	86.75
610.291	99.75
610.499	88.75
610.707	73.75
610.916	81.75
611.124	85.75
611.332	99.75
611.54	87.75
611.748	77.75
611.955	72.75
612.163	69.75
612.371	89.75
612.579	88.75
612.787	68.75
612.995	79.75
613.203	84.75
613.411	84.75
613.618	85.75
613.826	89.75
614.034	89.75
614.242	74.75
614.449	97.75
614.657	75.75
614.865	87.75
615.072	100.75
615.28	79.75
615.488	92.75
615.695	93.75
615.903	80.75
616.111	99.75
616.318	99.75
616.526	92.75
616.733	87.75
616.941	82.75
617.148	90.75
617.356	67.75
617.563	71.75
617.771	76.75
617.978	77.75
618.185	100.75
618.393	81.75
618.6	94.75
618.807	80.75
619.015	87.75
619.222	95.75
619.429	98.75
619.637	81.75
619.844	85.75
620.051	88.75
620.258	90.75
620.466	90.75
620.673	81.75
620.88	88.75
621.087	76.75
621.294	77.75
621.501	97.75
621.708	75.75
621.915	90.75
622.122	78.75
622.329	86.75
622.536	87.75
622.743	89.75
622.95	85.75
623.157	88.75
623.364	81.75
623.571	86.75
623.778	74.75
623.985	83.75
624.192	89.75
624.399	85.75
624.606	77.75
624.812	68.75
625.019	88.75
625.226	74.75
625.433	83.75
625.639	94.75
625.846	88.75
626.053	83.75
626.259	86.75
626.466	91.75
626.673	91.75
626.879	86.75
627.086	84.75
627.293	90.75
627.499	83.75
627.706	91.75
627.912	83.75
628.119	80.75
628.325	99.75
628.532	84.75
628.738	88.75
628.945	99.75
629.151	85.75
629.357	82.75
629.564	77.75
629.77	93.75
629.976	75.75
630.183	84.75
630.389	85.75
630.595	79.75
630.802	80.75
631.008	83.75
631.214	75.75
631.42	97.75
631.627	81.75
631.833	87.75
632.039	97.75
632.245	72.75
632.451	68.75
632.657	80.75
632.863	71.75
633.069	83.75
633.275	89.75
633.481	87.75
633.688	91.75
633.893	88.75
634.099	80.75
634.305	79.75
634.511	80.75
634.717	71.75
634.923	82.75
635.129	79.75
635.335	92.75
635.541	87.75
635.747	91.75
635.952	99.75
636.158	89.75
636.364	114.75
636.57	112.75
636.775	89.75
636.981	79.75
637.187	84.75
637.392	79.75
637.598	73.75
637.804	64.75
638.009	88.75
638.215	91.75
638.421	79.75
638.626	71.75
638.832	85.75
639.037	90.75
639.243	80.75
639.448	90.75
639.654	69.75
639.859	85.75
640.065	93.75
640.27	83.75
640.475	86.75
640.681	89.75
640.886	73.75
641.091	79.75
641.297	89.75
641.502	87.75
641.707	91.75
641.913	82.75
642.118	85.75
642.323	82.75
642.528	83.75
642.733	89.75
642.939	79.75
643.144	85.75
643.349	87.75
643.554	81.75
643.759	87.75
643.964	73.75
644.169	93.75
644.374	106.75
644.579	82.75
644.784	83.75
644.989	91.75
645.194	79.75
645.399	67.75
645.604	104.75
645.809	90.75
646.014	92.75
646.219	82.75
646.423	95.75
646.628	83.75
646.833	92.75
647.038	89.75
647.243	83.75
647.447	84.75
647.652	82.75
647.857	75.75
648.062	94.75
648.266	84.75
648.471	102.75
648.676	98.75
648.88	100.75
649.085	84.75
649.289	83.75
649.494	99.75
649.698	122.75
649.903	99.75
650.107	88.75
650.312	110.75
650.516	91.75
650.721	73.75
650.925	82.75
651.13	92.75
651.334	79.75
651.539	81.75
651.743	98.75
651.947	102.75
652.152	94.75
652.356	97.75
652.56	95.75
652.764	72.75
652.969	89.75
653.173	79.75
653.377	91.75
653.581	84.75
653.785	81.75
653.99	84.75
654.194	77.75
654.398	83.75
654.602	86.75
654.806	93.75
655.01	98.75
655.214	93.75
655.418	77.75
655.622	96.75
655.826	89.75
656.03	84.75
656.234	102.75
656.438	77.75
656.642	105.75
656.846	92.75
657.049	84.75
657.253	89.75
657.457	87.75
657.661	89.75
657.865	71.75
658.068	87.75
658.272	70.75
658.476	92.75
658.68	95.75
658.883	79.75
659.087	72.75
659.291	89.75
659.494	74.75
659.698	69.75
659.901	85.75
660.105	92.75
660.309	92.75
660.512	88.75
660.716	90.75
660.919	81.75
661.123	95.75
661.326	81.75
661.53	83.75
661.733	80.75
661.936	76.75
662.14	84.75
662.343	81.75
662.546	84.75
662.75	77.75
662.953	88.75
663.156	89.75
663.36	77.75
663.563	68.75
663.766	79.75
663.969	83.75
664.173	85.75
664.376	93.75
664.579	74.75
664.782	72.75
664.985	97.75
665.188	79.75
665.391	87.75
665.594	86.75
665.797	89.75
666	72.75
666.203	72.75
666.406	83.75
666.609	77.75
666.812	81.75
667.015	79.75
667.218	71.75
667.421	77.75
667.624	89.75
667.827	79.75
668.03	86.75
668.232	84.75
668.435	85.75
668.638	93.75
668.841	82.75
669.043	86.75
669.246	76.75
669.449	84.75
669.651	88.75
669.854	97.75
670.057	82.75
670.259	84.75
670.462	88.75
670.665	85.75
670.867	85.75
671.07	93.75
671.272	80.75
671.475	92.75
671.677	89.75
671.88	80.75
672.082	91.75
672.284	65.75
672.487	73.75
672.689	89.75
672.892	84.75
