Data from Circ_1984_H10_HRD10591_00089.txt Node
Date: Wed Jan 03 12:22:59 EST 2024
User: Yrep
Spectrometer: HR+D1059
Trigger mode: 1
Integration Time (sec): 1.000000E-1
Scans to average: 1
Electric dark correction enabled: true
Nonlinearity correction enabled: false
Boxcar width: 0
XAxis mode: Wavelengths
Number of Pixels in Spectrum: 2048
>>>>>Begin Spectral Data<<<<<
223.165	-21.19
223.4	-21.19
223.635	-21.19
223.869	-23.19
224.104	-24.19
224.338	-6.19
224.573	-16.19
224.808	-19.19
225.042	-8.19
225.277	-6.19
225.511	-2.19
225.746	-10.19
225.98	13.81
226.215	26.81
226.449	9.81
226.683	18.81
226.918	29.81
227.152	37.81
227.387	34.81
227.621	24.81
227.856	48.81
228.09	37.81
228.324	70.81
228.559	35.81
228.793	44.81
229.027	79.81
229.262	71.81
229.496	68.81
229.73	79.81
229.964	76.81
230.199	77.81
230.433	53.81
230.667	69.81
230.901	77.81
231.136	71.81
231.37	74.81
231.604	70.81
231.838	85.81
232.072	76.81
232.306	90.81
232.541	89.81
232.775	64.81
233.009	76.81
233.243	83.81
233.477	96.81
233.711	77.81
233.945	81.81
234.179	80.81
234.413	80.81
234.647	77.81
234.881	85.81
235.115	76.81
235.349	84.81
235.583	74.81
235.817	74.81
236.051	84.81
236.285	85.81
236.519	58.81
236.753	69.81
236.987	81.81
237.221	88.81
237.455	79.81
237.689	79.81
237.922	85.81
238.156	72.81
238.39	91.81
238.624	83.81
238.858	79.81
239.091	80.81
239.325	80.81
239.559	66.81
239.793	71.81
240.027	71.81
240.26	79.81
240.494	74.81
240.728	90.81
240.961	79.81
241.195	86.81
241.429	66.81
241.662	64.81
241.896	69.81
242.13	83.81
242.363	79.81
242.597	86.81
242.83	73.81
243.064	63.81
243.298	71.81
243.531	72.81
243.765	92.81
243.998	81.81
244.232	76.81
244.465	80.81
244.699	89.81
244.932	79.81
245.166	86.81
245.399	72.81
245.633	67.81
245.866	72.81
246.099	83.81
246.333	93.81
246.566	76.81
246.8	83.81
247.033	70.81
247.266	72.81
247.5	78.81
247.733	78.81
247.966	73.81
248.2	96.81
248.433	89.81
248.666	75.81
248.899	72.81
249.133	69.81
249.366	88.81
249.599	75.81
249.832	75.81
250.066	74.81
250.299	81.81
250.532	74.81
250.765	83.81
250.998	87.81
251.231	75.81
251.465	77.81
251.698	71.81
251.931	82.81
252.164	85.81
252.397	80.81
252.63	60.81
252.863	83.81
253.096	81.81
253.329	84.81
253.562	55.81
253.795	81.81
254.028	83.81
254.261	77.81
254.494	72.81
254.727	91.81
254.96	71.81
255.193	83.81
255.426	91.81
255.659	80.81
255.892	73.81
256.124	80.81
256.357	73.81
256.59	76.81
256.823	83.81
257.056	79.81
257.289	82.81
257.521	87.81
257.754	69.81
257.987	79.81
258.22	90.81
258.452	88.81
258.685	88.81
258.918	75.81
259.151	81.81
259.383	94.81
259.616	84.81
259.849	79.81
260.081	87.81
260.314	87.81
260.547	75.81
260.779	93.81
261.012	68.81
261.244	90.81
261.477	90.81
261.71	89.81
261.942	100.81
262.175	113.81
262.407	92.81
262.64	81.81
262.872	82.81
263.105	94.81
263.337	81.81
263.57	79.81
263.802	77.81
264.035	87.81
264.267	82.81
264.499	75.81
264.732	81.81
264.964	97.81
265.197	84.81
265.429	98.81
265.661	84.81
265.894	80.81
266.126	71.81
266.358	72.81
266.591	90.81
266.823	86.81
267.055	89.81
267.287	79.81
267.52	72.81
267.752	65.81
267.984	81.81
268.216	85.81
268.448	88.81
268.681	85.81
268.913	96.81
269.145	89.81
269.377	95.81
269.609	82.81
269.841	87.81
270.073	80.81
270.306	89.81
270.538	73.81
270.77	97.81
271.002	77.81
271.234	87.81
271.466	80.81
271.698	89.81
271.93	81.81
272.162	87.81
272.394	81.81
272.626	98.81
272.858	83.81
273.09	89.81
273.322	91.81
273.553	90.81
273.785	83.81
274.017	79.81
274.249	89.81
274.481	92.81
274.713	88.81
274.945	94.81
275.176	88.81
275.408	81.81
275.64	82.81
275.872	92.81
276.104	72.81
276.335	104.81
276.567	92.81
276.799	113.81
277.031	99.81
277.262	112.81
277.494	96.81
277.726	92.81
277.957	92.81
278.189	72.81
278.421	98.81
278.652	97.81
278.884	89.81
279.115	101.81
279.347	87.81
279.579	73.81
279.81	77.81
280.042	91.81
280.273	96.81
280.505	87.81
280.736	98.81
280.968	93.81
281.199	95.81
281.431	98.81
281.662	72.81
281.894	91.81
282.125	114.81
282.356	102.81
282.588	129.81
282.819	111.81
283.051	95.81
283.282	100.81
283.513	80.81
283.745	93.81
283.976	105.81
284.207	89.81
284.439	72.81
284.67	85.81
284.901	89.81
285.132	94.81
285.364	106.81
285.595	91.81
285.826	85.81
286.057	81.81
286.288	79.81
286.52	91.81
286.751	92.81
286.982	85.81
287.213	87.81
287.444	101.81
287.675	101.81
287.906	95.81
288.138	96.81
288.369	89.81
288.6	89.81
288.831	83.81
289.062	91.81
289.293	84.81
289.524	91.81
289.755	96.81
289.986	77.81
290.217	86.81
290.448	97.81
290.679	86.81
290.91	95.81
291.141	81.81
291.371	84.81
291.602	81.81
291.833	87.81
292.064	96.81
292.295	76.81
292.526	68.81
292.757	89.81
292.987	87.81
293.218	109.81
293.449	79.81
293.68	88.81
293.91	82.81
294.141	83.81
294.372	76.81
294.603	90.81
294.833	86.81
295.064	83.81
295.295	80.81
295.525	101.81
295.756	88.81
295.987	110.81
296.217	116.81
296.448	113.81
296.679	94.81
296.909	107.81
297.14	79.81
297.37	82.81
297.601	89.81
297.831	83.81
298.062	85.81
298.292	82.81
298.523	92.81
298.753	85.81
298.984	79.81
299.214	75.81
299.445	88.81
299.675	90.81
299.905	92.81
300.136	76.81
300.366	88.81
300.597	73.81
300.827	99.81
301.057	97.81
301.288	104.81
301.518	88.81
301.748	83.81
301.979	92.81
302.209	76.81
302.439	107.81
302.669	89.81
302.9	91.81
303.13	91.81
303.36	107.81
303.59	111.81
303.82	112.81
304.051	91.81
304.281	96.81
304.511	81.81
304.741	89.81
304.971	80.81
305.201	100.81
305.431	66.81
305.661	80.81
305.891	80.81
306.121	103.81
306.352	97.81
306.582	97.81
306.812	98.81
307.042	95.81
307.272	116.81
307.502	117.81
307.731	123.81
307.961	97.81
308.191	76.81
308.421	95.81
308.651	85.81
308.881	97.81
309.111	98.81
309.341	91.81
309.571	98.81
309.8	93.81
310.03	100.81
310.26	96.81
310.49	83.81
310.72	93.81
310.949	108.81
311.179	92.81
311.409	96.81
311.639	103.81
311.868	96.81
312.098	99.81
312.328	93.81
312.557	103.81
312.787	94.81
313.017	96.81
313.246	82.81
313.476	89.81
313.706	81.81
313.935	80.81
314.165	104.81
314.394	123.81
314.624	103.81
314.853	100.81
315.083	88.81
315.312	91.81
315.542	79.81
315.771	88.81
316.001	95.81
316.23	92.81
316.46	88.81
316.689	74.81
316.919	78.81
317.148	89.81
317.377	102.81
317.607	91.81
317.836	104.81
318.065	74.81
318.295	98.81
318.524	97.81
318.753	95.81
318.983	98.81
319.212	107.81
319.441	93.81
319.67	100.81
319.9	91.81
320.129	99.81
320.358	84.81
320.587	105.81
320.816	81.81
321.046	97.81
321.275	101.81
321.504	76.81
321.733	96.81
321.962	93.81
322.191	88.81
322.42	107.81
322.649	117.81
322.878	123.81
323.108	121.81
323.337	103.81
323.566	122.81
323.795	124.81
324.024	168.81
324.253	352.81
324.482	680.81
324.71	1391.81
324.939	1810.81
325.168	671.81
325.397	221.81
325.626	140.81
325.855	112.81
326.084	116.81
326.313	116.81
326.542	136.81
326.77	194.81
326.999	372.81
327.228	805.81
327.457	1408.81
327.686	1129.81
327.914	337.81
328.143	227.81
328.372	207.81
328.6	154.81
328.829	136.81
329.058	113.81
329.287	108.81
329.515	111.81
329.744	120.81
329.972	169.81
330.201	268.81
330.43	332.81
330.658	188.81
330.887	139.81
331.115	132.81
331.344	104.81
331.572	93.81
331.801	90.81
332.03	108.81
332.258	99.81
332.486	83.81
332.715	89.81
332.943	97.81
333.172	99.81
333.4	95.81
333.629	118.81
333.857	127.81
334.085	164.81
334.314	243.81
334.542	412.81
334.771	374.81
334.999	147.81
335.227	95.81
335.455	95.81
335.684	105.81
335.912	98.81
336.14	101.81
336.369	105.81
336.597	111.81
336.825	97.81
337.053	104.81
337.281	107.81
337.51	85.81
337.738	78.81
337.966	91.81
338.194	92.81
338.422	95.81
338.65	89.81
338.878	71.81
339.106	91.81
339.334	99.81
339.562	101.81
339.79	102.81
340.018	89.81
340.246	87.81
340.474	92.81
340.702	89.81
340.93	80.81
341.158	89.81
341.386	110.81
341.614	104.81
341.842	84.81
342.07	89.81
342.298	96.81
342.526	73.81
342.754	86.81
342.981	95.81
343.209	79.81
343.437	85.81
343.665	105.81
343.893	92.81
344.12	96.81
344.348	87.81
344.576	79.81
344.804	74.81
345.031	97.81
345.259	98.81
345.487	87.81
345.714	99.81
345.942	104.81
346.17	87.81
346.397	99.81
346.625	95.81
346.853	97.81
347.08	104.81
347.308	76.81
347.535	95.81
347.763	111.81
347.99	96.81
348.218	119.81
348.445	91.81
348.673	97.81
348.9	83.81
349.128	94.81
349.355	102.81
349.583	89.81
349.81	85.81
350.037	95.81
350.265	93.81
350.492	91.81
350.72	107.81
350.947	108.81
351.174	113.81
351.402	103.81
351.629	105.81
351.856	103.81
352.083	102.81
352.311	93.81
352.538	108.81
352.765	85.81
352.992	103.81
353.22	99.81
353.447	113.81
353.674	92.81
353.901	89.81
354.128	96.81
354.355	99.81
354.583	100.81
354.81	91.81
355.037	100.81
355.264	91.81
355.491	93.81
355.718	95.81
355.945	111.81
356.172	81.81
356.399	106.81
356.626	90.81
356.853	95.81
357.08	87.81
357.307	103.81
357.534	98.81
357.761	104.81
357.988	87.81
358.215	83.81
358.441	89.81
358.668	108.81
358.895	86.81
359.122	91.81
359.349	95.81
359.576	83.81
359.802	90.81
360.029	107.81
360.256	105.81
360.483	88.81
360.709	110.81
360.936	89.81
361.163	93.81
361.39	100.81
361.616	97.81
361.843	108.81
362.07	93.81
362.296	77.81
362.523	96.81
362.749	81.81
362.976	91.81
363.203	95.81
363.429	91.81
363.656	85.81
363.882	91.81
364.109	76.81
364.335	96.81
364.562	93.81
364.788	98.81
365.015	99.81
365.241	95.81
365.468	96.81
365.694	89.81
365.92	88.81
366.147	97.81
366.373	87.81
366.599	101.81
366.826	87.81
367.052	72.81
367.278	85.81
367.505	98.81
367.731	91.81
367.957	73.81
368.184	84.81
368.41	106.81
368.636	102.81
368.862	126.81
369.089	95.81
369.315	88.81
369.541	85.81
369.767	91.81
369.993	98.81
370.219	95.81
370.445	74.81
370.672	85.81
370.898	93.81
371.124	74.81
371.35	91.81
371.576	83.81
371.802	94.81
372.028	85.81
372.254	104.81
372.48	95.81
372.706	87.81
372.932	81.81
373.158	89.81
373.384	79.81
373.61	86.81
373.835	91.81
374.061	84.81
374.287	98.81
374.513	95.81
374.739	83.81
374.965	91.81
375.191	87.81
375.416	105.81
375.642	94.81
375.868	90.81
376.094	92.81
376.319	92.81
376.545	92.81
376.771	76.81
376.997	99.81
377.222	96.81
377.448	86.81
377.674	88.81
377.899	93.81
378.125	96.81
378.35	98.81
378.576	76.81
378.802	93.81
379.027	105.81
379.253	89.81
379.478	83.81
379.704	81.81
379.929	95.81
380.155	92.81
380.38	85.81
380.606	96.81
380.831	88.81
381.057	101.81
381.282	97.81
381.507	100.81
381.733	94.81
381.958	92.81
382.184	101.81
382.409	94.81
382.634	97.81
382.86	91.81
383.085	97.81
383.31	96.81
383.535	95.81
383.761	104.81
383.986	94.81
384.211	100.81
384.436	91.81
384.662	95.81
384.887	88.81
385.112	99.81
385.337	92.81
385.562	95.81
385.787	103.81
386.013	103.81
386.238	93.81
386.463	93.81
386.688	115.81
386.913	100.81
387.138	101.81
387.363	88.81
387.588	96.81
387.813	114.81
388.038	93.81
388.263	100.81
388.488	112.81
388.713	107.81
388.938	99.81
389.163	94.81
389.387	96.81
389.612	93.81
389.837	95.81
390.062	71.81
390.287	84.81
390.512	83.81
390.736	76.81
390.961	94.81
391.186	84.81
391.411	99.81
391.636	89.81
391.86	93.81
392.085	78.81
392.31	85.81
392.534	82.81
392.759	95.81
392.984	103.81
393.208	84.81
393.433	103.81
393.658	96.81
393.882	91.81
394.107	80.81
394.331	93.81
394.556	79.81
394.78	82.81
395.005	86.81
395.229	97.81
395.454	95.81
395.678	77.81
395.903	76.81
396.127	100.81
396.352	88.81
396.576	85.81
396.801	87.81
397.025	91.81
397.249	93.81
397.474	90.81
397.698	91.81
397.922	94.81
398.147	95.81
398.371	80.81
398.595	86.81
398.82	92.81
399.044	87.81
399.268	84.81
399.492	86.81
399.717	76.81
399.941	85.81
400.165	94.81
400.389	85.81
400.613	95.81
400.837	79.81
401.062	96.81
401.286	97.81
401.51	102.81
401.734	85.81
401.958	87.81
402.182	105.81
402.406	139.81
402.63	108.81
402.854	86.81
403.078	93.81
403.302	86.81
403.526	96.81
403.75	90.81
403.974	96.81
404.198	83.81
404.422	99.81
404.645	83.81
404.869	89.81
405.093	89.81
405.317	111.81
405.541	100.81
405.765	101.81
405.988	116.81
406.212	165.81
406.436	190.81
406.66	128.81
406.883	91.81
407.107	103.81
407.331	99.81
407.555	99.81
407.778	105.81
408.002	110.81
408.226	90.81
408.449	87.81
408.673	87.81
408.896	93.81
409.12	92.81
409.344	83.81
409.567	85.81
409.791	83.81
410.014	91.81
410.238	91.81
410.461	86.81
410.685	87.81
410.908	76.81
411.132	113.81
411.355	82.81
411.578	80.81
411.802	98.81
412.025	79.81
412.249	99.81
412.472	117.81
412.695	103.81
412.919	99.81
413.142	86.81
413.365	91.81
413.589	94.81
413.812	106.81
414.035	92.81
414.258	95.81
414.482	83.81
414.705	77.81
414.928	113.81
415.151	102.81
415.374	86.81
415.597	103.81
415.821	97.81
416.044	80.81
416.267	81.81
416.49	93.81
416.713	100.81
416.936	100.81
417.159	101.81
417.382	89.81
417.605	87.81
417.828	82.81
418.051	85.81
418.274	92.81
418.497	84.81
418.72	84.81
418.943	89.81
419.166	95.81
419.389	82.81
419.611	90.81
419.834	96.81
420.057	99.81
420.28	91.81
420.503	85.81
420.726	86.81
420.948	76.81
421.171	95.81
421.394	97.81
421.617	93.81
421.839	95.81
422.062	90.81
422.285	96.81
422.507	88.81
422.73	109.81
422.953	92.81
423.175	92.81
423.398	89.81
423.621	86.81
423.843	83.81
424.066	87.81
424.288	84.81
424.511	84.81
424.733	91.81
424.956	89.81
425.178	98.81
425.401	112.81
425.623	95.81
425.846	73.81
426.068	91.81
426.291	89.81
426.513	85.81
426.735	98.81
426.958	97.81
427.18	108.81
427.402	133.81
427.625	158.81
427.847	137.81
428.069	132.81
428.292	99.81
428.514	92.81
428.736	86.81
428.958	86.81
429.181	92.81
429.403	81.81
429.625	102.81
429.847	87.81
430.069	73.81
430.292	91.81
430.514	97.81
430.736	84.81
430.958	84.81
431.18	91.81
431.402	84.81
431.624	79.81
431.846	77.81
432.068	90.81
432.29	81.81
432.512	87.81
432.734	93.81
432.956	83.81
433.178	101.81
433.4	101.81
433.622	84.81
433.844	83.81
434.066	96.81
434.287	98.81
434.509	84.81
434.731	90.81
434.953	78.81
435.175	83.81
435.397	87.81
435.618	88.81
435.84	92.81
436.062	116.81
436.284	97.81
436.505	93.81
436.727	81.81
436.949	75.81
437.17	81.81
437.392	76.81
437.614	106.81
437.835	99.81
438.057	116.81
438.278	109.81
438.5	97.81
438.721	110.81
438.943	99.81
439.165	90.81
439.386	87.81
439.608	84.81
439.829	103.81
440.05	113.81
440.272	127.81
440.493	109.81
440.715	87.81
440.936	96.81
441.158	85.81
441.379	91.81
441.6	90.81
441.822	85.81
442.043	92.81
442.264	94.81
442.486	96.81
442.707	102.81
442.928	101.81
443.149	122.81
443.371	131.81
443.592	104.81
443.813	69.81
444.034	104.81
444.255	88.81
444.476	83.81
444.698	89.81
444.919	81.81
445.14	124.81
445.361	114.81
445.582	111.81
445.803	122.81
446.024	118.81
446.245	128.81
446.466	90.81
446.687	83.81
446.908	81.81
447.129	88.81
447.35	90.81
447.571	104.81
447.792	94.81
448.013	99.81
448.234	113.81
448.455	99.81
448.675	108.81
448.896	115.81
449.117	108.81
449.338	100.81
449.559	131.81
449.779	125.81
450	94.81
450.221	106.81
450.442	99.81
450.662	87.81
450.883	90.81
451.104	104.81
451.324	94.81
451.545	89.81
451.766	73.81
451.986	86.81
452.207	77.81
452.428	100.81
452.648	99.81
452.869	103.81
453.089	92.81
453.31	119.81
453.53	84.81
453.751	83.81
453.971	110.81
454.192	99.81
454.412	96.81
454.633	95.81
454.853	88.81
455.073	92.81
455.294	90.81
455.514	88.81
455.734	92.81
455.955	83.81
456.175	83.81
456.395	85.81
456.616	91.81
456.836	91.81
457.056	85.81
457.276	72.81
457.497	81.81
457.717	77.81
457.937	87.81
458.157	77.81
458.377	74.81
458.598	105.81
458.818	124.81
459.038	143.81
459.258	105.81
459.478	94.81
459.698	87.81
459.918	86.81
460.138	95.81
460.358	85.81
460.578	89.81
460.798	95.81
461.018	86.81
461.238	80.81
461.458	81.81
461.678	81.81
461.898	96.81
462.118	85.81
462.338	80.81
462.558	94.81
462.777	77.81
462.997	97.81
463.217	85.81
463.437	93.81
463.657	87.81
463.876	95.81
464.096	85.81
464.316	89.81
464.536	93.81
464.755	103.81
464.975	115.81
465.195	158.81
465.414	127.81
465.634	97.81
465.854	77.81
466.073	99.81
466.293	98.81
466.512	81.81
466.732	85.81
466.951	91.81
467.171	86.81
467.391	89.81
467.61	120.81
467.829	102.81
468.049	148.81
468.268	214.81
468.488	112.81
468.707	87.81
468.927	93.81
469.146	78.81
469.365	84.81
469.585	86.81
469.804	97.81
470.023	101.81
470.243	102.81
470.462	88.81
470.681	101.81
470.901	111.81
471.12	99.81
471.339	95.81
471.558	106.81
471.777	93.81
471.997	120.81
472.216	309.81
472.435	535.81
472.654	168.81
472.873	95.81
473.092	90.81
473.311	108.81
473.53	86.81
473.749	91.81
473.968	115.81
474.187	102.81
474.406	101.81
474.625	90.81
474.844	81.81
475.063	89.81
475.282	79.81
475.501	83.81
475.72	77.81
475.939	87.81
476.158	85.81
476.377	88.81
476.596	85.81
476.814	97.81
477.033	96.81
477.252	90.81
477.471	87.81
477.69	84.81
477.908	91.81
478.127	91.81
478.346	82.81
478.564	89.81
478.783	77.81
479.002	98.81
479.22	87.81
479.439	112.81
479.658	100.81
479.876	109.81
480.095	92.81
480.313	98.81
480.532	110.81
480.751	110.81
480.969	284.81
481.188	964.81
481.406	535.81
481.624	137.81
481.843	105.81
482.061	116.81
482.28	90.81
482.498	92.81
482.717	72.81
482.935	79.81
483.153	85.81
483.372	85.81
483.59	105.81
483.808	89.81
484.027	90.81
484.245	97.81
484.463	92.81
484.681	110.81
484.9	82.81
485.118	95.81
485.336	96.81
485.554	91.81
485.772	107.81
485.99	97.81
486.209	114.81
486.427	96.81
486.645	104.81
486.863	114.81
487.081	91.81
487.299	112.81
487.517	100.81
487.735	87.81
487.953	107.81
488.171	76.81
488.389	90.81
488.607	92.81
488.825	88.81
489.043	87.81
489.261	83.81
489.479	91.81
489.696	89.81
489.914	96.81
490.132	97.81
490.35	100.81
490.568	103.81
490.786	78.81
491.003	89.81
491.221	83.81
491.439	95.81
491.657	84.81
491.874	88.81
492.092	99.81
492.31	87.81
492.527	90.81
492.745	97.81
492.963	87.81
493.18	98.81
493.398	95.81
493.615	87.81
493.833	108.81
494.05	109.81
494.268	98.81
494.485	99.81
494.703	90.81
494.92	95.81
495.138	88.81
495.355	91.81
495.573	102.81
495.79	94.81
496.008	90.81
496.225	87.81
496.442	93.81
496.66	94.81
496.877	89.81
497.094	87.81
497.312	88.81
497.529	77.81
497.746	100.81
497.963	95.81
498.181	99.81
498.398	110.81
498.615	98.81
498.832	100.81
499.049	99.81
499.267	100.81
499.484	76.81
499.701	87.81
499.918	84.81
500.135	84.81
500.352	91.81
500.569	95.81
500.786	92.81
501.003	97.81
501.22	79.81
501.437	91.81
501.654	86.81
501.871	96.81
502.088	94.81
502.305	93.81
502.522	97.81
502.739	91.81
502.956	87.81
503.172	86.81
503.389	88.81
503.606	100.81
503.823	101.81
504.04	109.81
504.256	91.81
504.473	86.81
504.69	93.81
504.907	93.81
505.123	84.81
505.34	85.81
505.557	97.81
505.773	87.81
505.99	82.81
506.207	96.81
506.423	101.81
506.64	94.81
506.856	87.81
507.073	97.81
507.289	95.81
507.506	87.81
507.722	108.81
507.939	106.81
508.155	92.81
508.372	88.81
508.588	87.81
508.805	96.81
509.021	104.81
509.238	97.81
509.454	87.81
509.67	91.81
509.887	85.81
510.103	112.81
510.319	188.81
510.536	651.81
510.752	1993.81
510.968	567.81
511.184	147.81
511.401	102.81
511.617	95.81
511.833	101.81
512.049	95.81
512.265	95.81
512.481	99.81
512.698	88.81
512.914	94.81
513.13	96.81
513.346	96.81
513.562	101.81
513.778	95.81
513.994	98.81
514.21	109.81
514.426	108.81
514.642	130.81
514.858	114.81
515.074	146.81
515.29	379.81
515.506	1217.81
515.721	455.81
515.937	146.81
516.153	100.81
516.369	104.81
516.585	91.81
516.801	93.81
517.016	97.81
517.232	84.81
517.448	91.81
517.664	85.81
517.879	91.81
518.095	93.81
518.311	96.81
518.527	108.81
518.742	99.81
518.958	100.81
519.173	99.81
519.389	84.81
519.605	97.81
519.82	96.81
520.036	103.81
520.251	104.81
520.467	111.81
520.682	100.81
520.898	100.81
521.113	104.81
521.329	123.81
521.544	183.81
521.76	465.81
521.975	1975.81
522.19	1182.81
522.406	264.81
522.621	117.81
522.836	117.81
523.052	97.81
523.267	95.81
523.482	88.81
523.698	84.81
523.913	113.81
524.128	100.81
524.343	89.81
524.559	79.81
524.774	92.81
524.989	101.81
525.204	81.81
525.419	85.81
525.634	94.81
525.849	85.81
526.064	82.81
526.28	89.81
526.495	79.81
526.71	89.81
526.925	87.81
527.14	93.81
527.355	86.81
527.57	113.81
527.785	90.81
527.999	90.81
528.214	84.81
528.429	79.81
528.644	87.81
528.859	85.81
529.074	94.81
529.289	121.81
529.503	177.81
529.718	95.81
529.933	74.81
530.148	96.81
530.363	100.81
530.577	98.81
530.792	84.81
531.007	83.81
531.221	97.81
531.436	87.81
531.651	95.81
531.865	79.81
532.08	80.81
532.295	76.81
532.509	93.81
532.724	92.81
532.938	109.81
533.153	87.81
533.367	96.81
533.582	95.81
533.796	101.81
534.011	95.81
534.225	84.81
534.44	85.81
534.654	97.81
534.868	103.81
535.083	100.81
535.297	107.81
535.511	108.81
535.726	111.81
535.94	99.81
536.154	75.81
536.369	89.81
536.583	75.81
536.797	98.81
537.011	91.81
537.225	101.81
537.44	97.81
537.654	91.81
537.868	86.81
538.082	91.81
538.296	89.81
538.51	85.81
538.724	89.81
538.938	102.81
539.153	97.81
539.367	100.81
539.581	88.81
539.795	99.81
540.009	85.81
540.222	90.81
540.436	93.81
540.65	98.81
540.864	113.81
541.078	98.81
541.292	89.81
541.506	76.81
541.72	93.81
541.934	99.81
542.147	96.81
542.361	75.81
542.575	88.81
542.789	96.81
543.002	75.81
543.216	93.81
543.43	87.81
543.644	103.81
543.857	87.81
544.071	99.81
544.285	89.81
544.498	93.81
544.712	87.81
544.925	91.81
545.139	89.81
545.352	74.81
545.566	77.81
545.779	101.81
545.993	97.81
546.206	85.81
546.42	92.81
546.633	98.81
546.847	94.81
547.06	82.81
547.274	83.81
547.487	92.81
547.7	103.81
547.914	108.81
548.127	81.81
548.34	73.81
548.554	89.81
548.767	79.81
548.98	91.81
549.193	79.81
549.407	80.81
549.62	101.81
549.833	81.81
550.046	84.81
550.259	85.81
550.473	93.81
550.686	90.81
550.899	94.81
551.112	86.81
551.325	91.81
551.538	111.81
551.751	87.81
551.964	83.81
552.177	79.81
552.39	81.81
552.603	92.81
552.816	97.81
553.029	74.81
553.242	107.81
553.455	98.81
553.667	102.81
553.88	111.81
554.093	88.81
554.306	92.81
554.519	100.81
554.732	84.81
554.944	75.81
555.157	96.81
555.37	96.81
555.583	99.81
555.795	99.81
556.008	82.81
556.221	92.81
556.433	94.81
556.646	101.81
556.859	96.81
557.071	87.81
557.284	105.81
557.496	95.81
557.709	92.81
557.921	88.81
558.134	92.81
558.346	90.81
558.559	86.81
558.771	76.81
558.984	91.81
559.196	99.81
559.409	82.81
559.621	80.81
559.833	85.81
560.046	82.81
560.258	96.81
560.47	98.81
560.683	90.81
560.895	100.81
561.107	100.81
561.32	90.81
561.532	82.81
561.744	100.81
561.956	83.81
562.168	80.81
562.381	76.81
562.593	92.81
562.805	98.81
563.017	80.81
563.229	92.81
563.441	95.81
563.653	88.81
563.865	96.81
564.077	74.81
564.289	99.81
564.501	87.81
564.713	86.81
564.925	103.81
565.137	90.81
565.349	97.81
565.561	87.81
565.773	83.81
565.985	87.81
566.197	80.81
566.408	94.81
566.62	95.81
566.832	77.81
567.044	69.81
567.255	76.81
567.467	80.81
567.679	92.81
567.891	87.81
568.102	97.81
568.314	77.81
568.526	88.81
568.737	106.81
568.949	99.81
569.161	95.81
569.372	83.81
569.584	96.81
569.795	65.81
570.007	116.81
570.218	216.81
570.43	121.81
570.641	85.81
570.853	80.81
571.064	82.81
571.276	80.81
571.487	97.81
571.698	82.81
571.91	95.81
572.121	87.81
572.333	90.81
572.544	87.81
572.755	69.81
572.966	91.81
573.178	93.81
573.389	90.81
573.6	97.81
573.811	91.81
574.023	97.81
574.234	90.81
574.445	89.81
574.656	90.81
574.867	86.81
575.078	86.81
575.289	99.81
575.501	85.81
575.712	91.81
575.923	74.81
576.134	90.81
576.345	83.81
576.556	97.81
576.767	97.81
576.978	85.81
577.188	88.81
577.399	79.81
577.61	85.81
577.821	92.81
578.032	107.81
578.243	215.81
578.454	621.81
578.665	185.81
578.875	114.81
579.086	99.81
579.297	72.81
579.508	81.81
579.718	93.81
579.929	96.81
580.14	73.81
580.35	83.81
580.561	72.81
580.772	97.81
580.982	106.81
581.193	85.81
581.403	76.81
581.614	91.81
581.825	81.81
582.035	95.81
582.246	100.81
582.456	88.81
582.667	84.81
582.877	97.81
583.087	72.81
583.298	88.81
583.508	92.81
583.719	91.81
583.929	73.81
584.139	87.81
584.35	82.81
584.56	86.81
584.77	74.81
584.981	97.81
585.191	79.81
585.401	69.81
585.611	93.81
585.821	100.81
586.032	99.81
586.242	84.81
586.452	81.81
586.662	87.81
586.872	85.81
587.082	87.81
587.292	91.81
587.502	90.81
587.713	94.81
587.923	96.81
588.133	82.81
588.343	88.81
588.553	92.81
588.762	95.81
588.972	80.81
589.182	104.81
589.392	87.81
589.602	86.81
589.812	108.81
590.022	85.81
590.232	79.81
590.441	69.81
590.651	79.81
590.861	84.81
591.071	85.81
591.281	95.81
591.49	71.81
591.7	87.81
591.91	95.81
592.119	89.81
592.329	103.81
592.539	97.81
592.748	88.81
592.958	88.81
593.167	81.81
593.377	85.81
593.587	104.81
593.796	96.81
594.006	77.81
594.215	72.81
594.424	88.81
594.634	83.81
594.843	74.81
595.053	100.81
595.262	79.81
595.472	89.81
595.681	91.81
595.89	83.81
596.1	69.81
596.309	88.81
596.518	81.81
596.727	107.81
596.937	98.81
597.146	85.81
597.355	97.81
597.564	94.81
597.774	83.81
597.983	94.81
598.192	88.81
598.401	96.81
598.61	94.81
598.819	93.81
599.028	74.81
599.237	88.81
599.446	91.81
599.655	87.81
599.864	90.81
600.073	85.81
600.282	104.81
600.491	99.81
600.7	87.81
600.909	92.81
601.118	91.81
601.327	77.81
601.536	72.81
601.745	78.81
601.953	99.81
602.162	99.81
602.371	95.81
602.58	95.81
602.789	86.81
602.997	83.81
603.206	91.81
603.415	81.81
603.623	87.81
603.832	91.81
604.041	75.81
604.249	88.81
604.458	74.81
604.666	84.81
604.875	84.81
605.084	100.81
605.292	92.81
605.501	75.81
605.709	100.81
605.918	82.81
606.126	100.81
606.334	95.81
606.543	81.81
606.751	76.81
606.96	97.81
607.168	88.81
607.376	79.81
607.585	91.81
607.793	93.81
608.001	96.81
608.21	85.81
608.418	92.81
608.626	78.81
608.834	88.81
609.043	82.81
609.251	90.81
609.459	87.81
609.667	95.81
609.875	89.81
610.083	90.81
610.291	94.81
610.499	90.81
610.707	88.81
610.916	84.81
611.124	88.81
611.332	91.81
611.54	88.81
611.748	79.81
611.955	73.81
612.163	74.81
612.371	84.81
612.579	94.81
612.787	104.81
612.995	91.81
613.203	109.81
613.411	81.81
613.618	90.81
613.826	92.81
614.034	80.81
614.242	81.81
614.449	88.81
614.657	81.81
614.865	87.81
615.072	85.81
615.28	89.81
615.488	80.81
615.695	83.81
615.903	91.81
616.111	94.81
616.318	100.81
616.526	97.81
616.733	102.81
616.941	89.81
617.148	103.81
617.356	90.81
617.563	95.81
617.771	91.81
617.978	73.81
618.185	70.81
618.393	95.81
618.6	102.81
618.807	97.81
619.015	97.81
619.222	84.81
619.429	76.81
619.637	83.81
619.844	102.81
620.051	99.81
620.258	84.81
620.466	75.81
620.673	93.81
620.88	87.81
621.087	73.81
621.294	95.81
621.501	86.81
621.708	69.81
621.915	91.81
622.122	89.81
622.329	90.81
622.536	93.81
622.743	101.81
622.95	73.81
623.157	84.81
623.364	85.81
623.571	84.81
623.778	84.81
623.985	86.81
624.192	82.81
624.399	89.81
624.606	71.81
624.812	72.81
625.019	93.81
625.226	74.81
625.433	88.81
625.639	85.81
625.846	90.81
626.053	90.81
626.259	90.81
626.466	82.81
626.673	99.81
626.879	91.81
627.086	76.81
627.293	101.81
627.499	91.81
627.706	85.81
627.912	89.81
628.119	77.81
628.325	79.81
628.532	97.81
628.738	87.81
628.945	85.81
629.151	67.81
629.357	89.81
629.564	80.81
629.77	85.81
629.976	94.81
630.183	93.81
630.389	75.81
630.595	71.81
630.802	70.81
631.008	80.81
631.214	80.81
631.42	89.81
631.627	93.81
631.833	93.81
632.039	75.81
632.245	76.81
632.451	90.81
632.657	84.81
632.863	67.81
633.069	72.81
633.275	93.81
633.481	79.81
633.688	86.81
633.893	93.81
634.099	74.81
634.305	82.81
634.511	84.81
634.717	83.81
634.923	79.81
635.129	82.81
635.335	75.81
635.541	80.81
635.747	67.81
635.952	93.81
636.158	95.81
636.364	128.81
636.57	115.81
636.775	104.81
636.981	72.81
637.187	81.81
637.392	82.81
637.598	74.81
637.804	87.81
638.009	75.81
638.215	78.81
638.421	81.81
638.626	80.81
638.832	73.81
639.037	75.81
639.243	71.81
639.448	96.81
639.654	77.81
639.859	72.81
640.065	83.81
640.27	92.81
640.475	82.81
640.681	74.81
640.886	85.81
641.091	75.81
641.297	88.81
641.502	66.81
641.707	76.81
641.913	89.81
642.118	85.81
642.323	101.81
642.528	95.81
642.733	76.81
642.939	87.81
643.144	72.81
643.349	85.81
643.554	93.81
643.759	92.81
643.964	90.81
644.169	86.81
644.374	84.81
644.579	92.81
644.784	83.81
644.989	87.81
645.194	85.81
645.399	87.81
645.604	74.81
645.809	101.81
646.014	92.81
646.219	93.81
646.423	100.81
646.628	83.81
646.833	93.81
647.038	88.81
647.243	66.81
647.447	53.81
647.652	86.81
647.857	90.81
648.062	92.81
648.266	85.81
648.471	93.81
648.676	99.81
648.88	93.81
649.085	76.81
649.289	92.81
649.494	84.81
649.698	116.81
649.903	113.81
650.107	76.81
650.312	82.81
650.516	83.81
650.721	85.81
650.925	76.81
651.13	72.81
651.334	85.81
651.539	92.81
651.743	77.81
651.947	90.81
652.152	72.81
652.356	84.81
652.56	83.81
652.764	93.81
652.969	72.81
653.173	71.81
653.377	87.81
653.581	102.81
653.785	82.81
653.99	81.81
654.194	69.81
654.398	91.81
654.602	85.81
654.806	91.81
655.01	107.81
655.214	98.81
655.418	92.81
655.622	91.81
655.826	86.81
656.03	95.81
656.234	92.81
656.438	92.81
656.642	95.81
656.846	77.81
657.049	83.81
657.253	95.81
657.457	87.81
657.661	87.81
657.865	74.81
658.068	85.81
658.272	87.81
658.476	88.81
658.68	73.81
658.883	74.81
659.087	85.81
659.291	77.81
659.494	79.81
659.698	73.81
659.901	89.81
660.105	68.81
660.309	81.81
660.512	83.81
660.716	76.81
660.919	72.81
661.123	88.81
661.326	73.81
661.53	83.81
661.733	83.81
661.936	82.81
662.14	86.81
662.343	84.81
662.546	60.81
662.75	78.81
662.953	70.81
663.156	93.81
663.36	82.81
663.563	78.81
663.766	82.81
663.969	84.81
664.173	75.81
664.376	84.81
664.579	83.81
664.782	82.81
664.985	94.81
665.188	73.81
665.391	72.81
665.594	85.81
665.797	77.81
666	83.81
666.203	75.81
666.406	92.81
666.609	75.81
666.812	71.81
667.015	68.81
667.218	69.81
667.421	74.81
667.624	83.81
667.827	92.81
668.03	83.81
668.232	70.81
668.435	79.81
668.638	73.81
668.841	84.81
669.043	83.81
669.246	91.81
669.449	86.81
669.651	64.81
669.854	77.81
670.057	67.81
670.259	73.81
670.462	90.81
670.665	82.81
670.867	84.81
671.07	75.81
671.272	91.81
671.475	84.81
671.677	89.81
671.88	88.81
672.082	68.81
672.284	72.81
672.487	88.81
672.689	83.81
672.892	68.81
