Data from Circ_1984_H10_HRD10591_00046.txt Node
Date: Wed Jan 03 12:22:51 EST 2024
User: Yrep
Spectrometer: HR+D1059
Trigger mode: 1
Integration Time (sec): 1.000000E-1
Scans to average: 1
Electric dark correction enabled: true
Nonlinearity correction enabled: false
Boxcar width: 0
XAxis mode: Wavelengths
Number of Pixels in Spectrum: 2048
>>>>>Begin Spectral Data<<<<<
223.165	-16.75
223.4	-16.75
223.635	-16.75
223.869	-23.75
224.104	-5.75
224.338	-7.75
224.573	-4.75
224.808	-8.75
225.042	-7.75
225.277	-3.75
225.511	-13.75
225.746	-1.75
225.98	3.25
226.215	9.25
226.449	25.25
226.683	7.25
226.918	25.25
227.152	24.25
227.387	43.25
227.621	31.25
227.856	51.25
228.09	56.25
228.324	37.25
228.559	50.25
228.793	48.25
229.027	60.25
229.262	70.25
229.496	62.25
229.73	80.25
229.964	85.25
230.199	78.25
230.433	65.25
230.667	82.25
230.901	72.25
231.136	89.25
231.37	88.25
231.604	87.25
231.838	87.25
232.072	80.25
232.306	84.25
232.541	93.25
232.775	100.25
233.009	69.25
233.243	73.25
233.477	73.25
233.711	70.25
233.945	80.25
234.179	82.25
234.413	68.25
234.647	72.25
234.881	66.25
235.115	85.25
235.349	72.25
235.583	86.25
235.817	77.25
236.051	82.25
236.285	72.25
236.519	78.25
236.753	70.25
236.987	84.25
237.221	83.25
237.455	96.25
237.689	59.25
237.922	74.25
238.156	79.25
238.39	80.25
238.624	90.25
238.858	73.25
239.091	75.25
239.325	79.25
239.559	79.25
239.793	76.25
240.027	82.25
240.26	76.25
240.494	74.25
240.728	80.25
240.961	74.25
241.195	72.25
241.429	76.25
241.662	84.25
241.896	83.25
242.13	76.25
242.363	78.25
242.597	65.25
242.83	86.25
243.064	67.25
243.298	78.25
243.531	85.25
243.765	83.25
243.998	82.25
244.232	78.25
244.465	69.25
244.699	72.25
244.932	75.25
245.166	82.25
245.399	77.25
245.633	72.25
245.866	71.25
246.099	78.25
246.333	82.25
246.566	79.25
246.8	82.25
247.033	98.25
247.266	84.25
247.5	84.25
247.733	84.25
247.966	78.25
248.2	92.25
248.433	70.25
248.666	59.25
248.899	74.25
249.133	67.25
249.366	94.25
249.599	99.25
249.832	89.25
250.066	90.25
250.299	69.25
250.532	88.25
250.765	82.25
250.998	88.25
251.231	83.25
251.465	70.25
251.698	78.25
251.931	84.25
252.164	92.25
252.397	72.25
252.63	91.25
252.863	78.25
253.096	78.25
253.329	58.25
253.562	76.25
253.795	75.25
254.028	76.25
254.261	77.25
254.494	79.25
254.727	92.25
254.96	73.25
255.193	79.25
255.426	80.25
255.659	83.25
255.892	91.25
256.124	95.25
256.357	93.25
256.59	85.25
256.823	86.25
257.056	67.25
257.289	74.25
257.521	92.25
257.754	64.25
257.987	78.25
258.22	84.25
258.452	81.25
258.685	75.25
258.918	82.25
259.151	87.25
259.383	90.25
259.616	84.25
259.849	72.25
260.081	74.25
260.314	79.25
260.547	72.25
260.779	88.25
261.012	90.25
261.244	89.25
261.477	86.25
261.71	87.25
261.942	118.25
262.175	107.25
262.407	91.25
262.64	84.25
262.872	83.25
263.105	89.25
263.337	82.25
263.57	74.25
263.802	80.25
264.035	96.25
264.267	74.25
264.499	84.25
264.732	68.25
264.964	80.25
265.197	89.25
265.429	78.25
265.661	80.25
265.894	89.25
266.126	81.25
266.358	73.25
266.591	75.25
266.823	72.25
267.055	79.25
267.287	84.25
267.52	91.25
267.752	101.25
267.984	81.25
268.216	89.25
268.448	88.25
268.681	90.25
268.913	86.25
269.145	89.25
269.377	92.25
269.609	83.25
269.841	91.25
270.073	94.25
270.306	86.25
270.538	71.25
270.77	80.25
271.002	88.25
271.234	80.25
271.466	91.25
271.698	88.25
271.93	79.25
272.162	83.25
272.394	87.25
272.626	74.25
272.858	86.25
273.09	90.25
273.322	79.25
273.553	81.25
273.785	86.25
274.017	68.25
274.249	74.25
274.481	112.25
274.713	74.25
274.945	87.25
275.176	84.25
275.408	98.25
275.64	86.25
275.872	77.25
276.104	96.25
276.335	98.25
276.567	106.25
276.799	97.25
277.031	104.25
277.262	100.25
277.494	98.25
277.726	94.25
277.957	92.25
278.189	77.25
278.421	70.25
278.652	79.25
278.884	84.25
279.115	70.25
279.347	78.25
279.579	73.25
279.81	85.25
280.042	102.25
280.273	105.25
280.505	70.25
280.736	89.25
280.968	87.25
281.199	85.25
281.431	98.25
281.662	82.25
281.894	89.25
282.125	99.25
282.356	117.25
282.588	124.25
282.819	111.25
283.051	86.25
283.282	97.25
283.513	100.25
283.745	86.25
283.976	81.25
284.207	67.25
284.439	90.25
284.67	94.25
284.901	80.25
285.132	93.25
285.364	90.25
285.595	76.25
285.826	95.25
286.057	98.25
286.288	75.25
286.52	93.25
286.751	94.25
286.982	88.25
287.213	75.25
287.444	91.25
287.675	78.25
287.906	103.25
288.138	80.25
288.369	76.25
288.6	70.25
288.831	78.25
289.062	74.25
289.293	92.25
289.524	94.25
289.755	83.25
289.986	87.25
290.217	86.25
290.448	83.25
290.679	79.25
290.91	101.25
291.141	76.25
291.371	82.25
291.602	91.25
291.833	93.25
292.064	85.25
292.295	88.25
292.526	83.25
292.757	101.25
292.987	98.25
293.218	83.25
293.449	92.25
293.68	95.25
293.91	72.25
294.141	78.25
294.372	88.25
294.603	99.25
294.833	96.25
295.064	83.25
295.295	85.25
295.525	100.25
295.756	103.25
295.987	101.25
296.217	116.25
296.448	125.25
296.679	88.25
296.909	88.25
297.14	90.25
297.37	107.25
297.601	95.25
297.831	95.25
298.062	106.25
298.292	82.25
298.523	76.25
298.753	93.25
298.984	92.25
299.214	91.25
299.445	88.25
299.675	108.25
299.905	99.25
300.136	100.25
300.366	79.25
300.597	102.25
300.827	86.25
301.057	95.25
301.288	110.25
301.518	95.25
301.748	83.25
301.979	99.25
302.209	83.25
302.439	75.25
302.669	90.25
302.9	73.25
303.13	87.25
303.36	101.25
303.59	90.25
303.82	101.25
304.051	97.25
304.281	96.25
304.511	83.25
304.741	91.25
304.971	89.25
305.201	93.25
305.431	87.25
305.661	105.25
305.891	90.25
306.121	97.25
306.352	89.25
306.582	114.25
306.812	85.25
307.042	98.25
307.272	98.25
307.502	101.25
307.731	106.25
307.961	92.25
308.191	82.25
308.421	91.25
308.651	92.25
308.881	91.25
309.111	88.25
309.341	97.25
309.571	96.25
309.8	84.25
310.03	94.25
310.26	107.25
310.49	96.25
310.72	102.25
310.949	110.25
311.179	92.25
311.409	85.25
311.639	93.25
311.868	95.25
312.098	84.25
312.328	91.25
312.557	107.25
312.787	107.25
313.017	94.25
313.246	91.25
313.476	91.25
313.706	87.25
313.935	106.25
314.165	108.25
314.394	110.25
314.624	99.25
314.853	104.25
315.083	92.25
315.312	84.25
315.542	107.25
315.771	77.25
316.001	82.25
316.23	89.25
316.46	108.25
316.689	92.25
316.919	90.25
317.148	95.25
317.377	83.25
317.607	88.25
317.836	88.25
318.065	103.25
318.295	95.25
318.524	96.25
318.753	83.25
318.983	103.25
319.212	95.25
319.441	104.25
319.67	104.25
319.9	92.25
320.129	94.25
320.358	78.25
320.587	103.25
320.816	97.25
321.046	88.25
321.275	91.25
321.504	89.25
321.733	83.25
321.962	105.25
322.191	98.25
322.42	108.25
322.649	103.25
322.878	100.25
323.108	113.25
323.337	128.25
323.566	116.25
323.795	129.25
324.024	188.25
324.253	362.25
324.482	732.25
324.71	1499.25
324.939	1936.25
325.168	735.25
325.397	231.25
325.626	140.25
325.855	129.25
326.084	138.25
326.313	124.25
326.542	142.25
326.77	215.25
326.999	416.25
327.228	814.25
327.457	1459.25
327.686	1201.25
327.914	354.25
328.143	232.25
328.372	201.25
328.6	134.25
328.829	123.25
329.058	125.25
329.287	112.25
329.515	114.25
329.744	119.25
329.972	154.25
330.201	225.25
330.43	267.25
330.658	180.25
330.887	144.25
331.115	124.25
331.344	90.25
331.572	107.25
331.801	106.25
332.03	100.25
332.258	99.25
332.486	106.25
332.715	92.25
332.943	105.25
333.172	104.25
333.4	86.25
333.629	111.25
333.857	133.25
334.085	151.25
334.314	214.25
334.542	335.25
334.771	318.25
334.999	161.25
335.227	110.25
335.455	101.25
335.684	95.25
335.912	92.25
336.14	99.25
336.369	98.25
336.597	103.25
336.825	91.25
337.053	96.25
337.281	108.25
337.51	74.25
337.738	97.25
337.966	94.25
338.194	94.25
338.422	106.25
338.65	105.25
338.878	95.25
339.106	98.25
339.334	94.25
339.562	87.25
339.79	102.25
340.018	77.25
340.246	89.25
340.474	94.25
340.702	98.25
340.93	93.25
341.158	89.25
341.386	96.25
341.614	88.25
341.842	97.25
342.07	86.25
342.298	89.25
342.526	84.25
342.754	100.25
342.981	92.25
343.209	87.25
343.437	98.25
343.665	97.25
343.893	83.25
344.12	96.25
344.348	98.25
344.576	82.25
344.804	95.25
345.031	89.25
345.259	100.25
345.487	90.25
345.714	106.25
345.942	106.25
346.17	99.25
346.397	89.25
346.625	91.25
346.853	98.25
347.08	107.25
347.308	96.25
347.535	84.25
347.763	101.25
347.99	105.25
348.218	93.25
348.445	108.25
348.673	85.25
348.9	101.25
349.128	102.25
349.355	83.25
349.583	98.25
349.81	90.25
350.037	95.25
350.265	74.25
350.492	104.25
350.72	88.25
350.947	91.25
351.174	111.25
351.402	112.25
351.629	81.25
351.856	97.25
352.083	99.25
352.311	103.25
352.538	115.25
352.765	95.25
352.992	96.25
353.22	114.25
353.447	101.25
353.674	100.25
353.901	106.25
354.128	95.25
354.355	108.25
354.583	99.25
354.81	96.25
355.037	81.25
355.264	102.25
355.491	88.25
355.718	97.25
355.945	99.25
356.172	99.25
356.399	89.25
356.626	85.25
356.853	91.25
357.08	85.25
357.307	82.25
357.534	81.25
357.761	74.25
357.988	102.25
358.215	96.25
358.441	87.25
358.668	99.25
358.895	87.25
359.122	96.25
359.349	99.25
359.576	85.25
359.802	95.25
360.029	110.25
360.256	112.25
360.483	97.25
360.709	84.25
360.936	101.25
361.163	88.25
361.39	90.25
361.616	91.25
361.843	89.25
362.07	91.25
362.296	90.25
362.523	97.25
362.749	98.25
362.976	89.25
363.203	91.25
363.429	88.25
363.656	92.25
363.882	102.25
364.109	75.25
364.335	92.25
364.562	83.25
364.788	90.25
365.015	91.25
365.241	99.25
365.468	116.25
365.694	97.25
365.92	96.25
366.147	96.25
366.373	98.25
366.599	83.25
366.826	100.25
367.052	92.25
367.278	98.25
367.505	75.25
367.731	83.25
367.957	87.25
368.184	104.25
368.41	88.25
368.636	116.25
368.862	118.25
369.089	87.25
369.315	101.25
369.541	91.25
369.767	95.25
369.993	91.25
370.219	92.25
370.445	76.25
370.672	84.25
370.898	94.25
371.124	92.25
371.35	92.25
371.576	89.25
371.802	74.25
372.028	85.25
372.254	82.25
372.48	92.25
372.706	94.25
372.932	80.25
373.158	88.25
373.384	80.25
373.61	78.25
373.835	89.25
374.061	91.25
374.287	86.25
374.513	82.25
374.739	97.25
374.965	71.25
375.191	91.25
375.416	80.25
375.642	89.25
375.868	99.25
376.094	86.25
376.319	96.25
376.545	82.25
376.771	100.25
376.997	100.25
377.222	87.25
377.448	87.25
377.674	90.25
377.899	99.25
378.125	96.25
378.35	83.25
378.576	90.25
378.802	88.25
379.027	94.25
379.253	96.25
379.478	91.25
379.704	106.25
379.929	96.25
380.155	101.25
380.38	73.25
380.606	90.25
380.831	87.25
381.057	85.25
381.282	93.25
381.507	90.25
381.733	95.25
381.958	97.25
382.184	96.25
382.409	98.25
382.634	105.25
382.86	96.25
383.085	101.25
383.31	100.25
383.535	97.25
383.761	98.25
383.986	94.25
384.211	83.25
384.436	109.25
384.662	98.25
384.887	95.25
385.112	92.25
385.337	104.25
385.562	104.25
385.787	106.25
386.013	115.25
386.238	121.25
386.463	97.25
386.688	111.25
386.913	99.25
387.138	95.25
387.363	100.25
387.588	88.25
387.813	96.25
388.038	114.25
388.263	104.25
388.488	104.25
388.713	86.25
388.938	81.25
389.163	92.25
389.387	95.25
389.612	91.25
389.837	78.25
390.062	80.25
390.287	83.25
390.512	92.25
390.736	92.25
390.961	103.25
391.186	89.25
391.411	104.25
391.636	99.25
391.86	84.25
392.085	103.25
392.31	102.25
392.534	88.25
392.759	88.25
392.984	74.25
393.208	69.25
393.433	102.25
393.658	102.25
393.882	78.25
394.107	94.25
394.331	95.25
394.556	97.25
394.78	90.25
395.005	75.25
395.229	89.25
395.454	80.25
395.678	87.25
395.903	77.25
396.127	89.25
396.352	85.25
396.576	81.25
396.801	92.25
397.025	87.25
397.249	87.25
397.474	91.25
397.698	90.25
397.922	87.25
398.147	93.25
398.371	89.25
398.595	83.25
398.82	84.25
399.044	98.25
399.268	67.25
399.492	101.25
399.717	95.25
399.941	74.25
400.165	89.25
400.389	87.25
400.613	80.25
400.837	67.25
401.062	100.25
401.286	94.25
401.51	95.25
401.734	88.25
401.958	103.25
402.182	116.25
402.406	133.25
402.63	116.25
402.854	88.25
403.078	88.25
403.302	76.25
403.526	82.25
403.75	80.25
403.974	97.25
404.198	70.25
404.422	87.25
404.645	73.25
404.869	86.25
405.093	92.25
405.317	105.25
405.541	94.25
405.765	96.25
405.988	106.25
406.212	163.25
406.436	214.25
406.66	126.25
406.883	104.25
407.107	98.25
407.331	89.25
407.555	101.25
407.778	100.25
408.002	64.25
408.226	94.25
408.449	94.25
408.673	83.25
408.896	90.25
409.12	83.25
409.344	78.25
409.567	98.25
409.791	98.25
410.014	95.25
410.238	100.25
410.461	90.25
410.685	105.25
410.908	93.25
411.132	105.25
411.355	92.25
411.578	97.25
411.802	98.25
412.025	89.25
412.249	78.25
412.472	85.25
412.695	101.25
412.919	84.25
413.142	111.25
413.365	94.25
413.589	88.25
413.812	94.25
414.035	87.25
414.258	79.25
414.482	79.25
414.705	86.25
414.928	80.25
415.151	89.25
415.374	102.25
415.597	84.25
415.821	85.25
416.044	83.25
416.267	74.25
416.49	95.25
416.713	86.25
416.936	88.25
417.159	83.25
417.382	96.25
417.605	81.25
417.828	95.25
418.051	99.25
418.274	89.25
418.497	85.25
418.72	78.25
418.943	68.25
419.166	82.25
419.389	95.25
419.611	98.25
419.834	79.25
420.057	74.25
420.28	89.25
420.503	91.25
420.726	82.25
420.948	88.25
421.171	81.25
421.394	82.25
421.617	83.25
421.839	88.25
422.062	87.25
422.285	91.25
422.507	93.25
422.73	88.25
422.953	98.25
423.175	84.25
423.398	80.25
423.621	85.25
423.843	96.25
424.066	80.25
424.288	94.25
424.511	93.25
424.733	95.25
424.956	98.25
425.178	96.25
425.401	95.25
425.623	110.25
425.846	94.25
426.068	83.25
426.291	96.25
426.513	85.25
426.735	93.25
426.958	87.25
427.18	87.25
427.402	117.25
427.625	150.25
427.847	148.25
428.069	132.25
428.292	101.25
428.514	91.25
428.736	88.25
428.958	69.25
429.181	78.25
429.403	100.25
429.625	96.25
429.847	89.25
430.069	106.25
430.292	95.25
430.514	71.25
430.736	82.25
430.958	82.25
431.18	83.25
431.402	89.25
431.624	88.25
431.846	85.25
432.068	75.25
432.29	94.25
432.512	94.25
432.734	90.25
432.956	94.25
433.178	99.25
433.4	101.25
433.622	84.25
433.844	82.25
434.066	103.25
434.287	87.25
434.509	80.25
434.731	82.25
434.953	73.25
435.175	88.25
435.397	80.25
435.618	92.25
435.84	100.25
436.062	117.25
436.284	102.25
436.505	114.25
436.727	105.25
436.949	91.25
437.17	91.25
437.392	102.25
437.614	97.25
437.835	99.25
438.057	118.25
438.278	107.25
438.5	92.25
438.721	110.25
438.943	116.25
439.165	91.25
439.386	95.25
439.608	101.25
439.829	93.25
440.05	127.25
440.272	160.25
440.493	76.25
440.715	100.25
440.936	86.25
441.158	75.25
441.379	104.25
441.6	94.25
441.822	83.25
442.043	78.25
442.264	104.25
442.486	87.25
442.707	99.25
442.928	104.25
443.149	110.25
443.371	116.25
443.592	95.25
443.813	102.25
444.034	100.25
444.255	97.25
444.476	99.25
444.698	90.25
444.919	76.25
445.14	139.25
445.361	134.25
445.582	116.25
445.803	145.25
446.024	132.25
446.245	137.25
446.466	95.25
446.687	70.25
446.908	84.25
447.129	81.25
447.35	80.25
447.571	92.25
447.792	103.25
448.013	96.25
448.234	112.25
448.455	95.25
448.675	109.25
448.896	110.25
449.117	110.25
449.338	107.25
449.559	130.25
449.779	114.25
450	91.25
450.221	88.25
450.442	94.25
450.662	97.25
450.883	105.25
451.104	113.25
451.324	107.25
451.545	88.25
451.766	95.25
451.986	79.25
452.207	85.25
452.428	78.25
452.648	102.25
452.869	119.25
453.089	105.25
453.31	102.25
453.53	96.25
453.751	84.25
453.971	103.25
454.192	103.25
454.412	90.25
454.633	85.25
454.853	91.25
455.073	99.25
455.294	82.25
455.514	116.25
455.734	83.25
455.955	80.25
456.175	92.25
456.395	82.25
456.616	76.25
456.836	88.25
457.056	87.25
457.276	68.25
457.497	82.25
457.717	88.25
457.937	90.25
458.157	99.25
458.377	84.25
458.598	108.25
458.818	150.25
459.038	135.25
459.258	99.25
459.478	81.25
459.698	89.25
459.918	92.25
460.138	93.25
460.358	82.25
460.578	86.25
460.798	86.25
461.018	103.25
461.238	88.25
461.458	94.25
461.678	82.25
461.898	61.25
462.118	92.25
462.338	95.25
462.558	100.25
462.777	91.25
462.997	83.25
463.217	94.25
463.437	90.25
463.657	83.25
463.876	95.25
464.096	81.25
464.316	89.25
464.536	98.25
464.755	95.25
464.975	98.25
465.195	156.25
465.414	146.25
465.634	103.25
465.854	90.25
466.073	94.25
466.293	82.25
466.512	81.25
466.732	74.25
466.951	87.25
467.171	96.25
467.391	82.25
467.61	108.25
467.829	88.25
468.049	139.25
468.268	176.25
468.488	105.25
468.707	86.25
468.927	86.25
469.146	85.25
469.365	88.25
469.585	89.25
469.804	94.25
470.023	84.25
470.243	105.25
470.462	101.25
470.681	106.25
470.901	94.25
471.12	92.25
471.339	99.25
471.558	103.25
471.777	103.25
471.997	129.25
472.216	253.25
472.435	402.25
472.654	148.25
472.873	88.25
473.092	96.25
473.311	94.25
473.53	89.25
473.749	92.25
473.968	90.25
474.187	106.25
474.406	94.25
474.625	107.25
474.844	88.25
475.063	84.25
475.282	82.25
475.501	87.25
475.72	86.25
475.939	78.25
476.158	84.25
476.377	82.25
476.596	88.25
476.814	92.25
477.033	109.25
477.252	80.25
477.471	89.25
477.69	93.25
477.908	93.25
478.127	86.25
478.346	94.25
478.564	85.25
478.783	92.25
479.002	89.25
479.22	91.25
479.439	97.25
479.658	94.25
479.876	96.25
480.095	86.25
480.313	76.25
480.532	87.25
480.751	108.25
480.969	232.25
481.188	704.25
481.406	438.25
481.624	134.25
481.843	90.25
482.061	98.25
482.28	100.25
482.498	90.25
482.717	80.25
482.935	88.25
483.153	75.25
483.372	89.25
483.59	78.25
483.808	92.25
484.027	82.25
484.245	90.25
484.463	92.25
484.681	84.25
484.9	98.25
485.118	87.25
485.336	101.25
485.554	98.25
485.772	103.25
485.99	99.25
486.209	107.25
486.427	107.25
486.645	104.25
486.863	110.25
487.081	91.25
487.299	96.25
487.517	87.25
487.735	81.25
487.953	101.25
488.171	104.25
488.389	90.25
488.607	88.25
488.825	94.25
489.043	100.25
489.261	86.25
489.479	96.25
489.696	88.25
489.914	97.25
490.132	94.25
490.35	89.25
490.568	88.25
490.786	88.25
491.003	89.25
491.221	93.25
491.439	94.25
491.657	98.25
491.874	90.25
492.092	78.25
492.31	83.25
492.527	85.25
492.745	86.25
492.963	91.25
493.18	84.25
493.398	98.25
493.615	90.25
493.833	88.25
494.05	93.25
494.268	91.25
494.485	84.25
494.703	85.25
494.92	84.25
495.138	86.25
495.355	97.25
495.573	84.25
495.79	98.25
496.008	97.25
496.225	89.25
496.442	75.25
496.66	78.25
496.877	75.25
497.094	88.25
497.312	97.25
497.529	98.25
497.746	84.25
497.963	85.25
498.181	91.25
498.398	88.25
498.615	102.25
498.832	102.25
499.049	90.25
499.267	104.25
499.484	81.25
499.701	91.25
499.918	91.25
500.135	88.25
500.352	91.25
500.569	94.25
500.786	95.25
501.003	90.25
501.22	81.25
501.437	86.25
501.654	85.25
501.871	110.25
502.088	99.25
502.305	92.25
502.522	92.25
502.739	81.25
502.956	90.25
503.172	85.25
503.389	98.25
503.606	98.25
503.823	83.25
504.04	83.25
504.256	93.25
504.473	79.25
504.69	100.25
504.907	99.25
505.123	86.25
505.34	111.25
505.557	91.25
505.773	83.25
505.99	90.25
506.207	105.25
506.423	87.25
506.64	96.25
506.856	78.25
507.073	86.25
507.289	91.25
507.506	96.25
507.722	92.25
507.939	103.25
508.155	85.25
508.372	100.25
508.588	90.25
508.805	94.25
509.021	87.25
509.238	91.25
509.454	97.25
509.67	93.25
509.887	102.25
510.103	126.25
510.319	187.25
510.536	675.25
510.752	2055.25
510.968	577.25
511.184	156.25
511.401	105.25
511.617	99.25
511.833	99.25
512.049	93.25
512.265	91.25
512.481	89.25
512.698	91.25
512.914	88.25
513.13	98.25
513.346	96.25
513.562	91.25
513.778	91.25
513.994	89.25
514.21	102.25
514.426	112.25
514.642	120.25
514.858	110.25
515.074	146.25
515.29	410.25
515.506	1304.25
515.721	481.25
515.937	158.25
516.153	108.25
516.369	109.25
516.585	82.25
516.801	97.25
517.016	88.25
517.232	100.25
517.448	87.25
517.664	84.25
517.879	94.25
518.095	87.25
518.311	87.25
518.527	91.25
518.742	78.25
518.958	92.25
519.173	106.25
519.389	94.25
519.605	95.25
519.82	95.25
520.036	106.25
520.251	117.25
520.467	112.25
520.682	107.25
520.898	94.25
521.113	102.25
521.329	123.25
521.544	206.25
521.76	498.25
521.975	2082.25
522.19	1276.25
522.406	290.25
522.621	105.25
522.836	105.25
523.052	93.25
523.267	98.25
523.482	87.25
523.698	98.25
523.913	113.25
524.128	102.25
524.343	92.25
524.559	102.25
524.774	93.25
524.989	104.25
525.204	102.25
525.419	106.25
525.634	87.25
525.849	103.25
526.064	83.25
526.28	100.25
526.495	78.25
526.71	83.25
526.925	99.25
527.14	88.25
527.355	92.25
527.57	79.25
527.785	78.25
527.999	103.25
528.214	89.25
528.429	90.25
528.644	82.25
528.859	96.25
529.074	109.25
529.289	119.25
529.503	159.25
529.718	100.25
529.933	90.25
530.148	94.25
530.363	102.25
530.577	94.25
530.792	91.25
531.007	88.25
531.221	94.25
531.436	90.25
531.651	86.25
531.865	85.25
532.08	87.25
532.295	95.25
532.509	76.25
532.724	87.25
532.938	92.25
533.153	101.25
533.367	84.25
533.582	91.25
533.796	95.25
534.011	82.25
534.225	90.25
534.44	84.25
534.654	100.25
534.868	82.25
535.083	83.25
535.297	89.25
535.511	81.25
535.726	104.25
535.94	109.25
536.154	99.25
536.369	97.25
536.583	95.25
536.797	97.25
537.011	78.25
537.225	89.25
537.44	85.25
537.654	96.25
537.868	91.25
538.082	92.25
538.296	82.25
538.51	91.25
538.724	99.25
538.938	72.25
539.153	99.25
539.367	94.25
539.581	88.25
539.795	86.25
540.009	97.25
540.222	80.25
540.436	95.25
540.65	85.25
540.864	90.25
541.078	83.25
541.292	97.25
541.506	85.25
541.72	83.25
541.934	95.25
542.147	80.25
542.361	87.25
542.575	98.25
542.789	94.25
543.002	80.25
543.216	78.25
543.43	98.25
543.644	91.25
543.857	90.25
544.071	97.25
544.285	88.25
544.498	92.25
544.712	71.25
544.925	80.25
545.139	93.25
545.352	90.25
545.566	95.25
545.779	85.25
545.993	84.25
546.206	79.25
546.42	86.25
546.633	95.25
546.847	94.25
547.06	94.25
547.274	89.25
547.487	95.25
547.7	91.25
547.914	98.25
548.127	91.25
548.34	86.25
548.554	92.25
548.767	116.25
548.98	102.25
549.193	72.25
549.407	84.25
549.62	91.25
549.833	75.25
550.046	74.25
550.259	90.25
550.473	84.25
550.686	89.25
550.899	87.25
551.112	92.25
551.325	85.25
551.538	80.25
551.751	84.25
551.964	84.25
552.177	83.25
552.39	76.25
552.603	95.25
552.816	84.25
553.029	95.25
553.242	90.25
553.455	93.25
553.667	90.25
553.88	98.25
554.093	91.25
554.306	90.25
554.519	83.25
554.732	87.25
554.944	94.25
555.157	85.25
555.37	85.25
555.583	80.25
555.795	86.25
556.008	85.25
556.221	81.25
556.433	96.25
556.646	89.25
556.859	74.25
557.071	75.25
557.284	83.25
557.496	88.25
557.709	84.25
557.921	96.25
558.134	91.25
558.346	86.25
558.559	82.25
558.771	82.25
558.984	87.25
559.196	85.25
559.409	98.25
559.621	92.25
559.833	91.25
560.046	79.25
560.258	97.25
560.47	106.25
560.683	90.25
560.895	87.25
561.107	90.25
561.32	80.25
561.532	94.25
561.744	90.25
561.956	89.25
562.168	76.25
562.381	82.25
562.593	104.25
562.805	71.25
563.017	92.25
563.229	78.25
563.441	86.25
563.653	92.25
563.865	98.25
564.077	75.25
564.289	91.25
564.501	96.25
564.713	102.25
564.925	98.25
565.137	96.25
565.349	88.25
565.561	93.25
565.773	86.25
565.985	89.25
566.197	84.25
566.408	91.25
566.62	87.25
566.832	79.25
567.044	69.25
567.255	99.25
567.467	75.25
567.679	85.25
567.891	86.25
568.102	74.25
568.314	79.25
568.526	79.25
568.737	80.25
568.949	82.25
569.161	86.25
569.372	86.25
569.584	92.25
569.795	94.25
570.007	116.25
570.218	210.25
570.43	124.25
570.641	85.25
570.853	103.25
571.064	82.25
571.276	107.25
571.487	82.25
571.698	97.25
571.91	83.25
572.121	91.25
572.333	86.25
572.544	84.25
572.755	93.25
572.966	94.25
573.178	87.25
573.389	102.25
573.6	91.25
573.811	78.25
574.023	74.25
574.234	87.25
574.445	89.25
574.656	104.25
574.867	70.25
575.078	85.25
575.289	84.25
575.501	97.25
575.712	73.25
575.923	102.25
576.134	85.25
576.345	82.25
576.556	97.25
576.767	98.25
576.978	81.25
577.188	91.25
577.399	96.25
577.61	100.25
577.821	94.25
578.032	112.25
578.243	249.25
578.454	626.25
578.665	190.25
578.875	104.25
579.086	89.25
579.297	100.25
579.508	75.25
579.718	82.25
579.929	94.25
580.14	88.25
580.35	79.25
580.561	88.25
580.772	78.25
580.982	84.25
581.193	89.25
581.403	98.25
581.614	89.25
581.825	84.25
582.035	71.25
582.246	90.25
582.456	81.25
582.667	98.25
582.877	82.25
583.087	97.25
583.298	82.25
583.508	91.25
583.719	95.25
583.929	78.25
584.139	90.25
584.35	82.25
584.56	86.25
584.77	86.25
584.981	79.25
585.191	78.25
585.401	78.25
585.611	92.25
585.821	86.25
586.032	83.25
586.242	75.25
586.452	86.25
586.662	86.25
586.872	92.25
587.082	80.25
587.292	63.25
587.502	74.25
587.713	83.25
587.923	62.25
588.133	74.25
588.343	92.25
588.553	68.25
588.762	86.25
588.972	90.25
589.182	119.25
589.392	89.25
589.602	82.25
589.812	94.25
590.022	86.25
590.232	89.25
590.441	73.25
590.651	89.25
590.861	77.25
591.071	87.25
591.281	85.25
591.49	88.25
591.7	93.25
591.91	105.25
592.119	76.25
592.329	78.25
592.539	83.25
592.748	75.25
592.958	75.25
593.167	84.25
593.377	83.25
593.587	96.25
593.796	74.25
594.006	75.25
594.215	85.25
594.424	77.25
594.634	98.25
594.843	85.25
595.053	91.25
595.262	80.25
595.472	86.25
595.681	90.25
595.89	97.25
596.1	90.25
596.309	87.25
596.518	70.25
596.727	84.25
596.937	87.25
597.146	103.25
597.355	87.25
597.564	88.25
597.774	89.25
597.983	89.25
598.192	73.25
598.401	82.25
598.61	85.25
598.819	81.25
599.028	96.25
599.237	83.25
599.446	82.25
599.655	84.25
599.864	72.25
600.073	89.25
600.282	89.25
600.491	95.25
600.7	90.25
600.909	93.25
601.118	84.25
601.327	85.25
601.536	92.25
601.745	100.25
601.953	82.25
602.162	78.25
602.371	79.25
602.58	90.25
602.789	88.25
602.997	86.25
603.206	84.25
603.415	83.25
603.623	71.25
603.832	76.25
604.041	99.25
604.249	80.25
604.458	86.25
604.666	83.25
604.875	78.25
605.084	84.25
605.292	88.25
605.501	70.25
605.709	98.25
605.918	67.25
606.126	84.25
606.334	71.25
606.543	90.25
606.751	94.25
606.96	81.25
607.168	87.25
607.376	76.25
607.585	94.25
607.793	76.25
608.001	85.25
608.21	83.25
608.418	91.25
608.626	80.25
608.834	78.25
609.043	83.25
609.251	87.25
609.459	84.25
609.667	86.25
609.875	90.25
610.083	76.25
610.291	87.25
610.499	85.25
610.707	95.25
610.916	82.25
611.124	96.25
611.332	89.25
611.54	75.25
611.748	88.25
611.955	89.25
612.163	92.25
612.371	95.25
612.579	70.25
612.787	75.25
612.995	88.25
613.203	82.25
613.411	89.25
613.618	91.25
613.826	95.25
614.034	94.25
614.242	72.25
614.449	82.25
614.657	83.25
614.865	65.25
615.072	77.25
615.28	84.25
615.488	91.25
615.695	96.25
615.903	94.25
616.111	99.25
616.318	94.25
616.526	101.25
616.733	92.25
616.941	103.25
617.148	98.25
617.356	82.25
617.563	82.25
617.771	74.25
617.978	80.25
618.185	76.25
618.393	86.25
618.6	78.25
618.807	86.25
619.015	81.25
619.222	89.25
619.429	84.25
619.637	80.25
619.844	87.25
620.051	78.25
620.258	80.25
620.466	86.25
620.673	74.25
620.88	94.25
621.087	86.25
621.294	105.25
621.501	80.25
621.708	82.25
621.915	87.25
622.122	80.25
622.329	89.25
622.536	108.25
622.743	99.25
622.95	76.25
623.157	84.25
623.364	75.25
623.571	92.25
623.778	70.25
623.985	86.25
624.192	82.25
624.399	82.25
624.606	87.25
624.812	73.25
625.019	81.25
625.226	95.25
625.433	86.25
625.639	96.25
625.846	90.25
626.053	86.25
626.259	81.25
626.466	76.25
626.673	74.25
626.879	79.25
627.086	88.25
627.293	82.25
627.499	83.25
627.706	90.25
627.912	79.25
628.119	81.25
628.325	85.25
628.532	94.25
628.738	71.25
628.945	78.25
629.151	70.25
629.357	80.25
629.564	84.25
629.77	78.25
629.976	73.25
630.183	91.25
630.389	82.25
630.595	79.25
630.802	81.25
631.008	82.25
631.214	92.25
631.42	96.25
631.627	86.25
631.833	90.25
632.039	70.25
632.245	76.25
632.451	88.25
632.657	73.25
632.863	68.25
633.069	84.25
633.275	79.25
633.481	75.25
633.688	78.25
633.893	80.25
634.099	90.25
634.305	75.25
634.511	92.25
634.717	85.25
634.923	88.25
635.129	90.25
635.335	91.25
635.541	87.25
635.747	87.25
635.952	97.25
636.158	92.25
636.364	107.25
636.57	100.25
636.775	91.25
636.981	72.25
637.187	97.25
637.392	77.25
637.598	67.25
637.804	95.25
638.009	95.25
638.215	84.25
638.421	89.25
638.626	89.25
638.832	73.25
639.037	86.25
639.243	83.25
639.448	90.25
639.654	83.25
639.859	83.25
640.065	84.25
640.27	84.25
640.475	87.25
640.681	90.25
640.886	90.25
641.091	83.25
641.297	72.25
641.502	73.25
641.707	79.25
641.913	78.25
642.118	90.25
642.323	89.25
642.528	80.25
642.733	84.25
642.939	78.25
643.144	91.25
643.349	79.25
643.554	86.25
643.759	65.25
643.964	76.25
644.169	79.25
644.374	85.25
644.579	84.25
644.784	80.25
644.989	81.25
645.194	75.25
645.399	72.25
645.604	79.25
645.809	80.25
646.014	85.25
646.219	73.25
646.423	86.25
646.628	96.25
646.833	87.25
647.038	82.25
647.243	77.25
647.447	76.25
647.652	79.25
647.857	82.25
648.062	80.25
648.266	92.25
648.471	93.25
648.676	86.25
648.88	94.25
649.085	68.25
649.289	94.25
649.494	91.25
649.698	123.25
649.903	100.25
650.107	63.25
650.312	79.25
650.516	82.25
650.721	92.25
650.925	84.25
651.13	74.25
651.334	88.25
651.539	80.25
651.743	78.25
651.947	101.25
652.152	83.25
652.356	70.25
652.56	89.25
652.764	78.25
652.969	78.25
653.173	75.25
653.377	93.25
653.581	62.25
653.785	87.25
653.99	78.25
654.194	83.25
654.398	68.25
654.602	75.25
654.806	74.25
655.01	88.25
655.214	78.25
655.418	76.25
655.622	72.25
655.826	90.25
656.03	74.25
656.234	80.25
656.438	78.25
656.642	95.25
656.846	80.25
657.049	87.25
657.253	71.25
657.457	82.25
657.661	96.25
657.865	89.25
658.068	91.25
658.272	77.25
658.476	82.25
658.68	75.25
658.883	75.25
659.087	86.25
659.291	74.25
659.494	89.25
659.698	76.25
659.901	91.25
660.105	85.25
660.309	75.25
660.512	85.25
660.716	75.25
660.919	83.25
661.123	83.25
661.326	86.25
661.53	69.25
661.733	74.25
661.936	81.25
662.14	84.25
662.343	83.25
662.546	82.25
662.75	91.25
662.953	86.25
663.156	75.25
663.36	89.25
663.563	90.25
663.766	78.25
663.969	83.25
664.173	95.25
664.376	88.25
664.579	81.25
664.782	81.25
664.985	73.25
665.188	82.25
665.391	90.25
665.594	82.25
665.797	85.25
666	75.25
666.203	66.25
666.406	72.25
666.609	77.25
666.812	83.25
667.015	87.25
667.218	63.25
667.421	74.25
667.624	79.25
667.827	86.25
668.03	66.25
668.232	92.25
668.435	82.25
668.638	78.25
668.841	78.25
669.043	62.25
669.246	83.25
669.449	76.25
669.651	85.25
669.854	65.25
670.057	88.25
670.259	70.25
670.462	78.25
670.665	84.25
670.867	98.25
671.07	74.25
671.272	79.25
671.475	86.25
671.677	86.25
671.88	81.25
672.082	74.25
672.284	89.25
672.487	73.25
672.689	79.25
672.892	82.25
