Data from Circ_1984_H10_HRD10591_00083.txt Node
Date: Wed Jan 03 12:22:58 EST 2024
User: Yrep
Spectrometer: HR+D1059
Trigger mode: 1
Integration Time (sec): 1.000000E-1
Scans to average: 1
Electric dark correction enabled: true
Nonlinearity correction enabled: false
Boxcar width: 0
XAxis mode: Wavelengths
Number of Pixels in Spectrum: 2048
>>>>>Begin Spectral Data<<<<<
223.165	-12.94
223.4	-12.94
223.635	-12.94
223.869	-32.94
224.104	-13.94
224.338	-11.94
224.573	-16.94
224.808	-5.94
225.042	4.06
225.277	-10.94
225.511	-12.94
225.746	-5.94
225.98	8.06
226.215	11.06
226.449	21.06
226.683	20.06
226.918	28.06
227.152	32.06
227.387	31.06
227.621	41.06
227.856	40.06
228.09	50.06
228.324	62.06
228.559	55.06
228.793	158.06
229.027	422.06
229.262	504.06
229.496	576.06
229.73	761.06
229.964	766.06
230.199	520.06
230.433	478.06
230.667	473.06
230.901	456.06
231.136	428.06
231.37	438.06
231.604	442.06
231.838	459.06
232.072	456.06
232.306	476.06
232.541	447.06
232.775	485.06
233.009	484.06
233.243	469.06
233.477	482.06
233.711	500.06
233.945	514.06
234.179	510.06
234.413	501.06
234.647	517.06
234.881	546.06
235.115	534.06
235.349	538.06
235.583	570.06
235.817	593.06
236.051	627.06
236.285	620.06
236.519	624.06
236.753	706.06
236.987	897.06
237.221	1302.06
237.455	1410.06
237.689	853.06
237.922	715.06
238.156	700.06
238.39	651.06
238.624	638.06
238.858	638.06
239.091	655.06
239.325	678.06
239.559	678.06
239.793	695.06
240.027	754.06
240.26	886.06
240.494	939.06
240.728	915.06
240.961	865.06
241.195	794.06
241.429	799.06
241.662	782.06
241.896	792.06
242.13	815.06
242.363	800.06
242.597	815.06
242.83	862.06
243.064	823.06
243.298	868.06
243.531	872.06
243.765	855.06
243.998	893.06
244.232	881.06
244.465	904.06
244.699	913.06
244.932	928.06
245.166	907.06
245.399	921.06
245.633	936.06
245.866	954.06
246.099	954.06
246.333	960.06
246.566	1004.06
246.8	1008.06
247.033	1027.06
247.266	1085.06
247.5	1141.06
247.733	1142.06
247.966	1151.06
248.2	1138.06
248.433	1176.06
248.666	1218.06
248.899	1350.06
249.133	1444.06
249.366	1448.06
249.599	1383.06
249.832	1319.06
250.066	1445.06
250.299	1672.06
250.532	2014.06
250.765	2087.06
250.998	1970.06
251.231	1774.06
251.465	1556.06
251.698	1496.06
251.931	1496.06
252.164	1446.06
252.397	1448.06
252.63	1505.06
252.863	1580.06
253.096	1681.06
253.329	1700.06
253.562	1632.06
253.795	1562.06
254.028	1563.06
254.261	1644.06
254.494	1848.06
254.727	2106.06
254.96	2193.06
255.193	2002.06
255.426	1947.06
255.659	2100.06
255.892	2586.06
256.124	3197.06
256.357	2900.06
256.59	2308.06
256.823	1984.06
257.056	1832.06
257.289	1773.06
257.521	1739.06
257.754	1710.06
257.987	1659.06
258.22	1668.06
258.452	1615.06
258.685	1620.06
258.918	1651.06
259.151	1683.06
259.383	1703.06
259.616	1724.06
259.849	1787.06
260.081	1925.06
260.314	2020.06
260.547	1981.06
260.779	1807.06
261.012	1776.06
261.244	1742.06
261.477	1716.06
261.71	1727.06
261.942	1794.06
262.175	1764.06
262.407	1704.06
262.64	1662.06
262.872	1682.06
263.105	1674.06
263.337	1646.06
263.57	1667.06
263.802	1685.06
264.035	1722.06
264.267	1707.06
264.499	1705.06
264.732	1719.06
264.964	1706.06
265.197	1746.06
265.429	1754.06
265.661	1716.06
265.894	1798.06
266.126	1788.06
266.358	1777.06
266.591	1834.06
266.823	1906.06
267.055	1907.06
267.287	1885.06
267.52	1859.06
267.752	1885.06
267.984	1887.06
268.216	1916.06
268.448	1954.06
268.681	2005.06
268.913	2068.06
269.145	2262.06
269.377	2330.06
269.609	2255.06
269.841	2216.06
270.073	2342.06
270.306	2564.06
270.538	2667.06
270.77	2507.06
271.002	2433.06
271.234	2428.06
271.466	2563.06
271.698	2687.06
271.93	2640.06
272.162	2655.06
272.394	2625.06
272.626	2446.06
272.858	2343.06
273.09	2299.06
273.322	2256.06
273.553	2235.06
273.785	2257.06
274.017	2252.06
274.249	2293.06
274.481	2250.06
274.713	2328.06
274.945	2288.06
275.176	2314.06
275.408	2313.06
275.64	2351.06
275.872	2364.06
276.104	2369.06
276.335	2368.06
276.567	2505.06
276.799	2658.06
277.031	2910.06
277.262	2986.06
277.494	2859.06
277.726	2658.06
277.957	2619.06
278.189	2507.06
278.421	2490.06
278.652	2499.06
278.884	2451.06
279.115	2447.06
279.347	2447.06
279.579	2498.06
279.81	2518.06
280.042	2566.06
280.273	2648.06
280.505	2586.06
280.736	2550.06
280.968	2493.06
281.199	2530.06
281.431	2522.06
281.662	2516.06
281.894	2546.06
282.125	2632.06
282.356	2788.06
282.588	2838.06
282.819	2718.06
283.051	2624.06
283.282	2612.06
283.513	2647.06
283.745	2626.06
283.976	2688.06
284.207	2715.06
284.439	2675.06
284.67	2689.06
284.901	2657.06
285.132	2691.06
285.364	2707.06
285.595	2710.06
285.826	2728.06
286.057	2706.06
286.288	2709.06
286.52	2716.06
286.751	2742.06
286.982	2728.06
287.213	2762.06
287.444	2819.06
287.675	2865.06
287.906	2900.06
288.138	2988.06
288.369	2918.06
288.6	2927.06
288.831	2930.06
289.062	2882.06
289.293	2872.06
289.524	2881.06
289.755	2854.06
289.986	2890.06
290.217	2850.06
290.448	2849.06
290.679	2832.06
290.91	2826.06
291.141	2822.06
291.371	2850.06
291.602	2873.06
291.833	2867.06
292.064	2868.06
292.295	2808.06
292.526	2889.06
292.757	2852.06
292.987	2820.06
293.218	2774.06
293.449	2890.06
293.68	2858.06
293.91	2859.06
294.141	2868.06
294.372	2830.06
294.603	2857.06
294.833	2918.06
295.064	2910.06
295.295	2933.06
295.525	2879.06
295.756	3021.06
295.987	3060.06
296.217	3219.06
296.448	3131.06
296.679	3020.06
296.909	2969.06
297.14	3035.06
297.37	3052.06
297.601	3056.06
297.831	3055.06
298.062	3068.06
298.292	3107.06
298.523	3142.06
298.753	3123.06
298.984	3067.06
299.214	3099.06
299.445	3145.06
299.675	3123.06
299.905	3178.06
300.136	3222.06
300.366	3205.06
300.597	3222.06
300.827	3266.06
301.057	3344.06
301.288	3418.06
301.518	3348.06
301.748	3336.06
301.979	3472.06
302.209	3428.06
302.439	3412.06
302.669	3402.06
302.9	3368.06
303.13	3330.06
303.36	3390.06
303.59	3490.06
303.82	3429.06
304.051	3462.06
304.281	3384.06
304.511	3342.06
304.741	3327.06
304.971	3373.06
305.201	3307.06
305.431	3291.06
305.661	3295.06
305.891	3270.06
306.121	3306.06
306.352	3379.06
306.582	3354.06
306.812	3272.06
307.042	3323.06
307.272	3331.06
307.502	3361.06
307.731	3393.06
307.961	3356.06
308.191	3334.06
308.421	3305.06
308.651	3311.06
308.881	3364.06
309.111	3319.06
309.341	3414.06
309.571	3429.06
309.8	3529.06
310.03	3602.06
310.26	3633.06
310.49	3552.06
310.72	3779.06
310.949	3813.06
311.179	3754.06
311.409	3626.06
311.639	3634.06
311.868	3662.06
312.098	3707.06
312.328	3786.06
312.557	3884.06
312.787	4009.06
313.017	3891.06
313.246	3808.06
313.476	3690.06
313.706	3750.06
313.935	3847.06
314.165	3890.06
314.394	3977.06
314.624	3903.06
314.853	3879.06
315.083	3801.06
315.312	3779.06
315.542	3746.06
315.771	3799.06
316.001	3690.06
316.23	3653.06
316.46	3711.06
316.689	3755.06
316.919	3776.06
317.148	3795.06
317.377	3784.06
317.607	3744.06
317.836	3719.06
318.065	3766.06
318.295	3696.06
318.524	3803.06
318.753	3721.06
318.983	3667.06
319.212	3723.06
319.441	3794.06
319.67	3760.06
319.9	3780.06
320.129	3754.06
320.358	3727.06
320.587	3745.06
320.816	3835.06
321.046	3852.06
321.275	3900.06
321.504	3916.06
321.733	3987.06
321.962	3998.06
322.191	4009.06
322.42	4139.06
322.649	4217.06
322.878	4280.06
323.108	4404.06
323.337	4666.06
323.566	4791.06
323.795	5022.06
324.024	5593.06
324.253	7198.06
324.482	10840.06
324.71	15102.06
324.939	15628.06
325.168	12440.06
325.397	6499.06
325.626	5246.06
325.855	4980.06
326.084	4824.06
326.313	4875.06
326.542	5080.06
326.77	5673.06
326.999	7147.06
327.228	10312.06
327.457	14287.06
327.686	13474.06
327.914	7794.06
328.143	6824.06
328.372	6752.06
328.6	6131.06
328.829	5725.06
329.058	5808.06
329.287	5885.06
329.515	5717.06
329.744	5947.06
329.972	6810.06
330.201	7948.06
330.43	8604.06
330.658	7239.06
330.887	6626.06
331.115	5950.06
331.344	5404.06
331.572	5242.06
331.801	5430.06
332.03	5332.06
332.258	5317.06
332.486	5362.06
332.715	5438.06
332.943	5674.06
333.172	5961.06
333.4	6144.06
333.629	6551.06
333.857	7072.06
334.085	7906.06
334.314	9309.06
334.542	10777.06
334.771	10060.06
334.999	7256.06
335.227	6342.06
335.455	5866.06
335.684	5651.06
335.912	5407.06
336.14	5309.06
336.369	5184.06
336.597	5272.06
336.825	5149.06
337.053	5123.06
337.281	4952.06
337.51	4907.06
337.738	4815.06
337.966	4808.06
338.194	4792.06
338.422	4751.06
338.65	4631.06
338.878	4614.06
339.106	4639.06
339.334	4550.06
339.562	4529.06
339.79	4459.06
340.018	4488.06
340.246	4500.06
340.474	4516.06
340.702	4478.06
340.93	4396.06
341.158	4428.06
341.386	4440.06
341.614	4434.06
341.842	4423.06
342.07	4369.06
342.298	4382.06
342.526	4351.06
342.754	4319.06
342.981	4270.06
343.209	4403.06
343.437	4656.06
343.665	4903.06
343.893	5112.06
344.12	5165.06
344.348	4923.06
344.576	4758.06
344.804	4773.06
345.031	4638.06
345.259	4628.06
345.487	4402.06
345.714	4360.06
345.942	4310.06
346.17	4286.06
346.397	4226.06
346.625	4208.06
346.853	4193.06
347.08	4214.06
347.308	4263.06
347.535	4283.06
347.763	4349.06
347.99	4276.06
348.218	4295.06
348.445	4343.06
348.673	4260.06
348.9	4162.06
349.128	4183.06
349.355	4082.06
349.583	4017.06
349.81	4096.06
350.037	4070.06
350.265	4069.06
350.492	4079.06
350.72	4078.06
350.947	4169.06
351.174	4229.06
351.402	4228.06
351.629	4139.06
351.856	4207.06
352.083	4218.06
352.311	4289.06
352.538	4260.06
352.765	4226.06
352.992	4120.06
353.22	4090.06
353.447	4114.06
353.674	4056.06
353.901	3976.06
354.128	4016.06
354.355	3970.06
354.583	4033.06
354.81	3960.06
355.037	3976.06
355.264	3907.06
355.491	3920.06
355.718	3954.06
355.945	4004.06
356.172	3957.06
356.399	3998.06
356.626	3973.06
356.853	4030.06
357.08	3933.06
357.307	3978.06
357.534	3972.06
357.761	4041.06
357.988	4014.06
358.215	3959.06
358.441	4004.06
358.668	4033.06
358.895	4101.06
359.122	4103.06
359.349	4158.06
359.576	4238.06
359.802	4461.06
360.029	4608.06
360.256	4613.06
360.483	4383.06
360.709	4214.06
360.936	4194.06
361.163	4231.06
361.39	4162.06
361.616	4201.06
361.843	4163.06
362.07	4188.06
362.296	4199.06
362.523	4177.06
362.749	4164.06
362.976	4127.06
363.203	4095.06
363.429	4087.06
363.656	4105.06
363.882	4071.06
364.109	4071.06
364.335	4028.06
364.562	4004.06
364.788	4057.06
365.015	4087.06
365.241	4086.06
365.468	4101.06
365.694	4099.06
365.92	4143.06
366.147	4072.06
366.373	4052.06
366.599	4052.06
366.826	3998.06
367.052	3974.06
367.278	4112.06
367.505	4105.06
367.731	4110.06
367.957	4049.06
368.184	4161.06
368.41	4180.06
368.636	4295.06
368.862	4258.06
369.089	4211.06
369.315	4170.06
369.541	4184.06
369.767	4213.06
369.993	4241.06
370.219	4150.06
370.445	4246.06
370.672	4216.06
370.898	4256.06
371.124	4309.06
371.35	4354.06
371.576	4314.06
371.802	4304.06
372.028	4277.06
372.254	4295.06
372.48	4338.06
372.706	4472.06
372.932	4554.06
373.158	4406.06
373.384	4382.06
373.61	4314.06
373.835	4339.06
374.061	4431.06
374.287	4421.06
374.513	4492.06
374.739	4638.06
374.965	4814.06
375.191	4735.06
375.416	4577.06
375.642	4520.06
375.868	4492.06
376.094	4455.06
376.319	4400.06
376.545	4363.06
376.771	4361.06
376.997	4294.06
377.222	4330.06
377.448	4223.06
377.674	4282.06
377.899	4300.06
378.125	4283.06
378.35	4260.06
378.576	4217.06
378.802	4211.06
379.027	4257.06
379.253	4229.06
379.478	4243.06
379.704	4302.06
379.929	4373.06
380.155	4306.06
380.38	4211.06
380.606	4294.06
380.831	4334.06
381.057	4325.06
381.282	4338.06
381.507	4332.06
381.733	4417.06
381.958	4465.06
382.184	4446.06
382.409	4523.06
382.634	4559.06
382.86	4572.06
383.085	4629.06
383.31	4691.06
383.535	4737.06
383.761	4774.06
383.986	4828.06
384.211	4958.06
384.436	4918.06
384.662	5054.06
384.887	5164.06
385.112	5134.06
385.337	5162.06
385.562	5185.06
385.787	5162.06
386.013	5311.06
386.238	5311.06
386.463	5280.06
386.688	5236.06
386.913	5150.06
387.138	5078.06
387.363	5162.06
387.588	5100.06
387.813	5107.06
388.038	5100.06
388.263	5108.06
388.488	5168.06
388.713	5135.06
388.938	5122.06
389.163	5132.06
389.387	5079.06
389.612	5051.06
389.837	5100.06
390.062	4945.06
390.287	5059.06
390.512	5007.06
390.736	5157.06
390.961	5170.06
391.186	5236.06
391.411	5453.06
391.636	5542.06
391.86	5745.06
392.085	5820.06
392.31	5633.06
392.534	5598.06
392.759	5434.06
392.984	5412.06
393.208	5305.06
393.433	5422.06
393.658	5365.06
393.882	5290.06
394.107	5316.06
394.331	5451.06
394.556	5312.06
394.78	5482.06
395.005	5506.06
395.229	5562.06
395.454	5667.06
395.678	5792.06
395.903	5853.06
396.127	5770.06
396.352	5674.06
396.576	5484.06
396.801	5423.06
397.025	5564.06
397.249	5610.06
397.474	5791.06
397.698	5807.06
397.922	5963.06
398.147	6062.06
398.371	6167.06
398.595	6204.06
398.82	6571.06
399.044	7161.06
399.268	7915.06
399.492	8883.06
399.717	9390.06
399.941	9164.06
400.165	8578.06
400.389	7896.06
400.613	7172.06
400.837	6756.06
401.062	6730.06
401.286	6517.06
401.51	6464.06
401.734	6510.06
401.958	6519.06
402.182	6611.06
402.406	6790.06
402.63	6942.06
402.854	6979.06
403.078	6986.06
403.302	7066.06
403.526	7339.06
403.75	7320.06
403.974	7420.06
404.198	7485.06
404.422	7485.06
404.645	7649.06
404.869	7698.06
405.093	8293.06
405.317	8696.06
405.541	8645.06
405.765	7790.06
405.988	7423.06
406.212	7502.06
406.436	7664.06
406.66	7772.06
406.883	7720.06
407.107	8223.06
407.331	8763.06
407.555	9241.06
407.778	8944.06
408.002	8106.06
408.226	7804.06
408.449	7705.06
408.673	7584.06
408.896	7736.06
409.12	7965.06
409.344	7457.06
409.567	7101.06
409.791	7130.06
410.014	6974.06
410.238	6964.06
410.461	7049.06
410.685	7055.06
410.908	7167.06
411.132	7354.06
411.355	7324.06
411.578	7059.06
411.802	6859.06
412.025	7126.06
412.249	7419.06
412.472	7959.06
412.695	8362.06
412.919	7706.06
413.142	7286.06
413.365	6922.06
413.589	6788.06
413.812	6651.06
414.035	6551.06
414.258	6576.06
414.482	6582.06
414.705	6628.06
414.928	6522.06
415.151	6493.06
415.374	6435.06
415.597	6376.06
415.821	6279.06
416.044	6367.06
416.267	6251.06
416.49	6253.06
416.713	6121.06
416.936	6366.06
417.159	6336.06
417.382	6430.06
417.605	6471.06
417.828	6708.06
418.051	6673.06
418.274	6469.06
418.497	6431.06
418.72	6548.06
418.943	6494.06
419.166	6937.06
419.389	7369.06
419.611	7239.06
419.834	7215.06
420.057	7297.06
420.28	7314.06
420.503	7166.06
420.726	6976.06
420.948	7035.06
421.171	7229.06
421.394	7082.06
421.617	6617.06
421.839	6630.06
422.062	6660.06
422.285	6774.06
422.507	7381.06
422.73	7848.06
422.953	7339.06
423.175	6882.06
423.398	6878.06
423.621	7008.06
423.843	7161.06
424.066	7153.06
424.288	7001.06
424.511	7210.06
424.733	7748.06
424.956	8092.06
425.178	7612.06
425.401	7866.06
425.623	7679.06
425.846	6683.06
426.068	6537.06
426.291	6526.06
426.513	6507.06
426.735	6616.06
426.958	7016.06
427.18	7828.06
427.402	9032.06
427.625	9246.06
427.847	8296.06
428.069	7985.06
428.292	6762.06
428.514	6250.06
428.736	6079.06
428.958	6010.06
429.181	5811.06
429.403	5879.06
429.625	5943.06
429.847	6282.06
430.069	6717.06
430.292	6292.06
430.514	5796.06
430.736	5722.06
430.958	5709.06
431.18	5653.06
431.402	5627.06
431.624	5675.06
431.846	5722.06
432.068	5708.06
432.29	5882.06
432.512	5713.06
432.734	5703.06
432.956	5732.06
433.178	5810.06
433.4	5798.06
433.622	5723.06
433.844	5815.06
434.066	5748.06
434.287	5865.06
434.509	6058.06
434.731	6260.06
434.953	6352.06
435.175	6465.06
435.397	6657.06
435.618	6464.06
435.84	6847.06
436.062	7738.06
436.284	7650.06
436.505	6421.06
436.727	6106.06
436.949	5911.06
437.17	5756.06
437.392	5751.06
437.614	5935.06
437.835	6343.06
438.057	7207.06
438.278	7850.06
438.5	7746.06
438.721	8600.06
438.943	7408.06
439.165	6208.06
439.386	6120.06
439.608	6174.06
439.829	6178.06
440.05	6564.06
440.272	6947.06
440.493	6359.06
440.715	6081.06
440.936	5969.06
441.158	6126.06
441.379	6216.06
441.6	6470.06
441.822	6635.06
442.043	7177.06
442.264	7836.06
442.486	7639.06
442.707	6755.06
442.928	6527.06
443.149	6759.06
443.371	6951.06
443.592	7641.06
443.813	8538.06
444.034	8389.06
444.255	7382.06
444.476	7267.06
444.698	7433.06
444.919	7400.06
445.14	7286.06
445.361	7185.06
445.582	7232.06
445.803	7908.06
446.024	8550.06
446.245	8139.06
446.466	7339.06
446.687	6301.06
446.908	5983.06
447.129	5720.06
447.35	5605.06
447.571	5575.06
447.792	5425.06
448.013	5536.06
448.234	5697.06
448.455	6496.06
448.675	7682.06
448.896	7979.06
449.117	6510.06
449.338	6764.06
449.559	8177.06
449.779	8218.06
450	6175.06
450.221	5610.06
450.442	5438.06
450.662	5374.06
450.883	5458.06
451.104	5611.06
451.324	5407.06
451.545	5348.06
451.766	5155.06
451.986	5121.06
452.207	4999.06
452.428	5065.06
452.648	5014.06
452.869	5034.06
453.089	5108.06
453.31	5152.06
453.53	5024.06
453.751	4932.06
453.971	4998.06
454.192	5122.06
454.412	4892.06
454.633	4909.06
454.853	4934.06
455.073	4858.06
455.294	5313.06
455.514	5812.06
455.734	5231.06
455.955	4788.06
456.175	4677.06
456.395	4658.06
456.616	4668.06
456.836	4695.06
457.056	4648.06
457.276	4562.06
457.497	4754.06
457.717	4722.06
457.937	4774.06
458.157	4882.06
458.377	4894.06
458.598	5284.06
458.818	5907.06
459.038	6640.06
459.258	6553.06
459.478	5854.06
459.698	5721.06
459.918	5872.06
460.138	6019.06
460.358	6254.06
460.578	6263.06
460.798	6368.06
461.018	6286.06
461.238	6137.06
461.458	6200.06
461.678	6170.06
461.898	6230.06
462.118	6342.06
462.338	6666.06
462.558	6777.06
462.777	7094.06
462.997	7620.06
463.217	8035.06
463.437	7855.06
463.657	7311.06
463.876	7019.06
464.096	7089.06
464.316	7086.06
464.536	7157.06
464.755	6937.06
464.975	6852.06
465.195	6949.06
465.414	6952.06
465.634	6192.06
465.854	5807.06
466.073	5624.06
466.293	5458.06
466.512	5351.06
466.732	5264.06
466.951	5232.06
467.171	5243.06
467.391	5370.06
467.61	5392.06
467.829	5488.06
468.049	5723.06
468.268	5940.06
468.488	5515.06
468.707	5207.06
468.927	5170.06
469.146	5114.06
469.365	5135.06
469.585	5088.06
469.804	5377.06
470.023	5437.06
470.243	5499.06
470.462	5536.06
470.681	5668.06
470.901	5494.06
471.12	5460.06
471.339	5395.06
471.558	5362.06
471.777	5384.06
471.997	5536.06
472.216	6447.06
472.435	8145.06
472.654	6740.06
472.873	5772.06
473.092	5585.06
473.311	5370.06
473.53	5328.06
473.749	5356.06
473.968	5871.06
474.187	6751.06
474.406	6239.06
474.625	5396.06
474.844	5105.06
475.063	5113.06
475.282	5134.06
475.501	5188.06
475.72	5235.06
475.939	5218.06
476.158	5383.06
476.377	5323.06
476.596	5194.06
476.814	5395.06
477.033	5381.06
477.252	5511.06
477.471	5654.06
477.69	5724.06
477.908	5852.06
478.127	5956.06
478.346	6021.06
478.564	6191.06
478.783	6282.06
479.002	6422.06
479.22	6375.06
479.439	6484.06
479.658	6655.06
479.876	6773.06
480.095	6950.06
480.313	7423.06
480.532	7358.06
480.751	7314.06
480.969	8321.06
481.188	11698.06
481.406	11418.06
481.624	8566.06
481.843	7535.06
482.061	7044.06
482.28	6710.06
482.498	6505.06
482.717	6365.06
482.935	6291.06
483.153	6262.06
483.372	6151.06
483.59	6093.06
483.808	6147.06
484.027	6182.06
484.245	6170.06
484.463	6101.06
484.681	6307.06
484.9	6330.06
485.118	6332.06
485.336	6363.06
485.554	6538.06
485.772	6516.06
485.99	6421.06
486.209	6547.06
486.427	6564.06
486.645	6485.06
486.863	6665.06
487.081	6665.06
487.299	6631.06
487.517	6535.06
487.735	6493.06
487.953	6422.06
488.171	6482.06
488.389	6532.06
488.607	6572.06
488.825	6508.06
489.043	6644.06
489.261	6734.06
489.479	6787.06
489.696	6816.06
489.914	6907.06
490.132	7016.06
490.35	7039.06
490.568	7169.06
490.786	7344.06
491.003	7420.06
491.221	7723.06
491.439	7945.06
491.657	8074.06
491.874	8089.06
492.092	8095.06
492.31	8260.06
492.527	8351.06
492.745	8466.06
492.963	8428.06
493.18	8448.06
493.398	8472.06
493.615	8464.06
493.833	8327.06
494.05	8310.06
494.268	8254.06
494.485	8186.06
494.703	8072.06
494.92	8075.06
495.138	8040.06
495.355	7932.06
495.573	7898.06
495.79	7950.06
496.008	7928.06
496.225	7918.06
496.442	7817.06
496.66	7930.06
496.877	7900.06
497.094	7978.06
497.312	8186.06
497.529	8316.06
497.746	8351.06
497.963	8569.06
498.181	8904.06
498.398	9307.06
498.615	9544.06
498.832	10018.06
499.049	10523.06
499.267	11145.06
499.484	11978.06
499.701	12624.06
499.918	13445.06
500.135	14228.06
500.352	14804.06
500.569	14983.06
500.786	14920.06
501.003	14506.06
501.22	13789.06
501.437	13010.06
501.654	12249.06
501.871	11434.06
502.088	10750.06
502.305	10124.06
502.522	9714.06
502.739	9316.06
502.956	8848.06
503.172	8596.06
503.389	8354.06
503.606	8224.06
503.823	8230.06
504.04	8101.06
504.256	8106.06
504.473	8210.06
504.69	8275.06
504.907	8068.06
505.123	7625.06
505.34	7486.06
505.557	7241.06
505.773	7106.06
505.99	7042.06
506.207	7028.06
506.423	6946.06
506.64	6791.06
506.856	6719.06
507.073	6622.06
507.289	6666.06
507.506	6531.06
507.722	6727.06
507.939	6710.06
508.155	6538.06
508.372	6346.06
508.588	6352.06
508.805	6284.06
509.021	6325.06
509.238	6508.06
509.454	6462.06
509.67	6330.06
509.887	6204.06
510.103	6176.06
510.319	6275.06
510.536	7388.06
510.752	10443.06
510.968	7258.06
511.184	6180.06
511.401	6118.06
511.617	6275.06
511.833	6616.06
512.049	6724.06
512.265	6460.06
512.481	6309.06
512.698	6124.06
512.914	6057.06
513.13	6026.06
513.346	5910.06
513.562	5986.06
513.778	5999.06
513.994	5968.06
514.21	6048.06
514.426	6285.06
514.642	6500.06
514.858	6646.06
515.074	7078.06
515.29	8078.06
515.506	10262.06
515.721	7795.06
515.937	6853.06
516.153	6647.06
516.369	6584.06
516.585	6684.06
516.801	6808.06
517.016	6930.06
517.232	7222.06
517.448	7339.06
517.664	7423.06
517.879	7467.06
518.095	7391.06
518.311	7314.06
518.527	7019.06
518.742	6883.06
518.958	6615.06
519.173	6300.06
519.389	6312.06
519.605	6175.06
519.82	6184.06
520.036	6236.06
520.251	6278.06
520.467	6371.06
520.682	6326.06
520.898	6263.06
521.113	6406.06
521.329	6586.06
521.544	7220.06
521.76	8688.06
521.975	12776.06
522.19	9994.06
522.406	6753.06
522.621	5948.06
522.836	5670.06
523.052	5566.06
523.267	5355.06
523.482	5268.06
523.698	5257.06
523.913	5196.06
524.128	5155.06
524.343	5023.06
524.559	5019.06
524.774	5031.06
524.989	5025.06
525.204	5033.06
525.419	4996.06
525.634	4904.06
525.849	4905.06
526.064	4835.06
526.28	4873.06
526.495	4805.06
526.71	4752.06
526.925	4798.06
527.14	4760.06
527.355	4745.06
527.57	4812.06
527.785	4747.06
527.999	4788.06
528.214	4777.06
528.429	4780.06
528.644	4759.06
528.859	4724.06
529.074	4791.06
529.289	4966.06
529.503	5443.06
529.718	5145.06
529.933	5015.06
530.148	4795.06
530.363	4778.06
530.577	4788.06
530.792	4731.06
531.007	4706.06
531.221	4778.06
531.436	4699.06
531.651	4729.06
531.865	4679.06
532.08	4648.06
532.295	4593.06
532.509	4611.06
532.724	4641.06
532.938	4617.06
533.153	4638.06
533.367	4608.06
533.582	4569.06
533.796	4618.06
534.011	4618.06
534.225	4591.06
534.44	4560.06
534.654	4594.06
534.868	4521.06
535.083	4543.06
535.297	4540.06
535.511	4516.06
535.726	4571.06
535.94	4533.06
536.154	4474.06
536.369	4404.06
536.583	4382.06
536.797	4442.06
537.011	4381.06
537.225	4318.06
537.44	4342.06
537.654	4331.06
537.868	4374.06
538.082	4280.06
538.296	4348.06
538.51	4321.06
538.724	4307.06
538.938	4212.06
539.153	4239.06
539.367	4333.06
539.581	4280.06
539.795	4250.06
540.009	4240.06
540.222	4150.06
540.436	4206.06
540.65	4225.06
540.864	4314.06
541.078	4221.06
541.292	4223.06
541.506	4140.06
541.72	4149.06
541.934	4118.06
542.147	4103.06
542.361	4042.06
542.575	4089.06
542.789	4051.06
543.002	4082.06
543.216	4095.06
543.43	4115.06
543.644	4160.06
543.857	4100.06
544.071	4166.06
544.285	4103.06
544.498	4175.06
544.712	4111.06
544.925	4116.06
545.139	4108.06
545.352	4144.06
545.566	4128.06
545.779	4171.06
545.993	4124.06
546.206	4149.06
546.42	4146.06
546.633	4086.06
546.847	4041.06
547.06	4065.06
547.274	4069.06
547.487	4054.06
547.7	4114.06
547.914	4032.06
548.127	4065.06
548.34	4140.06
548.554	4132.06
548.767	4111.06
548.98	4152.06
549.193	4146.06
549.407	4137.06
549.62	4209.06
549.833	4227.06
550.046	4114.06
550.259	4169.06
550.473	4057.06
550.686	4024.06
550.899	3962.06
551.112	4015.06
551.325	3982.06
551.538	4062.06
551.751	3936.06
551.964	4032.06
552.177	4120.06
552.39	4164.06
552.603	4248.06
552.816	4264.06
553.029	4336.06
553.242	4428.06
553.455	4468.06
553.667	4545.06
553.88	4460.06
554.093	4378.06
554.306	4268.06
554.519	4176.06
554.732	4086.06
554.944	3986.06
555.157	3913.06
555.37	3892.06
555.583	3819.06
555.795	3772.06
556.008	3741.06
556.221	3653.06
556.433	3566.06
556.646	3570.06
556.859	3547.06
557.071	3489.06
557.284	3456.06
557.496	3465.06
557.709	3433.06
557.921	3471.06
558.134	3473.06
558.346	3347.06
558.559	3342.06
558.771	3353.06
558.984	3370.06
559.196	3346.06
559.409	3300.06
559.621	3324.06
559.833	3311.06
560.046	3299.06
560.258	3320.06
560.47	3299.06
560.683	3336.06
560.895	3278.06
561.107	3266.06
561.32	3241.06
561.532	3262.06
561.744	3246.06
561.956	3299.06
562.168	3294.06
562.381	3255.06
562.593	3248.06
562.805	3318.06
563.017	3372.06
563.229	3251.06
563.441	3306.06
563.653	3382.06
563.865	3402.06
564.077	3386.06
564.289	3419.06
564.501	3511.06
564.713	3530.06
564.925	3681.06
565.137	3720.06
565.349	3768.06
565.561	3835.06
565.773	4031.06
565.985	4163.06
566.197	4397.06
566.408	4705.06
566.62	4969.06
566.832	5214.06
567.044	5385.06
567.255	5254.06
567.467	5511.06
567.679	5720.06
567.891	6036.06
568.102	6150.06
568.314	5665.06
568.526	5179.06
568.737	4729.06
568.949	4486.06
569.161	4115.06
569.372	3812.06
569.584	3671.06
569.795	3631.06
570.007	3542.06
570.218	3685.06
570.43	3442.06
570.641	3381.06
570.853	3318.06
571.064	3339.06
571.276	3353.06
571.487	3251.06
571.698	3099.06
571.91	3028.06
572.121	3011.06
572.333	2904.06
572.544	2860.06
572.755	2821.06
572.966	2746.06
573.178	2799.06
573.389	2742.06
573.6	2682.06
573.811	2664.06
574.023	2605.06
574.234	2650.06
574.445	2668.06
574.656	2665.06
574.867	2675.06
575.078	2586.06
575.289	2610.06
575.501	2579.06
575.712	2526.06
575.923	2487.06
576.134	2414.06
576.345	2464.06
576.556	2495.06
576.767	2465.06
576.978	2436.06
577.188	2431.06
577.399	2396.06
577.61	2404.06
577.821	2396.06
578.032	2391.06
578.243	2603.06
578.454	3498.06
578.665	2610.06
578.875	2307.06
579.086	2290.06
579.297	2342.06
579.508	2274.06
579.718	2240.06
579.929	2262.06
580.14	2190.06
580.35	2190.06
580.561	2193.06
580.772	2142.06
580.982	2206.06
581.193	2147.06
581.403	2128.06
581.614	2189.06
581.825	2183.06
582.035	2152.06
582.246	2140.06
582.456	2102.06
582.667	2125.06
582.877	2115.06
583.087	2122.06
583.298	2082.06
583.508	2116.06
583.719	2109.06
583.929	2092.06
584.139	2108.06
584.35	2105.06
584.56	2066.06
584.77	2086.06
584.981	2074.06
585.191	2069.06
585.401	2060.06
585.611	2067.06
585.821	2051.06
586.032	2093.06
586.242	2056.06
586.452	2015.06
586.662	2009.06
586.872	1975.06
587.082	1980.06
587.292	2027.06
587.502	2020.06
587.713	1957.06
587.923	2036.06
588.133	2010.06
588.343	2014.06
588.553	2042.06
588.762	2010.06
588.972	1991.06
589.182	2041.06
589.392	2053.06
589.602	2139.06
589.812	2088.06
590.022	2007.06
590.232	2017.06
590.441	2031.06
590.651	2036.06
590.861	2028.06
591.071	2047.06
591.281	2081.06
591.49	2137.06
591.7	2193.06
591.91	2151.06
592.119	2188.06
592.329	2275.06
592.539	2324.06
592.748	2388.06
592.958	2440.06
593.167	2538.06
593.377	2494.06
593.587	2554.06
593.796	2565.06
594.006	2544.06
594.215	2582.06
594.424	2527.06
594.634	2504.06
594.843	2432.06
595.053	2290.06
595.262	2236.06
595.472	2156.06
595.681	2072.06
595.89	2019.06
596.1	2013.06
596.309	1968.06
596.518	1881.06
596.727	1890.06
596.937	1886.06
597.146	1848.06
597.355	1782.06
597.564	1798.06
597.774	1762.06
597.983	1782.06
598.192	1722.06
598.401	1738.06
598.61	1735.06
598.819	1697.06
599.028	1685.06
599.237	1671.06
599.446	1677.06
599.655	1705.06
599.864	1720.06
600.073	1672.06
600.282	1667.06
600.491	1656.06
600.7	1638.06
600.909	1620.06
601.118	1680.06
601.327	1632.06
601.536	1633.06
601.745	1625.06
601.953	1598.06
602.162	1613.06
602.371	1576.06
602.58	1568.06
602.789	1562.06
602.997	1566.06
603.206	1583.06
603.415	1586.06
603.623	1528.06
603.832	1532.06
604.041	1531.06
604.249	1555.06
604.458	1541.06
604.666	1550.06
604.875	1508.06
605.084	1488.06
605.292	1504.06
605.501	1486.06
605.709	1513.06
605.918	1476.06
606.126	1492.06
606.334	1498.06
606.543	1476.06
606.751	1462.06
606.96	1496.06
607.168	1453.06
607.376	1436.06
607.585	1458.06
607.793	1431.06
608.001	1469.06
608.21	1444.06
608.418	1453.06
608.626	1453.06
608.834	1440.06
609.043	1442.06
609.251	1422.06
609.459	1420.06
609.667	1426.06
609.875	1419.06
610.083	1432.06
610.291	1449.06
610.499	1416.06
610.707	1395.06
610.916	1430.06
611.124	1424.06
611.332	1404.06
611.54	1414.06
611.748	1413.06
611.955	1429.06
612.163	1388.06
612.371	1378.06
612.579	1398.06
612.787	1351.06
612.995	1372.06
613.203	1358.06
613.411	1393.06
613.618	1385.06
613.826	1353.06
614.034	1380.06
614.242	1326.06
614.449	1327.06
614.657	1360.06
614.865	1336.06
615.072	1376.06
615.28	1372.06
615.488	1350.06
615.695	1379.06
615.903	1387.06
616.111	1387.06
616.318	1370.06
616.526	1363.06
616.733	1387.06
616.941	1359.06
617.148	1364.06
617.356	1335.06
617.563	1324.06
617.771	1356.06
617.978	1339.06
618.185	1334.06
618.393	1310.06
618.6	1332.06
618.807	1349.06
619.015	1303.06
619.222	1285.06
619.429	1301.06
619.637	1304.06
619.844	1284.06
620.051	1284.06
620.258	1259.06
620.466	1234.06
620.673	1214.06
620.88	1232.06
621.087	1226.06
621.294	1219.06
621.501	1247.06
621.708	1226.06
621.915	1207.06
622.122	1192.06
622.329	1218.06
622.536	1192.06
622.743	1194.06
622.95	1188.06
623.157	1159.06
623.364	1168.06
623.571	1171.06
623.778	1140.06
623.985	1168.06
624.192	1139.06
624.399	1108.06
624.606	1086.06
624.812	1096.06
625.019	1105.06
625.226	1098.06
625.433	1122.06
625.639	1131.06
625.846	1102.06
626.053	1104.06
626.259	1095.06
626.466	1111.06
626.673	1093.06
626.879	1046.06
627.086	1059.06
627.293	1066.06
627.499	1064.06
627.706	1067.06
627.912	1066.06
628.119	1036.06
628.325	1049.06
628.532	1035.06
628.738	1024.06
628.945	1015.06
629.151	994.06
629.357	998.06
629.564	996.06
629.77	1000.06
629.976	980.06
630.183	998.06
630.389	982.06
630.595	968.06
630.802	984.06
631.008	970.06
631.214	962.06
631.42	945.06
631.627	948.06
631.833	948.06
632.039	946.06
632.245	913.06
632.451	913.06
632.657	937.06
632.863	926.06
633.069	914.06
633.275	901.06
633.481	891.06
633.688	915.06
633.893	919.06
634.099	899.06
634.305	872.06
634.511	874.06
634.717	893.06
634.923	887.06
635.129	886.06
635.335	881.06
635.541	871.06
635.747	897.06
635.952	927.06
636.158	938.06
636.364	1025.06
636.57	1046.06
636.775	970.06
636.981	956.06
637.187	929.06
637.392	910.06
637.598	888.06
637.804	884.06
638.009	882.06
638.215	876.06
638.421	867.06
638.626	851.06
638.832	816.06
639.037	844.06
639.243	824.06
639.448	806.06
639.654	812.06
639.859	825.06
640.065	775.06
640.27	775.06
640.475	797.06
640.681	783.06
640.886	800.06
641.091	789.06
641.297	774.06
641.502	765.06
641.707	769.06
641.913	784.06
642.118	786.06
642.323	761.06
642.528	757.06
642.733	722.06
642.939	732.06
643.144	727.06
643.349	771.06
643.554	721.06
643.759	731.06
643.964	709.06
644.169	736.06
644.374	724.06
644.579	773.06
644.784	721.06
644.989	745.06
645.194	742.06
645.399	720.06
645.604	715.06
645.809	723.06
646.014	747.06
646.219	735.06
646.423	745.06
646.628	741.06
646.833	739.06
647.038	721.06
647.243	757.06
647.447	740.06
647.652	770.06
647.857	775.06
648.062	774.06
648.266	763.06
648.471	791.06
648.676	781.06
648.88	780.06
649.085	794.06
649.289	800.06
649.494	841.06
649.698	952.06
649.903	829.06
650.107	761.06
650.312	674.06
650.516	648.06
650.721	642.06
650.925	632.06
651.13	606.06
651.334	599.06
651.539	587.06
651.743	593.06
651.947	567.06
652.152	582.06
652.356	592.06
652.56	535.06
652.764	547.06
652.969	522.06
653.173	487.06
653.377	491.06
653.581	503.06
653.785	499.06
653.99	522.06
654.194	478.06
654.398	448.06
654.602	455.06
654.806	489.06
655.01	542.06
655.214	482.06
655.418	460.06
655.622	426.06
655.826	452.06
656.03	475.06
656.234	479.06
656.438	499.06
656.642	492.06
656.846	447.06
657.049	406.06
657.253	356.06
657.457	351.06
657.661	313.06
657.865	308.06
658.068	306.06
658.272	277.06
658.476	261.06
658.68	257.06
658.883	227.06
659.087	212.06
659.291	228.06
659.494	219.06
659.698	201.06
659.901	204.06
660.105	194.06
660.309	181.06
660.512	180.06
660.716	162.06
660.919	163.06
661.123	156.06
661.326	135.06
661.53	149.06
661.733	131.06
661.936	118.06
662.14	117.06
662.343	112.06
662.546	123.06
662.75	108.06
662.953	97.06
663.156	105.06
663.36	93.06
663.563	90.06
663.766	91.06
663.969	98.06
664.173	100.06
664.376	95.06
664.579	73.06
664.782	89.06
664.985	102.06
665.188	94.06
665.391	86.06
665.594	91.06
665.797	90.06
666	75.06
666.203	94.06
666.406	80.06
666.609	79.06
666.812	68.06
667.015	75.06
667.218	99.06
667.421	78.06
667.624	79.06
667.827	79.06
668.03	81.06
668.232	76.06
668.435	88.06
668.638	81.06
668.841	80.06
669.043	89.06
669.246	71.06
669.449	79.06
669.651	96.06
669.854	91.06
670.057	75.06
670.259	76.06
670.462	82.06
670.665	83.06
670.867	81.06
671.07	73.06
671.272	82.06
671.475	81.06
671.677	90.06
671.88	83.06
672.082	89.06
672.284	93.06
672.487	81.06
672.689	89.06
672.892	74.06
