Data from Soil_25_1_HRD10591_00010.txt Node
Date: Thu Feb 19 11:12:34 EST 2026
User: Yrep
Spectrometer: HR+D1059
Trigger mode: 1
Integration Time (sec): 1.000000E-1
Scans to average: 1
Electric dark correction enabled: true
Nonlinearity correction enabled: false
Boxcar width: 0
XAxis mode: Wavelengths
Number of Pixels in Spectrum: 2048
>>>>>Begin Spectral Data<<<<<
223.165	-19.88
223.4	-19.88
223.635	-19.88
223.869	-17.88
224.104	-9.88
224.338	-15.88
224.573	-12.88
224.808	-13.88
225.042	-11.88
225.277	0.12
225.511	-6.88
225.746	-2.88
225.98	12.12
226.215	4.12
226.449	14.12
226.683	20.12
226.918	31.12
227.152	30.12
227.387	46.12
227.621	38.12
227.856	51.12
228.09	53.12
228.324	48.12
228.559	68.12
228.793	66.12
229.027	66.12
229.262	75.12
229.496	63.12
229.73	66.12
229.964	72.12
230.199	75.12
230.433	60.12
230.667	79.12
230.901	73.12
231.136	73.12
231.37	69.12
231.604	79.12
231.838	96.12
232.072	81.12
232.306	75.12
232.541	85.12
232.775	78.12
233.009	87.12
233.243	86.12
233.477	77.12
233.711	81.12
233.945	75.12
234.179	81.12
234.413	75.12
234.647	85.12
234.881	83.12
235.115	79.12
235.349	84.12
235.583	76.12
235.817	85.12
236.051	60.12
236.285	75.12
236.519	80.12
236.753	65.12
236.987	88.12
237.221	84.12
237.455	77.12
237.689	83.12
237.922	76.12
238.156	69.12
238.39	82.12
238.624	62.12
238.858	72.12
239.091	72.12
239.325	78.12
239.559	66.12
239.793	86.12
240.027	85.12
240.26	70.12
240.494	79.12
240.728	74.12
240.961	62.12
241.195	73.12
241.429	86.12
241.662	88.12
241.896	67.12
242.13	63.12
242.363	69.12
242.597	84.12
242.83	76.12
243.064	78.12
243.298	81.12
243.531	75.12
243.765	79.12
243.998	84.12
244.232	91.12
244.465	73.12
244.699	74.12
244.932	73.12
245.166	74.12
245.399	75.12
245.633	85.12
245.866	85.12
246.099	72.12
246.333	89.12
246.566	73.12
246.8	67.12
247.033	74.12
247.266	82.12
247.5	82.12
247.733	76.12
247.966	80.12
248.2	94.12
248.433	68.12
248.666	69.12
248.899	81.12
249.133	72.12
249.366	91.12
249.599	86.12
249.832	75.12
250.066	69.12
250.299	81.12
250.532	79.12
250.765	76.12
250.998	83.12
251.231	71.12
251.465	90.12
251.698	73.12
251.931	84.12
252.164	77.12
252.397	78.12
252.63	81.12
252.863	76.12
253.096	79.12
253.329	75.12
253.562	69.12
253.795	71.12
254.028	77.12
254.261	81.12
254.494	90.12
254.727	79.12
254.96	86.12
255.193	71.12
255.426	82.12
255.659	85.12
255.892	87.12
256.124	89.12
256.357	82.12
256.59	89.12
256.823	83.12
257.056	85.12
257.289	89.12
257.521	89.12
257.754	92.12
257.987	83.12
258.22	89.12
258.452	77.12
258.685	71.12
258.918	86.12
259.151	89.12
259.383	87.12
259.616	82.12
259.849	72.12
260.081	75.12
260.314	70.12
260.547	84.12
260.779	72.12
261.012	59.12
261.244	82.12
261.477	79.12
261.71	71.12
261.942	81.12
262.175	78.12
262.407	82.12
262.64	87.12
262.872	90.12
263.105	69.12
263.337	85.12
263.57	88.12
263.802	97.12
264.035	69.12
264.267	84.12
264.499	86.12
264.732	85.12
264.964	81.12
265.197	80.12
265.429	80.12
265.661	81.12
265.894	87.12
266.126	73.12
266.358	71.12
266.591	88.12
266.823	88.12
267.055	88.12
267.287	91.12
267.52	69.12
267.752	77.12
267.984	84.12
268.216	89.12
268.448	74.12
268.681	71.12
268.913	80.12
269.145	81.12
269.377	97.12
269.609	79.12
269.841	83.12
270.073	87.12
270.306	86.12
270.538	79.12
270.77	74.12
271.002	88.12
271.234	85.12
271.466	102.12
271.698	84.12
271.93	73.12
272.162	71.12
272.394	85.12
272.626	71.12
272.858	78.12
273.09	81.12
273.322	90.12
273.553	66.12
273.785	88.12
274.017	81.12
274.249	91.12
274.481	73.12
274.713	80.12
274.945	93.12
275.176	94.12
275.408	85.12
275.64	78.12
275.872	76.12
276.104	84.12
276.335	86.12
276.567	75.12
276.799	71.12
277.031	91.12
277.262	82.12
277.494	75.12
277.726	76.12
277.957	77.12
278.189	87.12
278.421	82.12
278.652	86.12
278.884	100.12
279.115	89.12
279.347	80.12
279.579	90.12
279.81	86.12
280.042	66.12
280.273	88.12
280.505	80.12
280.736	90.12
280.968	88.12
281.199	94.12
281.431	73.12
281.662	76.12
281.894	84.12
282.125	82.12
282.356	79.12
282.588	80.12
282.819	82.12
283.051	89.12
283.282	84.12
283.513	82.12
283.745	77.12
283.976	95.12
284.207	72.12
284.439	92.12
284.67	92.12
284.901	82.12
285.132	85.12
285.364	86.12
285.595	88.12
285.826	77.12
286.057	84.12
286.288	86.12
286.52	73.12
286.751	86.12
286.982	78.12
287.213	80.12
287.444	71.12
287.675	86.12
287.906	83.12
288.138	77.12
288.369	72.12
288.6	86.12
288.831	73.12
289.062	68.12
289.293	82.12
289.524	76.12
289.755	71.12
289.986	87.12
290.217	90.12
290.448	88.12
290.679	84.12
290.91	90.12
291.141	71.12
291.371	75.12
291.602	87.12
291.833	74.12
292.064	98.12
292.295	90.12
292.526	74.12
292.757	84.12
292.987	72.12
293.218	78.12
293.449	85.12
293.68	85.12
293.91	79.12
294.141	89.12
294.372	78.12
294.603	90.12
294.833	73.12
295.064	71.12
295.295	67.12
295.525	76.12
295.756	94.12
295.987	93.12
296.217	76.12
296.448	82.12
296.679	81.12
296.909	83.12
297.14	88.12
297.37	97.12
297.601	86.12
297.831	82.12
298.062	86.12
298.292	84.12
298.523	77.12
298.753	72.12
298.984	87.12
299.214	77.12
299.445	88.12
299.675	90.12
299.905	93.12
300.136	86.12
300.366	82.12
300.597	87.12
300.827	75.12
301.057	94.12
301.288	88.12
301.518	81.12
301.748	79.12
301.979	94.12
302.209	89.12
302.439	84.12
302.669	73.12
302.9	86.12
303.13	90.12
303.36	95.12
303.59	69.12
303.82	91.12
304.051	88.12
304.281	90.12
304.511	75.12
304.741	77.12
304.971	86.12
305.201	91.12
305.431	81.12
305.661	97.12
305.891	81.12
306.121	84.12
306.352	71.12
306.582	74.12
306.812	91.12
307.042	77.12
307.272	95.12
307.502	89.12
307.731	94.12
307.961	100.12
308.191	88.12
308.421	88.12
308.651	88.12
308.881	77.12
309.111	97.12
309.341	72.12
309.571	76.12
309.8	87.12
310.03	71.12
310.26	69.12
310.49	90.12
310.72	83.12
310.949	82.12
311.179	88.12
311.409	66.12
311.639	88.12
311.868	85.12
312.098	90.12
312.328	89.12
312.557	83.12
312.787	76.12
313.017	90.12
313.246	93.12
313.476	94.12
313.706	89.12
313.935	80.12
314.165	85.12
314.394	72.12
314.624	84.12
314.853	74.12
315.083	86.12
315.312	89.12
315.542	83.12
315.771	80.12
316.001	85.12
316.23	84.12
316.46	94.12
316.689	85.12
316.919	76.12
317.148	68.12
317.377	95.12
317.607	86.12
317.836	73.12
318.065	86.12
318.295	92.12
318.524	84.12
318.753	68.12
318.983	88.12
319.212	92.12
319.441	76.12
319.67	76.12
319.9	82.12
320.129	100.12
320.358	88.12
320.587	88.12
320.816	76.12
321.046	81.12
321.275	77.12
321.504	98.12
321.733	81.12
321.962	76.12
322.191	74.12
322.42	76.12
322.649	97.12
322.878	79.12
323.108	98.12
323.337	81.12
323.566	73.12
323.795	82.12
324.024	83.12
324.253	83.12
324.482	96.12
324.71	90.12
324.939	86.12
325.168	87.12
325.397	81.12
325.626	90.12
325.855	83.12
326.084	78.12
326.313	86.12
326.542	84.12
326.77	83.12
326.999	83.12
327.228	95.12
327.457	78.12
327.686	98.12
327.914	78.12
328.143	82.12
328.372	84.12
328.6	86.12
328.829	81.12
329.058	77.12
329.287	86.12
329.515	98.12
329.744	85.12
329.972	86.12
330.201	82.12
330.43	75.12
330.658	84.12
330.887	87.12
331.115	93.12
331.344	90.12
331.572	82.12
331.801	90.12
332.03	85.12
332.258	85.12
332.486	74.12
332.715	100.12
332.943	86.12
333.172	75.12
333.4	89.12
333.629	80.12
333.857	74.12
334.085	90.12
334.314	80.12
334.542	90.12
334.771	73.12
334.999	87.12
335.227	82.12
335.455	85.12
335.684	94.12
335.912	91.12
336.14	84.12
336.369	81.12
336.597	83.12
336.825	78.12
337.053	76.12
337.281	69.12
337.51	96.12
337.738	80.12
337.966	93.12
338.194	82.12
338.422	84.12
338.65	95.12
338.878	77.12
339.106	82.12
339.334	90.12
339.562	76.12
339.79	82.12
340.018	86.12
340.246	86.12
340.474	95.12
340.702	88.12
340.93	76.12
341.158	73.12
341.386	76.12
341.614	96.12
341.842	95.12
342.07	94.12
342.298	79.12
342.526	80.12
342.754	80.12
342.981	88.12
343.209	81.12
343.437	88.12
343.665	80.12
343.893	67.12
344.12	87.12
344.348	84.12
344.576	91.12
344.804	97.12
345.031	77.12
345.259	67.12
345.487	76.12
345.714	90.12
345.942	74.12
346.17	90.12
346.397	95.12
346.625	92.12
346.853	89.12
347.08	82.12
347.308	92.12
347.535	80.12
347.763	86.12
347.99	98.12
348.218	86.12
348.445	76.12
348.673	81.12
348.9	83.12
349.128	85.12
349.355	73.12
349.583	78.12
349.81	88.12
350.037	93.12
350.265	94.12
350.492	95.12
350.72	77.12
350.947	82.12
351.174	82.12
351.402	78.12
351.629	84.12
351.856	68.12
352.083	85.12
352.311	86.12
352.538	93.12
352.765	82.12
352.992	80.12
353.22	76.12
353.447	73.12
353.674	80.12
353.901	90.12
354.128	83.12
354.355	80.12
354.583	77.12
354.81	76.12
355.037	95.12
355.264	97.12
355.491	88.12
355.718	85.12
355.945	95.12
356.172	71.12
356.399	80.12
356.626	80.12
356.853	85.12
357.08	97.12
357.307	77.12
357.534	83.12
357.761	84.12
357.988	90.12
358.215	89.12
358.441	81.12
358.668	89.12
358.895	82.12
359.122	72.12
359.349	80.12
359.576	84.12
359.802	71.12
360.029	72.12
360.256	77.12
360.483	72.12
360.709	82.12
360.936	85.12
361.163	85.12
361.39	90.12
361.616	84.12
361.843	97.12
362.07	87.12
362.296	80.12
362.523	85.12
362.749	76.12
362.976	86.12
363.203	86.12
363.429	87.12
363.656	87.12
363.882	79.12
364.109	77.12
364.335	90.12
364.562	82.12
364.788	92.12
365.015	88.12
365.241	88.12
365.468	82.12
365.694	90.12
365.92	92.12
366.147	82.12
366.373	73.12
366.599	97.12
366.826	74.12
367.052	78.12
367.278	96.12
367.505	72.12
367.731	90.12
367.957	90.12
368.184	88.12
368.41	89.12
368.636	72.12
368.862	94.12
369.089	90.12
369.315	68.12
369.541	84.12
369.767	81.12
369.993	86.12
370.219	73.12
370.445	86.12
370.672	86.12
370.898	72.12
371.124	86.12
371.35	84.12
371.576	89.12
371.802	94.12
372.028	86.12
372.254	87.12
372.48	95.12
372.706	87.12
372.932	90.12
373.158	90.12
373.384	101.12
373.61	97.12
373.835	80.12
374.061	86.12
374.287	90.12
374.513	86.12
374.739	85.12
374.965	77.12
375.191	86.12
375.416	83.12
375.642	71.12
375.868	82.12
376.094	89.12
376.319	72.12
376.545	91.12
376.771	80.12
376.997	80.12
377.222	82.12
377.448	81.12
377.674	85.12
377.899	80.12
378.125	82.12
378.35	84.12
378.576	80.12
378.802	66.12
379.027	90.12
379.253	83.12
379.478	83.12
379.704	89.12
379.929	81.12
380.155	89.12
380.38	89.12
380.606	85.12
380.831	99.12
381.057	91.12
381.282	101.12
381.507	82.12
381.733	83.12
381.958	79.12
382.184	79.12
382.409	102.12
382.634	82.12
382.86	79.12
383.085	97.12
383.31	102.12
383.535	87.12
383.761	103.12
383.986	94.12
384.211	81.12
384.436	88.12
384.662	83.12
384.887	81.12
385.112	92.12
385.337	77.12
385.562	89.12
385.787	73.12
386.013	89.12
386.238	86.12
386.463	88.12
386.688	91.12
386.913	84.12
387.138	90.12
387.363	87.12
387.588	96.12
387.813	81.12
388.038	96.12
388.263	96.12
388.488	81.12
388.713	76.12
388.938	88.12
389.163	81.12
389.387	85.12
389.612	74.12
389.837	66.12
390.062	74.12
390.287	75.12
390.512	75.12
390.736	72.12
390.961	76.12
391.186	80.12
391.411	69.12
391.636	88.12
391.86	82.12
392.085	72.12
392.31	86.12
392.534	94.12
392.759	93.12
392.984	107.12
393.208	148.12
393.433	161.12
393.658	137.12
393.882	88.12
394.107	86.12
394.331	94.12
394.556	81.12
394.78	72.12
395.005	87.12
395.229	86.12
395.454	99.12
395.678	84.12
395.903	98.12
396.127	91.12
396.352	85.12
396.576	114.12
396.801	136.12
397.025	128.12
397.249	89.12
397.474	86.12
397.698	77.12
397.922	82.12
398.147	72.12
398.371	77.12
398.595	78.12
398.82	88.12
399.044	85.12
399.268	87.12
399.492	92.12
399.717	84.12
399.941	69.12
400.165	78.12
400.389	73.12
400.613	80.12
400.837	89.12
401.062	82.12
401.286	82.12
401.51	86.12
401.734	93.12
401.958	70.12
402.182	71.12
402.406	99.12
402.63	74.12
402.854	82.12
403.078	92.12
403.302	94.12
403.526	80.12
403.75	92.12
403.974	69.12
404.198	90.12
404.422	81.12
404.645	78.12
404.869	100.12
405.093	85.12
405.317	86.12
405.541	77.12
405.765	82.12
405.988	92.12
406.212	76.12
406.436	77.12
406.66	92.12
406.883	84.12
407.107	86.12
407.331	90.12
407.555	77.12
407.778	84.12
408.002	88.12
408.226	71.12
408.449	88.12
408.673	79.12
408.896	70.12
409.12	98.12
409.344	87.12
409.567	72.12
409.791	83.12
410.014	84.12
410.238	95.12
410.461	72.12
410.685	81.12
410.908	87.12
411.132	83.12
411.355	91.12
411.578	80.12
411.802	84.12
412.025	82.12
412.249	87.12
412.472	75.12
412.695	76.12
412.919	80.12
413.142	82.12
413.365	89.12
413.589	87.12
413.812	81.12
414.035	88.12
414.258	73.12
414.482	73.12
414.705	72.12
414.928	86.12
415.151	84.12
415.374	82.12
415.597	86.12
415.821	93.12
416.044	90.12
416.267	68.12
416.49	82.12
416.713	72.12
416.936	86.12
417.159	76.12
417.382	80.12
417.605	95.12
417.828	73.12
418.051	82.12
418.274	85.12
418.497	82.12
418.72	87.12
418.943	78.12
419.166	93.12
419.389	80.12
419.611	78.12
419.834	88.12
420.057	78.12
420.28	80.12
420.503	80.12
420.726	97.12
420.948	88.12
421.171	76.12
421.394	95.12
421.617	84.12
421.839	91.12
422.062	100.12
422.285	88.12
422.507	96.12
422.73	112.12
422.953	117.12
423.175	96.12
423.398	87.12
423.621	87.12
423.843	84.12
424.066	79.12
424.288	72.12
424.511	80.12
424.733	91.12
424.956	92.12
425.178	85.12
425.401	90.12
425.623	91.12
425.846	80.12
426.068	82.12
426.291	82.12
426.513	84.12
426.735	83.12
426.958	74.12
427.18	78.12
427.402	84.12
427.625	86.12
427.847	77.12
428.069	89.12
428.292	93.12
428.514	82.12
428.736	81.12
428.958	82.12
429.181	86.12
429.403	79.12
429.625	85.12
429.847	93.12
430.069	96.12
430.292	90.12
430.514	91.12
430.736	80.12
430.958	76.12
431.18	90.12
431.402	79.12
431.624	90.12
431.846	85.12
432.068	76.12
432.29	82.12
432.512	83.12
432.734	70.12
432.956	82.12
433.178	86.12
433.4	66.12
433.622	85.12
433.844	78.12
434.066	86.12
434.287	93.12
434.509	90.12
434.731	75.12
434.953	87.12
435.175	89.12
435.397	93.12
435.618	77.12
435.84	88.12
436.062	83.12
436.284	79.12
436.505	72.12
436.727	77.12
436.949	88.12
437.17	79.12
437.392	79.12
437.614	96.12
437.835	74.12
438.057	88.12
438.278	72.12
438.5	88.12
438.721	83.12
438.943	69.12
439.165	86.12
439.386	84.12
439.608	97.12
439.829	88.12
440.05	81.12
440.272	83.12
440.493	81.12
440.715	86.12
440.936	78.12
441.158	72.12
441.379	79.12
441.6	74.12
441.822	86.12
442.043	74.12
442.264	66.12
442.486	96.12
442.707	84.12
442.928	83.12
443.149	88.12
443.371	85.12
443.592	91.12
443.813	99.12
444.034	82.12
444.255	84.12
444.476	77.12
444.698	93.12
444.919	78.12
445.14	147.12
445.361	124.12
445.582	109.12
445.803	98.12
446.024	88.12
446.245	82.12
446.466	92.12
446.687	80.12
446.908	76.12
447.129	81.12
447.35	79.12
447.571	80.12
447.792	80.12
448.013	76.12
448.234	88.12
448.455	84.12
448.675	82.12
448.896	80.12
449.117	80.12
449.338	82.12
449.559	90.12
449.779	89.12
450	73.12
450.221	72.12
450.442	70.12
450.662	86.12
450.883	83.12
451.104	73.12
451.324	102.12
451.545	97.12
451.766	76.12
451.986	84.12
452.207	99.12
452.428	87.12
452.648	73.12
452.869	91.12
453.089	85.12
453.31	80.12
453.53	80.12
453.751	78.12
453.971	79.12
454.192	70.12
454.412	82.12
454.633	94.12
454.853	91.12
455.073	91.12
455.294	86.12
455.514	82.12
455.734	83.12
455.955	75.12
456.175	81.12
456.395	85.12
456.616	74.12
456.836	97.12
457.056	84.12
457.276	75.12
457.497	85.12
457.717	72.12
457.937	85.12
458.157	84.12
458.377	84.12
458.598	68.12
458.818	71.12
459.038	89.12
459.258	90.12
459.478	79.12
459.698	95.12
459.918	82.12
460.138	86.12
460.358	87.12
460.578	91.12
460.798	91.12
461.018	92.12
461.238	86.12
461.458	77.12
461.678	80.12
461.898	77.12
462.118	80.12
462.338	78.12
462.558	83.12
462.777	91.12
462.997	68.12
463.217	74.12
463.437	74.12
463.657	73.12
463.876	69.12
464.096	86.12
464.316	79.12
464.536	78.12
464.755	76.12
464.975	86.12
465.195	87.12
465.414	76.12
465.634	74.12
465.854	86.12
466.073	83.12
466.293	82.12
466.512	85.12
466.732	85.12
466.951	78.12
467.171	84.12
467.391	71.12
467.61	82.12
467.829	65.12
468.049	87.12
468.268	82.12
468.488	67.12
468.707	75.12
468.927	87.12
469.146	80.12
469.365	90.12
469.585	76.12
469.804	93.12
470.023	80.12
470.243	87.12
470.462	87.12
470.681	85.12
470.901	68.12
471.12	72.12
471.339	79.12
471.558	70.12
471.777	81.12
471.997	86.12
472.216	89.12
472.435	86.12
472.654	94.12
472.873	87.12
473.092	77.12
473.311	68.12
473.53	84.12
473.749	88.12
473.968	77.12
474.187	88.12
474.406	90.12
474.625	88.12
474.844	100.12
475.063	66.12
475.282	67.12
475.501	90.12
475.72	78.12
475.939	72.12
476.158	85.12
476.377	90.12
476.596	90.12
476.814	67.12
477.033	84.12
477.252	82.12
477.471	78.12
477.69	72.12
477.908	91.12
478.127	89.12
478.346	96.12
478.564	86.12
478.783	80.12
479.002	76.12
479.22	87.12
479.439	83.12
479.658	81.12
479.876	73.12
480.095	77.12
480.313	85.12
480.532	82.12
480.751	79.12
480.969	84.12
481.188	92.12
481.406	71.12
481.624	77.12
481.843	83.12
482.061	87.12
482.28	83.12
482.498	83.12
482.717	97.12
482.935	86.12
483.153	76.12
483.372	86.12
483.59	80.12
483.808	76.12
484.027	90.12
484.245	94.12
484.463	90.12
484.681	96.12
484.9	89.12
485.118	81.12
485.336	86.12
485.554	86.12
485.772	90.12
485.99	93.12
486.209	76.12
486.427	85.12
486.645	71.12
486.863	83.12
487.081	72.12
487.299	90.12
487.517	79.12
487.735	68.12
487.953	82.12
488.171	80.12
488.389	76.12
488.607	89.12
488.825	100.12
489.043	82.12
489.261	88.12
489.479	84.12
489.696	85.12
489.914	78.12
490.132	73.12
490.35	82.12
490.568	76.12
490.786	81.12
491.003	84.12
491.221	92.12
491.439	96.12
491.657	67.12
491.874	84.12
492.092	66.12
492.31	90.12
492.527	87.12
492.745	73.12
492.963	84.12
493.18	86.12
493.398	85.12
493.615	90.12
493.833	84.12
494.05	76.12
494.268	84.12
494.485	82.12
494.703	86.12
494.92	88.12
495.138	72.12
495.355	83.12
495.573	97.12
495.79	78.12
496.008	78.12
496.225	83.12
496.442	94.12
496.66	92.12
496.877	100.12
497.094	75.12
497.312	82.12
497.529	91.12
497.746	78.12
497.963	71.12
498.181	86.12
498.398	91.12
498.615	82.12
498.832	84.12
499.049	82.12
499.267	89.12
499.484	80.12
499.701	87.12
499.918	80.12
500.135	83.12
500.352	84.12
500.569	85.12
500.786	96.12
501.003	79.12
501.22	84.12
501.437	82.12
501.654	87.12
501.871	86.12
502.088	77.12
502.305	86.12
502.522	73.12
502.739	80.12
502.956	82.12
503.172	81.12
503.389	80.12
503.606	66.12
503.823	80.12
504.04	78.12
504.256	72.12
504.473	77.12
504.69	96.12
504.907	93.12
505.123	78.12
505.34	81.12
505.557	89.12
505.773	83.12
505.99	76.12
506.207	90.12
506.423	82.12
506.64	90.12
506.856	82.12
507.073	81.12
507.289	75.12
507.506	95.12
507.722	82.12
507.939	100.12
508.155	86.12
508.372	71.12
508.588	96.12
508.805	80.12
509.021	90.12
509.238	74.12
509.454	84.12
509.67	75.12
509.887	79.12
510.103	85.12
510.319	105.12
510.536	104.12
510.752	78.12
510.968	84.12
511.184	88.12
511.401	74.12
511.617	87.12
511.833	76.12
512.049	72.12
512.265	92.12
512.481	76.12
512.698	94.12
512.914	88.12
513.13	76.12
513.346	72.12
513.562	95.12
513.778	85.12
513.994	86.12
514.21	91.12
514.426	82.12
514.642	90.12
514.858	80.12
515.074	88.12
515.29	89.12
515.506	70.12
515.721	88.12
515.937	85.12
516.153	78.12
516.369	76.12
516.585	86.12
516.801	93.12
517.016	82.12
517.232	87.12
517.448	97.12
517.664	83.12
517.879	85.12
518.095	77.12
518.311	73.12
518.527	100.12
518.742	104.12
518.958	81.12
519.173	87.12
519.389	84.12
519.605	53.12
519.82	91.12
520.036	80.12
520.251	75.12
520.467	86.12
520.682	74.12
520.898	76.12
521.113	81.12
521.329	78.12
521.544	90.12
521.76	80.12
521.975	95.12
522.19	92.12
522.406	81.12
522.621	85.12
522.836	91.12
523.052	81.12
523.267	84.12
523.482	80.12
523.698	71.12
523.913	102.12
524.128	90.12
524.343	84.12
524.559	100.12
524.774	79.12
524.989	83.12
525.204	93.12
525.419	93.12
525.634	83.12
525.849	87.12
526.064	86.12
526.28	80.12
526.495	97.12
526.71	117.12
526.925	98.12
527.14	94.12
527.355	84.12
527.57	92.12
527.785	87.12
527.999	82.12
528.214	79.12
528.429	73.12
528.644	78.12
528.859	85.12
529.074	90.12
529.289	93.12
529.503	101.12
529.718	88.12
529.933	70.12
530.148	79.12
530.363	90.12
530.577	84.12
530.792	95.12
531.007	86.12
531.221	84.12
531.436	96.12
531.651	89.12
531.865	92.12
532.08	92.12
532.295	81.12
532.509	81.12
532.724	77.12
532.938	84.12
533.153	87.12
533.367	76.12
533.582	95.12
533.796	76.12
534.011	85.12
534.225	72.12
534.44	80.12
534.654	90.12
534.868	78.12
535.083	84.12
535.297	86.12
535.511	89.12
535.726	84.12
535.94	87.12
536.154	80.12
536.369	76.12
536.583	88.12
536.797	113.12
537.011	102.12
537.225	86.12
537.44	73.12
537.654	84.12
537.868	82.12
538.082	86.12
538.296	73.12
538.51	84.12
538.724	89.12
538.938	80.12
539.153	88.12
539.367	86.12
539.581	85.12
539.795	81.12
540.009	81.12
540.222	88.12
540.436	84.12
540.65	87.12
540.864	78.12
541.078	84.12
541.292	87.12
541.506	84.12
541.72	96.12
541.934	86.12
542.147	73.12
542.361	82.12
542.575	91.12
542.789	99.12
543.002	79.12
543.216	90.12
543.43	92.12
543.644	89.12
543.857	73.12
544.071	95.12
544.285	98.12
544.498	92.12
544.712	89.12
544.925	80.12
545.139	80.12
545.352	97.12
545.566	74.12
545.779	98.12
545.993	89.12
546.206	80.12
546.42	87.12
546.633	79.12
546.847	97.12
547.06	74.12
547.274	96.12
547.487	80.12
547.7	81.12
547.914	84.12
548.127	79.12
548.34	82.12
548.554	94.12
548.767	87.12
548.98	88.12
549.193	96.12
549.407	89.12
549.62	87.12
549.833	85.12
550.046	69.12
550.259	84.12
550.473	88.12
550.686	84.12
550.899	96.12
551.112	104.12
551.325	97.12
551.538	84.12
551.751	94.12
551.964	77.12
552.177	85.12
552.39	89.12
552.603	101.12
552.816	99.12
553.029	109.12
553.242	98.12
553.455	94.12
553.667	92.12
553.88	93.12
554.093	94.12
554.306	105.12
554.519	100.12
554.732	86.12
554.944	92.12
555.157	91.12
555.37	99.12
555.583	99.12
555.795	94.12
556.008	93.12
556.221	102.12
556.433	81.12
556.646	86.12
556.859	94.12
557.071	98.12
557.284	99.12
557.496	93.12
557.709	93.12
557.921	89.12
558.134	81.12
558.346	86.12
558.559	86.12
558.771	90.12
558.984	102.12
559.196	112.12
559.409	95.12
559.621	109.12
559.833	93.12
560.046	90.12
560.258	82.12
560.47	80.12
560.683	85.12
560.895	85.12
561.107	81.12
561.32	74.12
561.532	88.12
561.744	98.12
561.956	85.12
562.168	100.12
562.381	92.12
562.593	72.12
562.805	86.12
563.017	84.12
563.229	88.12
563.441	80.12
563.653	79.12
563.865	53.12
564.077	78.12
564.289	89.12
564.501	97.12
564.713	98.12
564.925	86.12
565.137	96.12
565.349	86.12
565.561	84.12
565.773	80.12
565.985	81.12
566.197	81.12
566.408	78.12
566.62	91.12
566.832	79.12
567.044	70.12
567.255	78.12
567.467	82.12
567.679	98.12
567.891	74.12
568.102	78.12
568.314	93.12
568.526	89.12
568.737	94.12
568.949	72.12
569.161	97.12
569.372	92.12
569.584	95.12
569.795	79.12
570.007	74.12
570.218	74.12
570.43	78.12
570.641	84.12
570.853	91.12
571.064	101.12
571.276	88.12
571.487	84.12
571.698	91.12
571.91	89.12
572.121	84.12
572.333	84.12
572.544	81.12
572.755	84.12
572.966	83.12
573.178	78.12
573.389	86.12
573.6	73.12
573.811	80.12
574.023	84.12
574.234	86.12
574.445	82.12
574.656	88.12
574.867	91.12
575.078	79.12
575.289	77.12
575.501	91.12
575.712	79.12
575.923	79.12
576.134	88.12
576.345	96.12
576.556	85.12
576.767	88.12
576.978	80.12
577.188	81.12
577.399	98.12
577.61	71.12
577.821	83.12
578.032	90.12
578.243	86.12
578.454	89.12
578.665	95.12
578.875	80.12
579.086	85.12
579.297	76.12
579.508	78.12
579.718	85.12
579.929	88.12
580.14	92.12
580.35	89.12
580.561	78.12
580.772	96.12
580.982	81.12
581.193	92.12
581.403	81.12
581.614	88.12
581.825	67.12
582.035	93.12
582.246	101.12
582.456	87.12
582.667	87.12
582.877	89.12
583.087	60.12
583.298	84.12
583.508	86.12
583.719	91.12
583.929	84.12
584.139	91.12
584.35	100.12
584.56	81.12
584.77	84.12
584.981	79.12
585.191	83.12
585.401	99.12
585.611	86.12
585.821	82.12
586.032	86.12
586.242	84.12
586.452	87.12
586.662	98.12
586.872	80.12
587.082	90.12
587.292	89.12
587.502	94.12
587.713	101.12
587.923	97.12
588.133	96.12
588.343	84.12
588.553	106.12
588.762	107.12
588.972	152.12
589.182	242.12
589.392	189.12
589.602	158.12
589.812	213.12
590.022	134.12
590.232	96.12
590.441	98.12
590.651	75.12
590.861	96.12
591.071	80.12
591.281	75.12
591.49	95.12
591.7	85.12
591.91	82.12
592.119	85.12
592.329	94.12
592.539	83.12
592.748	90.12
592.958	94.12
593.167	89.12
593.377	82.12
593.587	113.12
593.796	80.12
594.006	79.12
594.215	101.12
594.424	100.12
594.634	84.12
594.843	77.12
595.053	91.12
595.262	82.12
595.472	90.12
595.681	93.12
595.89	81.12
596.1	84.12
596.309	91.12
596.518	99.12
596.727	98.12
596.937	88.12
597.146	86.12
597.355	103.12
597.564	96.12
597.774	93.12
597.983	93.12
598.192	107.12
598.401	104.12
598.61	81.12
598.819	88.12
599.028	89.12
599.237	103.12
599.446	102.12
599.655	87.12
599.864	111.12
600.073	88.12
600.282	94.12
600.491	76.12
600.7	78.12
600.909	84.12
601.118	88.12
601.327	85.12
601.536	90.12
601.745	86.12
601.953	85.12
602.162	100.12
602.371	81.12
602.58	82.12
602.789	98.12
602.997	84.12
603.206	96.12
603.415	82.12
603.623	97.12
603.832	89.12
604.041	88.12
604.249	91.12
604.458	88.12
604.666	92.12
604.875	94.12
605.084	89.12
605.292	103.12
605.501	94.12
605.709	97.12
605.918	103.12
606.126	96.12
606.334	101.12
606.543	93.12
606.751	90.12
606.96	88.12
607.168	104.12
607.376	87.12
607.585	87.12
607.793	102.12
608.001	95.12
608.21	92.12
608.418	88.12
608.626	88.12
608.834	87.12
609.043	69.12
609.251	89.12
609.459	78.12
609.667	82.12
609.875	83.12
610.083	89.12
610.291	83.12
610.499	90.12
610.707	74.12
610.916	93.12
611.124	87.12
611.332	104.12
611.54	82.12
611.748	102.12
611.955	84.12
612.163	84.12
612.371	115.12
612.579	108.12
612.787	97.12
612.995	97.12
613.203	98.12
613.411	96.12
613.618	88.12
613.826	95.12
614.034	89.12
614.242	101.12
614.449	100.12
614.657	98.12
614.865	98.12
615.072	87.12
615.28	88.12
615.488	78.12
615.695	96.12
615.903	83.12
616.111	96.12
616.318	99.12
616.526	124.12
616.733	99.12
616.941	86.12
617.148	114.12
617.356	83.12
617.563	96.12
617.771	100.12
617.978	88.12
618.185	85.12
618.393	96.12
618.6	90.12
618.807	87.12
619.015	92.12
619.222	104.12
619.429	101.12
619.637	94.12
619.844	113.12
620.051	95.12
620.258	83.12
620.466	86.12
620.673	88.12
620.88	95.12
621.087	97.12
621.294	91.12
621.501	116.12
621.708	100.12
621.915	96.12
622.122	75.12
622.329	89.12
622.536	93.12
622.743	93.12
622.95	91.12
623.157	98.12
623.364	88.12
623.571	89.12
623.778	85.12
623.985	101.12
624.192	97.12
624.399	84.12
624.606	76.12
624.812	109.12
625.019	82.12
625.226	96.12
625.433	99.12
625.639	96.12
625.846	78.12
626.053	90.12
626.259	79.12
626.466	87.12
626.673	88.12
626.879	97.12
627.086	89.12
627.293	91.12
627.499	84.12
627.706	84.12
627.912	92.12
628.119	87.12
628.325	81.12
628.532	83.12
628.738	78.12
628.945	83.12
629.151	92.12
629.357	85.12
629.564	81.12
629.77	71.12
629.976	74.12
630.183	70.12
630.389	97.12
630.595	85.12
630.802	86.12
631.008	91.12
631.214	90.12
631.42	96.12
631.627	93.12
631.833	81.12
632.039	76.12
632.245	88.12
632.451	82.12
632.657	75.12
632.863	78.12
633.069	87.12
633.275	87.12
633.481	83.12
633.688	81.12
633.893	88.12
634.099	98.12
634.305	73.12
634.511	76.12
634.717	91.12
634.923	83.12
635.129	78.12
635.335	71.12
635.541	76.12
635.747	87.12
635.952	80.12
636.158	81.12
636.364	76.12
636.57	92.12
636.775	95.12
636.981	84.12
637.187	90.12
637.392	94.12
637.598	78.12
637.804	84.12
638.009	78.12
638.215	85.12
638.421	100.12
638.626	89.12
638.832	87.12
639.037	80.12
639.243	96.12
639.448	87.12
639.654	98.12
639.859	78.12
640.065	82.12
640.27	76.12
640.475	81.12
640.681	81.12
640.886	78.12
641.091	78.12
641.297	88.12
641.502	82.12
641.707	100.12
641.913	89.12
642.118	90.12
642.323	79.12
642.528	75.12
642.733	73.12
642.939	99.12
643.144	85.12
643.349	80.12
643.554	95.12
643.759	81.12
643.964	95.12
644.169	78.12
644.374	77.12
644.579	93.12
644.784	81.12
644.989	94.12
645.194	71.12
645.399	84.12
645.604	88.12
645.809	73.12
646.014	101.12
646.219	94.12
646.423	87.12
646.628	84.12
646.833	90.12
647.038	96.12
647.243	73.12
647.447	79.12
647.652	83.12
647.857	89.12
648.062	80.12
648.266	82.12
648.471	92.12
648.676	104.12
648.88	74.12
649.085	74.12
649.289	83.12
649.494	86.12
649.698	86.12
649.903	81.12
650.107	87.12
650.312	80.12
650.516	87.12
650.721	72.12
650.925	78.12
651.13	87.12
651.334	83.12
651.539	90.12
651.743	88.12
651.947	93.12
652.152	84.12
652.356	71.12
652.56	81.12
652.764	84.12
652.969	77.12
653.173	73.12
653.377	80.12
653.581	82.12
653.785	73.12
653.99	80.12
654.194	80.12
654.398	90.12
654.602	89.12
654.806	88.12
655.01	80.12
655.214	86.12
655.418	90.12
655.622	72.12
655.826	81.12
656.03	103.12
656.234	88.12
656.438	75.12
656.642	91.12
656.846	89.12
657.049	78.12
657.253	82.12
657.457	74.12
657.661	73.12
657.865	85.12
658.068	74.12
658.272	79.12
658.476	81.12
658.68	76.12
658.883	72.12
659.087	64.12
659.291	77.12
659.494	86.12
659.698	81.12
659.901	84.12
660.105	76.12
660.309	96.12
660.512	82.12
660.716	90.12
660.919	83.12
661.123	93.12
661.326	78.12
661.53	80.12
661.733	83.12
661.936	82.12
662.14	74.12
662.343	76.12
662.546	83.12
662.75	74.12
662.953	69.12
663.156	100.12
663.36	80.12
663.563	78.12
663.766	76.12
663.969	89.12
664.173	72.12
664.376	81.12
664.579	71.12
664.782	83.12
664.985	86.12
665.188	71.12
665.391	81.12
665.594	90.12
665.797	78.12
666	85.12
666.203	88.12
666.406	80.12
666.609	75.12
666.812	70.12
667.015	75.12
667.218	81.12
667.421	84.12
667.624	76.12
667.827	88.12
668.03	69.12
668.232	82.12
668.435	80.12
668.638	82.12
668.841	71.12
669.043	85.12
669.246	80.12
669.449	81.12
669.651	93.12
669.854	80.12
670.057	72.12
670.259	72.12
670.462	79.12
670.665	78.12
670.867	88.12
671.07	76.12
671.272	74.12
671.475	79.12
671.677	90.12
671.88	77.12
672.082	74.12
672.284	73.12
672.487	82.12
672.689	89.12
672.892	76.12
