Data from Lead_HRD10591_00076.txt Node
Date: Tue Feb 17 14:19:37 EST 2026
User: Yrep
Spectrometer: HR+D1059
Trigger mode: 1
Integration Time (sec): 1.000000E-1
Scans to average: 1
Electric dark correction enabled: true
Nonlinearity correction enabled: false
Boxcar width: 0
XAxis mode: Wavelengths
Number of Pixels in Spectrum: 2048
>>>>>Begin Spectral Data<<<<<
223.165	-12.88
223.4	-12.88
223.635	-12.88
223.869	-24.88
224.104	-12.88
224.338	-11.88
224.573	-20.88
224.808	-4.88
225.042	-24.88
225.277	-12.88
225.511	-0.88
225.746	2.12
225.98	-2.88
226.215	26.12
226.449	15.12
226.683	29.12
226.918	31.12
227.152	26.12
227.387	39.12
227.621	37.12
227.856	40.12
228.09	52.12
228.324	47.12
228.559	63.12
228.793	63.12
229.027	70.12
229.262	60.12
229.496	69.12
229.73	71.12
229.964	77.12
230.199	85.12
230.433	75.12
230.667	79.12
230.901	76.12
231.136	87.12
231.37	67.12
231.604	78.12
231.838	77.12
232.072	96.12
232.306	63.12
232.541	87.12
232.775	90.12
233.009	79.12
233.243	93.12
233.477	93.12
233.711	88.12
233.945	84.12
234.179	77.12
234.413	83.12
234.647	82.12
234.881	87.12
235.115	78.12
235.349	79.12
235.583	80.12
235.817	81.12
236.051	85.12
236.285	74.12
236.519	76.12
236.753	79.12
236.987	73.12
237.221	77.12
237.455	71.12
237.689	89.12
237.922	66.12
238.156	82.12
238.39	67.12
238.624	75.12
238.858	70.12
239.091	78.12
239.325	77.12
239.559	79.12
239.793	78.12
240.027	85.12
240.26	80.12
240.494	87.12
240.728	71.12
240.961	62.12
241.195	76.12
241.429	71.12
241.662	80.12
241.896	77.12
242.13	81.12
242.363	73.12
242.597	73.12
242.83	69.12
243.064	77.12
243.298	72.12
243.531	77.12
243.765	73.12
243.998	76.12
244.232	78.12
244.465	63.12
244.699	72.12
244.932	90.12
245.166	92.12
245.399	86.12
245.633	77.12
245.866	71.12
246.099	87.12
246.333	76.12
246.566	77.12
246.8	93.12
247.033	83.12
247.266	75.12
247.5	78.12
247.733	80.12
247.966	83.12
248.2	85.12
248.433	65.12
248.666	81.12
248.899	85.12
249.133	72.12
249.366	77.12
249.599	79.12
249.832	69.12
250.066	80.12
250.299	93.12
250.532	87.12
250.765	81.12
250.998	78.12
251.231	84.12
251.465	87.12
251.698	68.12
251.931	88.12
252.164	89.12
252.397	80.12
252.63	83.12
252.863	85.12
253.096	71.12
253.329	75.12
253.562	85.12
253.795	80.12
254.028	96.12
254.261	72.12
254.494	89.12
254.727	81.12
254.96	90.12
255.193	83.12
255.426	79.12
255.659	77.12
255.892	73.12
256.124	81.12
256.357	95.12
256.59	95.12
256.823	74.12
257.056	84.12
257.289	97.12
257.521	84.12
257.754	93.12
257.987	95.12
258.22	90.12
258.452	71.12
258.685	81.12
258.918	81.12
259.151	87.12
259.383	81.12
259.616	85.12
259.849	94.12
260.081	82.12
260.314	84.12
260.547	86.12
260.779	93.12
261.012	94.12
261.244	77.12
261.477	96.12
261.71	90.12
261.942	86.12
262.175	79.12
262.407	88.12
262.64	85.12
262.872	73.12
263.105	72.12
263.337	98.12
263.57	77.12
263.802	93.12
264.035	79.12
264.267	79.12
264.499	77.12
264.732	87.12
264.964	95.12
265.197	92.12
265.429	92.12
265.661	79.12
265.894	81.12
266.126	96.12
266.358	92.12
266.591	93.12
266.823	101.12
267.055	97.12
267.287	81.12
267.52	82.12
267.752	78.12
267.984	85.12
268.216	83.12
268.448	91.12
268.681	94.12
268.913	99.12
269.145	77.12
269.377	85.12
269.609	79.12
269.841	83.12
270.073	91.12
270.306	90.12
270.538	84.12
270.77	85.12
271.002	77.12
271.234	75.12
271.466	88.12
271.698	79.12
271.93	85.12
272.162	93.12
272.394	80.12
272.626	87.12
272.858	94.12
273.09	75.12
273.322	85.12
273.553	75.12
273.785	83.12
274.017	87.12
274.249	93.12
274.481	86.12
274.713	86.12
274.945	79.12
275.176	89.12
275.408	77.12
275.64	99.12
275.872	83.12
276.104	78.12
276.335	91.12
276.567	90.12
276.799	90.12
277.031	82.12
277.262	93.12
277.494	80.12
277.726	86.12
277.957	80.12
278.189	88.12
278.421	89.12
278.652	86.12
278.884	85.12
279.115	82.12
279.347	87.12
279.579	85.12
279.81	100.12
280.042	103.12
280.273	107.12
280.505	93.12
280.736	101.12
280.968	96.12
281.199	92.12
281.431	84.12
281.662	86.12
281.894	87.12
282.125	103.12
282.356	94.12
282.588	96.12
282.819	82.12
283.051	93.12
283.282	104.12
283.513	102.12
283.745	67.12
283.976	85.12
284.207	81.12
284.439	76.12
284.67	83.12
284.901	79.12
285.132	92.12
285.364	92.12
285.595	87.12
285.826	91.12
286.057	76.12
286.288	86.12
286.52	97.12
286.751	84.12
286.982	80.12
287.213	95.12
287.444	95.12
287.675	99.12
287.906	89.12
288.138	92.12
288.369	86.12
288.6	88.12
288.831	92.12
289.062	86.12
289.293	96.12
289.524	100.12
289.755	95.12
289.986	87.12
290.217	87.12
290.448	84.12
290.679	92.12
290.91	95.12
291.141	88.12
291.371	99.12
291.602	88.12
291.833	102.12
292.064	94.12
292.295	98.12
292.526	84.12
292.757	83.12
292.987	93.12
293.218	91.12
293.449	84.12
293.68	85.12
293.91	91.12
294.141	90.12
294.372	82.12
294.603	79.12
294.833	94.12
295.064	84.12
295.295	84.12
295.525	82.12
295.756	105.12
295.987	85.12
296.217	88.12
296.448	77.12
296.679	80.12
296.909	101.12
297.14	80.12
297.37	85.12
297.601	103.12
297.831	95.12
298.062	99.12
298.292	94.12
298.523	87.12
298.753	85.12
298.984	94.12
299.214	79.12
299.445	94.12
299.675	91.12
299.905	73.12
300.136	89.12
300.366	75.12
300.597	87.12
300.827	86.12
301.057	91.12
301.288	89.12
301.518	88.12
301.748	99.12
301.979	94.12
302.209	95.12
302.439	78.12
302.669	102.12
302.9	77.12
303.13	96.12
303.36	95.12
303.59	79.12
303.82	88.12
304.051	91.12
304.281	91.12
304.511	98.12
304.741	79.12
304.971	89.12
305.201	83.12
305.431	80.12
305.661	92.12
305.891	97.12
306.121	89.12
306.352	96.12
306.582	89.12
306.812	98.12
307.042	94.12
307.272	82.12
307.502	76.12
307.731	97.12
307.961	91.12
308.191	87.12
308.421	97.12
308.651	75.12
308.881	81.12
309.111	93.12
309.341	104.12
309.571	107.12
309.8	100.12
310.03	79.12
310.26	86.12
310.49	94.12
310.72	81.12
310.949	100.12
311.179	78.12
311.409	99.12
311.639	89.12
311.868	81.12
312.098	92.12
312.328	87.12
312.557	87.12
312.787	92.12
313.017	83.12
313.246	81.12
313.476	87.12
313.706	77.12
313.935	87.12
314.165	83.12
314.394	97.12
314.624	80.12
314.853	99.12
315.083	77.12
315.312	89.12
315.542	92.12
315.771	84.12
316.001	87.12
316.23	91.12
316.46	91.12
316.689	83.12
316.919	84.12
317.148	99.12
317.377	103.12
317.607	107.12
317.836	89.12
318.065	100.12
318.295	89.12
318.524	78.12
318.753	85.12
318.983	115.12
319.212	95.12
319.441	87.12
319.67	84.12
319.9	85.12
320.129	81.12
320.358	86.12
320.587	93.12
320.816	91.12
321.046	87.12
321.275	81.12
321.504	87.12
321.733	91.12
321.962	107.12
322.191	97.12
322.42	92.12
322.649	87.12
322.878	89.12
323.108	102.12
323.337	86.12
323.566	89.12
323.795	88.12
324.024	94.12
324.253	90.12
324.482	93.12
324.71	100.12
324.939	99.12
325.168	86.12
325.397	82.12
325.626	99.12
325.855	76.12
326.084	92.12
326.313	90.12
326.542	93.12
326.77	91.12
326.999	109.12
327.228	93.12
327.457	106.12
327.686	89.12
327.914	97.12
328.143	74.12
328.372	82.12
328.6	91.12
328.829	88.12
329.058	81.12
329.287	96.12
329.515	94.12
329.744	86.12
329.972	95.12
330.201	89.12
330.43	90.12
330.658	95.12
330.887	90.12
331.115	104.12
331.344	94.12
331.572	95.12
331.801	88.12
332.03	87.12
332.258	92.12
332.486	87.12
332.715	91.12
332.943	91.12
333.172	92.12
333.4	94.12
333.629	91.12
333.857	91.12
334.085	88.12
334.314	94.12
334.542	98.12
334.771	81.12
334.999	67.12
335.227	87.12
335.455	81.12
335.684	97.12
335.912	104.12
336.14	82.12
336.369	99.12
336.597	102.12
336.825	92.12
337.053	80.12
337.281	96.12
337.51	89.12
337.738	89.12
337.966	93.12
338.194	85.12
338.422	91.12
338.65	78.12
338.878	77.12
339.106	78.12
339.334	93.12
339.562	95.12
339.79	94.12
340.018	88.12
340.246	82.12
340.474	87.12
340.702	79.12
340.93	89.12
341.158	84.12
341.386	90.12
341.614	92.12
341.842	86.12
342.07	91.12
342.298	102.12
342.526	92.12
342.754	95.12
342.981	71.12
343.209	91.12
343.437	107.12
343.665	87.12
343.893	89.12
344.12	95.12
344.348	87.12
344.576	80.12
344.804	81.12
345.031	75.12
345.259	73.12
345.487	97.12
345.714	79.12
345.942	70.12
346.17	86.12
346.397	93.12
346.625	85.12
346.853	84.12
347.08	80.12
347.308	89.12
347.535	91.12
347.763	95.12
347.99	89.12
348.218	90.12
348.445	92.12
348.673	96.12
348.9	91.12
349.128	102.12
349.355	96.12
349.583	75.12
349.81	87.12
350.037	86.12
350.265	71.12
350.492	80.12
350.72	87.12
350.947	93.12
351.174	94.12
351.402	88.12
351.629	76.12
351.856	89.12
352.083	89.12
352.311	85.12
352.538	92.12
352.765	88.12
352.992	93.12
353.22	90.12
353.447	99.12
353.674	79.12
353.901	93.12
354.128	84.12
354.355	89.12
354.583	76.12
354.81	99.12
355.037	90.12
355.264	79.12
355.491	101.12
355.718	91.12
355.945	92.12
356.172	91.12
356.399	84.12
356.626	79.12
356.853	101.12
357.08	108.12
357.307	125.12
357.534	105.12
357.761	93.12
357.988	99.12
358.215	86.12
358.441	82.12
358.668	99.12
358.895	84.12
359.122	79.12
359.349	74.12
359.576	82.12
359.802	86.12
360.029	83.12
360.256	102.12
360.483	80.12
360.709	85.12
360.936	109.12
361.163	79.12
361.39	83.12
361.616	84.12
361.843	86.12
362.07	81.12
362.296	91.12
362.523	83.12
362.749	88.12
362.976	88.12
363.203	100.12
363.429	112.12
363.656	134.12
363.882	157.12
364.109	165.12
364.335	120.12
364.562	100.12
364.788	98.12
365.015	85.12
365.241	77.12
365.468	97.12
365.694	91.12
365.92	84.12
366.147	94.12
366.373	96.12
366.599	82.12
366.826	95.12
367.052	116.12
367.278	119.12
367.505	105.12
367.731	98.12
367.957	122.12
368.184	155.12
368.41	208.12
368.636	156.12
368.862	101.12
369.089	87.12
369.315	95.12
369.541	91.12
369.767	91.12
369.993	86.12
370.219	69.12
370.445	76.12
370.672	95.12
370.898	79.12
371.124	88.12
371.35	74.12
371.576	97.12
371.802	96.12
372.028	89.12
372.254	91.12
372.48	93.12
372.706	76.12
372.932	88.12
373.158	91.12
373.384	96.12
373.61	110.12
373.835	116.12
374.061	123.12
374.287	102.12
374.513	96.12
374.739	84.12
374.965	84.12
375.191	72.12
375.416	91.12
375.642	103.12
375.868	80.12
376.094	75.12
376.319	88.12
376.545	90.12
376.771	94.12
376.997	92.12
377.222	79.12
377.448	92.12
377.674	82.12
377.899	87.12
378.125	92.12
378.35	77.12
378.576	73.12
378.802	90.12
379.027	80.12
379.253	95.12
379.478	92.12
379.704	86.12
379.929	91.12
380.155	89.12
380.38	92.12
380.606	73.12
380.831	85.12
381.057	95.12
381.282	90.12
381.507	90.12
381.733	97.12
381.958	99.12
382.184	71.12
382.409	81.12
382.634	80.12
382.86	87.12
383.085	73.12
383.31	95.12
383.535	91.12
383.761	89.12
383.986	83.12
384.211	85.12
384.436	82.12
384.662	94.12
384.887	85.12
385.112	75.12
385.337	88.12
385.562	94.12
385.787	89.12
386.013	99.12
386.238	85.12
386.463	75.12
386.688	91.12
386.913	73.12
387.138	85.12
387.363	84.12
387.588	87.12
387.813	84.12
388.038	91.12
388.263	93.12
388.488	80.12
388.713	92.12
388.938	92.12
389.163	72.12
389.387	98.12
389.612	95.12
389.837	92.12
390.062	94.12
390.287	87.12
390.512	85.12
390.736	78.12
390.961	81.12
391.186	87.12
391.411	79.12
391.636	81.12
391.86	87.12
392.085	92.12
392.31	85.12
392.534	79.12
392.759	106.12
392.984	91.12
393.208	112.12
393.433	134.12
393.658	108.12
393.882	95.12
394.107	112.12
394.331	103.12
394.556	125.12
394.78	92.12
395.005	75.12
395.229	96.12
395.454	86.12
395.678	93.12
395.903	115.12
396.127	130.12
396.352	118.12
396.576	95.12
396.801	112.12
397.025	120.12
397.249	89.12
397.474	88.12
397.698	92.12
397.922	72.12
398.147	89.12
398.371	76.12
398.595	79.12
398.82	80.12
399.044	94.12
399.268	81.12
399.492	78.12
399.717	99.12
399.941	87.12
400.165	92.12
400.389	86.12
400.613	83.12
400.837	96.12
401.062	96.12
401.286	99.12
401.51	91.12
401.734	81.12
401.958	88.12
402.182	99.12
402.406	75.12
402.63	87.12
402.854	83.12
403.078	94.12
403.302	86.12
403.526	91.12
403.75	93.12
403.974	80.12
404.198	76.12
404.422	96.12
404.645	91.12
404.869	87.12
405.093	94.12
405.317	99.12
405.541	183.12
405.765	301.12
405.988	312.12
406.212	168.12
406.436	112.12
406.66	85.12
406.883	88.12
407.107	91.12
407.331	83.12
407.555	83.12
407.778	87.12
408.002	91.12
408.226	77.12
408.449	79.12
408.673	82.12
408.896	88.12
409.12	85.12
409.344	78.12
409.567	80.12
409.791	81.12
410.014	89.12
410.238	85.12
410.461	72.12
410.685	87.12
410.908	84.12
411.132	93.12
411.355	75.12
411.578	73.12
411.802	84.12
412.025	93.12
412.249	98.12
412.472	74.12
412.695	72.12
412.919	86.12
413.142	71.12
413.365	92.12
413.589	90.12
413.812	85.12
414.035	91.12
414.258	93.12
414.482	84.12
414.705	86.12
414.928	79.12
415.151	85.12
415.374	71.12
415.597	80.12
415.821	85.12
416.044	85.12
416.267	103.12
416.49	100.12
416.713	93.12
416.936	107.12
417.159	83.12
417.382	89.12
417.605	87.12
417.828	88.12
418.051	89.12
418.274	85.12
418.497	83.12
418.72	88.12
418.943	83.12
419.166	78.12
419.389	88.12
419.611	75.12
419.834	75.12
420.057	87.12
420.28	91.12
420.503	81.12
420.726	84.12
420.948	81.12
421.171	82.12
421.394	87.12
421.617	83.12
421.839	94.12
422.062	85.12
422.285	93.12
422.507	88.12
422.73	123.12
422.953	99.12
423.175	99.12
423.398	80.12
423.621	79.12
423.843	90.12
424.066	91.12
424.288	85.12
424.511	84.12
424.733	85.12
424.956	78.12
425.178	85.12
425.401	89.12
425.623	81.12
425.846	80.12
426.068	74.12
426.291	83.12
426.513	102.12
426.735	91.12
426.958	103.12
427.18	88.12
427.402	86.12
427.625	89.12
427.847	71.12
428.069	74.12
428.292	76.12
428.514	90.12
428.736	88.12
428.958	79.12
429.181	95.12
429.403	75.12
429.625	81.12
429.847	79.12
430.069	74.12
430.292	90.12
430.514	75.12
430.736	70.12
430.958	88.12
431.18	70.12
431.402	86.12
431.624	82.12
431.846	70.12
432.068	90.12
432.29	85.12
432.512	89.12
432.734	86.12
432.956	72.12
433.178	81.12
433.4	89.12
433.622	99.12
433.844	91.12
434.066	84.12
434.287	85.12
434.509	70.12
434.731	83.12
434.953	89.12
435.175	88.12
435.397	77.12
435.618	71.12
435.84	77.12
436.062	81.12
436.284	91.12
436.505	91.12
436.727	84.12
436.949	91.12
437.17	77.12
437.392	75.12
437.614	76.12
437.835	81.12
438.057	75.12
438.278	82.12
438.5	80.12
438.721	97.12
438.943	91.12
439.165	84.12
439.386	91.12
439.608	91.12
439.829	81.12
440.05	74.12
440.272	93.12
440.493	80.12
440.715	90.12
440.936	81.12
441.158	80.12
441.379	79.12
441.6	83.12
441.822	76.12
442.043	87.12
442.264	77.12
442.486	90.12
442.707	96.12
442.928	78.12
443.149	81.12
443.371	91.12
443.592	99.12
443.813	89.12
444.034	85.12
444.255	81.12
444.476	91.12
444.698	95.12
444.919	91.12
445.14	176.12
445.361	121.12
445.582	88.12
445.803	95.12
446.024	102.12
446.245	96.12
446.466	76.12
446.687	101.12
446.908	91.12
447.129	95.12
447.35	77.12
447.571	74.12
447.792	94.12
448.013	81.12
448.234	94.12
448.455	90.12
448.675	101.12
448.896	88.12
449.117	76.12
449.338	97.12
449.559	87.12
449.779	91.12
450	94.12
450.221	75.12
450.442	89.12
450.662	81.12
450.883	75.12
451.104	76.12
451.324	97.12
451.545	80.12
451.766	89.12
451.986	79.12
452.207	92.12
452.428	79.12
452.648	81.12
452.869	81.12
453.089	89.12
453.31	93.12
453.53	81.12
453.751	78.12
453.971	84.12
454.192	85.12
454.412	103.12
454.633	94.12
454.853	88.12
455.073	99.12
455.294	81.12
455.514	81.12
455.734	80.12
455.955	99.12
456.175	91.12
456.395	73.12
456.616	82.12
456.836	92.12
457.056	93.12
457.276	93.12
457.497	79.12
457.717	87.12
457.937	87.12
458.157	84.12
458.377	69.12
458.598	72.12
458.818	78.12
459.038	80.12
459.258	89.12
459.478	83.12
459.698	89.12
459.918	80.12
460.138	89.12
460.358	82.12
460.578	87.12
460.798	83.12
461.018	90.12
461.238	92.12
461.458	78.12
461.678	89.12
461.898	82.12
462.118	81.12
462.338	85.12
462.558	85.12
462.777	84.12
462.997	87.12
463.217	87.12
463.437	80.12
463.657	85.12
463.876	83.12
464.096	96.12
464.316	94.12
464.536	80.12
464.755	78.12
464.975	81.12
465.195	89.12
465.414	78.12
465.634	91.12
465.854	77.12
466.073	96.12
466.293	71.12
466.512	87.12
466.732	79.12
466.951	84.12
467.171	81.12
467.391	73.12
467.61	97.12
467.829	82.12
468.049	83.12
468.268	91.12
468.488	85.12
468.707	71.12
468.927	88.12
469.146	93.12
469.365	91.12
469.585	77.12
469.804	97.12
470.023	86.12
470.243	83.12
470.462	97.12
470.681	101.12
470.901	81.12
471.12	89.12
471.339	89.12
471.558	101.12
471.777	82.12
471.997	80.12
472.216	82.12
472.435	85.12
472.654	92.12
472.873	94.12
473.092	76.12
473.311	75.12
473.53	78.12
473.749	91.12
473.968	78.12
474.187	97.12
474.406	84.12
474.625	93.12
474.844	73.12
475.063	71.12
475.282	72.12
475.501	85.12
475.72	90.12
475.939	91.12
476.158	81.12
476.377	72.12
476.596	80.12
476.814	71.12
477.033	87.12
477.252	82.12
477.471	72.12
477.69	85.12
477.908	77.12
478.127	73.12
478.346	83.12
478.564	79.12
478.783	80.12
479.002	88.12
479.22	77.12
479.439	87.12
479.658	78.12
479.876	89.12
480.095	82.12
480.313	74.12
480.532	74.12
480.751	82.12
480.969	88.12
481.188	89.12
481.406	86.12
481.624	92.12
481.843	95.12
482.061	77.12
482.28	86.12
482.498	78.12
482.717	89.12
482.935	69.12
483.153	78.12
483.372	73.12
483.59	97.12
483.808	85.12
484.027	74.12
484.245	85.12
484.463	77.12
484.681	91.12
484.9	79.12
485.118	86.12
485.336	83.12
485.554	87.12
485.772	85.12
485.99	93.12
486.209	97.12
486.427	78.12
486.645	86.12
486.863	72.12
487.081	85.12
487.299	88.12
487.517	83.12
487.735	82.12
487.953	92.12
488.171	87.12
488.389	93.12
488.607	83.12
488.825	73.12
489.043	73.12
489.261	90.12
489.479	87.12
489.696	89.12
489.914	104.12
490.132	93.12
490.35	91.12
490.568	89.12
490.786	92.12
491.003	84.12
491.221	76.12
491.439	78.12
491.657	92.12
491.874	84.12
492.092	79.12
492.31	73.12
492.527	89.12
492.745	82.12
492.963	97.12
493.18	76.12
493.398	97.12
493.615	78.12
493.833	85.12
494.05	93.12
494.268	92.12
494.485	93.12
494.703	101.12
494.92	84.12
495.138	79.12
495.355	89.12
495.573	97.12
495.79	82.12
496.008	83.12
496.225	84.12
496.442	78.12
496.66	95.12
496.877	87.12
497.094	106.12
497.312	83.12
497.529	87.12
497.746	94.12
497.963	85.12
498.181	100.12
498.398	89.12
498.615	89.12
498.832	77.12
499.049	89.12
499.267	90.12
499.484	96.12
499.701	82.12
499.918	88.12
500.135	71.12
500.352	85.12
500.569	95.12
500.786	110.12
501.003	89.12
501.22	73.12
501.437	83.12
501.654	79.12
501.871	90.12
502.088	85.12
502.305	92.12
502.522	76.12
502.739	79.12
502.956	87.12
503.172	80.12
503.389	81.12
503.606	75.12
503.823	95.12
504.04	72.12
504.256	80.12
504.473	91.12
504.69	88.12
504.907	106.12
505.123	85.12
505.34	87.12
505.557	84.12
505.773	85.12
505.99	87.12
506.207	76.12
506.423	81.12
506.64	88.12
506.856	85.12
507.073	91.12
507.289	83.12
507.506	76.12
507.722	87.12
507.939	79.12
508.155	76.12
508.372	86.12
508.588	78.12
508.805	77.12
509.021	84.12
509.238	82.12
509.454	105.12
509.67	95.12
509.887	96.12
510.103	79.12
510.319	71.12
510.536	99.12
510.752	85.12
510.968	80.12
511.184	95.12
511.401	85.12
511.617	88.12
511.833	95.12
512.049	81.12
512.265	93.12
512.481	79.12
512.698	87.12
512.914	87.12
513.13	86.12
513.346	88.12
513.562	101.12
513.778	94.12
513.994	80.12
514.21	84.12
514.426	69.12
514.642	99.12
514.858	79.12
515.074	84.12
515.29	84.12
515.506	89.12
515.721	95.12
515.937	95.12
516.153	90.12
516.369	88.12
516.585	85.12
516.801	82.12
517.016	77.12
517.232	71.12
517.448	81.12
517.664	89.12
517.879	83.12
518.095	92.12
518.311	88.12
518.527	80.12
518.742	87.12
518.958	93.12
519.173	88.12
519.389	85.12
519.605	80.12
519.82	87.12
520.036	101.12
520.251	100.12
520.467	89.12
520.682	73.12
520.898	76.12
521.113	89.12
521.329	87.12
521.544	85.12
521.76	90.12
521.975	81.12
522.19	86.12
522.406	87.12
522.621	85.12
522.836	84.12
523.052	94.12
523.267	88.12
523.482	96.12
523.698	95.12
523.913	102.12
524.128	87.12
524.343	87.12
524.559	92.12
524.774	92.12
524.989	80.12
525.204	78.12
525.419	89.12
525.634	94.12
525.849	91.12
526.064	93.12
526.28	99.12
526.495	92.12
526.71	97.12
526.925	91.12
527.14	73.12
527.355	114.12
527.57	87.12
527.785	96.12
527.999	86.12
528.214	87.12
528.429	85.12
528.644	87.12
528.859	76.12
529.074	82.12
529.289	85.12
529.503	84.12
529.718	87.12
529.933	96.12
530.148	85.12
530.363	87.12
530.577	86.12
530.792	95.12
531.007	91.12
531.221	93.12
531.436	107.12
531.651	91.12
531.865	81.12
532.08	70.12
532.295	89.12
532.509	82.12
532.724	95.12
532.938	87.12
533.153	91.12
533.367	92.12
533.582	86.12
533.796	80.12
534.011	99.12
534.225	85.12
534.44	79.12
534.654	78.12
534.868	85.12
535.083	78.12
535.297	91.12
535.511	95.12
535.726	89.12
535.94	87.12
536.154	82.12
536.369	77.12
536.583	77.12
536.797	87.12
537.011	77.12
537.225	90.12
537.44	87.12
537.654	94.12
537.868	100.12
538.082	87.12
538.296	91.12
538.51	84.12
538.724	98.12
538.938	81.12
539.153	78.12
539.367	92.12
539.581	89.12
539.795	77.12
540.009	84.12
540.222	91.12
540.436	89.12
540.65	93.12
540.864	84.12
541.078	91.12
541.292	91.12
541.506	86.12
541.72	97.12
541.934	84.12
542.147	85.12
542.361	81.12
542.575	89.12
542.789	88.12
543.002	82.12
543.216	87.12
543.43	77.12
543.644	85.12
543.857	82.12
544.071	89.12
544.285	78.12
544.498	91.12
544.712	88.12
544.925	81.12
545.139	88.12
545.352	89.12
545.566	80.12
545.779	88.12
545.993	99.12
546.206	93.12
546.42	93.12
546.633	101.12
546.847	95.12
547.06	93.12
547.274	94.12
547.487	91.12
547.7	88.12
547.914	94.12
548.127	91.12
548.34	99.12
548.554	91.12
548.767	97.12
548.98	87.12
549.193	97.12
549.407	91.12
549.62	81.12
549.833	87.12
550.046	85.12
550.259	76.12
550.473	83.12
550.686	87.12
550.899	90.12
551.112	100.12
551.325	80.12
551.538	72.12
551.751	94.12
551.964	100.12
552.177	99.12
552.39	84.12
552.603	87.12
552.816	85.12
553.029	87.12
553.242	97.12
553.455	88.12
553.667	88.12
553.88	92.12
554.093	96.12
554.306	82.12
554.519	87.12
554.732	99.12
554.944	95.12
555.157	81.12
555.37	86.12
555.583	95.12
555.795	83.12
556.008	77.12
556.221	91.12
556.433	87.12
556.646	99.12
556.859	92.12
557.071	83.12
557.284	89.12
557.496	80.12
557.709	74.12
557.921	78.12
558.134	82.12
558.346	102.12
558.559	95.12
558.771	77.12
558.984	90.12
559.196	95.12
559.409	84.12
559.621	79.12
559.833	88.12
560.046	100.12
560.258	93.12
560.47	82.12
560.683	86.12
560.895	81.12
561.107	96.12
561.32	89.12
561.532	71.12
561.744	87.12
561.956	96.12
562.168	77.12
562.381	87.12
562.593	94.12
562.805	88.12
563.017	92.12
563.229	84.12
563.441	94.12
563.653	86.12
563.865	75.12
564.077	64.12
564.289	96.12
564.501	75.12
564.713	94.12
564.925	96.12
565.137	80.12
565.349	86.12
565.561	86.12
565.773	74.12
565.985	97.12
566.197	85.12
566.408	89.12
566.62	85.12
566.832	88.12
567.044	102.12
567.255	82.12
567.467	96.12
567.679	89.12
567.891	85.12
568.102	99.12
568.314	93.12
568.526	80.12
568.737	87.12
568.949	95.12
569.161	111.12
569.372	86.12
569.584	83.12
569.795	100.12
570.007	77.12
570.218	97.12
570.43	83.12
570.641	75.12
570.853	97.12
571.064	82.12
571.276	87.12
571.487	87.12
571.698	95.12
571.91	88.12
572.121	91.12
572.333	88.12
572.544	81.12
572.755	87.12
572.966	86.12
573.178	82.12
573.389	81.12
573.6	82.12
573.811	97.12
574.023	91.12
574.234	92.12
574.445	88.12
574.656	84.12
574.867	88.12
575.078	83.12
575.289	105.12
575.501	96.12
575.712	82.12
575.923	81.12
576.134	89.12
576.345	96.12
576.556	91.12
576.767	96.12
576.978	96.12
577.188	90.12
577.399	89.12
577.61	89.12
577.821	81.12
578.032	77.12
578.243	79.12
578.454	82.12
578.665	86.12
578.875	89.12
579.086	81.12
579.297	94.12
579.508	111.12
579.718	90.12
579.929	86.12
580.14	90.12
580.35	87.12
580.561	78.12
580.772	93.12
580.982	95.12
581.193	77.12
581.403	85.12
581.614	87.12
581.825	88.12
582.035	71.12
582.246	82.12
582.456	75.12
582.667	96.12
582.877	94.12
583.087	91.12
583.298	90.12
583.508	81.12
583.719	91.12
583.929	97.12
584.139	95.12
584.35	93.12
584.56	89.12
584.77	92.12
584.981	87.12
585.191	81.12
585.401	103.12
585.611	85.12
585.821	94.12
586.032	101.12
586.242	94.12
586.452	87.12
586.662	92.12
586.872	87.12
587.082	75.12
587.292	101.12
587.502	100.12
587.713	97.12
587.923	91.12
588.133	105.12
588.343	94.12
588.553	84.12
588.762	104.12
588.972	177.12
589.182	386.12
589.392	219.12
589.602	166.12
589.812	293.12
590.022	148.12
590.232	99.12
590.441	96.12
590.651	81.12
590.861	88.12
591.071	92.12
591.281	96.12
591.49	91.12
591.7	82.12
591.91	101.12
592.119	91.12
592.329	89.12
592.539	88.12
592.748	77.12
592.958	76.12
593.167	81.12
593.377	85.12
593.587	99.12
593.796	104.12
594.006	96.12
594.215	81.12
594.424	96.12
594.634	97.12
594.843	94.12
595.053	91.12
595.262	82.12
595.472	87.12
595.681	101.12
595.89	83.12
596.1	95.12
596.309	87.12
596.518	85.12
596.727	82.12
596.937	94.12
597.146	87.12
597.355	85.12
597.564	88.12
597.774	88.12
597.983	80.12
598.192	109.12
598.401	87.12
598.61	93.12
598.819	82.12
599.028	86.12
599.237	92.12
599.446	88.12
599.655	83.12
599.864	87.12
600.073	80.12
600.282	95.12
600.491	82.12
600.7	94.12
600.909	92.12
601.118	90.12
601.327	101.12
601.536	82.12
601.745	92.12
601.953	86.12
602.162	81.12
602.371	81.12
602.58	97.12
602.789	92.12
602.997	96.12
603.206	89.12
603.415	85.12
603.623	86.12
603.832	79.12
604.041	102.12
604.249	91.12
604.458	96.12
604.666	82.12
604.875	88.12
605.084	92.12
605.292	97.12
605.501	95.12
605.709	88.12
605.918	75.12
606.126	97.12
606.334	87.12
606.543	90.12
606.751	85.12
606.96	85.12
607.168	93.12
607.376	81.12
607.585	102.12
607.793	83.12
608.001	99.12
608.21	92.12
608.418	85.12
608.626	88.12
608.834	81.12
609.043	99.12
609.251	89.12
609.459	89.12
609.667	86.12
609.875	93.12
610.083	87.12
610.291	88.12
610.499	102.12
610.707	87.12
610.916	89.12
611.124	84.12
611.332	81.12
611.54	103.12
611.748	89.12
611.955	81.12
612.163	90.12
612.371	90.12
612.579	78.12
612.787	84.12
612.995	84.12
613.203	103.12
613.411	72.12
613.618	87.12
613.826	87.12
614.034	95.12
614.242	103.12
614.449	97.12
614.657	97.12
614.865	86.12
615.072	90.12
615.28	71.12
615.488	81.12
615.695	94.12
615.903	75.12
616.111	76.12
616.318	94.12
616.526	73.12
616.733	81.12
616.941	94.12
617.148	91.12
617.356	86.12
617.563	87.12
617.771	88.12
617.978	88.12
618.185	86.12
618.393	103.12
618.6	80.12
618.807	85.12
619.015	88.12
619.222	84.12
619.429	80.12
619.637	90.12
619.844	82.12
620.051	92.12
620.258	93.12
620.466	92.12
620.673	80.12
620.88	94.12
621.087	87.12
621.294	95.12
621.501	92.12
621.708	86.12
621.915	88.12
622.122	100.12
622.329	81.12
622.536	97.12
622.743	86.12
622.95	88.12
623.157	84.12
623.364	89.12
623.571	84.12
623.778	101.12
623.985	87.12
624.192	101.12
624.399	91.12
624.606	92.12
624.812	92.12
625.019	86.12
625.226	85.12
625.433	83.12
625.639	86.12
625.846	81.12
626.053	87.12
626.259	84.12
626.466	78.12
626.673	96.12
626.879	93.12
627.086	85.12
627.293	99.12
627.499	92.12
627.706	86.12
627.912	83.12
628.119	80.12
628.325	85.12
628.532	88.12
628.738	85.12
628.945	89.12
629.151	94.12
629.357	83.12
629.564	85.12
629.77	83.12
629.976	88.12
630.183	73.12
630.389	76.12
630.595	82.12
630.802	92.12
631.008	95.12
631.214	100.12
631.42	78.12
631.627	94.12
631.833	85.12
632.039	88.12
632.245	87.12
632.451	88.12
632.657	73.12
632.863	96.12
633.069	97.12
633.275	107.12
633.481	76.12
633.688	98.12
633.893	88.12
634.099	88.12
634.305	92.12
634.511	81.12
634.717	87.12
634.923	77.12
635.129	96.12
635.335	81.12
635.541	89.12
635.747	84.12
635.952	89.12
636.158	81.12
636.364	93.12
636.57	89.12
636.775	77.12
636.981	90.12
637.187	93.12
637.392	88.12
637.598	71.12
637.804	87.12
638.009	79.12
638.215	87.12
638.421	92.12
638.626	95.12
638.832	87.12
639.037	91.12
639.243	87.12
639.448	94.12
639.654	92.12
639.859	85.12
640.065	91.12
640.27	95.12
640.475	97.12
640.681	87.12
640.886	80.12
641.091	68.12
641.297	68.12
641.502	84.12
641.707	82.12
641.913	96.12
642.118	73.12
642.323	91.12
642.528	86.12
642.733	80.12
642.939	100.12
643.144	85.12
643.349	98.12
643.554	96.12
643.759	79.12
643.964	95.12
644.169	87.12
644.374	87.12
644.579	96.12
644.784	87.12
644.989	71.12
645.194	86.12
645.399	97.12
645.604	81.12
645.809	78.12
646.014	84.12
646.219	69.12
646.423	91.12
646.628	75.12
646.833	86.12
647.038	100.12
647.243	93.12
647.447	81.12
647.652	104.12
647.857	88.12
648.062	107.12
648.266	95.12
648.471	78.12
648.676	96.12
648.88	90.12
649.085	79.12
649.289	91.12
649.494	91.12
649.698	85.12
649.903	81.12
650.107	89.12
650.312	72.12
650.516	86.12
650.721	84.12
650.925	78.12
651.13	88.12
651.334	95.12
651.539	88.12
651.743	89.12
651.947	88.12
652.152	73.12
652.356	77.12
652.56	96.12
652.764	86.12
652.969	90.12
653.173	82.12
653.377	70.12
653.581	76.12
653.785	91.12
653.99	84.12
654.194	89.12
654.398	87.12
654.602	87.12
654.806	84.12
655.01	88.12
655.214	89.12
655.418	68.12
655.622	100.12
655.826	82.12
656.03	84.12
656.234	96.12
656.438	84.12
656.642	77.12
656.846	85.12
657.049	82.12
657.253	87.12
657.457	97.12
657.661	86.12
657.865	76.12
658.068	93.12
658.272	85.12
658.476	74.12
658.68	80.12
658.883	87.12
659.087	91.12
659.291	99.12
659.494	84.12
659.698	81.12
659.901	99.12
660.105	75.12
660.309	73.12
660.512	97.12
660.716	96.12
660.919	69.12
661.123	89.12
661.326	67.12
661.53	94.12
661.733	80.12
661.936	89.12
662.14	79.12
662.343	91.12
662.546	71.12
662.75	85.12
662.953	89.12
663.156	90.12
663.36	87.12
663.563	103.12
663.766	81.12
663.969	83.12
664.173	88.12
664.376	85.12
664.579	85.12
664.782	77.12
664.985	98.12
665.188	78.12
665.391	77.12
665.594	84.12
665.797	79.12
666	70.12
666.203	80.12
666.406	88.12
666.609	96.12
666.812	78.12
667.015	76.12
667.218	85.12
667.421	79.12
667.624	77.12
667.827	80.12
668.03	80.12
668.232	87.12
668.435	95.12
668.638	95.12
668.841	91.12
669.043	80.12
669.246	71.12
669.449	92.12
669.651	87.12
669.854	76.12
670.057	69.12
670.259	84.12
670.462	82.12
670.665	92.12
670.867	84.12
671.07	86.12
671.272	79.12
671.475	86.12
671.677	93.12
671.88	69.12
672.082	90.12
672.284	78.12
672.487	67.12
672.689	81.12
672.892	71.12
