Data from Lead_HRD10591_00017.txt Node
Date: Tue Feb 17 14:19:18 EST 2026
User: Yrep
Spectrometer: HR+D1059
Trigger mode: 1
Integration Time (sec): 1.000000E-1
Scans to average: 1
Electric dark correction enabled: true
Nonlinearity correction enabled: false
Boxcar width: 0
XAxis mode: Wavelengths
Number of Pixels in Spectrum: 2048
>>>>>Begin Spectral Data<<<<<
223.165	-7.5
223.4	-7.5
223.635	-7.5
223.869	-27.5
224.104	-23.5
224.338	-23.5
224.573	-16.5
224.808	-11.5
225.042	-10.5
225.277	-1.5
225.511	-7.5
225.746	8.5
225.98	14.5
226.215	19.5
226.449	15.5
226.683	28.5
226.918	17.5
227.152	25.5
227.387	49.5
227.621	49.5
227.856	38.5
228.09	39.5
228.324	44.5
228.559	53.5
228.793	56.5
229.027	61.5
229.262	85.5
229.496	71.5
229.73	70.5
229.964	70.5
230.199	66.5
230.433	67.5
230.667	72.5
230.901	65.5
231.136	70.5
231.37	67.5
231.604	74.5
231.838	81.5
232.072	92.5
232.306	80.5
232.541	84.5
232.775	66.5
233.009	78.5
233.243	86.5
233.477	89.5
233.711	69.5
233.945	90.5
234.179	69.5
234.413	72.5
234.647	78.5
234.881	77.5
235.115	92.5
235.349	88.5
235.583	78.5
235.817	88.5
236.051	72.5
236.285	85.5
236.519	85.5
236.753	78.5
236.987	72.5
237.221	69.5
237.455	78.5
237.689	88.5
237.922	58.5
238.156	57.5
238.39	74.5
238.624	73.5
238.858	73.5
239.091	82.5
239.325	67.5
239.559	78.5
239.793	68.5
240.027	80.5
240.26	66.5
240.494	70.5
240.728	61.5
240.961	74.5
241.195	68.5
241.429	70.5
241.662	77.5
241.896	80.5
242.13	86.5
242.363	79.5
242.597	83.5
242.83	65.5
243.064	73.5
243.298	93.5
243.531	92.5
243.765	69.5
243.998	64.5
244.232	84.5
244.465	87.5
244.699	67.5
244.932	74.5
245.166	79.5
245.399	61.5
245.633	80.5
245.866	71.5
246.099	73.5
246.333	75.5
246.566	84.5
246.8	84.5
247.033	71.5
247.266	64.5
247.5	85.5
247.733	72.5
247.966	67.5
248.2	81.5
248.433	70.5
248.666	79.5
248.899	61.5
249.133	64.5
249.366	73.5
249.599	73.5
249.832	67.5
250.066	85.5
250.299	82.5
250.532	73.5
250.765	86.5
250.998	69.5
251.231	69.5
251.465	70.5
251.698	77.5
251.931	84.5
252.164	79.5
252.397	71.5
252.63	80.5
252.863	73.5
253.096	82.5
253.329	78.5
253.562	97.5
253.795	84.5
254.028	84.5
254.261	75.5
254.494	84.5
254.727	80.5
254.96	79.5
255.193	59.5
255.426	70.5
255.659	80.5
255.892	74.5
256.124	72.5
256.357	86.5
256.59	88.5
256.823	84.5
257.056	78.5
257.289	73.5
257.521	76.5
257.754	107.5
257.987	101.5
258.22	79.5
258.452	78.5
258.685	72.5
258.918	82.5
259.151	97.5
259.383	87.5
259.616	75.5
259.849	88.5
260.081	93.5
260.314	79.5
260.547	88.5
260.779	77.5
261.012	74.5
261.244	96.5
261.477	109.5
261.71	91.5
261.942	82.5
262.175	87.5
262.407	82.5
262.64	88.5
262.872	89.5
263.105	87.5
263.337	90.5
263.57	69.5
263.802	92.5
264.035	74.5
264.267	82.5
264.499	89.5
264.732	83.5
264.964	83.5
265.197	82.5
265.429	95.5
265.661	77.5
265.894	84.5
266.126	83.5
266.358	86.5
266.591	95.5
266.823	94.5
267.055	77.5
267.287	87.5
267.52	76.5
267.752	77.5
267.984	76.5
268.216	82.5
268.448	82.5
268.681	72.5
268.913	83.5
269.145	80.5
269.377	92.5
269.609	82.5
269.841	78.5
270.073	78.5
270.306	73.5
270.538	85.5
270.77	70.5
271.002	91.5
271.234	83.5
271.466	90.5
271.698	76.5
271.93	80.5
272.162	90.5
272.394	69.5
272.626	71.5
272.858	82.5
273.09	84.5
273.322	86.5
273.553	98.5
273.785	85.5
274.017	89.5
274.249	89.5
274.481	100.5
274.713	73.5
274.945	82.5
275.176	94.5
275.408	83.5
275.64	91.5
275.872	87.5
276.104	74.5
276.335	75.5
276.567	82.5
276.799	85.5
277.031	76.5
277.262	78.5
277.494	75.5
277.726	83.5
277.957	100.5
278.189	84.5
278.421	81.5
278.652	74.5
278.884	79.5
279.115	98.5
279.347	92.5
279.579	72.5
279.81	83.5
280.042	128.5
280.273	116.5
280.505	118.5
280.736	90.5
280.968	82.5
281.199	87.5
281.431	84.5
281.662	82.5
281.894	100.5
282.125	80.5
282.356	85.5
282.588	101.5
282.819	93.5
283.051	93.5
283.282	106.5
283.513	107.5
283.745	105.5
283.976	85.5
284.207	88.5
284.439	76.5
284.67	75.5
284.901	84.5
285.132	76.5
285.364	90.5
285.595	91.5
285.826	71.5
286.057	94.5
286.288	100.5
286.52	89.5
286.751	90.5
286.982	88.5
287.213	87.5
287.444	100.5
287.675	100.5
287.906	100.5
288.138	92.5
288.369	89.5
288.6	87.5
288.831	84.5
289.062	78.5
289.293	88.5
289.524	82.5
289.755	86.5
289.986	86.5
290.217	88.5
290.448	91.5
290.679	68.5
290.91	74.5
291.141	88.5
291.371	88.5
291.602	92.5
291.833	72.5
292.064	73.5
292.295	98.5
292.526	92.5
292.757	87.5
292.987	72.5
293.218	78.5
293.449	83.5
293.68	84.5
293.91	93.5
294.141	69.5
294.372	86.5
294.603	72.5
294.833	82.5
295.064	68.5
295.295	80.5
295.525	71.5
295.756	82.5
295.987	81.5
296.217	83.5
296.448	80.5
296.679	91.5
296.909	76.5
297.14	83.5
297.37	84.5
297.601	68.5
297.831	74.5
298.062	86.5
298.292	75.5
298.523	87.5
298.753	76.5
298.984	79.5
299.214	100.5
299.445	73.5
299.675	62.5
299.905	77.5
300.136	78.5
300.366	90.5
300.597	80.5
300.827	89.5
301.057	92.5
301.288	75.5
301.518	78.5
301.748	90.5
301.979	100.5
302.209	96.5
302.439	81.5
302.669	92.5
302.9	68.5
303.13	69.5
303.36	97.5
303.59	85.5
303.82	85.5
304.051	101.5
304.281	71.5
304.511	88.5
304.741	91.5
304.971	82.5
305.201	83.5
305.431	84.5
305.661	79.5
305.891	86.5
306.121	83.5
306.352	85.5
306.582	88.5
306.812	116.5
307.042	103.5
307.272	92.5
307.502	88.5
307.731	84.5
307.961	89.5
308.191	95.5
308.421	97.5
308.651	97.5
308.881	93.5
309.111	106.5
309.341	107.5
309.571	97.5
309.8	92.5
310.03	67.5
310.26	83.5
310.49	100.5
310.72	79.5
310.949	72.5
311.179	84.5
311.409	82.5
311.639	79.5
311.868	83.5
312.098	86.5
312.328	81.5
312.557	99.5
312.787	86.5
313.017	83.5
313.246	80.5
313.476	98.5
313.706	73.5
313.935	92.5
314.165	82.5
314.394	92.5
314.624	92.5
314.853	89.5
315.083	83.5
315.312	81.5
315.542	81.5
315.771	87.5
316.001	84.5
316.23	81.5
316.46	77.5
316.689	70.5
316.919	93.5
317.148	77.5
317.377	101.5
317.607	97.5
317.836	89.5
318.065	83.5
318.295	89.5
318.524	74.5
318.753	77.5
318.983	77.5
319.212	84.5
319.441	78.5
319.67	72.5
319.9	74.5
320.129	72.5
320.358	70.5
320.587	76.5
320.816	83.5
321.046	69.5
321.275	83.5
321.504	90.5
321.733	84.5
321.962	84.5
322.191	102.5
322.42	80.5
322.649	92.5
322.878	77.5
323.108	80.5
323.337	78.5
323.566	76.5
323.795	87.5
324.024	75.5
324.253	91.5
324.482	77.5
324.71	95.5
324.939	108.5
325.168	93.5
325.397	80.5
325.626	82.5
325.855	84.5
326.084	91.5
326.313	118.5
326.542	96.5
326.77	87.5
326.999	96.5
327.228	82.5
327.457	85.5
327.686	112.5
327.914	83.5
328.143	91.5
328.372	85.5
328.6	87.5
328.829	90.5
329.058	94.5
329.287	77.5
329.515	84.5
329.744	86.5
329.972	82.5
330.201	81.5
330.43	96.5
330.658	87.5
330.887	75.5
331.115	73.5
331.344	72.5
331.572	92.5
331.801	79.5
332.03	80.5
332.258	71.5
332.486	96.5
332.715	76.5
332.943	79.5
333.172	88.5
333.4	86.5
333.629	77.5
333.857	84.5
334.085	90.5
334.314	89.5
334.542	85.5
334.771	93.5
334.999	83.5
335.227	92.5
335.455	89.5
335.684	90.5
335.912	79.5
336.14	84.5
336.369	83.5
336.597	78.5
336.825	88.5
337.053	82.5
337.281	71.5
337.51	75.5
337.738	84.5
337.966	84.5
338.194	88.5
338.422	89.5
338.65	78.5
338.878	89.5
339.106	78.5
339.334	92.5
339.562	88.5
339.79	90.5
340.018	97.5
340.246	72.5
340.474	85.5
340.702	80.5
340.93	74.5
341.158	71.5
341.386	85.5
341.614	90.5
341.842	72.5
342.07	89.5
342.298	86.5
342.526	82.5
342.754	89.5
342.981	90.5
343.209	68.5
343.437	100.5
343.665	72.5
343.893	79.5
344.12	84.5
344.348	85.5
344.576	80.5
344.804	78.5
345.031	79.5
345.259	77.5
345.487	88.5
345.714	84.5
345.942	96.5
346.17	81.5
346.397	84.5
346.625	90.5
346.853	100.5
347.08	84.5
347.308	77.5
347.535	85.5
347.763	84.5
347.99	77.5
348.218	93.5
348.445	69.5
348.673	76.5
348.9	79.5
349.128	88.5
349.355	82.5
349.583	89.5
349.81	75.5
350.037	82.5
350.265	90.5
350.492	88.5
350.72	70.5
350.947	90.5
351.174	93.5
351.402	81.5
351.629	87.5
351.856	71.5
352.083	90.5
352.311	75.5
352.538	84.5
352.765	90.5
352.992	82.5
353.22	76.5
353.447	74.5
353.674	72.5
353.901	76.5
354.128	90.5
354.355	82.5
354.583	89.5
354.81	90.5
355.037	77.5
355.264	90.5
355.491	77.5
355.718	92.5
355.945	93.5
356.172	86.5
356.399	82.5
356.626	84.5
356.853	114.5
357.08	136.5
357.307	164.5
357.534	133.5
357.761	107.5
357.988	98.5
358.215	96.5
358.441	90.5
358.668	93.5
358.895	83.5
359.122	91.5
359.349	85.5
359.576	78.5
359.802	82.5
360.029	96.5
360.256	85.5
360.483	96.5
360.709	86.5
360.936	88.5
361.163	77.5
361.39	88.5
361.616	92.5
361.843	90.5
362.07	81.5
362.296	80.5
362.523	92.5
362.749	91.5
362.976	85.5
363.203	100.5
363.429	114.5
363.656	158.5
363.882	230.5
364.109	244.5
364.335	148.5
364.562	114.5
364.788	78.5
365.015	77.5
365.241	78.5
365.468	94.5
365.694	89.5
365.92	88.5
366.147	72.5
366.373	87.5
366.599	96.5
366.826	92.5
367.052	119.5
367.278	125.5
367.505	113.5
367.731	125.5
367.957	148.5
368.184	259.5
368.41	337.5
368.636	220.5
368.862	112.5
369.089	94.5
369.315	93.5
369.541	88.5
369.767	77.5
369.993	82.5
370.219	84.5
370.445	80.5
370.672	88.5
370.898	79.5
371.124	78.5
371.35	90.5
371.576	97.5
371.802	88.5
372.028	86.5
372.254	81.5
372.48	93.5
372.706	79.5
372.932	86.5
373.158	96.5
373.384	96.5
373.61	122.5
373.835	153.5
374.061	177.5
374.287	145.5
374.513	109.5
374.739	99.5
374.965	100.5
375.191	87.5
375.416	79.5
375.642	86.5
375.868	92.5
376.094	72.5
376.319	81.5
376.545	82.5
376.771	81.5
376.997	86.5
377.222	86.5
377.448	84.5
377.674	77.5
377.899	93.5
378.125	76.5
378.35	79.5
378.576	76.5
378.802	86.5
379.027	80.5
379.253	87.5
379.478	90.5
379.704	89.5
379.929	93.5
380.155	73.5
380.38	85.5
380.606	77.5
380.831	96.5
381.057	82.5
381.282	72.5
381.507	86.5
381.733	86.5
381.958	97.5
382.184	89.5
382.409	76.5
382.634	92.5
382.86	88.5
383.085	92.5
383.31	97.5
383.535	73.5
383.761	100.5
383.986	92.5
384.211	93.5
384.436	88.5
384.662	103.5
384.887	90.5
385.112	81.5
385.337	68.5
385.562	104.5
385.787	94.5
386.013	81.5
386.238	81.5
386.463	85.5
386.688	95.5
386.913	75.5
387.138	104.5
387.363	93.5
387.588	82.5
387.813	84.5
388.038	89.5
388.263	99.5
388.488	82.5
388.713	83.5
388.938	67.5
389.163	78.5
389.387	89.5
389.612	96.5
389.837	67.5
390.062	86.5
390.287	77.5
390.512	84.5
390.736	86.5
390.961	87.5
391.186	86.5
391.411	79.5
391.636	94.5
391.86	90.5
392.085	86.5
392.31	97.5
392.534	100.5
392.759	102.5
392.984	115.5
393.208	163.5
393.433	219.5
393.658	156.5
393.882	117.5
394.107	104.5
394.331	146.5
394.556	154.5
394.78	99.5
395.005	96.5
395.229	85.5
395.454	90.5
395.678	90.5
395.903	131.5
396.127	182.5
396.352	200.5
396.576	140.5
396.801	182.5
397.025	199.5
397.249	114.5
397.474	86.5
397.698	89.5
397.922	82.5
398.147	82.5
398.371	87.5
398.595	107.5
398.82	79.5
399.044	87.5
399.268	84.5
399.492	80.5
399.717	83.5
399.941	88.5
400.165	85.5
400.389	93.5
400.613	79.5
400.837	100.5
401.062	75.5
401.286	89.5
401.51	81.5
401.734	95.5
401.958	106.5
402.182	98.5
402.406	89.5
402.63	96.5
402.854	99.5
403.078	84.5
403.302	81.5
403.526	93.5
403.75	93.5
403.974	88.5
404.198	91.5
404.422	103.5
404.645	103.5
404.869	92.5
405.093	117.5
405.317	128.5
405.541	266.5
405.765	489.5
405.988	508.5
406.212	229.5
406.436	146.5
406.66	103.5
406.883	94.5
407.107	95.5
407.331	86.5
407.555	88.5
407.778	86.5
408.002	85.5
408.226	75.5
408.449	83.5
408.673	71.5
408.896	76.5
409.12	81.5
409.344	88.5
409.567	79.5
409.791	81.5
410.014	92.5
410.238	86.5
410.461	72.5
410.685	91.5
410.908	54.5
411.132	73.5
411.355	83.5
411.578	86.5
411.802	73.5
412.025	76.5
412.249	91.5
412.472	95.5
412.695	72.5
412.919	78.5
413.142	76.5
413.365	70.5
413.589	71.5
413.812	87.5
414.035	86.5
414.258	80.5
414.482	86.5
414.705	84.5
414.928	99.5
415.151	80.5
415.374	73.5
415.597	75.5
415.821	75.5
416.044	89.5
416.267	70.5
416.49	102.5
416.713	76.5
416.936	110.5
417.159	98.5
417.382	68.5
417.605	76.5
417.828	90.5
418.051	86.5
418.274	87.5
418.497	69.5
418.72	82.5
418.943	83.5
419.166	82.5
419.389	84.5
419.611	77.5
419.834	84.5
420.057	92.5
420.28	70.5
420.503	78.5
420.726	80.5
420.948	84.5
421.171	74.5
421.394	77.5
421.617	85.5
421.839	84.5
422.062	79.5
422.285	92.5
422.507	140.5
422.73	164.5
422.953	140.5
423.175	85.5
423.398	97.5
423.621	78.5
423.843	82.5
424.066	82.5
424.288	85.5
424.511	97.5
424.733	90.5
424.956	81.5
425.178	73.5
425.401	73.5
425.623	91.5
425.846	83.5
426.068	83.5
426.291	79.5
426.513	87.5
426.735	95.5
426.958	86.5
427.18	78.5
427.402	79.5
427.625	79.5
427.847	83.5
428.069	92.5
428.292	84.5
428.514	74.5
428.736	88.5
428.958	91.5
429.181	72.5
429.403	83.5
429.625	76.5
429.847	82.5
430.069	83.5
430.292	103.5
430.514	106.5
430.736	84.5
430.958	97.5
431.18	91.5
431.402	83.5
431.624	100.5
431.846	76.5
432.068	87.5
432.29	80.5
432.512	93.5
432.734	78.5
432.956	83.5
433.178	75.5
433.4	86.5
433.622	76.5
433.844	88.5
434.066	77.5
434.287	87.5
434.509	70.5
434.731	89.5
434.953	86.5
435.175	93.5
435.397	88.5
435.618	92.5
435.84	79.5
436.062	89.5
436.284	82.5
436.505	79.5
436.727	74.5
436.949	76.5
437.17	67.5
437.392	76.5
437.614	85.5
437.835	92.5
438.057	76.5
438.278	104.5
438.5	96.5
438.721	80.5
438.943	78.5
439.165	68.5
439.386	94.5
439.608	88.5
439.829	79.5
440.05	90.5
440.272	78.5
440.493	73.5
440.715	81.5
440.936	83.5
441.158	81.5
441.379	90.5
441.6	82.5
441.822	78.5
442.043	100.5
442.264	89.5
442.486	92.5
442.707	82.5
442.928	72.5
443.149	76.5
443.371	90.5
443.592	91.5
443.813	88.5
444.034	98.5
444.255	94.5
444.476	81.5
444.698	68.5
444.919	76.5
445.14	156.5
445.361	120.5
445.582	103.5
445.803	93.5
446.024	84.5
446.245	85.5
446.466	69.5
446.687	74.5
446.908	69.5
447.129	77.5
447.35	86.5
447.571	98.5
447.792	86.5
448.013	89.5
448.234	84.5
448.455	90.5
448.675	84.5
448.896	88.5
449.117	70.5
449.338	74.5
449.559	88.5
449.779	74.5
450	88.5
450.221	96.5
450.442	89.5
450.662	90.5
450.883	71.5
451.104	84.5
451.324	86.5
451.545	85.5
451.766	86.5
451.986	84.5
452.207	101.5
452.428	86.5
452.648	82.5
452.869	85.5
453.089	89.5
453.31	76.5
453.53	70.5
453.751	81.5
453.971	89.5
454.192	77.5
454.412	78.5
454.633	91.5
454.853	86.5
455.073	83.5
455.294	76.5
455.514	74.5
455.734	96.5
455.955	70.5
456.175	78.5
456.395	84.5
456.616	82.5
456.836	77.5
457.056	74.5
457.276	86.5
457.497	84.5
457.717	68.5
457.937	84.5
458.157	70.5
458.377	85.5
458.598	76.5
458.818	71.5
459.038	85.5
459.258	80.5
459.478	84.5
459.698	70.5
459.918	79.5
460.138	85.5
460.358	84.5
460.578	74.5
460.798	85.5
461.018	92.5
461.238	78.5
461.458	71.5
461.678	68.5
461.898	83.5
462.118	84.5
462.338	78.5
462.558	85.5
462.777	96.5
462.997	93.5
463.217	89.5
463.437	79.5
463.657	87.5
463.876	83.5
464.096	72.5
464.316	72.5
464.536	80.5
464.755	84.5
464.975	85.5
465.195	74.5
465.414	76.5
465.634	84.5
465.854	88.5
466.073	77.5
466.293	100.5
466.512	89.5
466.732	93.5
466.951	73.5
467.171	87.5
467.391	79.5
467.61	82.5
467.829	84.5
468.049	85.5
468.268	94.5
468.488	81.5
468.707	75.5
468.927	86.5
469.146	75.5
469.365	73.5
469.585	76.5
469.804	71.5
470.023	80.5
470.243	95.5
470.462	75.5
470.681	83.5
470.901	68.5
471.12	80.5
471.339	77.5
471.558	84.5
471.777	78.5
471.997	95.5
472.216	84.5
472.435	76.5
472.654	84.5
472.873	87.5
473.092	98.5
473.311	93.5
473.53	70.5
473.749	92.5
473.968	76.5
474.187	87.5
474.406	86.5
474.625	80.5
474.844	78.5
475.063	89.5
475.282	84.5
475.501	80.5
475.72	73.5
475.939	82.5
476.158	91.5
476.377	87.5
476.596	73.5
476.814	75.5
477.033	95.5
477.252	79.5
477.471	85.5
477.69	94.5
477.908	96.5
478.127	95.5
478.346	77.5
478.564	74.5
478.783	78.5
479.002	93.5
479.22	81.5
479.439	91.5
479.658	86.5
479.876	72.5
480.095	78.5
480.313	74.5
480.532	86.5
480.751	82.5
480.969	87.5
481.188	99.5
481.406	80.5
481.624	67.5
481.843	82.5
482.061	86.5
482.28	71.5
482.498	88.5
482.717	72.5
482.935	84.5
483.153	90.5
483.372	81.5
483.59	78.5
483.808	101.5
484.027	82.5
484.245	85.5
484.463	68.5
484.681	89.5
484.9	75.5
485.118	88.5
485.336	90.5
485.554	96.5
485.772	86.5
485.99	97.5
486.209	91.5
486.427	84.5
486.645	86.5
486.863	86.5
487.081	81.5
487.299	80.5
487.517	96.5
487.735	57.5
487.953	86.5
488.171	70.5
488.389	83.5
488.607	79.5
488.825	77.5
489.043	76.5
489.261	103.5
489.479	92.5
489.696	92.5
489.914	95.5
490.132	72.5
490.35	80.5
490.568	88.5
490.786	73.5
491.003	72.5
491.221	84.5
491.439	94.5
491.657	66.5
491.874	94.5
492.092	81.5
492.31	72.5
492.527	83.5
492.745	84.5
492.963	86.5
493.18	75.5
493.398	84.5
493.615	102.5
493.833	88.5
494.05	96.5
494.268	80.5
494.485	87.5
494.703	84.5
494.92	77.5
495.138	76.5
495.355	83.5
495.573	83.5
495.79	93.5
496.008	85.5
496.225	79.5
496.442	96.5
496.66	91.5
496.877	71.5
497.094	82.5
497.312	86.5
497.529	89.5
497.746	88.5
497.963	96.5
498.181	87.5
498.398	93.5
498.615	106.5
498.832	90.5
499.049	76.5
499.267	85.5
499.484	72.5
499.701	84.5
499.918	87.5
500.135	104.5
500.352	86.5
500.569	109.5
500.786	118.5
501.003	98.5
501.22	79.5
501.437	88.5
501.654	99.5
501.871	95.5
502.088	79.5
502.305	83.5
502.522	88.5
502.739	70.5
502.956	85.5
503.172	92.5
503.389	93.5
503.606	76.5
503.823	94.5
504.04	86.5
504.256	99.5
504.473	89.5
504.69	88.5
504.907	82.5
505.123	85.5
505.34	85.5
505.557	86.5
505.773	81.5
505.99	81.5
506.207	89.5
506.423	80.5
506.64	73.5
506.856	85.5
507.073	88.5
507.289	90.5
507.506	82.5
507.722	83.5
507.939	80.5
508.155	87.5
508.372	86.5
508.588	82.5
508.805	85.5
509.021	87.5
509.238	84.5
509.454	84.5
509.67	89.5
509.887	84.5
510.103	90.5
510.319	84.5
510.536	82.5
510.752	89.5
510.968	72.5
511.184	89.5
511.401	92.5
511.617	89.5
511.833	83.5
512.049	70.5
512.265	102.5
512.481	86.5
512.698	78.5
512.914	85.5
513.13	81.5
513.346	71.5
513.562	91.5
513.778	86.5
513.994	90.5
514.21	87.5
514.426	88.5
514.642	90.5
514.858	82.5
515.074	83.5
515.29	101.5
515.506	74.5
515.721	77.5
515.937	89.5
516.153	86.5
516.369	89.5
516.585	86.5
516.801	74.5
517.016	85.5
517.232	75.5
517.448	92.5
517.664	93.5
517.879	83.5
518.095	84.5
518.311	72.5
518.527	80.5
518.742	84.5
518.958	85.5
519.173	93.5
519.389	96.5
519.605	73.5
519.82	90.5
520.036	84.5
520.251	96.5
520.467	84.5
520.682	99.5
520.898	83.5
521.113	82.5
521.329	78.5
521.544	97.5
521.76	70.5
521.975	78.5
522.19	84.5
522.406	80.5
522.621	74.5
522.836	101.5
523.052	104.5
523.267	90.5
523.482	101.5
523.698	97.5
523.913	92.5
524.128	79.5
524.343	92.5
524.559	81.5
524.774	82.5
524.989	87.5
525.204	82.5
525.419	77.5
525.634	94.5
525.849	69.5
526.064	86.5
526.28	77.5
526.495	96.5
526.71	106.5
526.925	91.5
527.14	101.5
527.355	91.5
527.57	99.5
527.785	89.5
527.999	87.5
528.214	85.5
528.429	73.5
528.644	84.5
528.859	91.5
529.074	88.5
529.289	84.5
529.503	97.5
529.718	77.5
529.933	81.5
530.148	82.5
530.363	92.5
530.577	85.5
530.792	75.5
531.007	75.5
531.221	87.5
531.436	78.5
531.651	84.5
531.865	75.5
532.08	78.5
532.295	60.5
532.509	91.5
532.724	76.5
532.938	84.5
533.153	88.5
533.367	86.5
533.582	86.5
533.796	82.5
534.011	84.5
534.225	81.5
534.44	85.5
534.654	89.5
534.868	73.5
535.083	76.5
535.297	81.5
535.511	81.5
535.726	105.5
535.94	82.5
536.154	67.5
536.369	76.5
536.583	81.5
536.797	87.5
537.011	89.5
537.225	85.5
537.44	96.5
537.654	93.5
537.868	88.5
538.082	78.5
538.296	87.5
538.51	90.5
538.724	75.5
538.938	95.5
539.153	88.5
539.367	76.5
539.581	84.5
539.795	77.5
540.009	65.5
540.222	84.5
540.436	86.5
540.65	73.5
540.864	80.5
541.078	82.5
541.292	74.5
541.506	92.5
541.72	92.5
541.934	73.5
542.147	78.5
542.361	92.5
542.575	84.5
542.789	101.5
543.002	92.5
543.216	93.5
543.43	81.5
543.644	105.5
543.857	89.5
544.071	75.5
544.285	82.5
544.498	80.5
544.712	93.5
544.925	103.5
545.139	84.5
545.352	84.5
545.566	92.5
545.779	88.5
545.993	67.5
546.206	84.5
546.42	78.5
546.633	89.5
546.847	87.5
547.06	94.5
547.274	92.5
547.487	87.5
547.7	93.5
547.914	96.5
548.127	87.5
548.34	98.5
548.554	92.5
548.767	86.5
548.98	89.5
549.193	90.5
549.407	84.5
549.62	86.5
549.833	77.5
550.046	87.5
550.259	84.5
550.473	96.5
550.686	89.5
550.899	88.5
551.112	87.5
551.325	93.5
551.538	81.5
551.751	98.5
551.964	97.5
552.177	84.5
552.39	90.5
552.603	103.5
552.816	84.5
553.029	82.5
553.242	92.5
553.455	89.5
553.667	82.5
553.88	78.5
554.093	91.5
554.306	93.5
554.519	85.5
554.732	87.5
554.944	75.5
555.157	85.5
555.37	87.5
555.583	73.5
555.795	92.5
556.008	93.5
556.221	87.5
556.433	82.5
556.646	98.5
556.859	78.5
557.071	75.5
557.284	90.5
557.496	82.5
557.709	78.5
557.921	81.5
558.134	86.5
558.346	85.5
558.559	81.5
558.771	86.5
558.984	92.5
559.196	99.5
559.409	86.5
559.621	89.5
559.833	86.5
560.046	83.5
560.258	85.5
560.47	104.5
560.683	99.5
560.895	92.5
561.107	79.5
561.32	73.5
561.532	94.5
561.744	85.5
561.956	69.5
562.168	88.5
562.381	92.5
562.593	79.5
562.805	76.5
563.017	80.5
563.229	88.5
563.441	91.5
563.653	69.5
563.865	75.5
564.077	82.5
564.289	94.5
564.501	82.5
564.713	82.5
564.925	99.5
565.137	82.5
565.349	77.5
565.561	83.5
565.773	84.5
565.985	96.5
566.197	75.5
566.408	92.5
566.62	80.5
566.832	91.5
567.044	77.5
567.255	79.5
567.467	88.5
567.679	85.5
567.891	78.5
568.102	80.5
568.314	102.5
568.526	101.5
568.737	87.5
568.949	96.5
569.161	98.5
569.372	86.5
569.584	89.5
569.795	83.5
570.007	78.5
570.218	80.5
570.43	95.5
570.641	91.5
570.853	84.5
571.064	76.5
571.276	82.5
571.487	83.5
571.698	88.5
571.91	86.5
572.121	89.5
572.333	79.5
572.544	85.5
572.755	82.5
572.966	90.5
573.178	88.5
573.389	88.5
573.6	83.5
573.811	75.5
574.023	76.5
574.234	82.5
574.445	88.5
574.656	83.5
574.867	107.5
575.078	86.5
575.289	86.5
575.501	73.5
575.712	76.5
575.923	98.5
576.134	86.5
576.345	94.5
576.556	81.5
576.767	81.5
576.978	83.5
577.188	83.5
577.399	96.5
577.61	89.5
577.821	95.5
578.032	84.5
578.243	93.5
578.454	87.5
578.665	83.5
578.875	84.5
579.086	92.5
579.297	73.5
579.508	88.5
579.718	83.5
579.929	89.5
580.14	96.5
580.35	81.5
580.561	89.5
580.772	88.5
580.982	80.5
581.193	77.5
581.403	84.5
581.614	85.5
581.825	94.5
582.035	99.5
582.246	89.5
582.456	76.5
582.667	90.5
582.877	86.5
583.087	87.5
583.298	82.5
583.508	88.5
583.719	82.5
583.929	92.5
584.139	78.5
584.35	88.5
584.56	83.5
584.77	80.5
584.981	83.5
585.191	82.5
585.401	82.5
585.611	81.5
585.821	97.5
586.032	98.5
586.242	77.5
586.452	87.5
586.662	92.5
586.872	71.5
587.082	94.5
587.292	82.5
587.502	81.5
587.713	83.5
587.923	96.5
588.133	101.5
588.343	85.5
588.553	90.5
588.762	131.5
588.972	269.5
589.182	731.5
589.392	407.5
589.602	308.5
589.812	595.5
590.022	246.5
590.232	120.5
590.441	90.5
590.651	85.5
590.861	83.5
591.071	98.5
591.281	90.5
591.49	106.5
591.7	89.5
591.91	90.5
592.119	80.5
592.329	73.5
592.539	82.5
592.748	91.5
592.958	92.5
593.167	86.5
593.377	77.5
593.587	90.5
593.796	86.5
594.006	86.5
594.215	78.5
594.424	80.5
594.634	90.5
594.843	98.5
595.053	84.5
595.262	84.5
595.472	86.5
595.681	67.5
595.89	84.5
596.1	81.5
596.309	84.5
596.518	85.5
596.727	96.5
596.937	87.5
597.146	83.5
597.355	84.5
597.564	83.5
597.774	89.5
597.983	83.5
598.192	82.5
598.401	80.5
598.61	86.5
598.819	82.5
599.028	97.5
599.237	81.5
599.446	85.5
599.655	86.5
599.864	92.5
600.073	86.5
600.282	94.5
600.491	89.5
600.7	78.5
600.909	79.5
601.118	82.5
601.327	84.5
601.536	71.5
601.745	77.5
601.953	84.5
602.162	86.5
602.371	85.5
602.58	85.5
602.789	79.5
602.997	75.5
603.206	96.5
603.415	79.5
603.623	69.5
603.832	81.5
604.041	80.5
604.249	73.5
604.458	85.5
604.666	91.5
604.875	89.5
605.084	91.5
605.292	97.5
605.501	83.5
605.709	92.5
605.918	80.5
606.126	96.5
606.334	78.5
606.543	88.5
606.751	80.5
606.96	86.5
607.168	94.5
607.376	91.5
607.585	92.5
607.793	72.5
608.001	91.5
608.21	89.5
608.418	94.5
608.626	83.5
608.834	88.5
609.043	90.5
609.251	69.5
609.459	88.5
609.667	86.5
609.875	80.5
610.083	87.5
610.291	89.5
610.499	88.5
610.707	95.5
610.916	86.5
611.124	85.5
611.332	86.5
611.54	85.5
611.748	89.5
611.955	85.5
612.163	98.5
612.371	101.5
612.579	89.5
612.787	94.5
612.995	83.5
613.203	87.5
613.411	85.5
613.618	84.5
613.826	81.5
614.034	82.5
614.242	85.5
614.449	86.5
614.657	81.5
614.865	86.5
615.072	73.5
615.28	86.5
615.488	84.5
615.695	77.5
615.903	87.5
616.111	96.5
616.318	102.5
616.526	95.5
616.733	64.5
616.941	90.5
617.148	74.5
617.356	93.5
617.563	82.5
617.771	72.5
617.978	81.5
618.185	86.5
618.393	85.5
618.6	77.5
618.807	87.5
619.015	92.5
619.222	74.5
619.429	80.5
619.637	85.5
619.844	76.5
620.051	77.5
620.258	85.5
620.466	76.5
620.673	84.5
620.88	81.5
621.087	90.5
621.294	82.5
621.501	87.5
621.708	76.5
621.915	88.5
622.122	81.5
622.329	86.5
622.536	85.5
622.743	75.5
622.95	80.5
623.157	92.5
623.364	85.5
623.571	77.5
623.778	83.5
623.985	97.5
624.192	87.5
624.399	89.5
624.606	88.5
624.812	85.5
625.019	87.5
625.226	92.5
625.433	77.5
625.639	85.5
625.846	83.5
626.053	78.5
626.259	64.5
626.466	100.5
626.673	79.5
626.879	88.5
627.086	93.5
627.293	79.5
627.499	77.5
627.706	75.5
627.912	74.5
628.119	83.5
628.325	86.5
628.532	99.5
628.738	82.5
628.945	69.5
629.151	82.5
629.357	80.5
629.564	72.5
629.77	85.5
629.976	85.5
630.183	85.5
630.389	76.5
630.595	91.5
630.802	88.5
631.008	79.5
631.214	87.5
631.42	87.5
631.627	96.5
631.833	78.5
632.039	85.5
632.245	77.5
632.451	96.5
632.657	84.5
632.863	80.5
633.069	91.5
633.275	92.5
633.481	73.5
633.688	83.5
633.893	79.5
634.099	86.5
634.305	74.5
634.511	79.5
634.717	91.5
634.923	90.5
635.129	86.5
635.335	79.5
635.541	85.5
635.747	88.5
635.952	79.5
636.158	89.5
636.364	92.5
636.57	80.5
636.775	81.5
636.981	74.5
637.187	83.5
637.392	80.5
637.598	85.5
637.804	90.5
638.009	70.5
638.215	89.5
638.421	75.5
638.626	88.5
638.832	92.5
639.037	87.5
639.243	81.5
639.448	66.5
639.654	93.5
639.859	81.5
640.065	87.5
640.27	78.5
640.475	80.5
640.681	76.5
640.886	92.5
641.091	91.5
641.297	105.5
641.502	81.5
641.707	84.5
641.913	76.5
642.118	93.5
642.323	87.5
642.528	88.5
642.733	97.5
642.939	93.5
643.144	80.5
643.349	81.5
643.554	89.5
643.759	83.5
643.964	80.5
644.169	84.5
644.374	91.5
644.579	77.5
644.784	84.5
644.989	79.5
645.194	73.5
645.399	82.5
645.604	91.5
645.809	94.5
646.014	90.5
646.219	85.5
646.423	101.5
646.628	93.5
646.833	92.5
647.038	95.5
647.243	87.5
647.447	85.5
647.652	89.5
647.857	88.5
648.062	82.5
648.266	73.5
648.471	84.5
648.676	64.5
648.88	75.5
649.085	76.5
649.289	73.5
649.494	84.5
649.698	89.5
649.903	80.5
650.107	80.5
650.312	81.5
650.516	82.5
650.721	73.5
650.925	70.5
651.13	94.5
651.334	86.5
651.539	94.5
651.743	86.5
651.947	73.5
652.152	74.5
652.356	66.5
652.56	91.5
652.764	84.5
652.969	94.5
653.173	73.5
653.377	74.5
653.581	71.5
653.785	83.5
653.99	91.5
654.194	97.5
654.398	87.5
654.602	82.5
654.806	74.5
655.01	84.5
655.214	84.5
655.418	78.5
655.622	82.5
655.826	84.5
656.03	70.5
656.234	88.5
656.438	76.5
656.642	81.5
656.846	82.5
657.049	92.5
657.253	86.5
657.457	78.5
657.661	86.5
657.865	60.5
658.068	75.5
658.272	76.5
658.476	67.5
658.68	87.5
658.883	68.5
659.087	62.5
659.291	73.5
659.494	93.5
659.698	83.5
659.901	85.5
660.105	67.5
660.309	83.5
660.512	85.5
660.716	82.5
660.919	84.5
661.123	90.5
661.326	77.5
661.53	83.5
661.733	75.5
661.936	74.5
662.14	83.5
662.343	93.5
662.546	89.5
662.75	76.5
662.953	90.5
663.156	78.5
663.36	72.5
663.563	76.5
663.766	76.5
663.969	88.5
664.173	83.5
664.376	65.5
664.579	78.5
664.782	82.5
664.985	81.5
665.188	81.5
665.391	82.5
665.594	75.5
665.797	78.5
666	92.5
666.203	74.5
666.406	89.5
666.609	85.5
666.812	85.5
667.015	69.5
667.218	83.5
667.421	85.5
667.624	74.5
667.827	84.5
668.03	84.5
668.232	80.5
668.435	77.5
668.638	92.5
668.841	93.5
669.043	79.5
669.246	76.5
669.449	88.5
669.651	85.5
669.854	84.5
670.057	91.5
670.259	93.5
670.462	82.5
670.665	68.5
670.867	80.5
671.07	77.5
671.272	87.5
671.475	84.5
671.677	85.5
671.88	86.5
672.082	88.5
672.284	97.5
672.487	85.5
672.689	76.5
672.892	69.5
