Data from Lead_HRD10591_00081.txt Node
Date: Tue Feb 17 14:19:39 EST 2026
User: Yrep
Spectrometer: HR+D1059
Trigger mode: 1
Integration Time (sec): 1.000000E-1
Scans to average: 1
Electric dark correction enabled: true
Nonlinearity correction enabled: false
Boxcar width: 0
XAxis mode: Wavelengths
Number of Pixels in Spectrum: 2048
>>>>>Begin Spectral Data<<<<<
223.165	-18.75
223.4	-18.75
223.635	-18.75
223.869	-15.75
224.104	-18.75
224.338	-12.75
224.573	-12.75
224.808	-8.75
225.042	-6.75
225.277	-3.75
225.511	3.25
225.746	-3.75
225.98	5.25
226.215	6.25
226.449	21.25
226.683	20.25
226.918	23.25
227.152	22.25
227.387	36.25
227.621	39.25
227.856	42.25
228.09	33.25
228.324	52.25
228.559	73.25
228.793	64.25
229.027	62.25
229.262	64.25
229.496	78.25
229.73	70.25
229.964	75.25
230.199	71.25
230.433	70.25
230.667	84.25
230.901	90.25
231.136	75.25
231.37	92.25
231.604	85.25
231.838	73.25
232.072	89.25
232.306	78.25
232.541	80.25
232.775	84.25
233.009	82.25
233.243	81.25
233.477	93.25
233.711	94.25
233.945	90.25
234.179	77.25
234.413	84.25
234.647	78.25
234.881	63.25
235.115	81.25
235.349	77.25
235.583	86.25
235.817	91.25
236.051	85.25
236.285	77.25
236.519	83.25
236.753	73.25
236.987	77.25
237.221	71.25
237.455	73.25
237.689	93.25
237.922	99.25
238.156	69.25
238.39	85.25
238.624	76.25
238.858	78.25
239.091	74.25
239.325	79.25
239.559	78.25
239.793	88.25
240.027	84.25
240.26	80.25
240.494	83.25
240.728	75.25
240.961	82.25
241.195	73.25
241.429	72.25
241.662	77.25
241.896	74.25
242.13	79.25
242.363	72.25
242.597	73.25
242.83	79.25
243.064	75.25
243.298	83.25
243.531	79.25
243.765	77.25
243.998	83.25
244.232	83.25
244.465	78.25
244.699	94.25
244.932	66.25
245.166	83.25
245.399	81.25
245.633	88.25
245.866	100.25
246.099	62.25
246.333	86.25
246.566	72.25
246.8	60.25
247.033	79.25
247.266	75.25
247.5	91.25
247.733	92.25
247.966	78.25
248.2	85.25
248.433	83.25
248.666	73.25
248.899	67.25
249.133	71.25
249.366	89.25
249.599	70.25
249.832	77.25
250.066	85.25
250.299	82.25
250.532	75.25
250.765	80.25
250.998	86.25
251.231	68.25
251.465	85.25
251.698	85.25
251.931	83.25
252.164	81.25
252.397	81.25
252.63	84.25
252.863	80.25
253.096	85.25
253.329	95.25
253.562	84.25
253.795	85.25
254.028	76.25
254.261	78.25
254.494	82.25
254.727	95.25
254.96	87.25
255.193	89.25
255.426	61.25
255.659	85.25
255.892	93.25
256.124	79.25
256.357	80.25
256.59	85.25
256.823	97.25
257.056	91.25
257.289	85.25
257.521	85.25
257.754	88.25
257.987	70.25
258.22	90.25
258.452	93.25
258.685	91.25
258.918	75.25
259.151	74.25
259.383	94.25
259.616	95.25
259.849	82.25
260.081	95.25
260.314	87.25
260.547	67.25
260.779	78.25
261.012	97.25
261.244	73.25
261.477	111.25
261.71	118.25
261.942	78.25
262.175	100.25
262.407	66.25
262.64	76.25
262.872	90.25
263.105	88.25
263.337	82.25
263.57	89.25
263.802	98.25
264.035	85.25
264.267	81.25
264.499	83.25
264.732	71.25
264.964	77.25
265.197	99.25
265.429	87.25
265.661	88.25
265.894	91.25
266.126	86.25
266.358	87.25
266.591	92.25
266.823	75.25
267.055	85.25
267.287	86.25
267.52	86.25
267.752	94.25
267.984	90.25
268.216	77.25
268.448	82.25
268.681	93.25
268.913	78.25
269.145	80.25
269.377	70.25
269.609	89.25
269.841	89.25
270.073	78.25
270.306	77.25
270.538	87.25
270.77	97.25
271.002	85.25
271.234	81.25
271.466	77.25
271.698	81.25
271.93	76.25
272.162	103.25
272.394	104.25
272.626	86.25
272.858	107.25
273.09	98.25
273.322	82.25
273.553	93.25
273.785	87.25
274.017	71.25
274.249	85.25
274.481	81.25
274.713	76.25
274.945	97.25
275.176	75.25
275.408	77.25
275.64	94.25
275.872	82.25
276.104	74.25
276.335	95.25
276.567	90.25
276.799	80.25
277.031	89.25
277.262	84.25
277.494	95.25
277.726	86.25
277.957	90.25
278.189	91.25
278.421	100.25
278.652	77.25
278.884	75.25
279.115	88.25
279.347	87.25
279.579	95.25
279.81	89.25
280.042	95.25
280.273	106.25
280.505	121.25
280.736	89.25
280.968	87.25
281.199	83.25
281.431	80.25
281.662	76.25
281.894	78.25
282.125	90.25
282.356	105.25
282.588	102.25
282.819	91.25
283.051	96.25
283.282	116.25
283.513	111.25
283.745	95.25
283.976	89.25
284.207	84.25
284.439	82.25
284.67	93.25
284.901	79.25
285.132	88.25
285.364	90.25
285.595	82.25
285.826	78.25
286.057	79.25
286.288	87.25
286.52	87.25
286.751	89.25
286.982	90.25
287.213	91.25
287.444	111.25
287.675	94.25
287.906	105.25
288.138	100.25
288.369	101.25
288.6	84.25
288.831	91.25
289.062	80.25
289.293	85.25
289.524	97.25
289.755	77.25
289.986	88.25
290.217	90.25
290.448	94.25
290.679	88.25
290.91	93.25
291.141	65.25
291.371	75.25
291.602	108.25
291.833	95.25
292.064	88.25
292.295	82.25
292.526	77.25
292.757	76.25
292.987	91.25
293.218	91.25
293.449	89.25
293.68	79.25
293.91	69.25
294.141	96.25
294.372	87.25
294.603	100.25
294.833	101.25
295.064	88.25
295.295	74.25
295.525	69.25
295.756	85.25
295.987	84.25
296.217	101.25
296.448	83.25
296.679	90.25
296.909	99.25
297.14	94.25
297.37	90.25
297.601	91.25
297.831	98.25
298.062	88.25
298.292	83.25
298.523	93.25
298.753	83.25
298.984	85.25
299.214	92.25
299.445	88.25
299.675	88.25
299.905	75.25
300.136	81.25
300.366	87.25
300.597	83.25
300.827	87.25
301.057	90.25
301.288	99.25
301.518	78.25
301.748	88.25
301.979	97.25
302.209	87.25
302.439	92.25
302.669	93.25
302.9	93.25
303.13	104.25
303.36	97.25
303.59	90.25
303.82	93.25
304.051	84.25
304.281	95.25
304.511	88.25
304.741	77.25
304.971	79.25
305.201	97.25
305.431	90.25
305.661	86.25
305.891	89.25
306.121	93.25
306.352	71.25
306.582	101.25
306.812	82.25
307.042	78.25
307.272	76.25
307.502	74.25
307.731	91.25
307.961	95.25
308.191	92.25
308.421	92.25
308.651	87.25
308.881	112.25
309.111	94.25
309.341	105.25
309.571	101.25
309.8	88.25
310.03	75.25
310.26	89.25
310.49	80.25
310.72	77.25
310.949	90.25
311.179	88.25
311.409	87.25
311.639	82.25
311.868	75.25
312.098	89.25
312.328	101.25
312.557	88.25
312.787	85.25
313.017	87.25
313.246	101.25
313.476	91.25
313.706	103.25
313.935	88.25
314.165	83.25
314.394	90.25
314.624	78.25
314.853	93.25
315.083	91.25
315.312	83.25
315.542	94.25
315.771	91.25
316.001	88.25
316.23	87.25
316.46	81.25
316.689	80.25
316.919	81.25
317.148	76.25
317.377	84.25
317.607	99.25
317.836	89.25
318.065	78.25
318.295	99.25
318.524	95.25
318.753	80.25
318.983	93.25
319.212	85.25
319.441	77.25
319.67	99.25
319.9	80.25
320.129	101.25
320.358	102.25
320.587	63.25
320.816	90.25
321.046	88.25
321.275	85.25
321.504	82.25
321.733	81.25
321.962	91.25
322.191	93.25
322.42	78.25
322.649	91.25
322.878	90.25
323.108	91.25
323.337	88.25
323.566	93.25
323.795	92.25
324.024	78.25
324.253	84.25
324.482	100.25
324.71	99.25
324.939	107.25
325.168	93.25
325.397	85.25
325.626	76.25
325.855	90.25
326.084	86.25
326.313	112.25
326.542	89.25
326.77	86.25
326.999	103.25
327.228	93.25
327.457	93.25
327.686	90.25
327.914	88.25
328.143	103.25
328.372	99.25
328.6	85.25
328.829	91.25
329.058	87.25
329.287	79.25
329.515	83.25
329.744	80.25
329.972	72.25
330.201	90.25
330.43	94.25
330.658	78.25
330.887	87.25
331.115	78.25
331.344	77.25
331.572	95.25
331.801	99.25
332.03	102.25
332.258	79.25
332.486	90.25
332.715	75.25
332.943	95.25
333.172	74.25
333.4	91.25
333.629	84.25
333.857	88.25
334.085	100.25
334.314	87.25
334.542	95.25
334.771	87.25
334.999	86.25
335.227	91.25
335.455	80.25
335.684	82.25
335.912	78.25
336.14	91.25
336.369	87.25
336.597	90.25
336.825	82.25
337.053	94.25
337.281	82.25
337.51	78.25
337.738	78.25
337.966	81.25
338.194	68.25
338.422	93.25
338.65	95.25
338.878	94.25
339.106	81.25
339.334	95.25
339.562	79.25
339.79	73.25
340.018	91.25
340.246	90.25
340.474	72.25
340.702	89.25
340.93	82.25
341.158	93.25
341.386	103.25
341.614	84.25
341.842	92.25
342.07	98.25
342.298	82.25
342.526	84.25
342.754	89.25
342.981	96.25
343.209	87.25
343.437	79.25
343.665	94.25
343.893	96.25
344.12	97.25
344.348	95.25
344.576	74.25
344.804	82.25
345.031	91.25
345.259	91.25
345.487	88.25
345.714	100.25
345.942	82.25
346.17	84.25
346.397	84.25
346.625	77.25
346.853	87.25
347.08	89.25
347.308	97.25
347.535	75.25
347.763	80.25
347.99	84.25
348.218	87.25
348.445	89.25
348.673	94.25
348.9	79.25
349.128	79.25
349.355	84.25
349.583	87.25
349.81	89.25
350.037	85.25
350.265	93.25
350.492	86.25
350.72	73.25
350.947	87.25
351.174	99.25
351.402	74.25
351.629	96.25
351.856	89.25
352.083	91.25
352.311	93.25
352.538	81.25
352.765	84.25
352.992	75.25
353.22	88.25
353.447	73.25
353.674	90.25
353.901	92.25
354.128	87.25
354.355	74.25
354.583	92.25
354.81	88.25
355.037	91.25
355.264	83.25
355.491	78.25
355.718	78.25
355.945	92.25
356.172	88.25
356.399	99.25
356.626	80.25
356.853	112.25
357.08	141.25
357.307	171.25
357.534	141.25
357.761	99.25
357.988	94.25
358.215	85.25
358.441	84.25
358.668	77.25
358.895	94.25
359.122	79.25
359.349	93.25
359.576	81.25
359.802	86.25
360.029	82.25
360.256	100.25
360.483	73.25
360.709	82.25
360.936	100.25
361.163	75.25
361.39	84.25
361.616	85.25
361.843	85.25
362.07	85.25
362.296	86.25
362.523	95.25
362.749	100.25
362.976	89.25
363.203	98.25
363.429	93.25
363.656	145.25
363.882	232.25
364.109	261.25
364.335	149.25
364.562	94.25
364.788	85.25
365.015	81.25
365.241	89.25
365.468	96.25
365.694	101.25
365.92	96.25
366.147	86.25
366.373	95.25
366.599	96.25
366.826	119.25
367.052	132.25
367.278	115.25
367.505	112.25
367.731	115.25
367.957	148.25
368.184	252.25
368.41	317.25
368.636	220.25
368.862	101.25
369.089	96.25
369.315	93.25
369.541	99.25
369.767	78.25
369.993	83.25
370.219	80.25
370.445	85.25
370.672	88.25
370.898	82.25
371.124	78.25
371.35	87.25
371.576	80.25
371.802	67.25
372.028	80.25
372.254	87.25
372.48	80.25
372.706	82.25
372.932	80.25
373.158	77.25
373.384	86.25
373.61	98.25
373.835	127.25
374.061	167.25
374.287	145.25
374.513	94.25
374.739	96.25
374.965	72.25
375.191	76.25
375.416	83.25
375.642	72.25
375.868	80.25
376.094	80.25
376.319	88.25
376.545	95.25
376.771	81.25
376.997	76.25
377.222	61.25
377.448	87.25
377.674	85.25
377.899	88.25
378.125	85.25
378.35	88.25
378.576	95.25
378.802	75.25
379.027	86.25
379.253	91.25
379.478	84.25
379.704	89.25
379.929	102.25
380.155	89.25
380.38	71.25
380.606	81.25
380.831	77.25
381.057	81.25
381.282	90.25
381.507	88.25
381.733	90.25
381.958	90.25
382.184	86.25
382.409	91.25
382.634	64.25
382.86	86.25
383.085	79.25
383.31	86.25
383.535	82.25
383.761	79.25
383.986	93.25
384.211	86.25
384.436	83.25
384.662	84.25
384.887	75.25
385.112	85.25
385.337	87.25
385.562	99.25
385.787	83.25
386.013	84.25
386.238	92.25
386.463	90.25
386.688	97.25
386.913	84.25
387.138	87.25
387.363	94.25
387.588	89.25
387.813	91.25
388.038	90.25
388.263	104.25
388.488	90.25
388.713	95.25
388.938	87.25
389.163	65.25
389.387	64.25
389.612	94.25
389.837	78.25
390.062	87.25
390.287	90.25
390.512	91.25
390.736	89.25
390.961	85.25
391.186	94.25
391.411	87.25
391.636	87.25
391.86	86.25
392.085	91.25
392.31	80.25
392.534	99.25
392.759	89.25
392.984	93.25
393.208	118.25
393.433	132.25
393.658	107.25
393.882	91.25
394.107	90.25
394.331	120.25
394.556	117.25
394.78	103.25
395.005	95.25
395.229	85.25
395.454	112.25
395.678	102.25
395.903	128.25
396.127	154.25
396.352	142.25
396.576	92.25
396.801	109.25
397.025	99.25
397.249	88.25
397.474	80.25
397.698	73.25
397.922	82.25
398.147	93.25
398.371	88.25
398.595	83.25
398.82	81.25
399.044	90.25
399.268	97.25
399.492	87.25
399.717	75.25
399.941	79.25
400.165	76.25
400.389	69.25
400.613	95.25
400.837	81.25
401.062	88.25
401.286	81.25
401.51	100.25
401.734	99.25
401.958	95.25
402.182	121.25
402.406	79.25
402.63	85.25
402.854	81.25
403.078	87.25
403.302	84.25
403.526	80.25
403.75	102.25
403.974	88.25
404.198	93.25
404.422	97.25
404.645	93.25
404.869	106.25
405.093	117.25
405.317	151.25
405.541	271.25
405.765	491.25
405.988	533.25
406.212	241.25
406.436	172.25
406.66	99.25
406.883	100.25
407.107	95.25
407.331	85.25
407.555	87.25
407.778	84.25
408.002	67.25
408.226	86.25
408.449	68.25
408.673	101.25
408.896	91.25
409.12	88.25
409.344	79.25
409.567	83.25
409.791	73.25
410.014	87.25
410.238	81.25
410.461	97.25
410.685	79.25
410.908	89.25
411.132	88.25
411.355	77.25
411.578	80.25
411.802	77.25
412.025	95.25
412.249	93.25
412.472	95.25
412.695	87.25
412.919	76.25
413.142	79.25
413.365	85.25
413.589	80.25
413.812	61.25
414.035	85.25
414.258	87.25
414.482	81.25
414.705	87.25
414.928	77.25
415.151	76.25
415.374	72.25
415.597	87.25
415.821	85.25
416.044	99.25
416.267	87.25
416.49	87.25
416.713	76.25
416.936	101.25
417.159	96.25
417.382	89.25
417.605	82.25
417.828	82.25
418.051	78.25
418.274	94.25
418.497	74.25
418.72	75.25
418.943	79.25
419.166	83.25
419.389	109.25
419.611	82.25
419.834	97.25
420.057	79.25
420.28	80.25
420.503	84.25
420.726	82.25
420.948	82.25
421.171	74.25
421.394	86.25
421.617	78.25
421.839	89.25
422.062	85.25
422.285	78.25
422.507	109.25
422.73	107.25
422.953	117.25
423.175	79.25
423.398	89.25
423.621	94.25
423.843	71.25
424.066	86.25
424.288	78.25
424.511	75.25
424.733	77.25
424.956	77.25
425.178	79.25
425.401	76.25
425.623	79.25
425.846	86.25
426.068	93.25
426.291	87.25
426.513	76.25
426.735	91.25
426.958	76.25
427.18	83.25
427.402	85.25
427.625	79.25
427.847	69.25
428.069	86.25
428.292	80.25
428.514	86.25
428.736	80.25
428.958	85.25
429.181	70.25
429.403	90.25
429.625	86.25
429.847	77.25
430.069	85.25
430.292	96.25
430.514	70.25
430.736	95.25
430.958	86.25
431.18	87.25
431.402	92.25
431.624	92.25
431.846	78.25
432.068	89.25
432.29	89.25
432.512	95.25
432.734	86.25
432.956	68.25
433.178	91.25
433.4	89.25
433.622	83.25
433.844	91.25
434.066	102.25
434.287	89.25
434.509	81.25
434.731	87.25
434.953	78.25
435.175	85.25
435.397	85.25
435.618	82.25
435.84	76.25
436.062	71.25
436.284	79.25
436.505	91.25
436.727	96.25
436.949	93.25
437.17	84.25
437.392	86.25
437.614	89.25
437.835	73.25
438.057	91.25
438.278	80.25
438.5	67.25
438.721	91.25
438.943	84.25
439.165	87.25
439.386	99.25
439.608	78.25
439.829	90.25
440.05	82.25
440.272	83.25
440.493	95.25
440.715	95.25
440.936	88.25
441.158	84.25
441.379	73.25
441.6	99.25
441.822	87.25
442.043	94.25
442.264	72.25
442.486	80.25
442.707	82.25
442.928	92.25
443.149	85.25
443.371	89.25
443.592	84.25
443.813	76.25
444.034	81.25
444.255	95.25
444.476	77.25
444.698	90.25
444.919	83.25
445.14	174.25
445.361	142.25
445.582	89.25
445.803	86.25
446.024	92.25
446.245	89.25
446.466	80.25
446.687	76.25
446.908	90.25
447.129	89.25
447.35	93.25
447.571	83.25
447.792	77.25
448.013	97.25
448.234	98.25
448.455	89.25
448.675	99.25
448.896	80.25
449.117	92.25
449.338	87.25
449.559	89.25
449.779	82.25
450	99.25
450.221	78.25
450.442	95.25
450.662	80.25
450.883	85.25
451.104	86.25
451.324	86.25
451.545	78.25
451.766	85.25
451.986	77.25
452.207	88.25
452.428	87.25
452.648	94.25
452.869	95.25
453.089	77.25
453.31	81.25
453.53	79.25
453.751	76.25
453.971	90.25
454.192	89.25
454.412	65.25
454.633	85.25
454.853	90.25
455.073	98.25
455.294	87.25
455.514	89.25
455.734	88.25
455.955	81.25
456.175	81.25
456.395	71.25
456.616	80.25
456.836	85.25
457.056	80.25
457.276	66.25
457.497	65.25
457.717	79.25
457.937	95.25
458.157	79.25
458.377	105.25
458.598	87.25
458.818	85.25
459.038	82.25
459.258	90.25
459.478	93.25
459.698	80.25
459.918	84.25
460.138	80.25
460.358	67.25
460.578	91.25
460.798	85.25
461.018	95.25
461.238	81.25
461.458	73.25
461.678	74.25
461.898	81.25
462.118	78.25
462.338	73.25
462.558	87.25
462.777	83.25
462.997	81.25
463.217	81.25
463.437	78.25
463.657	89.25
463.876	95.25
464.096	97.25
464.316	98.25
464.536	83.25
464.755	99.25
464.975	86.25
465.195	85.25
465.414	90.25
465.634	88.25
465.854	75.25
466.073	69.25
466.293	83.25
466.512	80.25
466.732	83.25
466.951	77.25
467.171	80.25
467.391	68.25
467.61	67.25
467.829	88.25
468.049	69.25
468.268	74.25
468.488	72.25
468.707	80.25
468.927	74.25
469.146	81.25
469.365	82.25
469.585	86.25
469.804	85.25
470.023	71.25
470.243	82.25
470.462	92.25
470.681	76.25
470.901	88.25
471.12	95.25
471.339	99.25
471.558	82.25
471.777	87.25
471.997	73.25
472.216	65.25
472.435	94.25
472.654	83.25
472.873	88.25
473.092	86.25
473.311	99.25
473.53	97.25
473.749	101.25
473.968	89.25
474.187	81.25
474.406	73.25
474.625	88.25
474.844	94.25
475.063	88.25
475.282	82.25
475.501	84.25
475.72	93.25
475.939	78.25
476.158	81.25
476.377	72.25
476.596	84.25
476.814	104.25
477.033	90.25
477.252	78.25
477.471	79.25
477.69	91.25
477.908	79.25
478.127	88.25
478.346	81.25
478.564	84.25
478.783	72.25
479.002	94.25
479.22	85.25
479.439	89.25
479.658	88.25
479.876	69.25
480.095	80.25
480.313	83.25
480.532	88.25
480.751	92.25
480.969	80.25
481.188	80.25
481.406	87.25
481.624	95.25
481.843	82.25
482.061	85.25
482.28	82.25
482.498	84.25
482.717	90.25
482.935	94.25
483.153	77.25
483.372	77.25
483.59	105.25
483.808	86.25
484.027	91.25
484.245	79.25
484.463	81.25
484.681	85.25
484.9	95.25
485.118	80.25
485.336	80.25
485.554	84.25
485.772	79.25
485.99	87.25
486.209	99.25
486.427	81.25
486.645	85.25
486.863	79.25
487.081	86.25
487.299	82.25
487.517	89.25
487.735	79.25
487.953	89.25
488.171	94.25
488.389	82.25
488.607	92.25
488.825	83.25
489.043	95.25
489.261	83.25
489.479	101.25
489.696	79.25
489.914	78.25
490.132	81.25
490.35	89.25
490.568	86.25
490.786	80.25
491.003	81.25
491.221	81.25
491.439	78.25
491.657	99.25
491.874	93.25
492.092	77.25
492.31	82.25
492.527	78.25
492.745	86.25
492.963	106.25
493.18	95.25
493.398	91.25
493.615	86.25
493.833	80.25
494.05	96.25
494.268	82.25
494.485	93.25
494.703	86.25
494.92	94.25
495.138	97.25
495.355	88.25
495.573	76.25
495.79	94.25
496.008	79.25
496.225	75.25
496.442	83.25
496.66	89.25
496.877	82.25
497.094	95.25
497.312	89.25
497.529	87.25
497.746	90.25
497.963	71.25
498.181	67.25
498.398	88.25
498.615	92.25
498.832	84.25
499.049	84.25
499.267	85.25
499.484	100.25
499.701	91.25
499.918	80.25
500.135	77.25
500.352	87.25
500.569	128.25
500.786	141.25
501.003	99.25
501.22	82.25
501.437	95.25
501.654	77.25
501.871	84.25
502.088	91.25
502.305	80.25
502.522	94.25
502.739	90.25
502.956	72.25
503.172	84.25
503.389	86.25
503.606	81.25
503.823	87.25
504.04	87.25
504.256	91.25
504.473	89.25
504.69	85.25
504.907	90.25
505.123	81.25
505.34	95.25
505.557	101.25
505.773	92.25
505.99	96.25
506.207	89.25
506.423	95.25
506.64	93.25
506.856	79.25
507.073	90.25
507.289	109.25
507.506	81.25
507.722	65.25
507.939	93.25
508.155	88.25
508.372	88.25
508.588	89.25
508.805	101.25
509.021	92.25
509.238	78.25
509.454	82.25
509.67	79.25
509.887	80.25
510.103	93.25
510.319	93.25
510.536	97.25
510.752	92.25
510.968	87.25
511.184	89.25
511.401	92.25
511.617	67.25
511.833	71.25
512.049	73.25
512.265	71.25
512.481	76.25
512.698	82.25
512.914	94.25
513.13	91.25
513.346	80.25
513.562	93.25
513.778	87.25
513.994	85.25
514.21	100.25
514.426	95.25
514.642	85.25
514.858	94.25
515.074	76.25
515.29	96.25
515.506	95.25
515.721	101.25
515.937	102.25
516.153	77.25
516.369	93.25
516.585	84.25
516.801	91.25
517.016	83.25
517.232	88.25
517.448	81.25
517.664	82.25
517.879	84.25
518.095	93.25
518.311	87.25
518.527	87.25
518.742	80.25
518.958	97.25
519.173	71.25
519.389	72.25
519.605	89.25
519.82	95.25
520.036	87.25
520.251	103.25
520.467	93.25
520.682	88.25
520.898	89.25
521.113	83.25
521.329	97.25
521.544	92.25
521.76	98.25
521.975	76.25
522.19	94.25
522.406	86.25
522.621	95.25
522.836	96.25
523.052	107.25
523.267	94.25
523.482	97.25
523.698	87.25
523.913	100.25
524.128	88.25
524.343	90.25
524.559	83.25
524.774	91.25
524.989	82.25
525.204	86.25
525.419	87.25
525.634	79.25
525.849	89.25
526.064	80.25
526.28	93.25
526.495	94.25
526.71	86.25
526.925	95.25
527.14	81.25
527.355	93.25
527.57	80.25
527.785	94.25
527.999	77.25
528.214	92.25
528.429	79.25
528.644	91.25
528.859	87.25
529.074	75.25
529.289	85.25
529.503	82.25
529.718	74.25
529.933	93.25
530.148	78.25
530.363	85.25
530.577	82.25
530.792	80.25
531.007	86.25
531.221	81.25
531.436	101.25
531.651	92.25
531.865	89.25
532.08	88.25
532.295	85.25
532.509	91.25
532.724	90.25
532.938	79.25
533.153	93.25
533.367	93.25
533.582	91.25
533.796	82.25
534.011	86.25
534.225	97.25
534.44	86.25
534.654	82.25
534.868	74.25
535.083	82.25
535.297	84.25
535.511	85.25
535.726	85.25
535.94	88.25
536.154	88.25
536.369	79.25
536.583	96.25
536.797	97.25
537.011	72.25
537.225	80.25
537.44	73.25
537.654	79.25
537.868	78.25
538.082	88.25
538.296	78.25
538.51	77.25
538.724	88.25
538.938	94.25
539.153	93.25
539.367	85.25
539.581	90.25
539.795	86.25
540.009	92.25
540.222	96.25
540.436	91.25
540.65	67.25
540.864	88.25
541.078	83.25
541.292	81.25
541.506	88.25
541.72	94.25
541.934	86.25
542.147	90.25
542.361	80.25
542.575	91.25
542.789	92.25
543.002	89.25
543.216	87.25
543.43	94.25
543.644	90.25
543.857	81.25
544.071	91.25
544.285	83.25
544.498	89.25
544.712	90.25
544.925	75.25
545.139	81.25
545.352	91.25
545.566	77.25
545.779	92.25
545.993	86.25
546.206	91.25
546.42	78.25
546.633	80.25
546.847	88.25
547.06	83.25
547.274	81.25
547.487	84.25
547.7	100.25
547.914	92.25
548.127	75.25
548.34	82.25
548.554	73.25
548.767	83.25
548.98	97.25
549.193	95.25
549.407	88.25
549.62	93.25
549.833	88.25
550.046	81.25
550.259	90.25
550.473	103.25
550.686	107.25
550.899	87.25
551.112	75.25
551.325	71.25
551.538	88.25
551.751	84.25
551.964	94.25
552.177	93.25
552.39	91.25
552.603	96.25
552.816	86.25
553.029	91.25
553.242	87.25
553.455	83.25
553.667	93.25
553.88	97.25
554.093	81.25
554.306	91.25
554.519	79.25
554.732	95.25
554.944	84.25
555.157	85.25
555.37	91.25
555.583	88.25
555.795	87.25
556.008	99.25
556.221	81.25
556.433	61.25
556.646	85.25
556.859	97.25
557.071	77.25
557.284	98.25
557.496	90.25
557.709	89.25
557.921	84.25
558.134	100.25
558.346	92.25
558.559	91.25
558.771	79.25
558.984	78.25
559.196	101.25
559.409	80.25
559.621	85.25
559.833	90.25
560.046	91.25
560.258	88.25
560.47	89.25
560.683	100.25
560.895	108.25
561.107	96.25
561.32	87.25
561.532	81.25
561.744	99.25
561.956	100.25
562.168	93.25
562.381	80.25
562.593	87.25
562.805	91.25
563.017	95.25
563.229	77.25
563.441	95.25
563.653	79.25
563.865	83.25
564.077	81.25
564.289	95.25
564.501	85.25
564.713	89.25
564.925	97.25
565.137	90.25
565.349	92.25
565.561	96.25
565.773	93.25
565.985	93.25
566.197	84.25
566.408	98.25
566.62	93.25
566.832	96.25
567.044	92.25
567.255	95.25
567.467	88.25
567.679	91.25
567.891	77.25
568.102	84.25
568.314	92.25
568.526	95.25
568.737	103.25
568.949	93.25
569.161	95.25
569.372	103.25
569.584	82.25
569.795	79.25
570.007	89.25
570.218	76.25
570.43	75.25
570.641	72.25
570.853	83.25
571.064	74.25
571.276	77.25
571.487	75.25
571.698	97.25
571.91	95.25
572.121	92.25
572.333	78.25
572.544	91.25
572.755	83.25
572.966	81.25
573.178	84.25
573.389	79.25
573.6	73.25
573.811	87.25
574.023	83.25
574.234	79.25
574.445	89.25
574.656	84.25
574.867	76.25
575.078	100.25
575.289	91.25
575.501	99.25
575.712	92.25
575.923	79.25
576.134	81.25
576.345	79.25
576.556	95.25
576.767	93.25
576.978	95.25
577.188	89.25
577.399	80.25
577.61	91.25
577.821	82.25
578.032	80.25
578.243	76.25
578.454	87.25
578.665	84.25
578.875	75.25
579.086	92.25
579.297	102.25
579.508	78.25
579.718	87.25
579.929	87.25
580.14	87.25
580.35	79.25
580.561	85.25
580.772	99.25
580.982	89.25
581.193	70.25
581.403	89.25
581.614	86.25
581.825	95.25
582.035	90.25
582.246	79.25
582.456	93.25
582.667	95.25
582.877	87.25
583.087	96.25
583.298	90.25
583.508	75.25
583.719	89.25
583.929	94.25
584.139	93.25
584.35	99.25
584.56	95.25
584.77	85.25
584.981	92.25
585.191	87.25
585.401	80.25
585.611	100.25
585.821	99.25
586.032	92.25
586.242	80.25
586.452	87.25
586.662	80.25
586.872	79.25
587.082	81.25
587.292	92.25
587.502	88.25
587.713	88.25
587.923	87.25
588.133	95.25
588.343	99.25
588.553	79.25
588.762	104.25
588.972	195.25
589.182	496.25
589.392	266.25
589.602	214.25
589.812	393.25
590.022	181.25
590.232	91.25
590.441	90.25
590.651	79.25
590.861	96.25
591.071	92.25
591.281	87.25
591.49	89.25
591.7	94.25
591.91	93.25
592.119	93.25
592.329	79.25
592.539	85.25
592.748	100.25
592.958	60.25
593.167	86.25
593.377	83.25
593.587	89.25
593.796	96.25
594.006	75.25
594.215	81.25
594.424	81.25
594.634	90.25
594.843	77.25
595.053	83.25
595.262	79.25
595.472	87.25
595.681	99.25
595.89	97.25
596.1	94.25
596.309	87.25
596.518	82.25
596.727	85.25
596.937	101.25
597.146	86.25
597.355	92.25
597.564	87.25
597.774	90.25
597.983	86.25
598.192	83.25
598.401	93.25
598.61	90.25
598.819	80.25
599.028	87.25
599.237	80.25
599.446	83.25
599.655	87.25
599.864	83.25
600.073	98.25
600.282	106.25
600.491	92.25
600.7	90.25
600.909	76.25
601.118	86.25
601.327	92.25
601.536	91.25
601.745	77.25
601.953	94.25
602.162	89.25
602.371	88.25
602.58	78.25
602.789	92.25
602.997	99.25
603.206	100.25
603.415	100.25
603.623	99.25
603.832	91.25
604.041	79.25
604.249	76.25
604.458	83.25
604.666	85.25
604.875	73.25
605.084	86.25
605.292	77.25
605.501	84.25
605.709	96.25
605.918	96.25
606.126	100.25
606.334	85.25
606.543	82.25
606.751	91.25
606.96	81.25
607.168	83.25
607.376	85.25
607.585	91.25
607.793	93.25
608.001	89.25
608.21	76.25
608.418	79.25
608.626	96.25
608.834	88.25
609.043	86.25
609.251	72.25
609.459	81.25
609.667	80.25
609.875	75.25
610.083	77.25
610.291	87.25
610.499	88.25
610.707	92.25
610.916	85.25
611.124	91.25
611.332	101.25
611.54	84.25
611.748	77.25
611.955	98.25
612.163	71.25
612.371	77.25
612.579	88.25
612.787	96.25
612.995	86.25
613.203	98.25
613.411	88.25
613.618	72.25
613.826	83.25
614.034	94.25
614.242	96.25
614.449	80.25
614.657	81.25
614.865	84.25
615.072	80.25
615.28	88.25
615.488	86.25
615.695	86.25
615.903	90.25
616.111	82.25
616.318	85.25
616.526	89.25
616.733	87.25
616.941	83.25
617.148	93.25
617.356	87.25
617.563	74.25
617.771	82.25
617.978	88.25
618.185	87.25
618.393	83.25
618.6	81.25
618.807	92.25
619.015	90.25
619.222	85.25
619.429	91.25
619.637	81.25
619.844	88.25
620.051	74.25
620.258	94.25
620.466	88.25
620.673	90.25
620.88	82.25
621.087	72.25
621.294	87.25
621.501	75.25
621.708	81.25
621.915	86.25
622.122	92.25
622.329	81.25
622.536	89.25
622.743	95.25
622.95	83.25
623.157	94.25
623.364	88.25
623.571	80.25
623.778	87.25
623.985	87.25
624.192	79.25
624.399	80.25
624.606	105.25
624.812	85.25
625.019	87.25
625.226	81.25
625.433	100.25
625.639	91.25
625.846	87.25
626.053	92.25
626.259	93.25
626.466	80.25
626.673	89.25
626.879	93.25
627.086	85.25
627.293	85.25
627.499	78.25
627.706	87.25
627.912	84.25
628.119	89.25
628.325	92.25
628.532	90.25
628.738	82.25
628.945	86.25
629.151	86.25
629.357	75.25
629.564	84.25
629.77	74.25
629.976	71.25
630.183	74.25
630.389	72.25
630.595	85.25
630.802	87.25
631.008	84.25
631.214	87.25
631.42	90.25
631.627	84.25
631.833	81.25
632.039	95.25
632.245	87.25
632.451	96.25
632.657	83.25
632.863	93.25
633.069	76.25
633.275	87.25
633.481	82.25
633.688	83.25
633.893	93.25
634.099	95.25
634.305	93.25
634.511	95.25
634.717	84.25
634.923	84.25
635.129	77.25
635.335	94.25
635.541	81.25
635.747	95.25
635.952	86.25
636.158	79.25
636.364	78.25
636.57	75.25
636.775	80.25
636.981	83.25
637.187	85.25
637.392	74.25
637.598	75.25
637.804	88.25
638.009	76.25
638.215	81.25
638.421	86.25
638.626	77.25
638.832	87.25
639.037	85.25
639.243	103.25
639.448	82.25
639.654	89.25
639.859	79.25
640.065	86.25
640.27	100.25
640.475	78.25
640.681	85.25
640.886	101.25
641.091	87.25
641.297	93.25
641.502	95.25
641.707	100.25
641.913	95.25
642.118	77.25
642.323	86.25
642.528	92.25
642.733	96.25
642.939	80.25
643.144	94.25
643.349	79.25
643.554	85.25
643.759	72.25
643.964	73.25
644.169	79.25
644.374	84.25
644.579	91.25
644.784	80.25
644.989	77.25
645.194	82.25
645.399	91.25
645.604	91.25
645.809	75.25
646.014	86.25
646.219	95.25
646.423	91.25
646.628	93.25
646.833	80.25
647.038	85.25
647.243	89.25
647.447	85.25
647.652	92.25
647.857	66.25
648.062	85.25
648.266	81.25
648.471	83.25
648.676	81.25
648.88	77.25
649.085	93.25
649.289	81.25
649.494	99.25
649.698	88.25
649.903	77.25
650.107	80.25
650.312	78.25
650.516	85.25
650.721	85.25
650.925	91.25
651.13	81.25
651.334	88.25
651.539	80.25
651.743	81.25
651.947	96.25
652.152	99.25
652.356	82.25
652.56	84.25
652.764	84.25
652.969	91.25
653.173	79.25
653.377	74.25
653.581	84.25
653.785	93.25
653.99	83.25
654.194	93.25
654.398	97.25
654.602	81.25
654.806	73.25
655.01	76.25
655.214	96.25
655.418	82.25
655.622	88.25
655.826	83.25
656.03	69.25
656.234	101.25
656.438	75.25
656.642	84.25
656.846	70.25
657.049	76.25
657.253	86.25
657.457	93.25
657.661	79.25
657.865	94.25
658.068	66.25
658.272	91.25
658.476	88.25
658.68	82.25
658.883	91.25
659.087	77.25
659.291	90.25
659.494	87.25
659.698	72.25
659.901	80.25
660.105	93.25
660.309	78.25
660.512	71.25
660.716	85.25
660.919	79.25
661.123	93.25
661.326	82.25
661.53	71.25
661.733	94.25
661.936	85.25
662.14	82.25
662.343	88.25
662.546	78.25
662.75	79.25
662.953	81.25
663.156	88.25
663.36	68.25
663.563	66.25
663.766	75.25
663.969	65.25
664.173	93.25
664.376	65.25
664.579	80.25
664.782	91.25
664.985	76.25
665.188	88.25
665.391	76.25
665.594	89.25
665.797	90.25
666	87.25
666.203	64.25
666.406	75.25
666.609	96.25
666.812	102.25
667.015	77.25
667.218	87.25
667.421	74.25
667.624	84.25
667.827	82.25
668.03	69.25
668.232	93.25
668.435	81.25
668.638	95.25
668.841	72.25
669.043	89.25
669.246	80.25
669.449	87.25
669.651	88.25
669.854	76.25
670.057	78.25
670.259	76.25
670.462	76.25
670.665	82.25
670.867	68.25
671.07	94.25
671.272	89.25
671.475	94.25
671.677	92.25
671.88	90.25
672.082	87.25
672.284	82.25
672.487	78.25
672.689	85.25
672.892	89.25
