Data from Lead_HRD10591_00024.txt Node
Date: Tue Feb 17 14:19:20 EST 2026
User: Yrep
Spectrometer: HR+D1059
Trigger mode: 1
Integration Time (sec): 1.000000E-1
Scans to average: 1
Electric dark correction enabled: true
Nonlinearity correction enabled: false
Boxcar width: 0
XAxis mode: Wavelengths
Number of Pixels in Spectrum: 2048
>>>>>Begin Spectral Data<<<<<
223.165	-15.88
223.4	-15.88
223.635	-15.88
223.869	-8.88
224.104	-9.88
224.338	-11.88
224.573	-17.88
224.808	-13.88
225.042	-24.88
225.277	-13.88
225.511	-3.88
225.746	3.12
225.98	1.12
226.215	9.12
226.449	19.12
226.683	30.12
226.918	36.12
227.152	22.12
227.387	33.12
227.621	32.12
227.856	51.12
228.09	64.12
228.324	45.12
228.559	50.12
228.793	60.12
229.027	72.12
229.262	73.12
229.496	68.12
229.73	68.12
229.964	68.12
230.199	70.12
230.433	86.12
230.667	81.12
230.901	77.12
231.136	71.12
231.37	71.12
231.604	86.12
231.838	72.12
232.072	76.12
232.306	79.12
232.541	105.12
232.775	80.12
233.009	84.12
233.243	70.12
233.477	72.12
233.711	77.12
233.945	80.12
234.179	74.12
234.413	81.12
234.647	75.12
234.881	75.12
235.115	81.12
235.349	92.12
235.583	71.12
235.817	82.12
236.051	72.12
236.285	74.12
236.519	84.12
236.753	86.12
236.987	74.12
237.221	84.12
237.455	74.12
237.689	77.12
237.922	69.12
238.156	70.12
238.39	66.12
238.624	76.12
238.858	69.12
239.091	69.12
239.325	76.12
239.559	61.12
239.793	76.12
240.027	86.12
240.26	70.12
240.494	74.12
240.728	67.12
240.961	76.12
241.195	74.12
241.429	75.12
241.662	64.12
241.896	68.12
242.13	54.12
242.363	66.12
242.597	70.12
242.83	83.12
243.064	66.12
243.298	64.12
243.531	69.12
243.765	76.12
243.998	64.12
244.232	78.12
244.465	74.12
244.699	77.12
244.932	74.12
245.166	77.12
245.399	71.12
245.633	78.12
245.866	62.12
246.099	73.12
246.333	68.12
246.566	75.12
246.8	68.12
247.033	82.12
247.266	77.12
247.5	70.12
247.733	84.12
247.966	69.12
248.2	83.12
248.433	80.12
248.666	73.12
248.899	67.12
249.133	92.12
249.366	60.12
249.599	82.12
249.832	84.12
250.066	78.12
250.299	81.12
250.532	68.12
250.765	67.12
250.998	86.12
251.231	78.12
251.465	77.12
251.698	75.12
251.931	90.12
252.164	83.12
252.397	83.12
252.63	77.12
252.863	87.12
253.096	86.12
253.329	83.12
253.562	83.12
253.795	88.12
254.028	88.12
254.261	72.12
254.494	100.12
254.727	81.12
254.96	75.12
255.193	75.12
255.426	85.12
255.659	72.12
255.892	96.12
256.124	78.12
256.357	71.12
256.59	76.12
256.823	79.12
257.056	98.12
257.289	75.12
257.521	72.12
257.754	81.12
257.987	92.12
258.22	77.12
258.452	82.12
258.685	94.12
258.918	84.12
259.151	78.12
259.383	84.12
259.616	93.12
259.849	92.12
260.081	80.12
260.314	79.12
260.547	70.12
260.779	81.12
261.012	88.12
261.244	72.12
261.477	86.12
261.71	86.12
261.942	91.12
262.175	75.12
262.407	78.12
262.64	67.12
262.872	84.12
263.105	90.12
263.337	88.12
263.57	88.12
263.802	95.12
264.035	96.12
264.267	82.12
264.499	78.12
264.732	82.12
264.964	88.12
265.197	84.12
265.429	73.12
265.661	70.12
265.894	86.12
266.126	84.12
266.358	88.12
266.591	88.12
266.823	83.12
267.055	80.12
267.287	73.12
267.52	84.12
267.752	85.12
267.984	83.12
268.216	73.12
268.448	96.12
268.681	93.12
268.913	73.12
269.145	75.12
269.377	68.12
269.609	73.12
269.841	84.12
270.073	75.12
270.306	94.12
270.538	88.12
270.77	79.12
271.002	78.12
271.234	107.12
271.466	86.12
271.698	82.12
271.93	67.12
272.162	86.12
272.394	75.12
272.626	92.12
272.858	73.12
273.09	74.12
273.322	87.12
273.553	78.12
273.785	88.12
274.017	88.12
274.249	80.12
274.481	88.12
274.713	70.12
274.945	79.12
275.176	80.12
275.408	84.12
275.64	87.12
275.872	78.12
276.104	102.12
276.335	99.12
276.567	93.12
276.799	90.12
277.031	88.12
277.262	68.12
277.494	92.12
277.726	66.12
277.957	71.12
278.189	68.12
278.421	88.12
278.652	72.12
278.884	71.12
279.115	76.12
279.347	84.12
279.579	86.12
279.81	102.12
280.042	104.12
280.273	94.12
280.505	92.12
280.736	86.12
280.968	92.12
281.199	86.12
281.431	85.12
281.662	81.12
281.894	71.12
282.125	100.12
282.356	88.12
282.588	86.12
282.819	96.12
283.051	78.12
283.282	89.12
283.513	100.12
283.745	92.12
283.976	97.12
284.207	90.12
284.439	98.12
284.67	81.12
284.901	83.12
285.132	91.12
285.364	86.12
285.595	89.12
285.826	84.12
286.057	76.12
286.288	66.12
286.52	88.12
286.751	86.12
286.982	85.12
287.213	92.12
287.444	94.12
287.675	82.12
287.906	104.12
288.138	104.12
288.369	96.12
288.6	78.12
288.831	88.12
289.062	86.12
289.293	77.12
289.524	91.12
289.755	87.12
289.986	86.12
290.217	79.12
290.448	74.12
290.679	68.12
290.91	92.12
291.141	77.12
291.371	88.12
291.602	101.12
291.833	83.12
292.064	77.12
292.295	82.12
292.526	68.12
292.757	90.12
292.987	75.12
293.218	82.12
293.449	78.12
293.68	85.12
293.91	66.12
294.141	82.12
294.372	83.12
294.603	92.12
294.833	72.12
295.064	83.12
295.295	74.12
295.525	79.12
295.756	92.12
295.987	78.12
296.217	85.12
296.448	79.12
296.679	88.12
296.909	90.12
297.14	89.12
297.37	89.12
297.601	72.12
297.831	91.12
298.062	96.12
298.292	87.12
298.523	84.12
298.753	83.12
298.984	90.12
299.214	92.12
299.445	84.12
299.675	91.12
299.905	89.12
300.136	88.12
300.366	86.12
300.597	98.12
300.827	78.12
301.057	82.12
301.288	96.12
301.518	83.12
301.748	87.12
301.979	100.12
302.209	91.12
302.439	72.12
302.669	82.12
302.9	82.12
303.13	75.12
303.36	72.12
303.59	87.12
303.82	93.12
304.051	86.12
304.281	94.12
304.511	98.12
304.741	90.12
304.971	84.12
305.201	96.12
305.431	70.12
305.661	86.12
305.891	84.12
306.121	76.12
306.352	86.12
306.582	86.12
306.812	82.12
307.042	81.12
307.272	85.12
307.502	90.12
307.731	82.12
307.961	90.12
308.191	84.12
308.421	96.12
308.651	78.12
308.881	82.12
309.111	86.12
309.341	86.12
309.571	83.12
309.8	77.12
310.03	84.12
310.26	96.12
310.49	86.12
310.72	100.12
310.949	82.12
311.179	82.12
311.409	87.12
311.639	83.12
311.868	85.12
312.098	105.12
312.328	85.12
312.557	82.12
312.787	85.12
313.017	89.12
313.246	84.12
313.476	109.12
313.706	84.12
313.935	84.12
314.165	82.12
314.394	82.12
314.624	79.12
314.853	73.12
315.083	91.12
315.312	76.12
315.542	87.12
315.771	74.12
316.001	72.12
316.23	76.12
316.46	68.12
316.689	86.12
316.919	80.12
317.148	88.12
317.377	86.12
317.607	85.12
317.836	74.12
318.065	96.12
318.295	90.12
318.524	78.12
318.753	88.12
318.983	84.12
319.212	86.12
319.441	93.12
319.67	89.12
319.9	75.12
320.129	92.12
320.358	76.12
320.587	76.12
320.816	91.12
321.046	76.12
321.275	89.12
321.504	78.12
321.733	99.12
321.962	80.12
322.191	80.12
322.42	70.12
322.649	83.12
322.878	83.12
323.108	82.12
323.337	88.12
323.566	82.12
323.795	82.12
324.024	78.12
324.253	71.12
324.482	98.12
324.71	90.12
324.939	95.12
325.168	98.12
325.397	89.12
325.626	84.12
325.855	88.12
326.084	84.12
326.313	88.12
326.542	83.12
326.77	89.12
326.999	80.12
327.228	93.12
327.457	96.12
327.686	82.12
327.914	89.12
328.143	94.12
328.372	93.12
328.6	84.12
328.829	73.12
329.058	84.12
329.287	90.12
329.515	96.12
329.744	81.12
329.972	92.12
330.201	88.12
330.43	100.12
330.658	86.12
330.887	87.12
331.115	88.12
331.344	90.12
331.572	73.12
331.801	90.12
332.03	73.12
332.258	86.12
332.486	88.12
332.715	84.12
332.943	81.12
333.172	83.12
333.4	84.12
333.629	86.12
333.857	69.12
334.085	92.12
334.314	76.12
334.542	85.12
334.771	92.12
334.999	81.12
335.227	86.12
335.455	84.12
335.684	84.12
335.912	77.12
336.14	84.12
336.369	99.12
336.597	77.12
336.825	78.12
337.053	85.12
337.281	92.12
337.51	92.12
337.738	81.12
337.966	92.12
338.194	90.12
338.422	72.12
338.65	82.12
338.878	94.12
339.106	97.12
339.334	89.12
339.562	66.12
339.79	78.12
340.018	83.12
340.246	89.12
340.474	90.12
340.702	93.12
340.93	84.12
341.158	88.12
341.386	102.12
341.614	66.12
341.842	83.12
342.07	78.12
342.298	89.12
342.526	78.12
342.754	86.12
342.981	64.12
343.209	82.12
343.437	105.12
343.665	81.12
343.893	93.12
344.12	94.12
344.348	90.12
344.576	81.12
344.804	89.12
345.031	63.12
345.259	90.12
345.487	87.12
345.714	71.12
345.942	88.12
346.17	89.12
346.397	93.12
346.625	88.12
346.853	90.12
347.08	82.12
347.308	91.12
347.535	78.12
347.763	77.12
347.99	76.12
348.218	87.12
348.445	94.12
348.673	80.12
348.9	84.12
349.128	67.12
349.355	84.12
349.583	78.12
349.81	86.12
350.037	86.12
350.265	85.12
350.492	79.12
350.72	98.12
350.947	89.12
351.174	91.12
351.402	85.12
351.629	92.12
351.856	86.12
352.083	88.12
352.311	95.12
352.538	78.12
352.765	92.12
352.992	94.12
353.22	74.12
353.447	77.12
353.674	69.12
353.901	66.12
354.128	96.12
354.355	89.12
354.583	61.12
354.81	84.12
355.037	77.12
355.264	90.12
355.491	74.12
355.718	82.12
355.945	77.12
356.172	85.12
356.399	89.12
356.626	93.12
356.853	88.12
357.08	113.12
357.307	107.12
357.534	115.12
357.761	93.12
357.988	94.12
358.215	75.12
358.441	76.12
358.668	102.12
358.895	83.12
359.122	81.12
359.349	79.12
359.576	83.12
359.802	84.12
360.029	89.12
360.256	78.12
360.483	88.12
360.709	86.12
360.936	87.12
361.163	90.12
361.39	77.12
361.616	85.12
361.843	85.12
362.07	89.12
362.296	92.12
362.523	79.12
362.749	87.12
362.976	92.12
363.203	112.12
363.429	96.12
363.656	108.12
363.882	140.12
364.109	147.12
364.335	114.12
364.562	90.12
364.788	91.12
365.015	94.12
365.241	96.12
365.468	88.12
365.694	70.12
365.92	79.12
366.147	70.12
366.373	92.12
366.599	97.12
366.826	91.12
367.052	112.12
367.278	103.12
367.505	99.12
367.731	103.12
367.957	108.12
368.184	160.12
368.41	176.12
368.636	148.12
368.862	90.12
369.089	86.12
369.315	91.12
369.541	79.12
369.767	92.12
369.993	79.12
370.219	100.12
370.445	79.12
370.672	79.12
370.898	79.12
371.124	76.12
371.35	73.12
371.576	83.12
371.802	84.12
372.028	95.12
372.254	86.12
372.48	97.12
372.706	99.12
372.932	89.12
373.158	89.12
373.384	83.12
373.61	104.12
373.835	112.12
374.061	109.12
374.287	95.12
374.513	87.12
374.739	78.12
374.965	73.12
375.191	84.12
375.416	84.12
375.642	82.12
375.868	76.12
376.094	77.12
376.319	90.12
376.545	79.12
376.771	84.12
376.997	86.12
377.222	79.12
377.448	78.12
377.674	69.12
377.899	78.12
378.125	80.12
378.35	82.12
378.576	86.12
378.802	91.12
379.027	81.12
379.253	98.12
379.478	86.12
379.704	89.12
379.929	85.12
380.155	81.12
380.38	88.12
380.606	89.12
380.831	80.12
381.057	91.12
381.282	89.12
381.507	78.12
381.733	74.12
381.958	78.12
382.184	83.12
382.409	83.12
382.634	91.12
382.86	85.12
383.085	86.12
383.31	94.12
383.535	86.12
383.761	84.12
383.986	79.12
384.211	72.12
384.436	92.12
384.662	85.12
384.887	75.12
385.112	84.12
385.337	86.12
385.562	82.12
385.787	94.12
386.013	102.12
386.238	79.12
386.463	78.12
386.688	88.12
386.913	74.12
387.138	82.12
387.363	92.12
387.588	92.12
387.813	83.12
388.038	77.12
388.263	73.12
388.488	83.12
388.713	85.12
388.938	80.12
389.163	94.12
389.387	87.12
389.612	84.12
389.837	82.12
390.062	70.12
390.287	95.12
390.512	89.12
390.736	93.12
390.961	85.12
391.186	93.12
391.411	101.12
391.636	87.12
391.86	86.12
392.085	87.12
392.31	77.12
392.534	91.12
392.759	80.12
392.984	89.12
393.208	117.12
393.433	122.12
393.658	107.12
393.882	76.12
394.107	74.12
394.331	106.12
394.556	100.12
394.78	88.12
395.005	92.12
395.229	81.12
395.454	82.12
395.678	67.12
395.903	102.12
396.127	119.12
396.352	106.12
396.576	102.12
396.801	125.12
397.025	106.12
397.249	98.12
397.474	76.12
397.698	85.12
397.922	101.12
398.147	90.12
398.371	96.12
398.595	87.12
398.82	92.12
399.044	79.12
399.268	77.12
399.492	98.12
399.717	79.12
399.941	71.12
400.165	78.12
400.389	73.12
400.613	86.12
400.837	92.12
401.062	88.12
401.286	91.12
401.51	74.12
401.734	72.12
401.958	98.12
402.182	98.12
402.406	84.12
402.63	89.12
402.854	86.12
403.078	86.12
403.302	83.12
403.526	82.12
403.75	76.12
403.974	88.12
404.198	88.12
404.422	81.12
404.645	86.12
404.869	84.12
405.093	101.12
405.317	121.12
405.541	172.12
405.765	256.12
405.988	267.12
406.212	142.12
406.436	104.12
406.66	82.12
406.883	92.12
407.107	76.12
407.331	90.12
407.555	104.12
407.778	87.12
408.002	88.12
408.226	86.12
408.449	84.12
408.673	85.12
408.896	90.12
409.12	85.12
409.344	101.12
409.567	87.12
409.791	86.12
410.014	89.12
410.238	77.12
410.461	86.12
410.685	86.12
410.908	75.12
411.132	71.12
411.355	74.12
411.578	82.12
411.802	85.12
412.025	88.12
412.249	83.12
412.472	92.12
412.695	75.12
412.919	84.12
413.142	84.12
413.365	87.12
413.589	88.12
413.812	81.12
414.035	89.12
414.258	73.12
414.482	84.12
414.705	91.12
414.928	69.12
415.151	86.12
415.374	104.12
415.597	82.12
415.821	81.12
416.044	84.12
416.267	90.12
416.49	82.12
416.713	87.12
416.936	92.12
417.159	80.12
417.382	83.12
417.605	75.12
417.828	79.12
418.051	93.12
418.274	91.12
418.497	90.12
418.72	83.12
418.943	80.12
419.166	77.12
419.389	94.12
419.611	88.12
419.834	73.12
420.057	69.12
420.28	89.12
420.503	79.12
420.726	93.12
420.948	76.12
421.171	80.12
421.394	84.12
421.617	76.12
421.839	80.12
422.062	77.12
422.285	81.12
422.507	97.12
422.73	107.12
422.953	113.12
423.175	82.12
423.398	85.12
423.621	68.12
423.843	81.12
424.066	83.12
424.288	78.12
424.511	75.12
424.733	86.12
424.956	68.12
425.178	73.12
425.401	90.12
425.623	73.12
425.846	79.12
426.068	92.12
426.291	78.12
426.513	82.12
426.735	87.12
426.958	83.12
427.18	90.12
427.402	87.12
427.625	98.12
427.847	76.12
428.069	91.12
428.292	96.12
428.514	92.12
428.736	91.12
428.958	79.12
429.181	94.12
429.403	87.12
429.625	79.12
429.847	80.12
430.069	72.12
430.292	99.12
430.514	92.12
430.736	85.12
430.958	84.12
431.18	74.12
431.402	76.12
431.624	75.12
431.846	78.12
432.068	86.12
432.29	77.12
432.512	74.12
432.734	75.12
432.956	88.12
433.178	92.12
433.4	89.12
433.622	71.12
433.844	86.12
434.066	77.12
434.287	81.12
434.509	74.12
434.731	82.12
434.953	79.12
435.175	71.12
435.397	97.12
435.618	84.12
435.84	85.12
436.062	89.12
436.284	77.12
436.505	81.12
436.727	73.12
436.949	88.12
437.17	77.12
437.392	84.12
437.614	82.12
437.835	74.12
438.057	82.12
438.278	72.12
438.5	82.12
438.721	70.12
438.943	74.12
439.165	82.12
439.386	84.12
439.608	75.12
439.829	80.12
440.05	80.12
440.272	74.12
440.493	76.12
440.715	84.12
440.936	90.12
441.158	84.12
441.379	72.12
441.6	95.12
441.822	75.12
442.043	91.12
442.264	86.12
442.486	89.12
442.707	98.12
442.928	68.12
443.149	66.12
443.371	90.12
443.592	78.12
443.813	79.12
444.034	74.12
444.255	82.12
444.476	81.12
444.698	79.12
444.919	83.12
445.14	144.12
445.361	125.12
445.582	93.12
445.803	91.12
446.024	88.12
446.245	76.12
446.466	85.12
446.687	78.12
446.908	76.12
447.129	81.12
447.35	78.12
447.571	78.12
447.792	65.12
448.013	78.12
448.234	85.12
448.455	71.12
448.675	82.12
448.896	84.12
449.117	88.12
449.338	77.12
449.559	88.12
449.779	88.12
450	92.12
450.221	86.12
450.442	85.12
450.662	86.12
450.883	78.12
451.104	76.12
451.324	87.12
451.545	80.12
451.766	78.12
451.986	82.12
452.207	80.12
452.428	75.12
452.648	74.12
452.869	86.12
453.089	88.12
453.31	84.12
453.53	83.12
453.751	84.12
453.971	84.12
454.192	85.12
454.412	74.12
454.633	87.12
454.853	91.12
455.073	83.12
455.294	73.12
455.514	79.12
455.734	74.12
455.955	82.12
456.175	91.12
456.395	83.12
456.616	96.12
456.836	90.12
457.056	88.12
457.276	67.12
457.497	76.12
457.717	92.12
457.937	68.12
458.157	77.12
458.377	87.12
458.598	86.12
458.818	70.12
459.038	90.12
459.258	89.12
459.478	84.12
459.698	80.12
459.918	96.12
460.138	77.12
460.358	71.12
460.578	80.12
460.798	92.12
461.018	79.12
461.238	92.12
461.458	69.12
461.678	88.12
461.898	84.12
462.118	82.12
462.338	91.12
462.558	74.12
462.777	77.12
462.997	76.12
463.217	83.12
463.437	82.12
463.657	74.12
463.876	92.12
464.096	90.12
464.316	91.12
464.536	88.12
464.755	73.12
464.975	97.12
465.195	79.12
465.414	92.12
465.634	83.12
465.854	91.12
466.073	89.12
466.293	88.12
466.512	86.12
466.732	90.12
466.951	87.12
467.171	75.12
467.391	96.12
467.61	84.12
467.829	83.12
468.049	84.12
468.268	85.12
468.488	76.12
468.707	81.12
468.927	75.12
469.146	88.12
469.365	73.12
469.585	82.12
469.804	93.12
470.023	87.12
470.243	80.12
470.462	81.12
470.681	66.12
470.901	77.12
471.12	79.12
471.339	86.12
471.558	89.12
471.777	72.12
471.997	85.12
472.216	90.12
472.435	86.12
472.654	89.12
472.873	96.12
473.092	78.12
473.311	84.12
473.53	76.12
473.749	76.12
473.968	91.12
474.187	74.12
474.406	80.12
474.625	68.12
474.844	93.12
475.063	92.12
475.282	100.12
475.501	81.12
475.72	84.12
475.939	92.12
476.158	79.12
476.377	74.12
476.596	80.12
476.814	78.12
477.033	88.12
477.252	85.12
477.471	84.12
477.69	79.12
477.908	81.12
478.127	99.12
478.346	80.12
478.564	75.12
478.783	78.12
479.002	78.12
479.22	71.12
479.439	65.12
479.658	76.12
479.876	82.12
480.095	91.12
480.313	87.12
480.532	88.12
480.751	81.12
480.969	82.12
481.188	94.12
481.406	83.12
481.624	88.12
481.843	99.12
482.061	78.12
482.28	90.12
482.498	108.12
482.717	97.12
482.935	84.12
483.153	80.12
483.372	81.12
483.59	83.12
483.808	89.12
484.027	81.12
484.245	86.12
484.463	79.12
484.681	88.12
484.9	90.12
485.118	85.12
485.336	73.12
485.554	82.12
485.772	94.12
485.99	86.12
486.209	96.12
486.427	88.12
486.645	73.12
486.863	68.12
487.081	73.12
487.299	87.12
487.517	85.12
487.735	84.12
487.953	84.12
488.171	92.12
488.389	81.12
488.607	87.12
488.825	64.12
489.043	78.12
489.261	77.12
489.479	79.12
489.696	82.12
489.914	98.12
490.132	96.12
490.35	84.12
490.568	94.12
490.786	72.12
491.003	79.12
491.221	79.12
491.439	79.12
491.657	85.12
491.874	80.12
492.092	86.12
492.31	89.12
492.527	93.12
492.745	79.12
492.963	78.12
493.18	86.12
493.398	73.12
493.615	85.12
493.833	80.12
494.05	70.12
494.268	79.12
494.485	89.12
494.703	73.12
494.92	99.12
495.138	87.12
495.355	91.12
495.573	83.12
495.79	84.12
496.008	85.12
496.225	84.12
496.442	93.12
496.66	93.12
496.877	90.12
497.094	92.12
497.312	94.12
497.529	78.12
497.746	85.12
497.963	90.12
498.181	91.12
498.398	80.12
498.615	73.12
498.832	72.12
499.049	79.12
499.267	90.12
499.484	86.12
499.701	87.12
499.918	88.12
500.135	96.12
500.352	96.12
500.569	86.12
500.786	85.12
501.003	83.12
501.22	65.12
501.437	86.12
501.654	79.12
501.871	83.12
502.088	75.12
502.305	74.12
502.522	78.12
502.739	83.12
502.956	93.12
503.172	87.12
503.389	85.12
503.606	76.12
503.823	93.12
504.04	96.12
504.256	102.12
504.473	90.12
504.69	88.12
504.907	99.12
505.123	82.12
505.34	82.12
505.557	97.12
505.773	78.12
505.99	82.12
506.207	100.12
506.423	76.12
506.64	88.12
506.856	85.12
507.073	76.12
507.289	91.12
507.506	78.12
507.722	84.12
507.939	87.12
508.155	89.12
508.372	79.12
508.588	94.12
508.805	79.12
509.021	75.12
509.238	93.12
509.454	70.12
509.67	76.12
509.887	94.12
510.103	85.12
510.319	91.12
510.536	89.12
510.752	96.12
510.968	89.12
511.184	60.12
511.401	84.12
511.617	88.12
511.833	77.12
512.049	85.12
512.265	89.12
512.481	77.12
512.698	88.12
512.914	83.12
513.13	99.12
513.346	79.12
513.562	73.12
513.778	67.12
513.994	63.12
514.21	64.12
514.426	74.12
514.642	85.12
514.858	78.12
515.074	81.12
515.29	93.12
515.506	93.12
515.721	97.12
515.937	78.12
516.153	72.12
516.369	80.12
516.585	82.12
516.801	81.12
517.016	88.12
517.232	84.12
517.448	90.12
517.664	96.12
517.879	86.12
518.095	77.12
518.311	101.12
518.527	83.12
518.742	99.12
518.958	78.12
519.173	82.12
519.389	85.12
519.605	90.12
519.82	89.12
520.036	80.12
520.251	92.12
520.467	91.12
520.682	88.12
520.898	88.12
521.113	70.12
521.329	89.12
521.544	93.12
521.76	67.12
521.975	73.12
522.19	102.12
522.406	85.12
522.621	84.12
522.836	84.12
523.052	91.12
523.267	106.12
523.482	89.12
523.698	95.12
523.913	83.12
524.128	80.12
524.343	83.12
524.559	95.12
524.774	83.12
524.989	77.12
525.204	88.12
525.419	92.12
525.634	72.12
525.849	78.12
526.064	86.12
526.28	80.12
526.495	82.12
526.71	90.12
526.925	76.12
527.14	89.12
527.355	109.12
527.57	89.12
527.785	77.12
527.999	78.12
528.214	74.12
528.429	83.12
528.644	85.12
528.859	101.12
529.074	97.12
529.289	101.12
529.503	99.12
529.718	89.12
529.933	83.12
530.148	75.12
530.363	88.12
530.577	95.12
530.792	80.12
531.007	83.12
531.221	97.12
531.436	75.12
531.651	80.12
531.865	88.12
532.08	81.12
532.295	92.12
532.509	74.12
532.724	77.12
532.938	77.12
533.153	71.12
533.367	74.12
533.582	87.12
533.796	94.12
534.011	69.12
534.225	72.12
534.44	94.12
534.654	93.12
534.868	77.12
535.083	93.12
535.297	97.12
535.511	90.12
535.726	86.12
535.94	86.12
536.154	73.12
536.369	70.12
536.583	78.12
536.797	87.12
537.011	84.12
537.225	93.12
537.44	89.12
537.654	89.12
537.868	67.12
538.082	76.12
538.296	93.12
538.51	93.12
538.724	92.12
538.938	84.12
539.153	80.12
539.367	92.12
539.581	90.12
539.795	84.12
540.009	78.12
540.222	92.12
540.436	92.12
540.65	79.12
540.864	76.12
541.078	84.12
541.292	90.12
541.506	84.12
541.72	75.12
541.934	91.12
542.147	97.12
542.361	86.12
542.575	84.12
542.789	82.12
543.002	79.12
543.216	88.12
543.43	87.12
543.644	95.12
543.857	77.12
544.071	82.12
544.285	86.12
544.498	97.12
544.712	80.12
544.925	94.12
545.139	80.12
545.352	80.12
545.566	100.12
545.779	75.12
545.993	90.12
546.206	92.12
546.42	96.12
546.633	78.12
546.847	96.12
547.06	97.12
547.274	93.12
547.487	77.12
547.7	87.12
547.914	82.12
548.127	79.12
548.34	71.12
548.554	87.12
548.767	88.12
548.98	76.12
549.193	82.12
549.407	89.12
549.62	86.12
549.833	84.12
550.046	94.12
550.259	84.12
550.473	98.12
550.686	88.12
550.899	87.12
551.112	100.12
551.325	87.12
551.538	77.12
551.751	89.12
551.964	94.12
552.177	78.12
552.39	76.12
552.603	77.12
552.816	84.12
553.029	76.12
553.242	63.12
553.455	79.12
553.667	90.12
553.88	84.12
554.093	82.12
554.306	89.12
554.519	89.12
554.732	97.12
554.944	97.12
555.157	98.12
555.37	87.12
555.583	85.12
555.795	81.12
556.008	88.12
556.221	84.12
556.433	94.12
556.646	92.12
556.859	83.12
557.071	78.12
557.284	87.12
557.496	93.12
557.709	86.12
557.921	90.12
558.134	79.12
558.346	94.12
558.559	86.12
558.771	77.12
558.984	84.12
559.196	76.12
559.409	83.12
559.621	87.12
559.833	83.12
560.046	98.12
560.258	88.12
560.47	88.12
560.683	92.12
560.895	86.12
561.107	88.12
561.32	87.12
561.532	87.12
561.744	76.12
561.956	91.12
562.168	73.12
562.381	92.12
562.593	91.12
562.805	80.12
563.017	68.12
563.229	76.12
563.441	78.12
563.653	98.12
563.865	76.12
564.077	76.12
564.289	86.12
564.501	85.12
564.713	86.12
564.925	102.12
565.137	91.12
565.349	97.12
565.561	78.12
565.773	98.12
565.985	81.12
566.197	85.12
566.408	91.12
566.62	75.12
566.832	93.12
567.044	104.12
567.255	78.12
567.467	76.12
567.679	92.12
567.891	79.12
568.102	64.12
568.314	98.12
568.526	93.12
568.737	80.12
568.949	95.12
569.161	82.12
569.372	84.12
569.584	79.12
569.795	76.12
570.007	87.12
570.218	92.12
570.43	92.12
570.641	89.12
570.853	77.12
571.064	80.12
571.276	77.12
571.487	88.12
571.698	78.12
571.91	79.12
572.121	78.12
572.333	102.12
572.544	75.12
572.755	75.12
572.966	97.12
573.178	86.12
573.389	94.12
573.6	85.12
573.811	83.12
574.023	87.12
574.234	79.12
574.445	75.12
574.656	62.12
574.867	76.12
575.078	78.12
575.289	89.12
575.501	77.12
575.712	91.12
575.923	100.12
576.134	90.12
576.345	78.12
576.556	76.12
576.767	91.12
576.978	74.12
577.188	96.12
577.399	88.12
577.61	85.12
577.821	73.12
578.032	94.12
578.243	81.12
578.454	72.12
578.665	90.12
578.875	80.12
579.086	84.12
579.297	90.12
579.508	78.12
579.718	83.12
579.929	96.12
580.14	85.12
580.35	67.12
580.561	97.12
580.772	90.12
580.982	79.12
581.193	75.12
581.403	85.12
581.614	91.12
581.825	76.12
582.035	90.12
582.246	92.12
582.456	80.12
582.667	80.12
582.877	100.12
583.087	92.12
583.298	76.12
583.508	83.12
583.719	88.12
583.929	79.12
584.139	78.12
584.35	86.12
584.56	74.12
584.77	88.12
584.981	90.12
585.191	84.12
585.401	81.12
585.611	90.12
585.821	85.12
586.032	84.12
586.242	80.12
586.452	88.12
586.662	79.12
586.872	86.12
587.082	79.12
587.292	85.12
587.502	98.12
587.713	84.12
587.923	77.12
588.133	88.12
588.343	73.12
588.553	89.12
588.762	113.12
588.972	162.12
589.182	372.12
589.392	234.12
589.602	184.12
589.812	314.12
590.022	170.12
590.232	108.12
590.441	100.12
590.651	95.12
590.861	84.12
591.071	84.12
591.281	80.12
591.49	97.12
591.7	85.12
591.91	93.12
592.119	79.12
592.329	76.12
592.539	88.12
592.748	87.12
592.958	77.12
593.167	93.12
593.377	79.12
593.587	90.12
593.796	91.12
594.006	92.12
594.215	86.12
594.424	72.12
594.634	85.12
594.843	80.12
595.053	82.12
595.262	84.12
595.472	97.12
595.681	92.12
595.89	95.12
596.1	82.12
596.309	85.12
596.518	84.12
596.727	84.12
596.937	73.12
597.146	76.12
597.355	82.12
597.564	70.12
597.774	92.12
597.983	91.12
598.192	85.12
598.401	81.12
598.61	88.12
598.819	79.12
599.028	72.12
599.237	91.12
599.446	100.12
599.655	82.12
599.864	90.12
600.073	74.12
600.282	87.12
600.491	97.12
600.7	89.12
600.909	93.12
601.118	94.12
601.327	75.12
601.536	77.12
601.745	91.12
601.953	88.12
602.162	84.12
602.371	82.12
602.58	87.12
602.789	86.12
602.997	98.12
603.206	84.12
603.415	91.12
603.623	84.12
603.832	82.12
604.041	72.12
604.249	77.12
604.458	103.12
604.666	83.12
604.875	102.12
605.084	93.12
605.292	89.12
605.501	84.12
605.709	92.12
605.918	86.12
606.126	87.12
606.334	95.12
606.543	86.12
606.751	84.12
606.96	85.12
607.168	95.12
607.376	80.12
607.585	86.12
607.793	79.12
608.001	80.12
608.21	79.12
608.418	84.12
608.626	94.12
608.834	85.12
609.043	78.12
609.251	74.12
609.459	80.12
609.667	70.12
609.875	87.12
610.083	86.12
610.291	78.12
610.499	81.12
610.707	89.12
610.916	82.12
611.124	78.12
611.332	75.12
611.54	92.12
611.748	82.12
611.955	87.12
612.163	90.12
612.371	82.12
612.579	83.12
612.787	83.12
612.995	76.12
613.203	84.12
613.411	84.12
613.618	87.12
613.826	92.12
614.034	86.12
614.242	77.12
614.449	78.12
614.657	66.12
614.865	72.12
615.072	87.12
615.28	84.12
615.488	88.12
615.695	93.12
615.903	89.12
616.111	86.12
616.318	81.12
616.526	92.12
616.733	81.12
616.941	74.12
617.148	85.12
617.356	84.12
617.563	76.12
617.771	85.12
617.978	86.12
618.185	87.12
618.393	82.12
618.6	84.12
618.807	77.12
619.015	93.12
619.222	91.12
619.429	88.12
619.637	88.12
619.844	82.12
620.051	93.12
620.258	75.12
620.466	77.12
620.673	87.12
620.88	88.12
621.087	84.12
621.294	80.12
621.501	93.12
621.708	89.12
621.915	80.12
622.122	82.12
622.329	93.12
622.536	85.12
622.743	90.12
622.95	99.12
623.157	76.12
623.364	72.12
623.571	76.12
623.778	73.12
623.985	88.12
624.192	102.12
624.399	93.12
624.606	80.12
624.812	89.12
625.019	79.12
625.226	86.12
625.433	84.12
625.639	85.12
625.846	68.12
626.053	80.12
626.259	78.12
626.466	84.12
626.673	83.12
626.879	94.12
627.086	82.12
627.293	83.12
627.499	63.12
627.706	85.12
627.912	90.12
628.119	92.12
628.325	91.12
628.532	83.12
628.738	74.12
628.945	71.12
629.151	79.12
629.357	85.12
629.564	85.12
629.77	91.12
629.976	93.12
630.183	90.12
630.389	91.12
630.595	98.12
630.802	78.12
631.008	77.12
631.214	77.12
631.42	83.12
631.627	80.12
631.833	96.12
632.039	91.12
632.245	85.12
632.451	84.12
632.657	88.12
632.863	84.12
633.069	91.12
633.275	90.12
633.481	68.12
633.688	76.12
633.893	87.12
634.099	75.12
634.305	88.12
634.511	84.12
634.717	77.12
634.923	84.12
635.129	85.12
635.335	84.12
635.541	92.12
635.747	80.12
635.952	98.12
636.158	71.12
636.364	77.12
636.57	83.12
636.775	76.12
636.981	72.12
637.187	89.12
637.392	72.12
637.598	95.12
637.804	88.12
638.009	78.12
638.215	68.12
638.421	92.12
638.626	92.12
638.832	85.12
639.037	80.12
639.243	94.12
639.448	80.12
639.654	79.12
639.859	102.12
640.065	80.12
640.27	97.12
640.475	86.12
640.681	87.12
640.886	75.12
641.091	73.12
641.297	92.12
641.502	86.12
641.707	84.12
641.913	93.12
642.118	91.12
642.323	80.12
642.528	84.12
642.733	92.12
642.939	73.12
643.144	76.12
643.349	62.12
643.554	80.12
643.759	92.12
643.964	84.12
644.169	85.12
644.374	93.12
644.579	82.12
644.784	77.12
644.989	90.12
645.194	87.12
645.399	85.12
645.604	70.12
645.809	74.12
646.014	75.12
646.219	76.12
646.423	85.12
646.628	86.12
646.833	84.12
647.038	80.12
647.243	79.12
647.447	80.12
647.652	90.12
647.857	84.12
648.062	76.12
648.266	70.12
648.471	78.12
648.676	85.12
648.88	81.12
649.085	81.12
649.289	74.12
649.494	82.12
649.698	88.12
649.903	86.12
650.107	93.12
650.312	77.12
650.516	92.12
650.721	79.12
650.925	87.12
651.13	69.12
651.334	79.12
651.539	72.12
651.743	94.12
651.947	88.12
652.152	85.12
652.356	84.12
652.56	88.12
652.764	100.12
652.969	88.12
653.173	87.12
653.377	94.12
653.581	84.12
653.785	85.12
653.99	94.12
654.194	89.12
654.398	77.12
654.602	84.12
654.806	91.12
655.01	86.12
655.214	84.12
655.418	83.12
655.622	77.12
655.826	70.12
656.03	82.12
656.234	86.12
656.438	83.12
656.642	75.12
656.846	84.12
657.049	78.12
657.253	94.12
657.457	94.12
657.661	71.12
657.865	76.12
658.068	90.12
658.272	68.12
658.476	84.12
658.68	78.12
658.883	88.12
659.087	97.12
659.291	67.12
659.494	80.12
659.698	76.12
659.901	77.12
660.105	92.12
660.309	78.12
660.512	82.12
660.716	84.12
660.919	85.12
661.123	81.12
661.326	84.12
661.53	82.12
661.733	84.12
661.936	87.12
662.14	76.12
662.343	93.12
662.546	72.12
662.75	82.12
662.953	92.12
663.156	89.12
663.36	82.12
663.563	89.12
663.766	90.12
663.969	73.12
664.173	87.12
664.376	82.12
664.579	88.12
664.782	72.12
664.985	88.12
665.188	78.12
665.391	80.12
665.594	87.12
665.797	88.12
666	74.12
666.203	74.12
666.406	85.12
666.609	78.12
666.812	86.12
667.015	90.12
667.218	77.12
667.421	73.12
667.624	94.12
667.827	78.12
668.03	90.12
668.232	84.12
668.435	68.12
668.638	59.12
668.841	78.12
669.043	73.12
669.246	97.12
669.449	75.12
669.651	84.12
669.854	82.12
670.057	91.12
670.259	88.12
670.462	91.12
670.665	74.12
670.867	76.12
671.07	91.12
671.272	91.12
671.475	89.12
671.677	84.12
671.88	82.12
672.082	74.12
672.284	84.12
672.487	84.12
672.689	86.12
672.892	84.12
