Data from Lead_HRD10591_00007.txt Node
Date: Tue Feb 17 14:19:15 EST 2026
User: Yrep
Spectrometer: HR+D1059
Trigger mode: 1
Integration Time (sec): 1.000000E-1
Scans to average: 1
Electric dark correction enabled: true
Nonlinearity correction enabled: false
Boxcar width: 0
XAxis mode: Wavelengths
Number of Pixels in Spectrum: 2048
>>>>>Begin Spectral Data<<<<<
223.165	-22.69
223.4	-22.69
223.635	-22.69
223.869	-15.69
224.104	-21.69
224.338	-22.69
224.573	-11.69
224.808	0.31
225.042	-21.69
225.277	10.31
225.511	4.31
225.746	9.31
225.98	14.31
226.215	5.31
226.449	12.31
226.683	20.31
226.918	18.31
227.152	21.31
227.387	35.31
227.621	40.31
227.856	40.31
228.09	46.31
228.324	42.31
228.559	60.31
228.793	57.31
229.027	69.31
229.262	58.31
229.496	62.31
229.73	70.31
229.964	71.31
230.199	79.31
230.433	68.31
230.667	80.31
230.901	72.31
231.136	91.31
231.37	88.31
231.604	75.31
231.838	74.31
232.072	83.31
232.306	88.31
232.541	78.31
232.775	77.31
233.009	87.31
233.243	77.31
233.477	77.31
233.711	84.31
233.945	88.31
234.179	67.31
234.413	58.31
234.647	75.31
234.881	90.31
235.115	75.31
235.349	76.31
235.583	82.31
235.817	83.31
236.051	76.31
236.285	70.31
236.519	79.31
236.753	87.31
236.987	73.31
237.221	83.31
237.455	72.31
237.689	81.31
237.922	77.31
238.156	64.31
238.39	74.31
238.624	73.31
238.858	78.31
239.091	76.31
239.325	76.31
239.559	67.31
239.793	78.31
240.027	71.31
240.26	71.31
240.494	78.31
240.728	77.31
240.961	69.31
241.195	86.31
241.429	90.31
241.662	77.31
241.896	68.31
242.13	76.31
242.363	75.31
242.597	83.31
242.83	86.31
243.064	79.31
243.298	74.31
243.531	77.31
243.765	66.31
243.998	85.31
244.232	71.31
244.465	76.31
244.699	87.31
244.932	65.31
245.166	64.31
245.399	69.31
245.633	77.31
245.866	70.31
246.099	75.31
246.333	74.31
246.566	82.31
246.8	81.31
247.033	65.31
247.266	82.31
247.5	77.31
247.733	92.31
247.966	82.31
248.2	86.31
248.433	69.31
248.666	85.31
248.899	81.31
249.133	88.31
249.366	80.31
249.599	63.31
249.832	82.31
250.066	90.31
250.299	83.31
250.532	76.31
250.765	74.31
250.998	84.31
251.231	68.31
251.465	84.31
251.698	78.31
251.931	93.31
252.164	82.31
252.397	90.31
252.63	88.31
252.863	67.31
253.096	78.31
253.329	89.31
253.562	70.31
253.795	92.31
254.028	85.31
254.261	80.31
254.494	69.31
254.727	81.31
254.96	87.31
255.193	76.31
255.426	79.31
255.659	65.31
255.892	85.31
256.124	84.31
256.357	86.31
256.59	78.31
256.823	78.31
257.056	82.31
257.289	94.31
257.521	92.31
257.754	85.31
257.987	98.31
258.22	78.31
258.452	92.31
258.685	76.31
258.918	76.31
259.151	89.31
259.383	96.31
259.616	98.31
259.849	62.31
260.081	74.31
260.314	74.31
260.547	76.31
260.779	86.31
261.012	94.31
261.244	91.31
261.477	105.31
261.71	101.31
261.942	85.31
262.175	93.31
262.407	90.31
262.64	82.31
262.872	80.31
263.105	77.31
263.337	82.31
263.57	72.31
263.802	86.31
264.035	78.31
264.267	80.31
264.499	89.31
264.732	83.31
264.964	94.31
265.197	88.31
265.429	93.31
265.661	79.31
265.894	89.31
266.126	87.31
266.358	91.31
266.591	99.31
266.823	78.31
267.055	77.31
267.287	77.31
267.52	77.31
267.752	79.31
267.984	88.31
268.216	90.31
268.448	78.31
268.681	72.31
268.913	72.31
269.145	82.31
269.377	78.31
269.609	84.31
269.841	86.31
270.073	75.31
270.306	88.31
270.538	88.31
270.77	83.31
271.002	88.31
271.234	73.31
271.466	90.31
271.698	84.31
271.93	71.31
272.162	76.31
272.394	102.31
272.626	82.31
272.858	91.31
273.09	95.31
273.322	84.31
273.553	90.31
273.785	77.31
274.017	92.31
274.249	82.31
274.481	83.31
274.713	74.31
274.945	97.31
275.176	87.31
275.408	91.31
275.64	96.31
275.872	78.31
276.104	88.31
276.335	86.31
276.567	69.31
276.799	101.31
277.031	77.31
277.262	89.31
277.494	81.31
277.726	90.31
277.957	83.31
278.189	78.31
278.421	78.31
278.652	82.31
278.884	83.31
279.115	86.31
279.347	79.31
279.579	97.31
279.81	101.31
280.042	122.31
280.273	133.31
280.505	115.31
280.736	85.31
280.968	90.31
281.199	80.31
281.431	74.31
281.662	88.31
281.894	85.31
282.125	99.31
282.356	91.31
282.588	114.31
282.819	90.31
283.051	99.31
283.282	126.31
283.513	124.31
283.745	111.31
283.976	87.31
284.207	106.31
284.439	106.31
284.67	106.31
284.901	87.31
285.132	90.31
285.364	96.31
285.595	86.31
285.826	85.31
286.057	85.31
286.288	75.31
286.52	94.31
286.751	77.31
286.982	102.31
287.213	96.31
287.444	118.31
287.675	120.31
287.906	91.31
288.138	107.31
288.369	103.31
288.6	100.31
288.831	85.31
289.062	89.31
289.293	83.31
289.524	83.31
289.755	86.31
289.986	99.31
290.217	89.31
290.448	82.31
290.679	82.31
290.91	88.31
291.141	75.31
291.371	93.31
291.602	86.31
291.833	85.31
292.064	85.31
292.295	91.31
292.526	78.31
292.757	82.31
292.987	84.31
293.218	80.31
293.449	83.31
293.68	74.31
293.91	68.31
294.141	84.31
294.372	84.31
294.603	87.31
294.833	82.31
295.064	90.31
295.295	80.31
295.525	87.31
295.756	82.31
295.987	90.31
296.217	95.31
296.448	68.31
296.679	89.31
296.909	96.31
297.14	99.31
297.37	96.31
297.601	86.31
297.831	92.31
298.062	85.31
298.292	82.31
298.523	77.31
298.753	92.31
298.984	88.31
299.214	91.31
299.445	83.31
299.675	89.31
299.905	66.31
300.136	73.31
300.366	101.31
300.597	80.31
300.827	94.31
301.057	106.31
301.288	86.31
301.518	81.31
301.748	81.31
301.979	106.31
302.209	86.31
302.439	85.31
302.669	81.31
302.9	82.31
303.13	88.31
303.36	92.31
303.59	90.31
303.82	89.31
304.051	86.31
304.281	88.31
304.511	89.31
304.741	85.31
304.971	92.31
305.201	84.31
305.431	84.31
305.661	71.31
305.891	96.31
306.121	86.31
306.352	86.31
306.582	98.31
306.812	97.31
307.042	86.31
307.272	83.31
307.502	92.31
307.731	77.31
307.961	88.31
308.191	108.31
308.421	132.31
308.651	102.31
308.881	103.31
309.111	122.31
309.341	125.31
309.571	119.31
309.8	94.31
310.03	85.31
310.26	87.31
310.49	88.31
310.72	83.31
310.949	76.31
311.179	80.31
311.409	90.31
311.639	84.31
311.868	84.31
312.098	68.31
312.328	78.31
312.557	80.31
312.787	76.31
313.017	91.31
313.246	85.31
313.476	81.31
313.706	85.31
313.935	91.31
314.165	79.31
314.394	85.31
314.624	89.31
314.853	78.31
315.083	93.31
315.312	93.31
315.542	94.31
315.771	96.31
316.001	94.31
316.23	99.31
316.46	84.31
316.689	85.31
316.919	86.31
317.148	92.31
317.377	95.31
317.607	98.31
317.836	92.31
318.065	90.31
318.295	77.31
318.524	80.31
318.753	78.31
318.983	82.31
319.212	68.31
319.441	73.31
319.67	94.31
319.9	85.31
320.129	107.31
320.358	82.31
320.587	95.31
320.816	83.31
321.046	86.31
321.275	92.31
321.504	88.31
321.733	90.31
321.962	89.31
322.191	109.31
322.42	92.31
322.649	97.31
322.878	91.31
323.108	87.31
323.337	92.31
323.566	81.31
323.795	101.31
324.024	86.31
324.253	97.31
324.482	102.31
324.71	103.31
324.939	130.31
325.168	86.31
325.397	79.31
325.626	82.31
325.855	78.31
326.084	88.31
326.313	102.31
326.542	87.31
326.77	91.31
326.999	98.31
327.228	101.31
327.457	125.31
327.686	82.31
327.914	84.31
328.143	89.31
328.372	101.31
328.6	87.31
328.829	77.31
329.058	93.31
329.287	81.31
329.515	79.31
329.744	90.31
329.972	85.31
330.201	96.31
330.43	84.31
330.658	70.31
330.887	78.31
331.115	66.31
331.344	89.31
331.572	89.31
331.801	94.31
332.03	91.31
332.258	88.31
332.486	83.31
332.715	78.31
332.943	79.31
333.172	98.31
333.4	86.31
333.629	84.31
333.857	79.31
334.085	84.31
334.314	76.31
334.542	88.31
334.771	81.31
334.999	88.31
335.227	88.31
335.455	83.31
335.684	86.31
335.912	82.31
336.14	78.31
336.369	97.31
336.597	86.31
336.825	74.31
337.053	82.31
337.281	96.31
337.51	79.31
337.738	80.31
337.966	88.31
338.194	84.31
338.422	96.31
338.65	79.31
338.878	96.31
339.106	87.31
339.334	90.31
339.562	90.31
339.79	79.31
340.018	68.31
340.246	83.31
340.474	84.31
340.702	75.31
340.93	78.31
341.158	79.31
341.386	77.31
341.614	76.31
341.842	85.31
342.07	82.31
342.298	77.31
342.526	80.31
342.754	95.31
342.981	85.31
343.209	79.31
343.437	91.31
343.665	83.31
343.893	94.31
344.12	81.31
344.348	67.31
344.576	96.31
344.804	85.31
345.031	82.31
345.259	73.31
345.487	88.31
345.714	77.31
345.942	82.31
346.17	92.31
346.397	84.31
346.625	94.31
346.853	80.31
347.08	84.31
347.308	94.31
347.535	78.31
347.763	82.31
347.99	91.31
348.218	97.31
348.445	76.31
348.673	92.31
348.9	98.31
349.128	92.31
349.355	77.31
349.583	93.31
349.81	81.31
350.037	82.31
350.265	86.31
350.492	73.31
350.72	85.31
350.947	81.31
351.174	104.31
351.402	91.31
351.629	88.31
351.856	69.31
352.083	76.31
352.311	88.31
352.538	82.31
352.765	109.31
352.992	92.31
353.22	84.31
353.447	85.31
353.674	87.31
353.901	82.31
354.128	91.31
354.355	91.31
354.583	79.31
354.81	99.31
355.037	101.31
355.264	98.31
355.491	100.31
355.718	95.31
355.945	81.31
356.172	79.31
356.399	92.31
356.626	93.31
356.853	125.31
357.08	158.31
357.307	207.31
357.534	161.31
357.761	94.31
357.988	92.31
358.215	107.31
358.441	93.31
358.668	83.31
358.895	91.31
359.122	98.31
359.349	97.31
359.576	82.31
359.802	82.31
360.029	92.31
360.256	95.31
360.483	82.31
360.709	96.31
360.936	104.31
361.163	93.31
361.39	82.31
361.616	85.31
361.843	82.31
362.07	81.31
362.296	95.31
362.523	85.31
362.749	86.31
362.976	95.31
363.203	118.31
363.429	120.31
363.656	173.31
363.882	262.31
364.109	288.31
364.335	153.31
364.562	104.31
364.788	89.31
365.015	93.31
365.241	85.31
365.468	93.31
365.694	97.31
365.92	87.31
366.147	87.31
366.373	93.31
366.599	82.31
366.826	99.31
367.052	130.31
367.278	146.31
367.505	120.31
367.731	110.31
367.957	192.31
368.184	307.31
368.41	409.31
368.636	282.31
368.862	145.31
369.089	97.31
369.315	92.31
369.541	84.31
369.767	96.31
369.993	84.31
370.219	83.31
370.445	100.31
370.672	81.31
370.898	77.31
371.124	90.31
371.35	84.31
371.576	74.31
371.802	84.31
372.028	108.31
372.254	89.31
372.48	94.31
372.706	98.31
372.932	105.31
373.158	96.31
373.384	107.31
373.61	142.31
373.835	176.31
374.061	197.31
374.287	149.31
374.513	117.31
374.739	89.31
374.965	96.31
375.191	93.31
375.416	84.31
375.642	76.31
375.868	105.31
376.094	71.31
376.319	82.31
376.545	94.31
376.771	96.31
376.997	86.31
377.222	82.31
377.448	85.31
377.674	83.31
377.899	74.31
378.125	68.31
378.35	82.31
378.576	98.31
378.802	87.31
379.027	88.31
379.253	98.31
379.478	92.31
379.704	79.31
379.929	94.31
380.155	88.31
380.38	82.31
380.606	83.31
380.831	63.31
381.057	101.31
381.282	87.31
381.507	82.31
381.733	102.31
381.958	100.31
382.184	83.31
382.409	100.31
382.634	107.31
382.86	87.31
383.085	95.31
383.31	88.31
383.535	93.31
383.761	93.31
383.986	97.31
384.211	87.31
384.436	81.31
384.662	85.31
384.887	90.31
385.112	86.31
385.337	88.31
385.562	86.31
385.787	89.31
386.013	84.31
386.238	84.31
386.463	84.31
386.688	91.31
386.913	91.31
387.138	90.31
387.363	90.31
387.588	88.31
387.813	90.31
388.038	89.31
388.263	76.31
388.488	94.31
388.713	91.31
388.938	68.31
389.163	93.31
389.387	78.31
389.612	82.31
389.837	85.31
390.062	88.31
390.287	77.31
390.512	97.31
390.736	102.31
390.961	97.31
391.186	80.31
391.411	80.31
391.636	75.31
391.86	93.31
392.085	84.31
392.31	88.31
392.534	97.31
392.759	89.31
392.984	131.31
393.208	170.31
393.433	244.31
393.658	178.31
393.882	108.31
394.107	144.31
394.331	172.31
394.556	219.31
394.78	114.31
395.005	89.31
395.229	92.31
395.454	87.31
395.678	106.31
395.903	164.31
396.127	249.31
396.352	248.31
396.576	165.31
396.801	191.31
397.025	209.31
397.249	106.31
397.474	96.31
397.698	90.31
397.922	88.31
398.147	87.31
398.371	74.31
398.595	77.31
398.82	82.31
399.044	87.31
399.268	73.31
399.492	76.31
399.717	91.31
399.941	82.31
400.165	95.31
400.389	81.31
400.613	83.31
400.837	73.31
401.062	92.31
401.286	86.31
401.51	88.31
401.734	96.31
401.958	125.31
402.182	101.31
402.406	89.31
402.63	81.31
402.854	82.31
403.078	85.31
403.302	77.31
403.526	97.31
403.75	113.31
403.974	82.31
404.198	113.31
404.422	118.31
404.645	143.31
404.869	127.31
405.093	105.31
405.317	152.31
405.541	329.31
405.765	608.31
405.988	677.31
406.212	285.31
406.436	187.31
406.66	112.31
406.883	102.31
407.107	88.31
407.331	69.31
407.555	88.31
407.778	77.31
408.002	77.31
408.226	85.31
408.449	68.31
408.673	93.31
408.896	86.31
409.12	81.31
409.344	80.31
409.567	99.31
409.791	84.31
410.014	95.31
410.238	84.31
410.461	75.31
410.685	96.31
410.908	88.31
411.132	82.31
411.355	81.31
411.578	71.31
411.802	86.31
412.025	92.31
412.249	89.31
412.472	76.31
412.695	75.31
412.919	81.31
413.142	78.31
413.365	89.31
413.589	82.31
413.812	78.31
414.035	110.31
414.258	77.31
414.482	87.31
414.705	86.31
414.928	92.31
415.151	83.31
415.374	90.31
415.597	98.31
415.821	89.31
416.044	97.31
416.267	96.31
416.49	93.31
416.713	89.31
416.936	90.31
417.159	91.31
417.382	96.31
417.605	91.31
417.828	92.31
418.051	95.31
418.274	78.31
418.497	97.31
418.72	80.31
418.943	96.31
419.166	82.31
419.389	88.31
419.611	87.31
419.834	81.31
420.057	81.31
420.28	87.31
420.503	69.31
420.726	84.31
420.948	93.31
421.171	77.31
421.394	87.31
421.617	92.31
421.839	78.31
422.062	78.31
422.285	105.31
422.507	134.31
422.73	203.31
422.953	171.31
423.175	99.31
423.398	73.31
423.621	89.31
423.843	79.31
424.066	81.31
424.288	92.31
424.511	88.31
424.733	78.31
424.956	85.31
425.178	89.31
425.401	84.31
425.623	72.31
425.846	77.31
426.068	92.31
426.291	88.31
426.513	88.31
426.735	85.31
426.958	89.31
427.18	108.31
427.402	97.31
427.625	92.31
427.847	85.31
428.069	92.31
428.292	85.31
428.514	76.31
428.736	92.31
428.958	96.31
429.181	75.31
429.403	80.31
429.625	83.31
429.847	83.31
430.069	87.31
430.292	98.31
430.514	94.31
430.736	93.31
430.958	84.31
431.18	92.31
431.402	78.31
431.624	86.31
431.846	78.31
432.068	96.31
432.29	74.31
432.512	78.31
432.734	100.31
432.956	86.31
433.178	95.31
433.4	90.31
433.622	82.31
433.844	90.31
434.066	89.31
434.287	85.31
434.509	74.31
434.731	84.31
434.953	98.31
435.175	92.31
435.397	86.31
435.618	73.31
435.84	86.31
436.062	74.31
436.284	77.31
436.505	78.31
436.727	87.31
436.949	76.31
437.17	86.31
437.392	86.31
437.614	84.31
437.835	82.31
438.057	81.31
438.278	74.31
438.5	96.31
438.721	89.31
438.943	80.31
439.165	92.31
439.386	86.31
439.608	92.31
439.829	86.31
440.05	84.31
440.272	79.31
440.493	83.31
440.715	81.31
440.936	93.31
441.158	87.31
441.379	80.31
441.6	81.31
441.822	77.31
442.043	88.31
442.264	93.31
442.486	89.31
442.707	94.31
442.928	72.31
443.149	102.31
443.371	89.31
443.592	98.31
443.813	88.31
444.034	81.31
444.255	84.31
444.476	86.31
444.698	76.31
444.919	84.31
445.14	146.31
445.361	124.31
445.582	104.31
445.803	96.31
446.024	85.31
446.245	89.31
446.466	89.31
446.687	83.31
446.908	86.31
447.129	79.31
447.35	89.31
447.571	85.31
447.792	82.31
448.013	84.31
448.234	77.31
448.455	96.31
448.675	86.31
448.896	81.31
449.117	72.31
449.338	70.31
449.559	81.31
449.779	87.31
450	78.31
450.221	76.31
450.442	83.31
450.662	87.31
450.883	87.31
451.104	89.31
451.324	60.31
451.545	89.31
451.766	76.31
451.986	74.31
452.207	81.31
452.428	76.31
452.648	86.31
452.869	88.31
453.089	94.31
453.31	83.31
453.53	69.31
453.751	76.31
453.971	99.31
454.192	90.31
454.412	78.31
454.633	82.31
454.853	93.31
455.073	86.31
455.294	87.31
455.514	86.31
455.734	84.31
455.955	86.31
456.175	93.31
456.395	86.31
456.616	75.31
456.836	77.31
457.056	91.31
457.276	98.31
457.497	103.31
457.717	79.31
457.937	77.31
458.157	78.31
458.377	82.31
458.598	87.31
458.818	82.31
459.038	82.31
459.258	75.31
459.478	84.31
459.698	77.31
459.918	83.31
460.138	84.31
460.358	92.31
460.578	85.31
460.798	90.31
461.018	80.31
461.238	87.31
461.458	73.31
461.678	90.31
461.898	85.31
462.118	83.31
462.338	91.31
462.558	85.31
462.777	81.31
462.997	90.31
463.217	78.31
463.437	78.31
463.657	88.31
463.876	88.31
464.096	86.31
464.316	100.31
464.536	90.31
464.755	88.31
464.975	87.31
465.195	69.31
465.414	72.31
465.634	90.31
465.854	88.31
466.073	87.31
466.293	74.31
466.512	82.31
466.732	82.31
466.951	88.31
467.171	86.31
467.391	75.31
467.61	88.31
467.829	88.31
468.049	77.31
468.268	76.31
468.488	85.31
468.707	84.31
468.927	82.31
469.146	79.31
469.365	70.31
469.585	75.31
469.804	81.31
470.023	77.31
470.243	76.31
470.462	75.31
470.681	79.31
470.901	83.31
471.12	85.31
471.339	89.31
471.558	88.31
471.777	91.31
471.997	68.31
472.216	76.31
472.435	91.31
472.654	86.31
472.873	76.31
473.092	89.31
473.311	88.31
473.53	94.31
473.749	78.31
473.968	92.31
474.187	85.31
474.406	78.31
474.625	70.31
474.844	98.31
475.063	80.31
475.282	72.31
475.501	90.31
475.72	98.31
475.939	84.31
476.158	82.31
476.377	94.31
476.596	86.31
476.814	85.31
477.033	89.31
477.252	88.31
477.471	80.31
477.69	82.31
477.908	88.31
478.127	86.31
478.346	91.31
478.564	92.31
478.783	89.31
479.002	76.31
479.22	88.31
479.439	95.31
479.658	76.31
479.876	84.31
480.095	72.31
480.313	90.31
480.532	81.31
480.751	87.31
480.969	73.31
481.188	87.31
481.406	72.31
481.624	74.31
481.843	75.31
482.061	76.31
482.28	84.31
482.498	85.31
482.717	88.31
482.935	81.31
483.153	77.31
483.372	93.31
483.59	79.31
483.808	75.31
484.027	95.31
484.245	91.31
484.463	82.31
484.681	97.31
484.9	93.31
485.118	86.31
485.336	91.31
485.554	90.31
485.772	84.31
485.99	95.31
486.209	81.31
486.427	88.31
486.645	98.31
486.863	77.31
487.081	96.31
487.299	74.31
487.517	68.31
487.735	89.31
487.953	94.31
488.171	98.31
488.389	85.31
488.607	96.31
488.825	90.31
489.043	89.31
489.261	96.31
489.479	86.31
489.696	96.31
489.914	100.31
490.132	80.31
490.35	82.31
490.568	98.31
490.786	89.31
491.003	90.31
491.221	99.31
491.439	68.31
491.657	85.31
491.874	83.31
492.092	90.31
492.31	91.31
492.527	80.31
492.745	90.31
492.963	85.31
493.18	78.31
493.398	87.31
493.615	96.31
493.833	88.31
494.05	84.31
494.268	85.31
494.485	79.31
494.703	82.31
494.92	94.31
495.138	79.31
495.355	72.31
495.573	85.31
495.79	88.31
496.008	90.31
496.225	90.31
496.442	88.31
496.66	92.31
496.877	96.31
497.094	86.31
497.312	89.31
497.529	83.31
497.746	97.31
497.963	85.31
498.181	97.31
498.398	95.31
498.615	97.31
498.832	90.31
499.049	80.31
499.267	78.31
499.484	84.31
499.701	87.31
499.918	78.31
500.135	89.31
500.352	86.31
500.569	118.31
500.786	161.31
501.003	94.31
501.22	86.31
501.437	71.31
501.654	88.31
501.871	88.31
502.088	92.31
502.305	95.31
502.522	84.31
502.739	69.31
502.956	89.31
503.172	96.31
503.389	104.31
503.606	93.31
503.823	82.31
504.04	98.31
504.256	88.31
504.473	78.31
504.69	90.31
504.907	88.31
505.123	73.31
505.34	82.31
505.557	84.31
505.773	92.31
505.99	99.31
506.207	98.31
506.423	81.31
506.64	78.31
506.856	71.31
507.073	80.31
507.289	73.31
507.506	87.31
507.722	86.31
507.939	88.31
508.155	76.31
508.372	73.31
508.588	85.31
508.805	89.31
509.021	76.31
509.238	84.31
509.454	82.31
509.67	74.31
509.887	92.31
510.103	90.31
510.319	84.31
510.536	77.31
510.752	86.31
510.968	78.31
511.184	72.31
511.401	82.31
511.617	100.31
511.833	96.31
512.049	90.31
512.265	82.31
512.481	93.31
512.698	95.31
512.914	80.31
513.13	82.31
513.346	86.31
513.562	82.31
513.778	81.31
513.994	94.31
514.21	78.31
514.426	90.31
514.642	75.31
514.858	90.31
515.074	91.31
515.29	94.31
515.506	96.31
515.721	107.31
515.937	84.31
516.153	73.31
516.369	72.31
516.585	82.31
516.801	88.31
517.016	88.31
517.232	89.31
517.448	84.31
517.664	83.31
517.879	84.31
518.095	105.31
518.311	95.31
518.527	93.31
518.742	83.31
518.958	82.31
519.173	85.31
519.389	84.31
519.605	76.31
519.82	90.31
520.036	103.31
520.251	112.31
520.467	104.31
520.682	88.31
520.898	87.31
521.113	86.31
521.329	80.31
521.544	102.31
521.76	92.31
521.975	98.31
522.19	86.31
522.406	84.31
522.621	87.31
522.836	92.31
523.052	103.31
523.267	98.31
523.482	81.31
523.698	84.31
523.913	85.31
524.128	76.31
524.343	80.31
524.559	78.31
524.774	84.31
524.989	71.31
525.204	78.31
525.419	92.31
525.634	82.31
525.849	78.31
526.064	83.31
526.28	88.31
526.495	79.31
526.71	91.31
526.925	93.31
527.14	92.31
527.355	92.31
527.57	96.31
527.785	84.31
527.999	98.31
528.214	82.31
528.429	80.31
528.644	87.31
528.859	87.31
529.074	92.31
529.289	81.31
529.503	84.31
529.718	78.31
529.933	92.31
530.148	88.31
530.363	95.31
530.577	78.31
530.792	82.31
531.007	76.31
531.221	74.31
531.436	66.31
531.651	69.31
531.865	78.31
532.08	77.31
532.295	75.31
532.509	101.31
532.724	66.31
532.938	98.31
533.153	79.31
533.367	74.31
533.582	96.31
533.796	104.31
534.011	80.31
534.225	93.31
534.44	98.31
534.654	80.31
534.868	84.31
535.083	82.31
535.297	87.31
535.511	100.31
535.726	98.31
535.94	86.31
536.154	86.31
536.369	97.31
536.583	78.31
536.797	80.31
537.011	72.31
537.225	95.31
537.44	99.31
537.654	104.31
537.868	86.31
538.082	82.31
538.296	92.31
538.51	73.31
538.724	91.31
538.938	88.31
539.153	90.31
539.367	88.31
539.581	103.31
539.795	87.31
540.009	75.31
540.222	87.31
540.436	75.31
540.65	84.31
540.864	103.31
541.078	90.31
541.292	90.31
541.506	93.31
541.72	95.31
541.934	74.31
542.147	86.31
542.361	90.31
542.575	71.31
542.789	84.31
543.002	78.31
543.216	77.31
543.43	90.31
543.644	94.31
543.857	82.31
544.071	85.31
544.285	66.31
544.498	92.31
544.712	96.31
544.925	98.31
545.139	91.31
545.352	88.31
545.566	88.31
545.779	102.31
545.993	90.31
546.206	92.31
546.42	96.31
546.633	91.31
546.847	93.31
547.06	93.31
547.274	87.31
547.487	104.31
547.7	107.31
547.914	92.31
548.127	81.31
548.34	90.31
548.554	86.31
548.767	84.31
548.98	77.31
549.193	78.31
549.407	76.31
549.62	79.31
549.833	84.31
550.046	82.31
550.259	89.31
550.473	89.31
550.686	91.31
550.899	84.31
551.112	84.31
551.325	87.31
551.538	100.31
551.751	93.31
551.964	86.31
552.177	73.31
552.39	82.31
552.603	92.31
552.816	78.31
553.029	86.31
553.242	88.31
553.455	97.31
553.667	96.31
553.88	94.31
554.093	96.31
554.306	96.31
554.519	79.31
554.732	99.31
554.944	97.31
555.157	85.31
555.37	102.31
555.583	95.31
555.795	78.31
556.008	89.31
556.221	88.31
556.433	100.31
556.646	86.31
556.859	87.31
557.071	93.31
557.284	91.31
557.496	71.31
557.709	84.31
557.921	62.31
558.134	94.31
558.346	100.31
558.559	95.31
558.771	92.31
558.984	97.31
559.196	112.31
559.409	104.31
559.621	86.31
559.833	99.31
560.046	84.31
560.258	91.31
560.47	99.31
560.683	86.31
560.895	96.31
561.107	92.31
561.32	98.31
561.532	91.31
561.744	105.31
561.956	90.31
562.168	88.31
562.381	95.31
562.593	86.31
562.805	87.31
563.017	78.31
563.229	84.31
563.441	86.31
563.653	85.31
563.865	69.31
564.077	84.31
564.289	88.31
564.501	92.31
564.713	82.31
564.925	93.31
565.137	96.31
565.349	83.31
565.561	82.31
565.773	72.31
565.985	82.31
566.197	89.31
566.408	97.31
566.62	98.31
566.832	116.31
567.044	94.31
567.255	84.31
567.467	85.31
567.679	88.31
567.891	85.31
568.102	94.31
568.314	99.31
568.526	98.31
568.737	98.31
568.949	113.31
569.161	110.31
569.372	112.31
569.584	91.31
569.795	102.31
570.007	90.31
570.218	98.31
570.43	93.31
570.641	70.31
570.853	94.31
571.064	81.31
571.276	78.31
571.487	85.31
571.698	86.31
571.91	84.31
572.121	77.31
572.333	74.31
572.544	83.31
572.755	82.31
572.966	89.31
573.178	81.31
573.389	71.31
573.6	86.31
573.811	78.31
574.023	86.31
574.234	78.31
574.445	84.31
574.656	77.31
574.867	88.31
575.078	96.31
575.289	74.31
575.501	89.31
575.712	88.31
575.923	72.31
576.134	98.31
576.345	86.31
576.556	78.31
576.767	84.31
576.978	82.31
577.188	81.31
577.399	73.31
577.61	79.31
577.821	92.31
578.032	78.31
578.243	93.31
578.454	78.31
578.665	93.31
578.875	90.31
579.086	92.31
579.297	96.31
579.508	75.31
579.718	92.31
579.929	78.31
580.14	78.31
580.35	77.31
580.561	89.31
580.772	85.31
580.982	88.31
581.193	70.31
581.403	92.31
581.614	77.31
581.825	81.31
582.035	88.31
582.246	92.31
582.456	92.31
582.667	82.31
582.877	70.31
583.087	92.31
583.298	86.31
583.508	93.31
583.719	71.31
583.929	96.31
584.139	100.31
584.35	83.31
584.56	78.31
584.77	82.31
584.981	84.31
585.191	89.31
585.401	95.31
585.611	89.31
585.821	89.31
586.032	85.31
586.242	92.31
586.452	92.31
586.662	72.31
586.872	86.31
587.082	86.31
587.292	77.31
587.502	88.31
587.713	87.31
587.923	92.31
588.133	93.31
588.343	121.31
588.553	97.31
588.762	166.31
588.972	391.31
589.182	1046.31
589.392	607.31
589.602	440.31
589.812	857.31
590.022	354.31
590.232	153.31
590.441	120.31
590.651	100.31
590.861	95.31
591.071	92.31
591.281	96.31
591.49	89.31
591.7	96.31
591.91	86.31
592.119	87.31
592.329	89.31
592.539	101.31
592.748	92.31
592.958	78.31
593.167	86.31
593.377	83.31
593.587	88.31
593.796	93.31
594.006	88.31
594.215	73.31
594.424	86.31
594.634	90.31
594.843	92.31
595.053	79.31
595.262	74.31
595.472	72.31
595.681	82.31
595.89	86.31
596.1	78.31
596.309	82.31
596.518	79.31
596.727	94.31
596.937	84.31
597.146	88.31
597.355	91.31
597.564	100.31
597.774	91.31
597.983	85.31
598.192	71.31
598.401	80.31
598.61	82.31
598.819	88.31
599.028	74.31
599.237	85.31
599.446	84.31
599.655	88.31
599.864	97.31
600.073	70.31
600.282	84.31
600.491	101.31
600.7	88.31
600.909	106.31
601.118	79.31
601.327	74.31
601.536	96.31
601.745	74.31
601.953	96.31
602.162	76.31
602.371	78.31
602.58	90.31
602.789	90.31
602.997	84.31
603.206	78.31
603.415	88.31
603.623	86.31
603.832	78.31
604.041	85.31
604.249	114.31
604.458	84.31
604.666	79.31
604.875	80.31
605.084	76.31
605.292	96.31
605.501	102.31
605.709	98.31
605.918	97.31
606.126	85.31
606.334	90.31
606.543	84.31
606.751	97.31
606.96	97.31
607.168	89.31
607.376	95.31
607.585	98.31
607.793	85.31
608.001	90.31
608.21	88.31
608.418	78.31
608.626	76.31
608.834	81.31
609.043	89.31
609.251	78.31
609.459	80.31
609.667	90.31
609.875	82.31
610.083	96.31
610.291	101.31
610.499	89.31
610.707	93.31
610.916	89.31
611.124	88.31
611.332	79.31
611.54	85.31
611.748	78.31
611.955	86.31
612.163	88.31
612.371	107.31
612.579	92.31
612.787	86.31
612.995	85.31
613.203	86.31
613.411	86.31
613.618	88.31
613.826	78.31
614.034	89.31
614.242	88.31
614.449	83.31
614.657	93.31
614.865	79.31
615.072	90.31
615.28	90.31
615.488	87.31
615.695	97.31
615.903	87.31
616.111	90.31
616.318	110.31
616.526	104.31
616.733	92.31
616.941	76.31
617.148	92.31
617.356	96.31
617.563	84.31
617.771	93.31
617.978	81.31
618.185	87.31
618.393	81.31
618.6	93.31
618.807	93.31
619.015	90.31
619.222	72.31
619.429	78.31
619.637	83.31
619.844	82.31
620.051	77.31
620.258	70.31
620.466	77.31
620.673	86.31
620.88	75.31
621.087	89.31
621.294	92.31
621.501	95.31
621.708	94.31
621.915	78.31
622.122	84.31
622.329	88.31
622.536	77.31
622.743	92.31
622.95	91.31
623.157	93.31
623.364	90.31
623.571	69.31
623.778	93.31
623.985	83.31
624.192	76.31
624.399	94.31
624.606	79.31
624.812	77.31
625.019	78.31
625.226	98.31
625.433	81.31
625.639	96.31
625.846	94.31
626.053	82.31
626.259	91.31
626.466	103.31
626.673	89.31
626.879	88.31
627.086	88.31
627.293	79.31
627.499	75.31
627.706	79.31
627.912	82.31
628.119	91.31
628.325	78.31
628.532	81.31
628.738	88.31
628.945	90.31
629.151	93.31
629.357	84.31
629.564	86.31
629.77	97.31
629.976	92.31
630.183	84.31
630.389	88.31
630.595	82.31
630.802	90.31
631.008	98.31
631.214	80.31
631.42	100.31
631.627	76.31
631.833	88.31
632.039	84.31
632.245	77.31
632.451	83.31
632.657	77.31
632.863	82.31
633.069	81.31
633.275	85.31
633.481	84.31
633.688	80.31
633.893	89.31
634.099	73.31
634.305	78.31
634.511	78.31
634.717	97.31
634.923	94.31
635.129	92.31
635.335	86.31
635.541	96.31
635.747	73.31
635.952	70.31
636.158	86.31
636.364	90.31
636.57	97.31
636.775	83.31
636.981	77.31
637.187	80.31
637.392	84.31
637.598	92.31
637.804	85.31
638.009	74.31
638.215	99.31
638.421	93.31
638.626	93.31
638.832	86.31
639.037	85.31
639.243	83.31
639.448	84.31
639.654	81.31
639.859	80.31
640.065	85.31
640.27	104.31
640.475	88.31
640.681	81.31
640.886	88.31
641.091	85.31
641.297	85.31
641.502	81.31
641.707	84.31
641.913	76.31
642.118	86.31
642.323	84.31
642.528	85.31
642.733	76.31
642.939	86.31
643.144	81.31
643.349	78.31
643.554	95.31
643.759	75.31
643.964	95.31
644.169	88.31
644.374	81.31
644.579	82.31
644.784	90.31
644.989	88.31
645.194	87.31
645.399	77.31
645.604	78.31
645.809	75.31
646.014	88.31
646.219	88.31
646.423	73.31
646.628	100.31
646.833	105.31
647.038	73.31
647.243	83.31
647.447	84.31
647.652	92.31
647.857	83.31
648.062	86.31
648.266	77.31
648.471	76.31
648.676	81.31
648.88	82.31
649.085	81.31
649.289	89.31
649.494	84.31
649.698	93.31
649.903	84.31
650.107	100.31
650.312	89.31
650.516	76.31
650.721	90.31
650.925	93.31
651.13	76.31
651.334	88.31
651.539	89.31
651.743	90.31
651.947	81.31
652.152	91.31
652.356	94.31
652.56	82.31
652.764	113.31
652.969	82.31
653.173	82.31
653.377	86.31
653.581	84.31
653.785	101.31
653.99	80.31
654.194	85.31
654.398	86.31
654.602	76.31
654.806	86.31
655.01	82.31
655.214	81.31
655.418	88.31
655.622	85.31
655.826	94.31
656.03	82.31
656.234	94.31
656.438	82.31
656.642	68.31
656.846	92.31
657.049	90.31
657.253	102.31
657.457	85.31
657.661	72.31
657.865	89.31
658.068	76.31
658.272	82.31
658.476	90.31
658.68	68.31
658.883	82.31
659.087	90.31
659.291	75.31
659.494	86.31
659.698	88.31
659.901	81.31
660.105	67.31
660.309	78.31
660.512	86.31
660.716	98.31
660.919	79.31
661.123	90.31
661.326	75.31
661.53	85.31
661.733	73.31
661.936	88.31
662.14	80.31
662.343	91.31
662.546	78.31
662.75	85.31
662.953	90.31
663.156	94.31
663.36	83.31
663.563	93.31
663.766	71.31
663.969	86.31
664.173	82.31
664.376	90.31
664.579	78.31
664.782	87.31
664.985	78.31
665.188	81.31
665.391	80.31
665.594	75.31
665.797	81.31
666	101.31
666.203	84.31
666.406	78.31
666.609	80.31
666.812	93.31
667.015	82.31
667.218	81.31
667.421	75.31
667.624	78.31
667.827	84.31
668.03	70.31
668.232	72.31
668.435	80.31
668.638	68.31
668.841	92.31
669.043	79.31
669.246	83.31
669.449	91.31
669.651	87.31
669.854	83.31
670.057	101.31
670.259	81.31
670.462	82.31
670.665	104.31
670.867	86.31
671.07	70.31
671.272	78.31
671.475	93.31
671.677	88.31
671.88	79.31
672.082	80.31
672.284	72.31
672.487	66.31
672.689	94.31
672.892	78.31
