Data from Lead_HRD10591_00095.txt Node
Date: Tue Feb 17 14:19:43 EST 2026
User: Yrep
Spectrometer: HR+D1059
Trigger mode: 1
Integration Time (sec): 1.000000E-1
Scans to average: 1
Electric dark correction enabled: true
Nonlinearity correction enabled: false
Boxcar width: 0
XAxis mode: Wavelengths
Number of Pixels in Spectrum: 2048
>>>>>Begin Spectral Data<<<<<
223.165	-23.75
223.4	-23.75
223.635	-23.75
223.869	-8.75
224.104	-24.75
224.338	-1.75
224.573	-11.75
224.808	-9.75
225.042	-16.75
225.277	-3.75
225.511	-4.75
225.746	-12.75
225.98	4.25
226.215	10.25
226.449	9.25
226.683	11.25
226.918	45.25
227.152	38.25
227.387	46.25
227.621	36.25
227.856	53.25
228.09	44.25
228.324	45.25
228.559	80.25
228.793	77.25
229.027	67.25
229.262	63.25
229.496	64.25
229.73	72.25
229.964	76.25
230.199	79.25
230.433	77.25
230.667	88.25
230.901	81.25
231.136	82.25
231.37	75.25
231.604	84.25
231.838	75.25
232.072	77.25
232.306	85.25
232.541	92.25
232.775	81.25
233.009	89.25
233.243	90.25
233.477	85.25
233.711	85.25
233.945	95.25
234.179	91.25
234.413	78.25
234.647	89.25
234.881	82.25
235.115	96.25
235.349	91.25
235.583	78.25
235.817	84.25
236.051	78.25
236.285	73.25
236.519	75.25
236.753	77.25
236.987	81.25
237.221	94.25
237.455	95.25
237.689	73.25
237.922	82.25
238.156	71.25
238.39	78.25
238.624	78.25
238.858	80.25
239.091	68.25
239.325	93.25
239.559	89.25
239.793	73.25
240.027	92.25
240.26	79.25
240.494	87.25
240.728	66.25
240.961	65.25
241.195	76.25
241.429	87.25
241.662	80.25
241.896	79.25
242.13	86.25
242.363	63.25
242.597	81.25
242.83	92.25
243.064	79.25
243.298	94.25
243.531	77.25
243.765	79.25
243.998	86.25
244.232	73.25
244.465	69.25
244.699	68.25
244.932	74.25
245.166	73.25
245.399	85.25
245.633	88.25
245.866	65.25
246.099	71.25
246.333	75.25
246.566	87.25
246.8	81.25
247.033	92.25
247.266	81.25
247.5	85.25
247.733	87.25
247.966	80.25
248.2	97.25
248.433	83.25
248.666	79.25
248.899	79.25
249.133	63.25
249.366	96.25
249.599	81.25
249.832	79.25
250.066	89.25
250.299	81.25
250.532	95.25
250.765	71.25
250.998	87.25
251.231	87.25
251.465	81.25
251.698	91.25
251.931	88.25
252.164	88.25
252.397	81.25
252.63	87.25
252.863	86.25
253.096	79.25
253.329	82.25
253.562	89.25
253.795	77.25
254.028	69.25
254.261	91.25
254.494	67.25
254.727	84.25
254.96	76.25
255.193	83.25
255.426	99.25
255.659	88.25
255.892	91.25
256.124	74.25
256.357	93.25
256.59	94.25
256.823	83.25
257.056	81.25
257.289	87.25
257.521	95.25
257.754	84.25
257.987	81.25
258.22	93.25
258.452	67.25
258.685	82.25
258.918	81.25
259.151	87.25
259.383	78.25
259.616	70.25
259.849	103.25
260.081	94.25
260.314	91.25
260.547	76.25
260.779	91.25
261.012	91.25
261.244	68.25
261.477	91.25
261.71	88.25
261.942	93.25
262.175	93.25
262.407	90.25
262.64	84.25
262.872	95.25
263.105	85.25
263.337	79.25
263.57	91.25
263.802	89.25
264.035	77.25
264.267	83.25
264.499	93.25
264.732	99.25
264.964	95.25
265.197	82.25
265.429	93.25
265.661	80.25
265.894	100.25
266.126	84.25
266.358	92.25
266.591	92.25
266.823	79.25
267.055	86.25
267.287	87.25
267.52	91.25
267.752	87.25
267.984	87.25
268.216	78.25
268.448	91.25
268.681	95.25
268.913	95.25
269.145	94.25
269.377	82.25
269.609	92.25
269.841	85.25
270.073	80.25
270.306	93.25
270.538	76.25
270.77	77.25
271.002	91.25
271.234	90.25
271.466	81.25
271.698	91.25
271.93	76.25
272.162	85.25
272.394	87.25
272.626	81.25
272.858	77.25
273.09	77.25
273.322	92.25
273.553	90.25
273.785	93.25
274.017	87.25
274.249	86.25
274.481	86.25
274.713	89.25
274.945	84.25
275.176	89.25
275.408	95.25
275.64	97.25
275.872	77.25
276.104	85.25
276.335	87.25
276.567	82.25
276.799	77.25
277.031	87.25
277.262	81.25
277.494	89.25
277.726	87.25
277.957	64.25
278.189	88.25
278.421	70.25
278.652	83.25
278.884	77.25
279.115	103.25
279.347	84.25
279.579	89.25
279.81	97.25
280.042	93.25
280.273	124.25
280.505	105.25
280.736	89.25
280.968	93.25
281.199	81.25
281.431	79.25
281.662	86.25
281.894	104.25
282.125	76.25
282.356	90.25
282.588	83.25
282.819	101.25
283.051	92.25
283.282	112.25
283.513	126.25
283.745	111.25
283.976	77.25
284.207	87.25
284.439	79.25
284.67	84.25
284.901	85.25
285.132	93.25
285.364	83.25
285.595	96.25
285.826	83.25
286.057	95.25
286.288	82.25
286.52	73.25
286.751	75.25
286.982	82.25
287.213	110.25
287.444	97.25
287.675	91.25
287.906	84.25
288.138	82.25
288.369	99.25
288.6	94.25
288.831	87.25
289.062	88.25
289.293	81.25
289.524	79.25
289.755	87.25
289.986	92.25
290.217	71.25
290.448	81.25
290.679	82.25
290.91	84.25
291.141	92.25
291.371	94.25
291.602	95.25
291.833	94.25
292.064	76.25
292.295	97.25
292.526	101.25
292.757	99.25
292.987	89.25
293.218	83.25
293.449	87.25
293.68	91.25
293.91	90.25
294.141	85.25
294.372	92.25
294.603	87.25
294.833	91.25
295.064	86.25
295.295	83.25
295.525	82.25
295.756	100.25
295.987	96.25
296.217	94.25
296.448	88.25
296.679	92.25
296.909	82.25
297.14	63.25
297.37	96.25
297.601	92.25
297.831	89.25
298.062	92.25
298.292	88.25
298.523	91.25
298.753	77.25
298.984	85.25
299.214	90.25
299.445	85.25
299.675	93.25
299.905	90.25
300.136	88.25
300.366	80.25
300.597	82.25
300.827	79.25
301.057	73.25
301.288	77.25
301.518	85.25
301.748	90.25
301.979	105.25
302.209	94.25
302.439	77.25
302.669	95.25
302.9	76.25
303.13	101.25
303.36	91.25
303.59	100.25
303.82	75.25
304.051	91.25
304.281	72.25
304.511	100.25
304.741	93.25
304.971	85.25
305.201	91.25
305.431	77.25
305.661	84.25
305.891	84.25
306.121	93.25
306.352	90.25
306.582	79.25
306.812	78.25
307.042	90.25
307.272	98.25
307.502	85.25
307.731	82.25
307.961	94.25
308.191	91.25
308.421	81.25
308.651	96.25
308.881	100.25
309.111	108.25
309.341	104.25
309.571	77.25
309.8	90.25
310.03	82.25
310.26	81.25
310.49	88.25
310.72	92.25
310.949	87.25
311.179	93.25
311.409	103.25
311.639	89.25
311.868	82.25
312.098	85.25
312.328	90.25
312.557	92.25
312.787	91.25
313.017	86.25
313.246	88.25
313.476	81.25
313.706	90.25
313.935	93.25
314.165	97.25
314.394	87.25
314.624	75.25
314.853	76.25
315.083	107.25
315.312	84.25
315.542	94.25
315.771	76.25
316.001	91.25
316.23	92.25
316.46	82.25
316.689	100.25
316.919	93.25
317.148	88.25
317.377	101.25
317.607	103.25
317.836	93.25
318.065	87.25
318.295	87.25
318.524	97.25
318.753	93.25
318.983	89.25
319.212	77.25
319.441	88.25
319.67	91.25
319.9	78.25
320.129	95.25
320.358	91.25
320.587	82.25
320.816	77.25
321.046	101.25
321.275	92.25
321.504	87.25
321.733	92.25
321.962	90.25
322.191	86.25
322.42	74.25
322.649	90.25
322.878	96.25
323.108	109.25
323.337	87.25
323.566	89.25
323.795	97.25
324.024	108.25
324.253	85.25
324.482	82.25
324.71	88.25
324.939	117.25
325.168	88.25
325.397	99.25
325.626	82.25
325.855	100.25
326.084	91.25
326.313	91.25
326.542	104.25
326.77	86.25
326.999	94.25
327.228	77.25
327.457	99.25
327.686	105.25
327.914	93.25
328.143	88.25
328.372	91.25
328.6	91.25
328.829	94.25
329.058	91.25
329.287	79.25
329.515	105.25
329.744	87.25
329.972	83.25
330.201	92.25
330.43	82.25
330.658	79.25
330.887	77.25
331.115	99.25
331.344	81.25
331.572	87.25
331.801	89.25
332.03	90.25
332.258	75.25
332.486	96.25
332.715	89.25
332.943	76.25
333.172	93.25
333.4	77.25
333.629	81.25
333.857	88.25
334.085	84.25
334.314	95.25
334.542	95.25
334.771	73.25
334.999	101.25
335.227	83.25
335.455	92.25
335.684	84.25
335.912	97.25
336.14	94.25
336.369	99.25
336.597	93.25
336.825	70.25
337.053	94.25
337.281	87.25
337.51	81.25
337.738	82.25
337.966	83.25
338.194	90.25
338.422	100.25
338.65	91.25
338.878	94.25
339.106	91.25
339.334	92.25
339.562	78.25
339.79	79.25
340.018	82.25
340.246	99.25
340.474	86.25
340.702	102.25
340.93	85.25
341.158	73.25
341.386	89.25
341.614	90.25
341.842	83.25
342.07	87.25
342.298	101.25
342.526	89.25
342.754	74.25
342.981	75.25
343.209	92.25
343.437	108.25
343.665	85.25
343.893	91.25
344.12	87.25
344.348	97.25
344.576	95.25
344.804	84.25
345.031	81.25
345.259	85.25
345.487	87.25
345.714	72.25
345.942	76.25
346.17	69.25
346.397	78.25
346.625	92.25
346.853	81.25
347.08	81.25
347.308	89.25
347.535	88.25
347.763	92.25
347.99	91.25
348.218	81.25
348.445	96.25
348.673	87.25
348.9	93.25
349.128	59.25
349.355	77.25
349.583	90.25
349.81	90.25
350.037	102.25
350.265	90.25
350.492	89.25
350.72	85.25
350.947	73.25
351.174	79.25
351.402	91.25
351.629	83.25
351.856	79.25
352.083	93.25
352.311	91.25
352.538	92.25
352.765	88.25
352.992	94.25
353.22	75.25
353.447	90.25
353.674	97.25
353.901	87.25
354.128	77.25
354.355	92.25
354.583	89.25
354.81	78.25
355.037	69.25
355.264	92.25
355.491	91.25
355.718	103.25
355.945	98.25
356.172	104.25
356.399	89.25
356.626	79.25
356.853	97.25
357.08	138.25
357.307	165.25
357.534	135.25
357.761	89.25
357.988	96.25
358.215	80.25
358.441	93.25
358.668	77.25
358.895	80.25
359.122	87.25
359.349	80.25
359.576	77.25
359.802	74.25
360.029	82.25
360.256	100.25
360.483	77.25
360.709	95.25
360.936	94.25
361.163	107.25
361.39	82.25
361.616	88.25
361.843	89.25
362.07	88.25
362.296	77.25
362.523	90.25
362.749	92.25
362.976	81.25
363.203	101.25
363.429	123.25
363.656	139.25
363.882	203.25
364.109	228.25
364.335	140.25
364.562	106.25
364.788	93.25
365.015	97.25
365.241	87.25
365.468	78.25
365.694	86.25
365.92	77.25
366.147	90.25
366.373	91.25
366.599	93.25
366.826	107.25
367.052	133.25
367.278	131.25
367.505	110.25
367.731	122.25
367.957	147.25
368.184	227.25
368.41	303.25
368.636	201.25
368.862	104.25
369.089	96.25
369.315	84.25
369.541	94.25
369.767	94.25
369.993	87.25
370.219	86.25
370.445	81.25
370.672	78.25
370.898	78.25
371.124	92.25
371.35	97.25
371.576	86.25
371.802	87.25
372.028	89.25
372.254	82.25
372.48	81.25
372.706	78.25
372.932	88.25
373.158	95.25
373.384	104.25
373.61	106.25
373.835	148.25
374.061	159.25
374.287	129.25
374.513	81.25
374.739	82.25
374.965	87.25
375.191	97.25
375.416	92.25
375.642	78.25
375.868	89.25
376.094	97.25
376.319	87.25
376.545	83.25
376.771	83.25
376.997	88.25
377.222	74.25
377.448	88.25
377.674	78.25
377.899	90.25
378.125	89.25
378.35	82.25
378.576	89.25
378.802	87.25
379.027	89.25
379.253	73.25
379.478	92.25
379.704	85.25
379.929	89.25
380.155	91.25
380.38	94.25
380.606	85.25
380.831	89.25
381.057	103.25
381.282	91.25
381.507	87.25
381.733	94.25
381.958	93.25
382.184	87.25
382.409	92.25
382.634	76.25
382.86	77.25
383.085	102.25
383.31	98.25
383.535	88.25
383.761	86.25
383.986	84.25
384.211	82.25
384.436	91.25
384.662	71.25
384.887	78.25
385.112	84.25
385.337	71.25
385.562	79.25
385.787	90.25
386.013	92.25
386.238	90.25
386.463	94.25
386.688	94.25
386.913	90.25
387.138	65.25
387.363	82.25
387.588	88.25
387.813	99.25
388.038	87.25
388.263	76.25
388.488	69.25
388.713	87.25
388.938	91.25
389.163	78.25
389.387	89.25
389.612	78.25
389.837	85.25
390.062	87.25
390.287	84.25
390.512	85.25
390.736	96.25
390.961	78.25
391.186	92.25
391.411	87.25
391.636	85.25
391.86	96.25
392.085	80.25
392.31	87.25
392.534	83.25
392.759	88.25
392.984	100.25
393.208	119.25
393.433	144.25
393.658	132.25
393.882	96.25
394.107	104.25
394.331	107.25
394.556	121.25
394.78	98.25
395.005	95.25
395.229	98.25
395.454	83.25
395.678	92.25
395.903	97.25
396.127	135.25
396.352	127.25
396.576	115.25
396.801	118.25
397.025	136.25
397.249	90.25
397.474	95.25
397.698	92.25
397.922	79.25
398.147	91.25
398.371	90.25
398.595	87.25
398.82	83.25
399.044	72.25
399.268	87.25
399.492	98.25
399.717	82.25
399.941	97.25
400.165	95.25
400.389	79.25
400.613	86.25
400.837	77.25
401.062	92.25
401.286	90.25
401.51	89.25
401.734	88.25
401.958	106.25
402.182	103.25
402.406	82.25
402.63	94.25
402.854	82.25
403.078	87.25
403.302	87.25
403.526	89.25
403.75	90.25
403.974	99.25
404.198	90.25
404.422	83.25
404.645	85.25
404.869	91.25
405.093	116.25
405.317	139.25
405.541	243.25
405.765	419.25
405.988	478.25
406.212	223.25
406.436	137.25
406.66	97.25
406.883	96.25
407.107	87.25
407.331	89.25
407.555	71.25
407.778	94.25
408.002	89.25
408.226	85.25
408.449	77.25
408.673	77.25
408.896	90.25
409.12	91.25
409.344	87.25
409.567	85.25
409.791	92.25
410.014	85.25
410.238	103.25
410.461	82.25
410.685	91.25
410.908	80.25
411.132	99.25
411.355	85.25
411.578	76.25
411.802	79.25
412.025	85.25
412.249	77.25
412.472	77.25
412.695	87.25
412.919	94.25
413.142	90.25
413.365	101.25
413.589	82.25
413.812	70.25
414.035	79.25
414.258	86.25
414.482	73.25
414.705	93.25
414.928	87.25
415.151	76.25
415.374	89.25
415.597	86.25
415.821	83.25
416.044	79.25
416.267	88.25
416.49	87.25
416.713	91.25
416.936	79.25
417.159	93.25
417.382	71.25
417.605	89.25
417.828	85.25
418.051	78.25
418.274	80.25
418.497	76.25
418.72	78.25
418.943	79.25
419.166	91.25
419.389	94.25
419.611	91.25
419.834	94.25
420.057	91.25
420.28	79.25
420.503	77.25
420.726	84.25
420.948	83.25
421.171	87.25
421.394	91.25
421.617	85.25
421.839	76.25
422.062	89.25
422.285	85.25
422.507	93.25
422.73	123.25
422.953	95.25
423.175	89.25
423.398	80.25
423.621	71.25
423.843	79.25
424.066	77.25
424.288	79.25
424.511	85.25
424.733	93.25
424.956	99.25
425.178	84.25
425.401	74.25
425.623	81.25
425.846	90.25
426.068	100.25
426.291	88.25
426.513	90.25
426.735	82.25
426.958	67.25
427.18	89.25
427.402	79.25
427.625	81.25
427.847	68.25
428.069	84.25
428.292	89.25
428.514	77.25
428.736	93.25
428.958	83.25
429.181	86.25
429.403	87.25
429.625	81.25
429.847	82.25
430.069	111.25
430.292	87.25
430.514	81.25
430.736	91.25
430.958	91.25
431.18	78.25
431.402	81.25
431.624	94.25
431.846	82.25
432.068	73.25
432.29	77.25
432.512	72.25
432.734	78.25
432.956	86.25
433.178	88.25
433.4	82.25
433.622	81.25
433.844	76.25
434.066	80.25
434.287	81.25
434.509	92.25
434.731	87.25
434.953	87.25
435.175	90.25
435.397	87.25
435.618	77.25
435.84	74.25
436.062	94.25
436.284	91.25
436.505	87.25
436.727	85.25
436.949	80.25
437.17	80.25
437.392	81.25
437.614	71.25
437.835	76.25
438.057	77.25
438.278	88.25
438.5	77.25
438.721	99.25
438.943	82.25
439.165	74.25
439.386	76.25
439.608	79.25
439.829	92.25
440.05	86.25
440.272	89.25
440.493	102.25
440.715	79.25
440.936	87.25
441.158	101.25
441.379	87.25
441.6	80.25
441.822	76.25
442.043	81.25
442.264	87.25
442.486	87.25
442.707	70.25
442.928	85.25
443.149	97.25
443.371	83.25
443.592	87.25
443.813	77.25
444.034	75.25
444.255	89.25
444.476	83.25
444.698	85.25
444.919	83.25
445.14	171.25
445.361	131.25
445.582	101.25
445.803	95.25
446.024	86.25
446.245	91.25
446.466	91.25
446.687	78.25
446.908	94.25
447.129	87.25
447.35	78.25
447.571	83.25
447.792	95.25
448.013	92.25
448.234	77.25
448.455	91.25
448.675	85.25
448.896	82.25
449.117	96.25
449.338	72.25
449.559	79.25
449.779	74.25
450	98.25
450.221	87.25
450.442	91.25
450.662	73.25
450.883	94.25
451.104	83.25
451.324	79.25
451.545	84.25
451.766	94.25
451.986	88.25
452.207	85.25
452.428	81.25
452.648	77.25
452.869	86.25
453.089	85.25
453.31	89.25
453.53	97.25
453.751	78.25
453.971	92.25
454.192	93.25
454.412	67.25
454.633	81.25
454.853	88.25
455.073	92.25
455.294	67.25
455.514	79.25
455.734	82.25
455.955	75.25
456.175	80.25
456.395	94.25
456.616	96.25
456.836	83.25
457.056	87.25
457.276	88.25
457.497	88.25
457.717	84.25
457.937	83.25
458.157	92.25
458.377	81.25
458.598	89.25
458.818	90.25
459.038	92.25
459.258	83.25
459.478	79.25
459.698	92.25
459.918	82.25
460.138	79.25
460.358	69.25
460.578	94.25
460.798	83.25
461.018	77.25
461.238	58.25
461.458	78.25
461.678	96.25
461.898	81.25
462.118	102.25
462.338	85.25
462.558	85.25
462.777	94.25
462.997	89.25
463.217	79.25
463.437	91.25
463.657	81.25
463.876	71.25
464.096	89.25
464.316	91.25
464.536	89.25
464.755	97.25
464.975	76.25
465.195	85.25
465.414	73.25
465.634	93.25
465.854	88.25
466.073	85.25
466.293	81.25
466.512	71.25
466.732	86.25
466.951	77.25
467.171	91.25
467.391	97.25
467.61	95.25
467.829	79.25
468.049	97.25
468.268	80.25
468.488	84.25
468.707	80.25
468.927	90.25
469.146	75.25
469.365	98.25
469.585	85.25
469.804	88.25
470.023	83.25
470.243	75.25
470.462	75.25
470.681	82.25
470.901	95.25
471.12	85.25
471.339	107.25
471.558	92.25
471.777	82.25
471.997	87.25
472.216	77.25
472.435	77.25
472.654	77.25
472.873	85.25
473.092	65.25
473.311	87.25
473.53	74.25
473.749	83.25
473.968	97.25
474.187	86.25
474.406	87.25
474.625	87.25
474.844	87.25
475.063	67.25
475.282	87.25
475.501	89.25
475.72	92.25
475.939	87.25
476.158	79.25
476.377	84.25
476.596	93.25
476.814	84.25
477.033	81.25
477.252	84.25
477.471	77.25
477.69	83.25
477.908	79.25
478.127	99.25
478.346	92.25
478.564	75.25
478.783	82.25
479.002	81.25
479.22	84.25
479.439	87.25
479.658	85.25
479.876	92.25
480.095	85.25
480.313	83.25
480.532	92.25
480.751	73.25
480.969	78.25
481.188	72.25
481.406	75.25
481.624	99.25
481.843	83.25
482.061	85.25
482.28	94.25
482.498	85.25
482.717	83.25
482.935	80.25
483.153	90.25
483.372	82.25
483.59	87.25
483.808	87.25
484.027	81.25
484.245	79.25
484.463	87.25
484.681	87.25
484.9	88.25
485.118	68.25
485.336	89.25
485.554	77.25
485.772	81.25
485.99	84.25
486.209	91.25
486.427	74.25
486.645	79.25
486.863	94.25
487.081	96.25
487.299	98.25
487.517	80.25
487.735	77.25
487.953	84.25
488.171	85.25
488.389	96.25
488.607	88.25
488.825	81.25
489.043	96.25
489.261	93.25
489.479	93.25
489.696	82.25
489.914	85.25
490.132	87.25
490.35	77.25
490.568	85.25
490.786	94.25
491.003	96.25
491.221	82.25
491.439	91.25
491.657	96.25
491.874	86.25
492.092	97.25
492.31	97.25
492.527	82.25
492.745	73.25
492.963	102.25
493.18	98.25
493.398	82.25
493.615	87.25
493.833	88.25
494.05	88.25
494.268	92.25
494.485	86.25
494.703	88.25
494.92	86.25
495.138	81.25
495.355	93.25
495.573	95.25
495.79	98.25
496.008	98.25
496.225	91.25
496.442	84.25
496.66	102.25
496.877	73.25
497.094	91.25
497.312	85.25
497.529	85.25
497.746	92.25
497.963	101.25
498.181	101.25
498.398	93.25
498.615	70.25
498.832	96.25
499.049	79.25
499.267	73.25
499.484	81.25
499.701	79.25
499.918	109.25
500.135	97.25
500.352	87.25
500.569	112.25
500.786	117.25
501.003	87.25
501.22	77.25
501.437	88.25
501.654	82.25
501.871	73.25
502.088	85.25
502.305	80.25
502.522	87.25
502.739	87.25
502.956	80.25
503.172	91.25
503.389	75.25
503.606	99.25
503.823	97.25
504.04	89.25
504.256	98.25
504.473	79.25
504.69	85.25
504.907	90.25
505.123	87.25
505.34	71.25
505.557	81.25
505.773	98.25
505.99	95.25
506.207	94.25
506.423	93.25
506.64	88.25
506.856	66.25
507.073	87.25
507.289	72.25
507.506	82.25
507.722	89.25
507.939	83.25
508.155	86.25
508.372	81.25
508.588	83.25
508.805	77.25
509.021	99.25
509.238	82.25
509.454	89.25
509.67	91.25
509.887	99.25
510.103	89.25
510.319	83.25
510.536	93.25
510.752	81.25
510.968	93.25
511.184	93.25
511.401	73.25
511.617	81.25
511.833	90.25
512.049	89.25
512.265	72.25
512.481	78.25
512.698	81.25
512.914	91.25
513.13	85.25
513.346	87.25
513.562	88.25
513.778	99.25
513.994	87.25
514.21	88.25
514.426	84.25
514.642	97.25
514.858	89.25
515.074	92.25
515.29	107.25
515.506	91.25
515.721	90.25
515.937	85.25
516.153	86.25
516.369	78.25
516.585	91.25
516.801	83.25
517.016	79.25
517.232	87.25
517.448	80.25
517.664	92.25
517.879	89.25
518.095	91.25
518.311	85.25
518.527	77.25
518.742	89.25
518.958	86.25
519.173	91.25
519.389	87.25
519.605	89.25
519.82	82.25
520.036	93.25
520.251	103.25
520.467	97.25
520.682	88.25
520.898	82.25
521.113	98.25
521.329	89.25
521.544	95.25
521.76	85.25
521.975	104.25
522.19	95.25
522.406	83.25
522.621	83.25
522.836	91.25
523.052	99.25
523.267	82.25
523.482	97.25
523.698	87.25
523.913	81.25
524.128	84.25
524.343	88.25
524.559	85.25
524.774	90.25
524.989	100.25
525.204	83.25
525.419	95.25
525.634	93.25
525.849	95.25
526.064	89.25
526.28	92.25
526.495	80.25
526.71	89.25
526.925	82.25
527.14	88.25
527.355	86.25
527.57	91.25
527.785	77.25
527.999	85.25
528.214	84.25
528.429	84.25
528.644	97.25
528.859	89.25
529.074	87.25
529.289	91.25
529.503	87.25
529.718	91.25
529.933	87.25
530.148	81.25
530.363	98.25
530.577	91.25
530.792	78.25
531.007	93.25
531.221	101.25
531.436	94.25
531.651	91.25
531.865	89.25
532.08	79.25
532.295	100.25
532.509	83.25
532.724	91.25
532.938	96.25
533.153	78.25
533.367	79.25
533.582	87.25
533.796	94.25
534.011	92.25
534.225	84.25
534.44	97.25
534.654	101.25
534.868	90.25
535.083	88.25
535.297	72.25
535.511	91.25
535.726	83.25
535.94	83.25
536.154	90.25
536.369	85.25
536.583	76.25
536.797	87.25
537.011	96.25
537.225	78.25
537.44	72.25
537.654	87.25
537.868	85.25
538.082	75.25
538.296	81.25
538.51	110.25
538.724	95.25
538.938	72.25
539.153	97.25
539.367	81.25
539.581	103.25
539.795	82.25
540.009	97.25
540.222	93.25
540.436	78.25
540.65	91.25
540.864	76.25
541.078	73.25
541.292	96.25
541.506	89.25
541.72	80.25
541.934	85.25
542.147	67.25
542.361	70.25
542.575	79.25
542.789	87.25
543.002	85.25
543.216	101.25
543.43	83.25
543.644	86.25
543.857	95.25
544.071	81.25
544.285	72.25
544.498	81.25
544.712	78.25
544.925	91.25
545.139	79.25
545.352	84.25
545.566	74.25
545.779	83.25
545.993	101.25
546.206	91.25
546.42	78.25
546.633	93.25
546.847	83.25
547.06	88.25
547.274	101.25
547.487	92.25
547.7	97.25
547.914	75.25
548.127	91.25
548.34	104.25
548.554	82.25
548.767	89.25
548.98	90.25
549.193	92.25
549.407	92.25
549.62	93.25
549.833	84.25
550.046	96.25
550.259	81.25
550.473	83.25
550.686	89.25
550.899	78.25
551.112	85.25
551.325	84.25
551.538	88.25
551.751	76.25
551.964	89.25
552.177	102.25
552.39	87.25
552.603	87.25
552.816	102.25
553.029	92.25
553.242	89.25
553.455	80.25
553.667	91.25
553.88	93.25
554.093	82.25
554.306	85.25
554.519	79.25
554.732	82.25
554.944	75.25
555.157	97.25
555.37	81.25
555.583	89.25
555.795	92.25
556.008	104.25
556.221	90.25
556.433	87.25
556.646	95.25
556.859	78.25
557.071	92.25
557.284	97.25
557.496	100.25
557.709	89.25
557.921	99.25
558.134	95.25
558.346	82.25
558.559	103.25
558.771	90.25
558.984	89.25
559.196	105.25
559.409	75.25
559.621	71.25
559.833	91.25
560.046	90.25
560.258	88.25
560.47	85.25
560.683	92.25
560.895	89.25
561.107	107.25
561.32	80.25
561.532	90.25
561.744	84.25
561.956	83.25
562.168	90.25
562.381	88.25
562.593	88.25
562.805	90.25
563.017	88.25
563.229	95.25
563.441	87.25
563.653	87.25
563.865	84.25
564.077	88.25
564.289	87.25
564.501	100.25
564.713	99.25
564.925	103.25
565.137	87.25
565.349	104.25
565.561	92.25
565.773	83.25
565.985	109.25
566.197	100.25
566.408	75.25
566.62	83.25
566.832	102.25
567.044	104.25
567.255	82.25
567.467	81.25
567.679	94.25
567.891	96.25
568.102	81.25
568.314	91.25
568.526	97.25
568.737	99.25
568.949	92.25
569.161	103.25
569.372	91.25
569.584	73.25
569.795	97.25
570.007	93.25
570.218	86.25
570.43	86.25
570.641	85.25
570.853	69.25
571.064	80.25
571.276	90.25
571.487	101.25
571.698	96.25
571.91	91.25
572.121	85.25
572.333	88.25
572.544	86.25
572.755	92.25
572.966	94.25
573.178	90.25
573.389	82.25
573.6	87.25
573.811	92.25
574.023	83.25
574.234	90.25
574.445	73.25
574.656	86.25
574.867	95.25
575.078	73.25
575.289	71.25
575.501	94.25
575.712	93.25
575.923	75.25
576.134	77.25
576.345	90.25
576.556	74.25
576.767	99.25
576.978	93.25
577.188	101.25
577.399	78.25
577.61	86.25
577.821	80.25
578.032	87.25
578.243	99.25
578.454	75.25
578.665	87.25
578.875	94.25
579.086	77.25
579.297	87.25
579.508	80.25
579.718	87.25
579.929	83.25
580.14	83.25
580.35	96.25
580.561	83.25
580.772	79.25
580.982	72.25
581.193	97.25
581.403	87.25
581.614	85.25
581.825	88.25
582.035	73.25
582.246	89.25
582.456	81.25
582.667	81.25
582.877	84.25
583.087	87.25
583.298	87.25
583.508	81.25
583.719	88.25
583.929	87.25
584.139	89.25
584.35	100.25
584.56	88.25
584.77	97.25
584.981	87.25
585.191	80.25
585.401	89.25
585.611	101.25
585.821	91.25
586.032	85.25
586.242	83.25
586.452	89.25
586.662	75.25
586.872	83.25
587.082	81.25
587.292	82.25
587.502	81.25
587.713	82.25
587.923	90.25
588.133	90.25
588.343	93.25
588.553	104.25
588.762	113.25
588.972	175.25
589.182	407.25
589.392	227.25
589.602	178.25
589.812	326.25
590.022	175.25
590.232	91.25
590.441	84.25
590.651	86.25
590.861	91.25
591.071	82.25
591.281	85.25
591.49	89.25
591.7	90.25
591.91	83.25
592.119	89.25
592.329	99.25
592.539	89.25
592.748	94.25
592.958	96.25
593.167	82.25
593.377	91.25
593.587	83.25
593.796	86.25
594.006	87.25
594.215	99.25
594.424	99.25
594.634	79.25
594.843	63.25
595.053	85.25
595.262	79.25
595.472	87.25
595.681	91.25
595.89	74.25
596.1	85.25
596.309	100.25
596.518	76.25
596.727	84.25
596.937	87.25
597.146	92.25
597.355	85.25
597.564	86.25
597.774	91.25
597.983	86.25
598.192	95.25
598.401	88.25
598.61	102.25
598.819	87.25
599.028	78.25
599.237	72.25
599.446	77.25
599.655	90.25
599.864	91.25
600.073	91.25
600.282	93.25
600.491	88.25
600.7	85.25
600.909	89.25
601.118	97.25
601.327	88.25
601.536	91.25
601.745	91.25
601.953	90.25
602.162	98.25
602.371	102.25
602.58	91.25
602.789	85.25
602.997	94.25
603.206	95.25
603.415	92.25
603.623	80.25
603.832	87.25
604.041	98.25
604.249	96.25
604.458	94.25
604.666	78.25
604.875	82.25
605.084	79.25
605.292	79.25
605.501	74.25
605.709	95.25
605.918	96.25
606.126	86.25
606.334	102.25
606.543	84.25
606.751	95.25
606.96	93.25
607.168	84.25
607.376	96.25
607.585	90.25
607.793	79.25
608.001	89.25
608.21	88.25
608.418	107.25
608.626	91.25
608.834	71.25
609.043	77.25
609.251	96.25
609.459	91.25
609.667	85.25
609.875	87.25
610.083	79.25
610.291	99.25
610.499	100.25
610.707	78.25
610.916	81.25
611.124	92.25
611.332	80.25
611.54	103.25
611.748	90.25
611.955	93.25
612.163	87.25
612.371	95.25
612.579	89.25
612.787	92.25
612.995	86.25
613.203	98.25
613.411	80.25
613.618	79.25
613.826	83.25
614.034	78.25
614.242	99.25
614.449	83.25
614.657	90.25
614.865	97.25
615.072	87.25
615.28	95.25
615.488	88.25
615.695	89.25
615.903	95.25
616.111	92.25
616.318	80.25
616.526	93.25
616.733	82.25
616.941	79.25
617.148	79.25
617.356	81.25
617.563	88.25
617.771	79.25
617.978	77.25
618.185	93.25
618.393	89.25
618.6	81.25
618.807	91.25
619.015	89.25
619.222	73.25
619.429	93.25
619.637	90.25
619.844	92.25
620.051	93.25
620.258	90.25
620.466	82.25
620.673	75.25
620.88	70.25
621.087	89.25
621.294	90.25
621.501	94.25
621.708	96.25
621.915	93.25
622.122	93.25
622.329	88.25
622.536	86.25
622.743	95.25
622.95	96.25
623.157	82.25
623.364	73.25
623.571	85.25
623.778	87.25
623.985	100.25
624.192	82.25
624.399	75.25
624.606	82.25
624.812	95.25
625.019	77.25
625.226	97.25
625.433	95.25
625.639	92.25
625.846	86.25
626.053	71.25
626.259	79.25
626.466	74.25
626.673	90.25
626.879	79.25
627.086	86.25
627.293	83.25
627.499	89.25
627.706	87.25
627.912	77.25
628.119	72.25
628.325	106.25
628.532	79.25
628.738	75.25
628.945	81.25
629.151	69.25
629.357	79.25
629.564	85.25
629.77	86.25
629.976	87.25
630.183	70.25
630.389	97.25
630.595	73.25
630.802	83.25
631.008	79.25
631.214	85.25
631.42	83.25
631.627	95.25
631.833	81.25
632.039	82.25
632.245	85.25
632.451	86.25
632.657	64.25
632.863	82.25
633.069	85.25
633.275	80.25
633.481	85.25
633.688	96.25
633.893	96.25
634.099	88.25
634.305	102.25
634.511	84.25
634.717	83.25
634.923	73.25
635.129	97.25
635.335	82.25
635.541	73.25
635.747	88.25
635.952	82.25
636.158	87.25
636.364	87.25
636.57	81.25
636.775	83.25
636.981	87.25
637.187	86.25
637.392	79.25
637.598	85.25
637.804	91.25
638.009	75.25
638.215	96.25
638.421	87.25
638.626	85.25
638.832	85.25
639.037	77.25
639.243	68.25
639.448	92.25
639.654	79.25
639.859	85.25
640.065	78.25
640.27	102.25
640.475	86.25
640.681	85.25
640.886	82.25
641.091	75.25
641.297	82.25
641.502	85.25
641.707	73.25
641.913	90.25
642.118	79.25
642.323	95.25
642.528	95.25
642.733	91.25
642.939	91.25
643.144	85.25
643.349	86.25
643.554	89.25
643.759	80.25
643.964	94.25
644.169	98.25
644.374	94.25
644.579	89.25
644.784	92.25
644.989	80.25
645.194	81.25
645.399	89.25
645.604	82.25
645.809	84.25
646.014	82.25
646.219	99.25
646.423	91.25
646.628	87.25
646.833	85.25
647.038	81.25
647.243	79.25
647.447	91.25
647.652	87.25
647.857	81.25
648.062	93.25
648.266	97.25
648.471	99.25
648.676	88.25
648.88	93.25
649.085	89.25
649.289	84.25
649.494	87.25
649.698	105.25
649.903	89.25
650.107	82.25
650.312	91.25
650.516	100.25
650.721	89.25
650.925	90.25
651.13	97.25
651.334	78.25
651.539	102.25
651.743	80.25
651.947	87.25
652.152	93.25
652.356	92.25
652.56	86.25
652.764	78.25
652.969	94.25
653.173	91.25
653.377	89.25
653.581	95.25
653.785	80.25
653.99	74.25
654.194	73.25
654.398	87.25
654.602	87.25
654.806	84.25
655.01	85.25
655.214	76.25
655.418	89.25
655.622	85.25
655.826	93.25
656.03	88.25
656.234	87.25
656.438	73.25
656.642	83.25
656.846	89.25
657.049	100.25
657.253	103.25
657.457	89.25
657.661	91.25
657.865	92.25
658.068	69.25
658.272	97.25
658.476	88.25
658.68	89.25
658.883	81.25
659.087	85.25
659.291	78.25
659.494	94.25
659.698	81.25
659.901	81.25
660.105	86.25
660.309	80.25
660.512	105.25
660.716	87.25
660.919	77.25
661.123	70.25
661.326	92.25
661.53	80.25
661.733	90.25
661.936	84.25
662.14	74.25
662.343	94.25
662.546	80.25
662.75	99.25
662.953	93.25
663.156	81.25
663.36	89.25
663.563	81.25
663.766	79.25
663.969	84.25
664.173	87.25
664.376	73.25
664.579	82.25
664.782	79.25
664.985	88.25
665.188	80.25
665.391	77.25
665.594	97.25
665.797	82.25
666	74.25
666.203	84.25
666.406	93.25
666.609	89.25
666.812	90.25
667.015	88.25
667.218	75.25
667.421	85.25
667.624	88.25
667.827	92.25
668.03	81.25
668.232	95.25
668.435	72.25
668.638	87.25
668.841	93.25
669.043	93.25
669.246	77.25
669.449	103.25
669.651	81.25
669.854	86.25
670.057	83.25
670.259	79.25
670.462	91.25
670.665	86.25
670.867	73.25
671.07	90.25
671.272	71.25
671.475	75.25
671.677	79.25
671.88	89.25
672.082	80.25
672.284	81.25
672.487	75.25
672.689	81.25
672.892	81.25
