Data from Lead_HRD10591_00009.txt Node
Date: Tue Feb 17 14:19:15 EST 2026
User: Yrep
Spectrometer: HR+D1059
Trigger mode: 1
Integration Time (sec): 1.000000E-1
Scans to average: 1
Electric dark correction enabled: true
Nonlinearity correction enabled: false
Boxcar width: 0
XAxis mode: Wavelengths
Number of Pixels in Spectrum: 2048
>>>>>Begin Spectral Data<<<<<
223.165	-8.12
223.4	-8.12
223.635	-8.12
223.869	-12.12
224.104	-15.12
224.338	-13.12
224.573	-17.12
224.808	-11.12
225.042	-6.12
225.277	-8.12
225.511	-3.12
225.746	3.88
225.98	17.88
226.215	2.88
226.449	16.88
226.683	16.88
226.918	21.88
227.152	13.88
227.387	24.88
227.621	26.88
227.856	33.88
228.09	41.88
228.324	35.88
228.559	54.88
228.793	50.88
229.027	42.88
229.262	66.88
229.496	67.88
229.73	57.88
229.964	59.88
230.199	69.88
230.433	69.88
230.667	73.88
230.901	75.88
231.136	81.88
231.37	67.88
231.604	77.88
231.838	61.88
232.072	71.88
232.306	65.88
232.541	95.88
232.775	88.88
233.009	73.88
233.243	85.88
233.477	70.88
233.711	58.88
233.945	69.88
234.179	69.88
234.413	77.88
234.647	72.88
234.881	76.88
235.115	71.88
235.349	66.88
235.583	67.88
235.817	61.88
236.051	79.88
236.285	69.88
236.519	74.88
236.753	69.88
236.987	62.88
237.221	73.88
237.455	69.88
237.689	67.88
237.922	77.88
238.156	60.88
238.39	81.88
238.624	71.88
238.858	71.88
239.091	78.88
239.325	77.88
239.559	84.88
239.793	84.88
240.027	78.88
240.26	75.88
240.494	80.88
240.728	66.88
240.961	63.88
241.195	75.88
241.429	75.88
241.662	73.88
241.896	72.88
242.13	84.88
242.363	69.88
242.597	61.88
242.83	83.88
243.064	65.88
243.298	75.88
243.531	71.88
243.765	76.88
243.998	69.88
244.232	71.88
244.465	66.88
244.699	85.88
244.932	69.88
245.166	79.88
245.399	79.88
245.633	70.88
245.866	80.88
246.099	58.88
246.333	66.88
246.566	77.88
246.8	85.88
247.033	69.88
247.266	79.88
247.5	66.88
247.733	76.88
247.966	85.88
248.2	55.88
248.433	71.88
248.666	76.88
248.899	75.88
249.133	62.88
249.366	85.88
249.599	73.88
249.832	84.88
250.066	71.88
250.299	55.88
250.532	58.88
250.765	79.88
250.998	87.88
251.231	78.88
251.465	90.88
251.698	91.88
251.931	88.88
252.164	85.88
252.397	73.88
252.63	82.88
252.863	80.88
253.096	79.88
253.329	71.88
253.562	73.88
253.795	78.88
254.028	84.88
254.261	80.88
254.494	80.88
254.727	72.88
254.96	70.88
255.193	80.88
255.426	78.88
255.659	80.88
255.892	84.88
256.124	72.88
256.357	87.88
256.59	80.88
256.823	77.88
257.056	77.88
257.289	83.88
257.521	79.88
257.754	102.88
257.987	104.88
258.22	94.88
258.452	88.88
258.685	74.88
258.918	70.88
259.151	79.88
259.383	88.88
259.616	82.88
259.849	67.88
260.081	79.88
260.314	87.88
260.547	83.88
260.779	80.88
261.012	104.88
261.244	78.88
261.477	121.88
261.71	118.88
261.942	91.88
262.175	87.88
262.407	80.88
262.64	73.88
262.872	73.88
263.105	83.88
263.337	81.88
263.57	75.88
263.802	72.88
264.035	71.88
264.267	85.88
264.499	81.88
264.732	96.88
264.964	85.88
265.197	78.88
265.429	94.88
265.661	76.88
265.894	72.88
266.126	87.88
266.358	100.88
266.591	98.88
266.823	84.88
267.055	76.88
267.287	71.88
267.52	73.88
267.752	76.88
267.984	89.88
268.216	70.88
268.448	89.88
268.681	86.88
268.913	71.88
269.145	69.88
269.377	69.88
269.609	84.88
269.841	77.88
270.073	77.88
270.306	83.88
270.538	89.88
270.77	85.88
271.002	83.88
271.234	74.88
271.466	83.88
271.698	80.88
271.93	67.88
272.162	81.88
272.394	75.88
272.626	76.88
272.858	75.88
273.09	75.88
273.322	99.88
273.553	89.88
273.785	76.88
274.017	76.88
274.249	72.88
274.481	75.88
274.713	69.88
274.945	83.88
275.176	91.88
275.408	75.88
275.64	73.88
275.872	83.88
276.104	79.88
276.335	82.88
276.567	86.88
276.799	91.88
277.031	78.88
277.262	81.88
277.494	73.88
277.726	86.88
277.957	70.88
278.189	69.88
278.421	83.88
278.652	69.88
278.884	82.88
279.115	81.88
279.347	96.88
279.579	92.88
279.81	115.88
280.042	130.88
280.273	159.88
280.505	143.88
280.736	84.88
280.968	88.88
281.199	96.88
281.431	73.88
281.662	74.88
281.894	96.88
282.125	90.88
282.356	112.88
282.588	103.88
282.819	94.88
283.051	116.88
283.282	157.88
283.513	149.88
283.745	122.88
283.976	85.88
284.207	92.88
284.439	90.88
284.67	70.88
284.901	91.88
285.132	99.88
285.364	87.88
285.595	79.88
285.826	84.88
286.057	79.88
286.288	91.88
286.52	103.88
286.751	83.88
286.982	99.88
287.213	119.88
287.444	135.88
287.675	119.88
287.906	96.88
288.138	111.88
288.369	107.88
288.6	84.88
288.831	81.88
289.062	91.88
289.293	84.88
289.524	89.88
289.755	74.88
289.986	77.88
290.217	73.88
290.448	73.88
290.679	83.88
290.91	85.88
291.141	79.88
291.371	78.88
291.602	79.88
291.833	74.88
292.064	68.88
292.295	71.88
292.526	90.88
292.757	89.88
292.987	102.88
293.218	102.88
293.449	65.88
293.68	79.88
293.91	79.88
294.141	69.88
294.372	68.88
294.603	70.88
294.833	78.88
295.064	81.88
295.295	80.88
295.525	84.88
295.756	98.88
295.987	89.88
296.217	79.88
296.448	65.88
296.679	82.88
296.909	87.88
297.14	81.88
297.37	96.88
297.601	84.88
297.831	77.88
298.062	72.88
298.292	81.88
298.523	85.88
298.753	85.88
298.984	70.88
299.214	80.88
299.445	69.88
299.675	77.88
299.905	82.88
300.136	79.88
300.366	85.88
300.597	83.88
300.827	94.88
301.057	86.88
301.288	89.88
301.518	84.88
301.748	77.88
301.979	105.88
302.209	87.88
302.439	88.88
302.669	87.88
302.9	79.88
303.13	78.88
303.36	99.88
303.59	81.88
303.82	95.88
304.051	76.88
304.281	87.88
304.511	74.88
304.741	87.88
304.971	78.88
305.201	88.88
305.431	71.88
305.661	95.88
305.891	79.88
306.121	87.88
306.352	94.88
306.582	90.88
306.812	76.88
307.042	102.88
307.272	87.88
307.502	89.88
307.731	94.88
307.961	102.88
308.191	118.88
308.421	120.88
308.651	99.88
308.881	107.88
309.111	124.88
309.341	142.88
309.571	113.88
309.8	86.88
310.03	83.88
310.26	92.88
310.49	73.88
310.72	77.88
310.949	90.88
311.179	86.88
311.409	77.88
311.639	85.88
311.868	72.88
312.098	82.88
312.328	87.88
312.557	69.88
312.787	75.88
313.017	77.88
313.246	86.88
313.476	73.88
313.706	79.88
313.935	81.88
314.165	80.88
314.394	84.88
314.624	86.88
314.853	93.88
315.083	91.88
315.312	82.88
315.542	77.88
315.771	84.88
316.001	87.88
316.23	81.88
316.46	84.88
316.689	95.88
316.919	82.88
317.148	87.88
317.377	103.88
317.607	107.88
317.836	108.88
318.065	95.88
318.295	69.88
318.524	80.88
318.753	89.88
318.983	87.88
319.212	81.88
319.441	82.88
319.67	77.88
319.9	84.88
320.129	81.88
320.358	72.88
320.587	79.88
320.816	80.88
321.046	73.88
321.275	96.88
321.504	78.88
321.733	81.88
321.962	99.88
322.191	87.88
322.42	82.88
322.649	97.88
322.878	86.88
323.108	75.88
323.337	93.88
323.566	83.88
323.795	79.88
324.024	86.88
324.253	94.88
324.482	94.88
324.71	106.88
324.939	96.88
325.168	85.88
325.397	77.88
325.626	79.88
325.855	88.88
326.084	101.88
326.313	104.88
326.542	94.88
326.77	92.88
326.999	85.88
327.228	96.88
327.457	115.88
327.686	88.88
327.914	87.88
328.143	94.88
328.372	79.88
328.6	71.88
328.829	91.88
329.058	69.88
329.287	76.88
329.515	71.88
329.744	79.88
329.972	79.88
330.201	102.88
330.43	107.88
330.658	87.88
330.887	67.88
331.115	83.88
331.344	87.88
331.572	91.88
331.801	84.88
332.03	88.88
332.258	94.88
332.486	81.88
332.715	89.88
332.943	86.88
333.172	93.88
333.4	95.88
333.629	81.88
333.857	86.88
334.085	79.88
334.314	76.88
334.542	72.88
334.771	79.88
334.999	72.88
335.227	88.88
335.455	89.88
335.684	84.88
335.912	79.88
336.14	83.88
336.369	89.88
336.597	72.88
336.825	74.88
337.053	84.88
337.281	77.88
337.51	83.88
337.738	87.88
337.966	84.88
338.194	86.88
338.422	98.88
338.65	63.88
338.878	92.88
339.106	77.88
339.334	63.88
339.562	75.88
339.79	79.88
340.018	74.88
340.246	84.88
340.474	93.88
340.702	82.88
340.93	84.88
341.158	87.88
341.386	78.88
341.614	93.88
341.842	81.88
342.07	68.88
342.298	87.88
342.526	101.88
342.754	68.88
342.981	58.88
343.209	84.88
343.437	95.88
343.665	73.88
343.893	73.88
344.12	78.88
344.348	81.88
344.576	86.88
344.804	92.88
345.031	73.88
345.259	81.88
345.487	86.88
345.714	77.88
345.942	85.88
346.17	79.88
346.397	83.88
346.625	80.88
346.853	59.88
347.08	75.88
347.308	85.88
347.535	73.88
347.763	79.88
347.99	102.88
348.218	86.88
348.445	86.88
348.673	83.88
348.9	72.88
349.128	78.88
349.355	95.88
349.583	76.88
349.81	77.88
350.037	72.88
350.265	86.88
350.492	91.88
350.72	84.88
350.947	75.88
351.174	83.88
351.402	63.88
351.629	85.88
351.856	93.88
352.083	81.88
352.311	81.88
352.538	81.88
352.765	70.88
352.992	81.88
353.22	89.88
353.447	87.88
353.674	82.88
353.901	86.88
354.128	96.88
354.355	77.88
354.583	83.88
354.81	78.88
355.037	73.88
355.264	92.88
355.491	65.88
355.718	77.88
355.945	77.88
356.172	84.88
356.399	94.88
356.626	94.88
356.853	144.88
357.08	163.88
357.307	241.88
357.534	180.88
357.761	120.88
357.988	99.88
358.215	100.88
358.441	86.88
358.668	81.88
358.895	85.88
359.122	70.88
359.349	77.88
359.576	72.88
359.802	69.88
360.029	97.88
360.256	80.88
360.483	88.88
360.709	88.88
360.936	88.88
361.163	83.88
361.39	91.88
361.616	78.88
361.843	88.88
362.07	75.88
362.296	85.88
362.523	79.88
362.749	93.88
362.976	91.88
363.203	113.88
363.429	126.88
363.656	206.88
363.882	336.88
364.109	368.88
364.335	182.88
364.562	107.88
364.788	101.88
365.015	93.88
365.241	72.88
365.468	85.88
365.694	94.88
365.92	84.88
366.147	90.88
366.373	88.88
366.599	101.88
366.826	102.88
367.052	131.88
367.278	139.88
367.505	119.88
367.731	127.88
367.957	210.88
368.184	370.88
368.41	536.88
368.636	340.88
368.862	136.88
369.089	103.88
369.315	89.88
369.541	88.88
369.767	94.88
369.993	79.88
370.219	95.88
370.445	87.88
370.672	82.88
370.898	88.88
371.124	80.88
371.35	79.88
371.576	90.88
371.802	83.88
372.028	95.88
372.254	88.88
372.48	91.88
372.706	70.88
372.932	87.88
373.158	77.88
373.384	107.88
373.61	140.88
373.835	176.88
374.061	226.88
374.287	169.88
374.513	92.88
374.739	92.88
374.965	89.88
375.191	76.88
375.416	82.88
375.642	92.88
375.868	78.88
376.094	79.88
376.319	82.88
376.545	76.88
376.771	82.88
376.997	84.88
377.222	86.88
377.448	79.88
377.674	80.88
377.899	69.88
378.125	64.88
378.35	82.88
378.576	73.88
378.802	68.88
379.027	84.88
379.253	94.88
379.478	79.88
379.704	84.88
379.929	91.88
380.155	101.88
380.38	105.88
380.606	78.88
380.831	87.88
381.057	101.88
381.282	79.88
381.507	83.88
381.733	82.88
381.958	93.88
382.184	98.88
382.409	83.88
382.634	88.88
382.86	96.88
383.085	89.88
383.31	93.88
383.535	93.88
383.761	92.88
383.986	84.88
384.211	85.88
384.436	91.88
384.662	87.88
384.887	98.88
385.112	74.88
385.337	86.88
385.562	79.88
385.787	91.88
386.013	100.88
386.238	81.88
386.463	73.88
386.688	97.88
386.913	91.88
387.138	83.88
387.363	85.88
387.588	83.88
387.813	76.88
388.038	98.88
388.263	90.88
388.488	79.88
388.713	79.88
388.938	83.88
389.163	85.88
389.387	88.88
389.612	74.88
389.837	75.88
390.062	71.88
390.287	97.88
390.512	97.88
390.736	100.88
390.961	101.88
391.186	90.88
391.411	89.88
391.636	84.88
391.86	86.88
392.085	71.88
392.31	81.88
392.534	95.88
392.759	101.88
392.984	129.88
393.208	248.88
393.433	348.88
393.658	239.88
393.882	123.88
394.107	127.88
394.331	211.88
394.556	244.88
394.78	130.88
395.005	101.88
395.229	88.88
395.454	84.88
395.678	117.88
395.903	168.88
396.127	301.88
396.352	311.88
396.576	186.88
396.801	238.88
397.025	276.88
397.249	134.88
397.474	92.88
397.698	80.88
397.922	80.88
398.147	76.88
398.371	74.88
398.595	75.88
398.82	78.88
399.044	83.88
399.268	70.88
399.492	76.88
399.717	90.88
399.941	73.88
400.165	86.88
400.389	75.88
400.613	92.88
400.837	83.88
401.062	86.88
401.286	91.88
401.51	89.88
401.734	96.88
401.958	105.88
402.182	95.88
402.406	84.88
402.63	81.88
402.854	80.88
403.078	94.88
403.302	94.88
403.526	95.88
403.75	92.88
403.974	110.88
404.198	117.88
404.422	194.88
404.645	227.88
404.869	165.88
405.093	149.88
405.317	188.88
405.541	415.88
405.765	807.88
405.988	819.88
406.212	335.88
406.436	203.88
406.66	102.88
406.883	108.88
407.107	93.88
407.331	87.88
407.555	84.88
407.778	69.88
408.002	98.88
408.226	96.88
408.449	81.88
408.673	100.88
408.896	79.88
409.12	86.88
409.344	83.88
409.567	78.88
409.791	78.88
410.014	86.88
410.238	91.88
410.461	72.88
410.685	76.88
410.908	87.88
411.132	92.88
411.355	75.88
411.578	72.88
411.802	88.88
412.025	84.88
412.249	79.88
412.472	93.88
412.695	75.88
412.919	86.88
413.142	93.88
413.365	64.88
413.589	99.88
413.812	76.88
414.035	82.88
414.258	77.88
414.482	86.88
414.705	91.88
414.928	83.88
415.151	73.88
415.374	75.88
415.597	71.88
415.821	85.88
416.044	85.88
416.267	84.88
416.49	73.88
416.713	93.88
416.936	103.88
417.159	93.88
417.382	85.88
417.605	87.88
417.828	77.88
418.051	87.88
418.274	87.88
418.497	73.88
418.72	83.88
418.943	81.88
419.166	93.88
419.389	96.88
419.611	91.88
419.834	82.88
420.057	92.88
420.28	94.88
420.503	85.88
420.726	81.88
420.948	76.88
421.171	94.88
421.394	85.88
421.617	91.88
421.839	77.88
422.062	88.88
422.285	109.88
422.507	171.88
422.73	278.88
422.953	225.88
423.175	105.88
423.398	88.88
423.621	72.88
423.843	81.88
424.066	89.88
424.288	79.88
424.511	84.88
424.733	72.88
424.956	73.88
425.178	77.88
425.401	92.88
425.623	76.88
425.846	67.88
426.068	77.88
426.291	76.88
426.513	68.88
426.735	71.88
426.958	85.88
427.18	89.88
427.402	65.88
427.625	73.88
427.847	81.88
428.069	81.88
428.292	89.88
428.514	95.88
428.736	93.88
428.958	94.88
429.181	97.88
429.403	72.88
429.625	92.88
429.847	89.88
430.069	92.88
430.292	127.88
430.514	107.88
430.736	79.88
430.958	95.88
431.18	84.88
431.402	92.88
431.624	76.88
431.846	72.88
432.068	75.88
432.29	85.88
432.512	83.88
432.734	78.88
432.956	93.88
433.178	77.88
433.4	80.88
433.622	93.88
433.844	89.88
434.066	69.88
434.287	88.88
434.509	87.88
434.731	72.88
434.953	77.88
435.175	73.88
435.397	88.88
435.618	96.88
435.84	81.88
436.062	79.88
436.284	70.88
436.505	73.88
436.727	68.88
436.949	62.88
437.17	69.88
437.392	78.88
437.614	82.88
437.835	86.88
438.057	92.88
438.278	81.88
438.5	88.88
438.721	79.88
438.943	88.88
439.165	87.88
439.386	91.88
439.608	94.88
439.829	88.88
440.05	82.88
440.272	92.88
440.493	87.88
440.715	87.88
440.936	85.88
441.158	81.88
441.379	79.88
441.6	85.88
441.822	82.88
442.043	81.88
442.264	75.88
442.486	91.88
442.707	101.88
442.928	85.88
443.149	91.88
443.371	91.88
443.592	102.88
443.813	103.88
444.034	89.88
444.255	69.88
444.476	77.88
444.698	72.88
444.919	80.88
445.14	165.88
445.361	149.88
445.582	126.88
445.803	87.88
446.024	101.88
446.245	78.88
446.466	87.88
446.687	88.88
446.908	69.88
447.129	74.88
447.35	78.88
447.571	79.88
447.792	94.88
448.013	88.88
448.234	83.88
448.455	67.88
448.675	84.88
448.896	72.88
449.117	85.88
449.338	84.88
449.559	92.88
449.779	95.88
450	71.88
450.221	82.88
450.442	72.88
450.662	68.88
450.883	96.88
451.104	79.88
451.324	72.88
451.545	56.88
451.766	72.88
451.986	76.88
452.207	85.88
452.428	61.88
452.648	66.88
452.869	85.88
453.089	76.88
453.31	70.88
453.53	88.88
453.751	89.88
453.971	79.88
454.192	86.88
454.412	69.88
454.633	83.88
454.853	70.88
455.073	81.88
455.294	75.88
455.514	102.88
455.734	81.88
455.955	75.88
456.175	75.88
456.395	86.88
456.616	83.88
456.836	91.88
457.056	80.88
457.276	79.88
457.497	77.88
457.717	88.88
457.937	69.88
458.157	83.88
458.377	86.88
458.598	68.88
458.818	87.88
459.038	71.88
459.258	77.88
459.478	80.88
459.698	78.88
459.918	83.88
460.138	80.88
460.358	91.88
460.578	72.88
460.798	76.88
461.018	78.88
461.238	72.88
461.458	86.88
461.678	77.88
461.898	64.88
462.118	83.88
462.338	77.88
462.558	76.88
462.777	88.88
462.997	79.88
463.217	69.88
463.437	80.88
463.657	81.88
463.876	84.88
464.096	85.88
464.316	89.88
464.536	74.88
464.755	83.88
464.975	79.88
465.195	85.88
465.414	74.88
465.634	81.88
465.854	81.88
466.073	87.88
466.293	88.88
466.512	77.88
466.732	73.88
466.951	74.88
467.171	89.88
467.391	85.88
467.61	77.88
467.829	81.88
468.049	90.88
468.268	71.88
468.488	71.88
468.707	79.88
468.927	79.88
469.146	85.88
469.365	88.88
469.585	84.88
469.804	79.88
470.023	71.88
470.243	82.88
470.462	104.88
470.681	83.88
470.901	73.88
471.12	67.88
471.339	70.88
471.558	74.88
471.777	83.88
471.997	74.88
472.216	74.88
472.435	83.88
472.654	90.88
472.873	88.88
473.092	81.88
473.311	81.88
473.53	81.88
473.749	73.88
473.968	96.88
474.187	84.88
474.406	71.88
474.625	69.88
474.844	80.88
475.063	79.88
475.282	73.88
475.501	83.88
475.72	77.88
475.939	89.88
476.158	84.88
476.377	63.88
476.596	91.88
476.814	86.88
477.033	84.88
477.252	93.88
477.471	83.88
477.69	81.88
477.908	86.88
478.127	76.88
478.346	80.88
478.564	90.88
478.783	88.88
479.002	75.88
479.22	74.88
479.439	84.88
479.658	72.88
479.876	83.88
480.095	74.88
480.313	97.88
480.532	89.88
480.751	78.88
480.969	79.88
481.188	68.88
481.406	79.88
481.624	76.88
481.843	85.88
482.061	81.88
482.28	77.88
482.498	88.88
482.717	86.88
482.935	79.88
483.153	79.88
483.372	76.88
483.59	72.88
483.808	70.88
484.027	78.88
484.245	84.88
484.463	99.88
484.681	93.88
484.9	90.88
485.118	92.88
485.336	91.88
485.554	75.88
485.772	95.88
485.99	82.88
486.209	79.88
486.427	86.88
486.645	84.88
486.863	89.88
487.081	95.88
487.299	90.88
487.517	72.88
487.735	79.88
487.953	101.88
488.171	90.88
488.389	97.88
488.607	93.88
488.825	83.88
489.043	79.88
489.261	77.88
489.479	81.88
489.696	77.88
489.914	79.88
490.132	84.88
490.35	91.88
490.568	79.88
490.786	87.88
491.003	79.88
491.221	91.88
491.439	89.88
491.657	79.88
491.874	88.88
492.092	85.88
492.31	84.88
492.527	77.88
492.745	79.88
492.963	99.88
493.18	97.88
493.398	91.88
493.615	80.88
493.833	80.88
494.05	95.88
494.268	83.88
494.485	75.88
494.703	79.88
494.92	67.88
495.138	83.88
495.355	87.88
495.573	99.88
495.79	86.88
496.008	109.88
496.225	78.88
496.442	87.88
496.66	87.88
496.877	89.88
497.094	85.88
497.312	76.88
497.529	96.88
497.746	101.88
497.963	88.88
498.181	88.88
498.398	93.88
498.615	86.88
498.832	93.88
499.049	84.88
499.267	80.88
499.484	91.88
499.701	81.88
499.918	72.88
500.135	84.88
500.352	101.88
500.569	119.88
500.786	166.88
501.003	109.88
501.22	94.88
501.437	99.88
501.654	81.88
501.871	89.88
502.088	90.88
502.305	99.88
502.522	74.88
502.739	61.88
502.956	97.88
503.172	90.88
503.389	89.88
503.606	72.88
503.823	91.88
504.04	87.88
504.256	91.88
504.473	98.88
504.69	86.88
504.907	79.88
505.123	91.88
505.34	82.88
505.557	79.88
505.773	83.88
505.99	69.88
506.207	85.88
506.423	71.88
506.64	84.88
506.856	87.88
507.073	77.88
507.289	73.88
507.506	81.88
507.722	80.88
507.939	57.88
508.155	80.88
508.372	84.88
508.588	91.88
508.805	73.88
509.021	90.88
509.238	96.88
509.454	99.88
509.67	79.88
509.887	82.88
510.103	96.88
510.319	88.88
510.536	87.88
510.752	86.88
510.968	95.88
511.184	85.88
511.401	101.88
511.617	96.88
511.833	85.88
512.049	74.88
512.265	95.88
512.481	93.88
512.698	87.88
512.914	89.88
513.13	105.88
513.346	82.88
513.562	84.88
513.778	86.88
513.994	80.88
514.21	83.88
514.426	83.88
514.642	84.88
514.858	78.88
515.074	73.88
515.29	93.88
515.506	87.88
515.721	107.88
515.937	89.88
516.153	82.88
516.369	81.88
516.585	81.88
516.801	92.88
517.016	86.88
517.232	80.88
517.448	73.88
517.664	88.88
517.879	83.88
518.095	92.88
518.311	89.88
518.527	85.88
518.742	93.88
518.958	91.88
519.173	93.88
519.389	95.88
519.605	78.88
519.82	84.88
520.036	86.88
520.251	93.88
520.467	91.88
520.682	79.88
520.898	80.88
521.113	68.88
521.329	84.88
521.544	77.88
521.76	80.88
521.975	83.88
522.19	88.88
522.406	81.88
522.621	84.88
522.836	97.88
523.052	102.88
523.267	100.88
523.482	96.88
523.698	79.88
523.913	85.88
524.128	81.88
524.343	70.88
524.559	81.88
524.774	82.88
524.989	87.88
525.204	79.88
525.419	87.88
525.634	83.88
525.849	91.88
526.064	81.88
526.28	93.88
526.495	99.88
526.71	94.88
526.925	99.88
527.14	115.88
527.355	107.88
527.57	66.88
527.785	90.88
527.999	80.88
528.214	91.88
528.429	89.88
528.644	76.88
528.859	68.88
529.074	78.88
529.289	83.88
529.503	74.88
529.718	80.88
529.933	89.88
530.148	97.88
530.363	96.88
530.577	72.88
530.792	76.88
531.007	79.88
531.221	98.88
531.436	77.88
531.651	81.88
531.865	89.88
532.08	83.88
532.295	88.88
532.509	99.88
532.724	97.88
532.938	104.88
533.153	90.88
533.367	80.88
533.582	79.88
533.796	85.88
534.011	89.88
534.225	70.88
534.44	99.88
534.654	94.88
534.868	83.88
535.083	90.88
535.297	98.88
535.511	79.88
535.726	72.88
535.94	89.88
536.154	83.88
536.369	95.88
536.583	96.88
536.797	81.88
537.011	79.88
537.225	87.88
537.44	84.88
537.654	83.88
537.868	80.88
538.082	83.88
538.296	79.88
538.51	82.88
538.724	68.88
538.938	81.88
539.153	81.88
539.367	83.88
539.581	68.88
539.795	83.88
540.009	100.88
540.222	78.88
540.436	67.88
540.65	93.88
540.864	75.88
541.078	77.88
541.292	80.88
541.506	87.88
541.72	101.88
541.934	92.88
542.147	79.88
542.361	84.88
542.575	96.88
542.789	91.88
543.002	90.88
543.216	86.88
543.43	72.88
543.644	86.88
543.857	99.88
544.071	92.88
544.285	83.88
544.498	72.88
544.712	85.88
544.925	87.88
545.139	78.88
545.352	88.88
545.566	79.88
545.779	69.88
545.993	77.88
546.206	80.88
546.42	78.88
546.633	80.88
546.847	80.88
547.06	94.88
547.274	71.88
547.487	83.88
547.7	84.88
547.914	82.88
548.127	85.88
548.34	82.88
548.554	85.88
548.767	94.88
548.98	79.88
549.193	82.88
549.407	99.88
549.62	81.88
549.833	66.88
550.046	83.88
550.259	70.88
550.473	83.88
550.686	91.88
550.899	89.88
551.112	76.88
551.325	73.88
551.538	85.88
551.751	77.88
551.964	67.88
552.177	89.88
552.39	79.88
552.603	86.88
552.816	89.88
553.029	103.88
553.242	88.88
553.455	80.88
553.667	91.88
553.88	94.88
554.093	87.88
554.306	79.88
554.519	92.88
554.732	98.88
554.944	76.88
555.157	82.88
555.37	79.88
555.583	86.88
555.795	77.88
556.008	79.88
556.221	84.88
556.433	83.88
556.646	77.88
556.859	78.88
557.071	87.88
557.284	79.88
557.496	76.88
557.709	74.88
557.921	89.88
558.134	75.88
558.346	80.88
558.559	93.88
558.771	85.88
558.984	113.88
559.196	113.88
559.409	85.88
559.621	94.88
559.833	85.88
560.046	90.88
560.258	103.88
560.47	107.88
560.683	105.88
560.895	93.88
561.107	92.88
561.32	94.88
561.532	75.88
561.744	92.88
561.956	88.88
562.168	85.88
562.381	84.88
562.593	77.88
562.805	71.88
563.017	88.88
563.229	76.88
563.441	82.88
563.653	80.88
563.865	68.88
564.077	88.88
564.289	81.88
564.501	73.88
564.713	85.88
564.925	99.88
565.137	96.88
565.349	72.88
565.561	81.88
565.773	88.88
565.985	80.88
566.197	64.88
566.408	80.88
566.62	79.88
566.832	100.88
567.044	95.88
567.255	91.88
567.467	83.88
567.679	93.88
567.891	95.88
568.102	93.88
568.314	99.88
568.526	99.88
568.737	104.88
568.949	118.88
569.161	128.88
569.372	91.88
569.584	96.88
569.795	91.88
570.007	75.88
570.218	88.88
570.43	95.88
570.641	82.88
570.853	84.88
571.064	91.88
571.276	81.88
571.487	71.88
571.698	78.88
571.91	72.88
572.121	72.88
572.333	79.88
572.544	72.88
572.755	100.88
572.966	82.88
573.178	72.88
573.389	90.88
573.6	73.88
573.811	91.88
574.023	77.88
574.234	90.88
574.445	79.88
574.656	98.88
574.867	87.88
575.078	100.88
575.289	69.88
575.501	81.88
575.712	79.88
575.923	89.88
576.134	93.88
576.345	71.88
576.556	82.88
576.767	88.88
576.978	76.88
577.188	88.88
577.399	85.88
577.61	85.88
577.821	84.88
578.032	93.88
578.243	80.88
578.454	90.88
578.665	99.88
578.875	86.88
579.086	99.88
579.297	81.88
579.508	75.88
579.718	79.88
579.929	95.88
580.14	89.88
580.35	110.88
580.561	97.88
580.772	87.88
580.982	94.88
581.193	85.88
581.403	103.88
581.614	80.88
581.825	83.88
582.035	86.88
582.246	79.88
582.456	77.88
582.667	87.88
582.877	81.88
583.087	97.88
583.298	87.88
583.508	99.88
583.719	89.88
583.929	88.88
584.139	96.88
584.35	71.88
584.56	72.88
584.77	75.88
584.981	91.88
585.191	79.88
585.401	77.88
585.611	73.88
585.821	78.88
586.032	77.88
586.242	93.88
586.452	87.88
586.662	81.88
586.872	73.88
587.082	108.88
587.292	90.88
587.502	91.88
587.713	73.88
587.923	107.88
588.133	105.88
588.343	119.88
588.553	130.88
588.762	227.88
588.972	556.88
589.182	1631.88
589.392	898.88
589.602	619.88
589.812	1325.88
590.022	514.88
590.232	194.88
590.441	121.88
590.651	131.88
590.861	100.88
591.071	93.88
591.281	100.88
591.49	82.88
591.7	89.88
591.91	97.88
592.119	98.88
592.329	99.88
592.539	69.88
592.748	81.88
592.958	78.88
593.167	82.88
593.377	91.88
593.587	87.88
593.796	75.88
594.006	76.88
594.215	70.88
594.424	89.88
594.634	73.88
594.843	78.88
595.053	95.88
595.262	84.88
595.472	84.88
595.681	91.88
595.89	82.88
596.1	87.88
596.309	88.88
596.518	71.88
596.727	95.88
596.937	92.88
597.146	75.88
597.355	79.88
597.564	80.88
597.774	111.88
597.983	79.88
598.192	96.88
598.401	105.88
598.61	83.88
598.819	83.88
599.028	75.88
599.237	77.88
599.446	90.88
599.655	95.88
599.864	86.88
600.073	72.88
600.282	88.88
600.491	97.88
600.7	91.88
600.909	72.88
601.118	78.88
601.327	84.88
601.536	85.88
601.745	83.88
601.953	85.88
602.162	81.88
602.371	104.88
602.58	87.88
602.789	72.88
602.997	75.88
603.206	87.88
603.415	66.88
603.623	81.88
603.832	81.88
604.041	81.88
604.249	84.88
604.458	81.88
604.666	83.88
604.875	88.88
605.084	95.88
605.292	83.88
605.501	76.88
605.709	79.88
605.918	109.88
606.126	74.88
606.334	83.88
606.543	77.88
606.751	78.88
606.96	80.88
607.168	84.88
607.376	87.88
607.585	87.88
607.793	84.88
608.001	86.88
608.21	91.88
608.418	88.88
608.626	84.88
608.834	83.88
609.043	79.88
609.251	78.88
609.459	86.88
609.667	89.88
609.875	93.88
610.083	91.88
610.291	93.88
610.499	89.88
610.707	79.88
610.916	86.88
611.124	80.88
611.332	72.88
611.54	63.88
611.748	79.88
611.955	88.88
612.163	87.88
612.371	111.88
612.579	86.88
612.787	74.88
612.995	71.88
613.203	100.88
613.411	75.88
613.618	91.88
613.826	79.88
614.034	79.88
614.242	84.88
614.449	79.88
614.657	88.88
614.865	78.88
615.072	95.88
615.28	79.88
615.488	102.88
615.695	83.88
615.903	93.88
616.111	93.88
616.318	120.88
616.526	109.88
616.733	84.88
616.941	96.88
617.148	92.88
617.356	87.88
617.563	92.88
617.771	87.88
617.978	85.88
618.185	76.88
618.393	79.88
618.6	92.88
618.807	83.88
619.015	93.88
619.222	84.88
619.429	87.88
619.637	99.88
619.844	92.88
620.051	91.88
620.258	85.88
620.466	87.88
620.673	83.88
620.88	87.88
621.087	74.88
621.294	79.88
621.501	69.88
621.708	73.88
621.915	87.88
622.122	85.88
622.329	74.88
622.536	89.88
622.743	93.88
622.95	88.88
623.157	76.88
623.364	85.88
623.571	81.88
623.778	68.88
623.985	85.88
624.192	81.88
624.399	90.88
624.606	96.88
624.812	89.88
625.019	88.88
625.226	73.88
625.433	70.88
625.639	95.88
625.846	77.88
626.053	87.88
626.259	69.88
626.466	87.88
626.673	79.88
626.879	77.88
627.086	80.88
627.293	79.88
627.499	76.88
627.706	76.88
627.912	95.88
628.119	82.88
628.325	81.88
628.532	81.88
628.738	79.88
628.945	71.88
629.151	87.88
629.357	71.88
629.564	76.88
629.77	70.88
629.976	69.88
630.183	85.88
630.389	92.88
630.595	81.88
630.802	87.88
631.008	77.88
631.214	83.88
631.42	81.88
631.627	73.88
631.833	84.88
632.039	87.88
632.245	88.88
632.451	74.88
632.657	84.88
632.863	81.88
633.069	69.88
633.275	83.88
633.481	82.88
633.688	77.88
633.893	66.88
634.099	93.88
634.305	91.88
634.511	82.88
634.717	72.88
634.923	73.88
635.129	79.88
635.335	88.88
635.541	71.88
635.747	95.88
635.952	84.88
636.158	76.88
636.364	88.88
636.57	85.88
636.775	80.88
636.981	85.88
637.187	80.88
637.392	84.88
637.598	71.88
637.804	87.88
638.009	85.88
638.215	84.88
638.421	73.88
638.626	79.88
638.832	80.88
639.037	74.88
639.243	79.88
639.448	99.88
639.654	85.88
639.859	73.88
640.065	77.88
640.27	97.88
640.475	82.88
640.681	89.88
640.886	66.88
641.091	77.88
641.297	77.88
641.502	96.88
641.707	68.88
641.913	77.88
642.118	78.88
642.323	70.88
642.528	81.88
642.733	89.88
642.939	70.88
643.144	91.88
643.349	80.88
643.554	83.88
643.759	85.88
643.964	88.88
644.169	96.88
644.374	86.88
644.579	84.88
644.784	82.88
644.989	91.88
645.194	91.88
645.399	96.88
645.604	63.88
645.809	76.88
646.014	83.88
646.219	84.88
646.423	82.88
646.628	84.88
646.833	81.88
647.038	77.88
647.243	76.88
647.447	100.88
647.652	75.88
647.857	86.88
648.062	85.88
648.266	82.88
648.471	93.88
648.676	87.88
648.88	77.88
649.085	85.88
649.289	84.88
649.494	88.88
649.698	86.88
649.903	77.88
650.107	79.88
650.312	67.88
650.516	79.88
650.721	72.88
650.925	68.88
651.13	82.88
651.334	87.88
651.539	76.88
651.743	88.88
651.947	79.88
652.152	73.88
652.356	74.88
652.56	72.88
652.764	84.88
652.969	81.88
653.173	67.88
653.377	79.88
653.581	87.88
653.785	80.88
653.99	62.88
654.194	71.88
654.398	65.88
654.602	74.88
654.806	79.88
655.01	78.88
655.214	69.88
655.418	75.88
655.622	73.88
655.826	85.88
656.03	85.88
656.234	85.88
656.438	82.88
656.642	68.88
656.846	77.88
657.049	82.88
657.253	77.88
657.457	71.88
657.661	79.88
657.865	75.88
658.068	82.88
658.272	70.88
658.476	81.88
658.68	76.88
658.883	83.88
659.087	82.88
659.291	82.88
659.494	62.88
659.698	89.88
659.901	68.88
660.105	76.88
660.309	83.88
660.512	77.88
660.716	84.88
660.919	89.88
661.123	81.88
661.326	82.88
661.53	87.88
661.733	73.88
661.936	63.88
662.14	64.88
662.343	79.88
662.546	65.88
662.75	96.88
662.953	79.88
663.156	88.88
663.36	69.88
663.563	79.88
663.766	72.88
663.969	90.88
664.173	73.88
664.376	65.88
664.579	71.88
664.782	80.88
664.985	69.88
665.188	62.88
665.391	70.88
665.594	53.88
665.797	67.88
666	77.88
666.203	93.88
666.406	80.88
666.609	70.88
666.812	72.88
667.015	85.88
667.218	77.88
667.421	77.88
667.624	88.88
667.827	92.88
668.03	82.88
668.232	77.88
668.435	93.88
668.638	70.88
668.841	86.88
669.043	81.88
669.246	82.88
669.449	65.88
669.651	65.88
669.854	77.88
670.057	77.88
670.259	84.88
670.462	86.88
670.665	76.88
670.867	79.88
671.07	73.88
671.272	77.88
671.475	70.88
671.677	65.88
671.88	61.88
672.082	65.88
672.284	71.88
672.487	81.88
672.689	77.88
672.892	79.88
