Data from KBr_3_HRD10591_00027.txt Node
Date: Mon Jan 19 13:22:35 EST 2026
User: Yrep
Spectrometer: HR+D1059
Trigger mode: 1
Integration Time (sec): 1.000000E-1
Scans to average: 1
Electric dark correction enabled: true
Nonlinearity correction enabled: false
Boxcar width: 0
XAxis mode: Wavelengths
Number of Pixels in Spectrum: 2048
>>>>>Begin Spectral Data<<<<<
223.165	-22.62
223.4	-22.62
223.635	-22.62
223.869	-23.62
224.104	-12.62
224.338	-14.62
224.573	-26.62
224.808	-11.62
225.042	-6.62
225.277	-6.62
225.511	8.38
225.746	6.38
225.98	1.38
226.215	14.38
226.449	16.38
226.683	18.38
226.918	27.38
227.152	32.38
227.387	35.38
227.621	33.38
227.856	49.38
228.09	50.38
228.324	53.38
228.559	70.38
228.793	46.38
229.027	53.38
229.262	64.38
229.496	73.38
229.73	71.38
229.964	74.38
230.199	65.38
230.433	81.38
230.667	81.38
230.901	82.38
231.136	79.38
231.37	70.38
231.604	78.38
231.838	76.38
232.072	81.38
232.306	98.38
232.541	79.38
232.775	65.38
233.009	79.38
233.243	83.38
233.477	85.38
233.711	67.38
233.945	84.38
234.179	75.38
234.413	80.38
234.647	93.38
234.881	82.38
235.115	81.38
235.349	80.38
235.583	83.38
235.817	71.38
236.051	77.38
236.285	65.38
236.519	77.38
236.753	58.38
236.987	78.38
237.221	75.38
237.455	68.38
237.689	79.38
237.922	84.38
238.156	82.38
238.39	79.38
238.624	59.38
238.858	86.38
239.091	66.38
239.325	78.38
239.559	77.38
239.793	72.38
240.027	89.38
240.26	65.38
240.494	93.38
240.728	67.38
240.961	86.38
241.195	75.38
241.429	78.38
241.662	67.38
241.896	88.38
242.13	79.38
242.363	86.38
242.597	79.38
242.83	77.38
243.064	65.38
243.298	76.38
243.531	87.38
243.765	77.38
243.998	81.38
244.232	74.38
244.465	65.38
244.699	73.38
244.932	78.38
245.166	95.38
245.399	86.38
245.633	72.38
245.866	81.38
246.099	83.38
246.333	79.38
246.566	87.38
246.8	81.38
247.033	73.38
247.266	88.38
247.5	58.38
247.733	80.38
247.966	73.38
248.2	78.38
248.433	75.38
248.666	76.38
248.899	78.38
249.133	81.38
249.366	80.38
249.599	79.38
249.832	77.38
250.066	77.38
250.299	80.38
250.532	73.38
250.765	85.38
250.998	87.38
251.231	83.38
251.465	76.38
251.698	65.38
251.931	90.38
252.164	76.38
252.397	81.38
252.63	75.38
252.863	76.38
253.096	67.38
253.329	90.38
253.562	77.38
253.795	81.38
254.028	90.38
254.261	85.38
254.494	87.38
254.727	89.38
254.96	70.38
255.193	66.38
255.426	71.38
255.659	88.38
255.892	79.38
256.124	61.38
256.357	86.38
256.59	85.38
256.823	77.38
257.056	77.38
257.289	83.38
257.521	82.38
257.754	75.38
257.987	96.38
258.22	73.38
258.452	86.38
258.685	70.38
258.918	73.38
259.151	69.38
259.383	76.38
259.616	81.38
259.849	85.38
260.081	87.38
260.314	81.38
260.547	85.38
260.779	94.38
261.012	84.38
261.244	89.38
261.477	67.38
261.71	78.38
261.942	86.38
262.175	95.38
262.407	74.38
262.64	75.38
262.872	78.38
263.105	82.38
263.337	107.38
263.57	79.38
263.802	73.38
264.035	77.38
264.267	77.38
264.499	76.38
264.732	65.38
264.964	69.38
265.197	88.38
265.429	90.38
265.661	85.38
265.894	82.38
266.126	83.38
266.358	80.38
266.591	89.38
266.823	84.38
267.055	62.38
267.287	81.38
267.52	82.38
267.752	76.38
267.984	74.38
268.216	76.38
268.448	87.38
268.681	75.38
268.913	66.38
269.145	72.38
269.377	85.38
269.609	74.38
269.841	92.38
270.073	80.38
270.306	76.38
270.538	67.38
270.77	79.38
271.002	83.38
271.234	87.38
271.466	92.38
271.698	84.38
271.93	82.38
272.162	67.38
272.394	82.38
272.626	82.38
272.858	88.38
273.09	69.38
273.322	79.38
273.553	74.38
273.785	90.38
274.017	77.38
274.249	81.38
274.481	79.38
274.713	79.38
274.945	81.38
275.176	75.38
275.408	84.38
275.64	97.38
275.872	82.38
276.104	85.38
276.335	83.38
276.567	81.38
276.799	94.38
277.031	79.38
277.262	99.38
277.494	79.38
277.726	87.38
277.957	85.38
278.189	76.38
278.421	75.38
278.652	77.38
278.884	71.38
279.115	76.38
279.347	89.38
279.579	87.38
279.81	76.38
280.042	89.38
280.273	61.38
280.505	89.38
280.736	75.38
280.968	85.38
281.199	92.38
281.431	88.38
281.662	88.38
281.894	74.38
282.125	91.38
282.356	79.38
282.588	70.38
282.819	77.38
283.051	83.38
283.282	88.38
283.513	76.38
283.745	82.38
283.976	107.38
284.207	79.38
284.439	86.38
284.67	89.38
284.901	78.38
285.132	77.38
285.364	91.38
285.595	93.38
285.826	75.38
286.057	77.38
286.288	82.38
286.52	91.38
286.751	85.38
286.982	87.38
287.213	79.38
287.444	84.38
287.675	84.38
287.906	90.38
288.138	87.38
288.369	82.38
288.6	89.38
288.831	94.38
289.062	87.38
289.293	81.38
289.524	90.38
289.755	82.38
289.986	76.38
290.217	83.38
290.448	89.38
290.679	86.38
290.91	95.38
291.141	85.38
291.371	77.38
291.602	92.38
291.833	85.38
292.064	75.38
292.295	72.38
292.526	79.38
292.757	92.38
292.987	85.38
293.218	78.38
293.449	77.38
293.68	91.38
293.91	87.38
294.141	75.38
294.372	82.38
294.603	79.38
294.833	57.38
295.064	77.38
295.295	84.38
295.525	93.38
295.756	97.38
295.987	85.38
296.217	79.38
296.448	84.38
296.679	98.38
296.909	75.38
297.14	87.38
297.37	95.38
297.601	107.38
297.831	79.38
298.062	83.38
298.292	80.38
298.523	91.38
298.753	79.38
298.984	84.38
299.214	93.38
299.445	94.38
299.675	72.38
299.905	85.38
300.136	75.38
300.366	83.38
300.597	83.38
300.827	75.38
301.057	86.38
301.288	73.38
301.518	77.38
301.748	70.38
301.979	95.38
302.209	74.38
302.439	91.38
302.669	82.38
302.9	90.38
303.13	81.38
303.36	87.38
303.59	88.38
303.82	82.38
304.051	80.38
304.281	91.38
304.511	78.38
304.741	86.38
304.971	89.38
305.201	87.38
305.431	87.38
305.661	99.38
305.891	83.38
306.121	84.38
306.352	87.38
306.582	102.38
306.812	88.38
307.042	85.38
307.272	91.38
307.502	86.38
307.731	80.38
307.961	82.38
308.191	83.38
308.421	65.38
308.651	78.38
308.881	90.38
309.111	83.38
309.341	83.38
309.571	92.38
309.8	95.38
310.03	85.38
310.26	95.38
310.49	99.38
310.72	98.38
310.949	89.38
311.179	82.38
311.409	95.38
311.639	93.38
311.868	84.38
312.098	84.38
312.328	78.38
312.557	90.38
312.787	87.38
313.017	81.38
313.246	95.38
313.476	97.38
313.706	81.38
313.935	87.38
314.165	82.38
314.394	62.38
314.624	85.38
314.853	93.38
315.083	71.38
315.312	101.38
315.542	87.38
315.771	91.38
316.001	82.38
316.23	77.38
316.46	67.38
316.689	85.38
316.919	63.38
317.148	79.38
317.377	79.38
317.607	81.38
317.836	77.38
318.065	88.38
318.295	87.38
318.524	83.38
318.753	79.38
318.983	88.38
319.212	85.38
319.441	93.38
319.67	96.38
319.9	85.38
320.129	90.38
320.358	89.38
320.587	70.38
320.816	88.38
321.046	86.38
321.275	90.38
321.504	61.38
321.733	81.38
321.962	81.38
322.191	79.38
322.42	92.38
322.649	88.38
322.878	101.38
323.108	87.38
323.337	111.38
323.566	91.38
323.795	85.38
324.024	73.38
324.253	78.38
324.482	73.38
324.71	95.38
324.939	82.38
325.168	81.38
325.397	99.38
325.626	85.38
325.855	68.38
326.084	85.38
326.313	89.38
326.542	84.38
326.77	79.38
326.999	88.38
327.228	85.38
327.457	90.38
327.686	89.38
327.914	88.38
328.143	99.38
328.372	78.38
328.6	81.38
328.829	83.38
329.058	96.38
329.287	88.38
329.515	88.38
329.744	101.38
329.972	86.38
330.201	98.38
330.43	101.38
330.658	83.38
330.887	82.38
331.115	71.38
331.344	84.38
331.572	84.38
331.801	90.38
332.03	98.38
332.258	98.38
332.486	86.38
332.715	89.38
332.943	78.38
333.172	73.38
333.4	85.38
333.629	79.38
333.857	69.38
334.085	89.38
334.314	86.38
334.542	88.38
334.771	94.38
334.999	96.38
335.227	85.38
335.455	87.38
335.684	86.38
335.912	93.38
336.14	97.38
336.369	79.38
336.597	81.38
336.825	84.38
337.053	90.38
337.281	102.38
337.51	81.38
337.738	86.38
337.966	81.38
338.194	81.38
338.422	93.38
338.65	87.38
338.878	76.38
339.106	80.38
339.334	90.38
339.562	82.38
339.79	78.38
340.018	104.38
340.246	82.38
340.474	85.38
340.702	93.38
340.93	81.38
341.158	83.38
341.386	103.38
341.614	81.38
341.842	84.38
342.07	86.38
342.298	86.38
342.526	88.38
342.754	79.38
342.981	89.38
343.209	82.38
343.437	103.38
343.665	88.38
343.893	89.38
344.12	74.38
344.348	81.38
344.576	91.38
344.804	78.38
345.031	70.38
345.259	83.38
345.487	78.38
345.714	88.38
345.942	90.38
346.17	86.38
346.397	77.38
346.625	82.38
346.853	87.38
347.08	90.38
347.308	73.38
347.535	89.38
347.763	87.38
347.99	91.38
348.218	92.38
348.445	94.38
348.673	75.38
348.9	86.38
349.128	81.38
349.355	88.38
349.583	90.38
349.81	90.38
350.037	86.38
350.265	87.38
350.492	101.38
350.72	80.38
350.947	79.38
351.174	93.38
351.402	89.38
351.629	87.38
351.856	87.38
352.083	81.38
352.311	91.38
352.538	79.38
352.765	97.38
352.992	101.38
353.22	79.38
353.447	85.38
353.674	94.38
353.901	88.38
354.128	94.38
354.355	78.38
354.583	95.38
354.81	89.38
355.037	83.38
355.264	86.38
355.491	88.38
355.718	73.38
355.945	75.38
356.172	74.38
356.399	82.38
356.626	91.38
356.853	89.38
357.08	82.38
357.307	83.38
357.534	94.38
357.761	84.38
357.988	82.38
358.215	90.38
358.441	100.38
358.668	82.38
358.895	89.38
359.122	76.38
359.349	79.38
359.576	82.38
359.802	93.38
360.029	91.38
360.256	85.38
360.483	83.38
360.709	84.38
360.936	87.38
361.163	92.38
361.39	76.38
361.616	86.38
361.843	92.38
362.07	82.38
362.296	88.38
362.523	86.38
362.749	86.38
362.976	83.38
363.203	77.38
363.429	80.38
363.656	83.38
363.882	66.38
364.109	81.38
364.335	84.38
364.562	76.38
364.788	92.38
365.015	89.38
365.241	89.38
365.468	90.38
365.694	91.38
365.92	87.38
366.147	96.38
366.373	76.38
366.599	98.38
366.826	82.38
367.052	92.38
367.278	110.38
367.505	77.38
367.731	96.38
367.957	87.38
368.184	84.38
368.41	84.38
368.636	84.38
368.862	88.38
369.089	76.38
369.315	89.38
369.541	91.38
369.767	79.38
369.993	90.38
370.219	88.38
370.445	86.38
370.672	81.38
370.898	90.38
371.124	87.38
371.35	79.38
371.576	77.38
371.802	91.38
372.028	83.38
372.254	88.38
372.48	77.38
372.706	83.38
372.932	80.38
373.158	87.38
373.384	86.38
373.61	81.38
373.835	82.38
374.061	95.38
374.287	74.38
374.513	82.38
374.739	74.38
374.965	85.38
375.191	91.38
375.416	81.38
375.642	86.38
375.868	97.38
376.094	71.38
376.319	93.38
376.545	86.38
376.771	96.38
376.997	87.38
377.222	76.38
377.448	87.38
377.674	86.38
377.899	82.38
378.125	91.38
378.35	90.38
378.576	74.38
378.802	83.38
379.027	85.38
379.253	76.38
379.478	88.38
379.704	95.38
379.929	93.38
380.155	83.38
380.38	88.38
380.606	86.38
380.831	83.38
381.057	89.38
381.282	88.38
381.507	77.38
381.733	99.38
381.958	78.38
382.184	83.38
382.409	87.38
382.634	93.38
382.86	81.38
383.085	76.38
383.31	90.38
383.535	72.38
383.761	73.38
383.986	79.38
384.211	91.38
384.436	77.38
384.662	78.38
384.887	82.38
385.112	86.38
385.337	86.38
385.562	79.38
385.787	82.38
386.013	81.38
386.238	85.38
386.463	93.38
386.688	89.38
386.913	80.38
387.138	86.38
387.363	86.38
387.588	90.38
387.813	77.38
388.038	91.38
388.263	80.38
388.488	79.38
388.713	67.38
388.938	81.38
389.163	88.38
389.387	75.38
389.612	79.38
389.837	84.38
390.062	83.38
390.287	82.38
390.512	89.38
390.736	86.38
390.961	82.38
391.186	82.38
391.411	84.38
391.636	80.38
391.86	76.38
392.085	80.38
392.31	85.38
392.534	83.38
392.759	96.38
392.984	95.38
393.208	94.38
393.433	82.38
393.658	71.38
393.882	65.38
394.107	81.38
394.331	109.38
394.556	99.38
394.78	75.38
395.005	98.38
395.229	83.38
395.454	84.38
395.678	89.38
395.903	95.38
396.127	90.38
396.352	82.38
396.576	89.38
396.801	80.38
397.025	83.38
397.249	79.38
397.474	83.38
397.698	90.38
397.922	78.38
398.147	88.38
398.371	89.38
398.595	91.38
398.82	66.38
399.044	81.38
399.268	72.38
399.492	74.38
399.717	80.38
399.941	77.38
400.165	78.38
400.389	79.38
400.613	87.38
400.837	82.38
401.062	83.38
401.286	89.38
401.51	92.38
401.734	78.38
401.958	86.38
402.182	87.38
402.406	90.38
402.63	73.38
402.854	83.38
403.078	102.38
403.302	80.38
403.526	83.38
403.75	93.38
403.974	91.38
404.198	112.38
404.422	151.38
404.645	152.38
404.869	133.38
405.093	121.38
405.317	102.38
405.541	97.38
405.765	81.38
405.988	81.38
406.212	79.38
406.436	75.38
406.66	77.38
406.883	68.38
407.107	82.38
407.331	76.38
407.555	78.38
407.778	77.38
408.002	71.38
408.226	74.38
408.449	82.38
408.673	82.38
408.896	76.38
409.12	81.38
409.344	81.38
409.567	92.38
409.791	82.38
410.014	84.38
410.238	76.38
410.461	72.38
410.685	74.38
410.908	79.38
411.132	89.38
411.355	85.38
411.578	89.38
411.802	86.38
412.025	75.38
412.249	90.38
412.472	83.38
412.695	83.38
412.919	79.38
413.142	77.38
413.365	89.38
413.589	102.38
413.812	91.38
414.035	88.38
414.258	80.38
414.482	95.38
414.705	87.38
414.928	97.38
415.151	77.38
415.374	92.38
415.597	84.38
415.821	93.38
416.044	73.38
416.267	83.38
416.49	90.38
416.713	89.38
416.936	66.38
417.159	82.38
417.382	71.38
417.605	88.38
417.828	83.38
418.051	77.38
418.274	88.38
418.497	78.38
418.72	75.38
418.943	76.38
419.166	79.38
419.389	90.38
419.611	77.38
419.834	92.38
420.057	82.38
420.28	75.38
420.503	84.38
420.726	93.38
420.948	80.38
421.171	89.38
421.394	84.38
421.617	92.38
421.839	77.38
422.062	90.38
422.285	85.38
422.507	74.38
422.73	73.38
422.953	73.38
423.175	89.38
423.398	90.38
423.621	93.38
423.843	94.38
424.066	92.38
424.288	83.38
424.511	75.38
424.733	79.38
424.956	87.38
425.178	81.38
425.401	84.38
425.623	77.38
425.846	77.38
426.068	60.38
426.291	90.38
426.513	86.38
426.735	76.38
426.958	90.38
427.18	80.38
427.402	96.38
427.625	92.38
427.847	79.38
428.069	82.38
428.292	91.38
428.514	85.38
428.736	88.38
428.958	80.38
429.181	80.38
429.403	105.38
429.625	91.38
429.847	84.38
430.069	93.38
430.292	84.38
430.514	85.38
430.736	86.38
430.958	69.38
431.18	81.38
431.402	77.38
431.624	87.38
431.846	82.38
432.068	74.38
432.29	88.38
432.512	76.38
432.734	85.38
432.956	86.38
433.178	87.38
433.4	69.38
433.622	92.38
433.844	74.38
434.066	74.38
434.287	83.38
434.509	81.38
434.731	82.38
434.953	70.38
435.175	82.38
435.397	85.38
435.618	74.38
435.84	87.38
436.062	82.38
436.284	85.38
436.505	60.38
436.727	90.38
436.949	78.38
437.17	77.38
437.392	78.38
437.614	74.38
437.835	79.38
438.057	94.38
438.278	91.38
438.5	77.38
438.721	98.38
438.943	88.38
439.165	94.38
439.386	92.38
439.608	90.38
439.829	83.38
440.05	87.38
440.272	81.38
440.493	69.38
440.715	67.38
440.936	92.38
441.158	87.38
441.379	76.38
441.6	67.38
441.822	81.38
442.043	87.38
442.264	82.38
442.486	78.38
442.707	79.38
442.928	94.38
443.149	90.38
443.371	91.38
443.592	92.38
443.813	92.38
444.034	76.38
444.255	85.38
444.476	75.38
444.698	88.38
444.919	81.38
445.14	126.38
445.361	100.38
445.582	89.38
445.803	83.38
446.024	90.38
446.245	80.38
446.466	79.38
446.687	85.38
446.908	80.38
447.129	83.38
447.35	87.38
447.571	95.38
447.792	93.38
448.013	76.38
448.234	86.38
448.455	82.38
448.675	80.38
448.896	80.38
449.117	87.38
449.338	83.38
449.559	103.38
449.779	86.38
450	81.38
450.221	81.38
450.442	84.38
450.662	77.38
450.883	93.38
451.104	86.38
451.324	74.38
451.545	75.38
451.766	91.38
451.986	82.38
452.207	87.38
452.428	77.38
452.648	88.38
452.869	85.38
453.089	81.38
453.31	83.38
453.53	84.38
453.751	89.38
453.971	88.38
454.192	86.38
454.412	83.38
454.633	91.38
454.853	92.38
455.073	80.38
455.294	87.38
455.514	91.38
455.734	94.38
455.955	79.38
456.175	68.38
456.395	77.38
456.616	71.38
456.836	76.38
457.056	75.38
457.276	69.38
457.497	74.38
457.717	78.38
457.937	83.38
458.157	67.38
458.377	74.38
458.598	90.38
458.818	90.38
459.038	72.38
459.258	87.38
459.478	67.38
459.698	79.38
459.918	85.38
460.138	85.38
460.358	82.38
460.578	79.38
460.798	94.38
461.018	88.38
461.238	90.38
461.458	88.38
461.678	71.38
461.898	68.38
462.118	72.38
462.338	72.38
462.558	79.38
462.777	87.38
462.997	68.38
463.217	88.38
463.437	99.38
463.657	99.38
463.876	78.38
464.096	77.38
464.316	70.38
464.536	74.38
464.755	70.38
464.975	83.38
465.195	81.38
465.414	77.38
465.634	66.38
465.854	101.38
466.073	86.38
466.293	76.38
466.512	86.38
466.732	85.38
466.951	91.38
467.171	83.38
467.391	85.38
467.61	89.38
467.829	104.38
468.049	79.38
468.268	81.38
468.488	88.38
468.707	71.38
468.927	79.38
469.146	91.38
469.365	92.38
469.585	90.38
469.804	95.38
470.023	92.38
470.243	76.38
470.462	77.38
470.681	92.38
470.901	86.38
471.12	77.38
471.339	93.38
471.558	93.38
471.777	80.38
471.997	71.38
472.216	88.38
472.435	88.38
472.654	77.38
472.873	85.38
473.092	70.38
473.311	87.38
473.53	91.38
473.749	91.38
473.968	94.38
474.187	81.38
474.406	90.38
474.625	89.38
474.844	87.38
475.063	85.38
475.282	86.38
475.501	78.38
475.72	115.38
475.939	83.38
476.158	82.38
476.377	77.38
476.596	80.38
476.814	76.38
477.033	95.38
477.252	89.38
477.471	71.38
477.69	95.38
477.908	88.38
478.127	88.38
478.346	91.38
478.564	82.38
478.783	85.38
479.002	84.38
479.22	88.38
479.439	72.38
479.658	85.38
479.876	83.38
480.095	75.38
480.313	81.38
480.532	73.38
480.751	81.38
480.969	85.38
481.188	77.38
481.406	76.38
481.624	82.38
481.843	86.38
482.061	82.38
482.28	95.38
482.498	89.38
482.717	91.38
482.935	85.38
483.153	75.38
483.372	90.38
483.59	73.38
483.808	90.38
484.027	90.38
484.245	79.38
484.463	87.38
484.681	77.38
484.9	87.38
485.118	79.38
485.336	82.38
485.554	82.38
485.772	87.38
485.99	90.38
486.209	81.38
486.427	88.38
486.645	84.38
486.863	89.38
487.081	85.38
487.299	65.38
487.517	81.38
487.735	91.38
487.953	69.38
488.171	88.38
488.389	79.38
488.607	94.38
488.825	90.38
489.043	92.38
489.261	93.38
489.479	84.38
489.696	98.38
489.914	81.38
490.132	79.38
490.35	93.38
490.568	84.38
490.786	79.38
491.003	89.38
491.221	101.38
491.439	89.38
491.657	91.38
491.874	108.38
492.092	83.38
492.31	101.38
492.527	98.38
492.745	92.38
492.963	101.38
493.18	94.38
493.398	78.38
493.615	91.38
493.833	93.38
494.05	91.38
494.268	96.38
494.485	79.38
494.703	95.38
494.92	77.38
495.138	103.38
495.355	95.38
495.573	99.38
495.79	90.38
496.008	81.38
496.225	91.38
496.442	82.38
496.66	97.38
496.877	81.38
497.094	99.38
497.312	90.38
497.529	74.38
497.746	84.38
497.963	94.38
498.181	79.38
498.398	87.38
498.615	86.38
498.832	83.38
499.049	79.38
499.267	84.38
499.484	81.38
499.701	73.38
499.918	88.38
500.135	73.38
500.352	88.38
500.569	78.38
500.786	78.38
501.003	88.38
501.22	89.38
501.437	93.38
501.654	91.38
501.871	81.38
502.088	83.38
502.305	73.38
502.522	81.38
502.739	77.38
502.956	94.38
503.172	94.38
503.389	67.38
503.606	81.38
503.823	105.38
504.04	82.38
504.256	88.38
504.473	87.38
504.69	84.38
504.907	88.38
505.123	74.38
505.34	83.38
505.557	83.38
505.773	81.38
505.99	73.38
506.207	81.38
506.423	77.38
506.64	83.38
506.856	69.38
507.073	87.38
507.289	89.38
507.506	90.38
507.722	92.38
507.939	78.38
508.155	87.38
508.372	83.38
508.588	88.38
508.805	102.38
509.021	85.38
509.238	101.38
509.454	69.38
509.67	93.38
509.887	86.38
510.103	105.38
510.319	81.38
510.536	96.38
510.752	85.38
510.968	88.38
511.184	81.38
511.401	87.38
511.617	96.38
511.833	90.38
512.049	81.38
512.265	83.38
512.481	85.38
512.698	89.38
512.914	79.38
513.13	81.38
513.346	79.38
513.562	86.38
513.778	68.38
513.994	83.38
514.21	90.38
514.426	85.38
514.642	69.38
514.858	74.38
515.074	84.38
515.29	67.38
515.506	86.38
515.721	75.38
515.937	77.38
516.153	80.38
516.369	79.38
516.585	77.38
516.801	89.38
517.016	92.38
517.232	79.38
517.448	78.38
517.664	89.38
517.879	77.38
518.095	85.38
518.311	65.38
518.527	98.38
518.742	91.38
518.958	73.38
519.173	76.38
519.389	85.38
519.605	78.38
519.82	72.38
520.036	73.38
520.251	77.38
520.467	70.38
520.682	87.38
520.898	87.38
521.113	81.38
521.329	85.38
521.544	69.38
521.76	81.38
521.975	82.38
522.19	91.38
522.406	93.38
522.621	82.38
522.836	75.38
523.052	89.38
523.267	75.38
523.482	72.38
523.698	81.38
523.913	90.38
524.128	88.38
524.343	77.38
524.559	93.38
524.774	94.38
524.989	96.38
525.204	101.38
525.419	81.38
525.634	76.38
525.849	81.38
526.064	97.38
526.28	74.38
526.495	91.38
526.71	82.38
526.925	87.38
527.14	88.38
527.355	94.38
527.57	75.38
527.785	87.38
527.999	80.38
528.214	87.38
528.429	90.38
528.644	83.38
528.859	80.38
529.074	78.38
529.289	90.38
529.503	78.38
529.718	75.38
529.933	86.38
530.148	91.38
530.363	80.38
530.577	86.38
530.792	95.38
531.007	88.38
531.221	69.38
531.436	87.38
531.651	91.38
531.865	86.38
532.08	77.38
532.295	87.38
532.509	89.38
532.724	93.38
532.938	90.38
533.153	86.38
533.367	78.38
533.582	87.38
533.796	90.38
534.011	91.38
534.225	96.38
534.44	87.38
534.654	106.38
534.868	99.38
535.083	98.38
535.297	86.38
535.511	99.38
535.726	88.38
535.94	95.38
536.154	112.38
536.369	103.38
536.583	83.38
536.797	95.38
537.011	91.38
537.225	91.38
537.44	89.38
537.654	94.38
537.868	86.38
538.082	83.38
538.296	84.38
538.51	97.38
538.724	101.38
538.938	93.38
539.153	97.38
539.367	83.38
539.581	85.38
539.795	97.38
540.009	86.38
540.222	95.38
540.436	88.38
540.65	72.38
540.864	94.38
541.078	80.38
541.292	92.38
541.506	88.38
541.72	91.38
541.934	78.38
542.147	82.38
542.361	96.38
542.575	77.38
542.789	73.38
543.002	94.38
543.216	77.38
543.43	89.38
543.644	90.38
543.857	81.38
544.071	96.38
544.285	93.38
544.498	85.38
544.712	84.38
544.925	90.38
545.139	89.38
545.352	88.38
545.566	92.38
545.779	80.38
545.993	81.38
546.206	104.38
546.42	92.38
546.633	73.38
546.847	92.38
547.06	91.38
547.274	101.38
547.487	81.38
547.7	89.38
547.914	95.38
548.127	105.38
548.34	88.38
548.554	75.38
548.767	85.38
548.98	67.38
549.193	76.38
549.407	82.38
549.62	93.38
549.833	75.38
550.046	89.38
550.259	89.38
550.473	90.38
550.686	92.38
550.899	85.38
551.112	93.38
551.325	84.38
551.538	101.38
551.751	95.38
551.964	97.38
552.177	88.38
552.39	76.38
552.603	89.38
552.816	93.38
553.029	88.38
553.242	102.38
553.455	98.38
553.667	93.38
553.88	76.38
554.093	89.38
554.306	92.38
554.519	77.38
554.732	77.38
554.944	81.38
555.157	84.38
555.37	82.38
555.583	89.38
555.795	94.38
556.008	88.38
556.221	92.38
556.433	89.38
556.646	87.38
556.859	83.38
557.071	83.38
557.284	90.38
557.496	79.38
557.709	90.38
557.921	88.38
558.134	86.38
558.346	88.38
558.559	89.38
558.771	95.38
558.984	103.38
559.196	94.38
559.409	92.38
559.621	80.38
559.833	94.38
560.046	88.38
560.258	97.38
560.47	97.38
560.683	86.38
560.895	91.38
561.107	84.38
561.32	77.38
561.532	87.38
561.744	94.38
561.956	83.38
562.168	87.38
562.381	90.38
562.593	75.38
562.805	91.38
563.017	80.38
563.229	95.38
563.441	94.38
563.653	85.38
563.865	85.38
564.077	76.38
564.289	89.38
564.501	74.38
564.713	102.38
564.925	99.38
565.137	75.38
565.349	85.38
565.561	98.38
565.773	90.38
565.985	97.38
566.197	73.38
566.408	80.38
566.62	81.38
566.832	93.38
567.044	77.38
567.255	94.38
567.467	82.38
567.679	89.38
567.891	70.38
568.102	81.38
568.314	74.38
568.526	86.38
568.737	94.38
568.949	83.38
569.161	94.38
569.372	101.38
569.584	96.38
569.795	93.38
570.007	86.38
570.218	87.38
570.43	88.38
570.641	91.38
570.853	84.38
571.064	77.38
571.276	91.38
571.487	101.38
571.698	89.38
571.91	76.38
572.121	66.38
572.333	91.38
572.544	79.38
572.755	90.38
572.966	92.38
573.178	91.38
573.389	93.38
573.6	78.38
573.811	79.38
574.023	75.38
574.234	86.38
574.445	76.38
574.656	78.38
574.867	85.38
575.078	90.38
575.289	80.38
575.501	92.38
575.712	86.38
575.923	82.38
576.134	83.38
576.345	93.38
576.556	89.38
576.767	88.38
576.978	86.38
577.188	90.38
577.399	83.38
577.61	97.38
577.821	82.38
578.032	82.38
578.243	102.38
578.454	107.38
578.665	115.38
578.875	89.38
579.086	80.38
579.297	87.38
579.508	105.38
579.718	102.38
579.929	95.38
580.14	95.38
580.35	98.38
580.561	113.38
580.772	107.38
580.982	86.38
581.193	88.38
581.403	83.38
581.614	103.38
581.825	94.38
582.035	81.38
582.246	82.38
582.456	94.38
582.667	87.38
582.877	89.38
583.087	97.38
583.298	99.38
583.508	104.38
583.719	86.38
583.929	95.38
584.139	97.38
584.35	90.38
584.56	90.38
584.77	103.38
584.981	89.38
585.191	89.38
585.401	88.38
585.611	86.38
585.821	84.38
586.032	96.38
586.242	70.38
586.452	79.38
586.662	75.38
586.872	87.38
587.082	102.38
587.292	83.38
587.502	83.38
587.713	81.38
587.923	88.38
588.133	89.38
588.343	91.38
588.553	97.38
588.762	137.38
588.972	197.38
589.182	497.38
589.392	337.38
589.602	211.38
589.812	418.38
590.022	236.38
590.232	117.38
590.441	89.38
590.651	85.38
590.861	92.38
591.071	106.38
591.281	89.38
591.49	90.38
591.7	94.38
591.91	89.38
592.119	93.38
592.329	83.38
592.539	85.38
592.748	75.38
592.958	93.38
593.167	79.38
593.377	77.38
593.587	100.38
593.796	75.38
594.006	79.38
594.215	81.38
594.424	82.38
594.634	80.38
594.843	88.38
595.053	81.38
595.262	96.38
595.472	85.38
595.681	77.38
595.89	83.38
596.1	87.38
596.309	89.38
596.518	86.38
596.727	83.38
596.937	100.38
597.146	79.38
597.355	79.38
597.564	86.38
597.774	88.38
597.983	77.38
598.192	95.38
598.401	83.38
598.61	90.38
598.819	103.38
599.028	85.38
599.237	96.38
599.446	88.38
599.655	84.38
599.864	98.38
600.073	78.38
600.282	81.38
600.491	90.38
600.7	78.38
600.909	95.38
601.118	93.38
601.327	91.38
601.536	87.38
601.745	81.38
601.953	93.38
602.162	91.38
602.371	86.38
602.58	101.38
602.789	87.38
602.997	89.38
603.206	93.38
603.415	94.38
603.623	91.38
603.832	95.38
604.041	82.38
604.249	91.38
604.458	87.38
604.666	95.38
604.875	87.38
605.084	86.38
605.292	82.38
605.501	85.38
605.709	85.38
605.918	85.38
606.126	96.38
606.334	89.38
606.543	65.38
606.751	85.38
606.96	79.38
607.168	82.38
607.376	96.38
607.585	94.38
607.793	86.38
608.001	84.38
608.21	83.38
608.418	92.38
608.626	88.38
608.834	71.38
609.043	79.38
609.251	104.38
609.459	89.38
609.667	81.38
609.875	96.38
610.083	85.38
610.291	83.38
610.499	87.38
610.707	87.38
610.916	77.38
611.124	91.38
611.332	90.38
611.54	70.38
611.748	85.38
611.955	78.38
612.163	68.38
612.371	82.38
612.579	97.38
612.787	90.38
612.995	75.38
613.203	88.38
613.411	87.38
613.618	79.38
613.826	87.38
614.034	89.38
614.242	84.38
614.449	82.38
614.657	83.38
614.865	74.38
615.072	90.38
615.28	84.38
615.488	86.38
615.695	99.38
615.903	88.38
616.111	92.38
616.318	84.38
616.526	90.38
616.733	93.38
616.941	83.38
617.148	81.38
617.356	80.38
617.563	87.38
617.771	81.38
617.978	101.38
618.185	92.38
618.393	85.38
618.6	82.38
618.807	86.38
619.015	88.38
619.222	78.38
619.429	87.38
619.637	82.38
619.844	90.38
620.051	96.38
620.258	84.38
620.466	87.38
620.673	93.38
620.88	84.38
621.087	91.38
621.294	88.38
621.501	72.38
621.708	83.38
621.915	105.38
622.122	91.38
622.329	96.38
622.536	89.38
622.743	86.38
622.95	82.38
623.157	83.38
623.364	98.38
623.571	79.38
623.778	88.38
623.985	90.38
624.192	94.38
624.399	82.38
624.606	80.38
624.812	77.38
625.019	77.38
625.226	92.38
625.433	105.38
625.639	82.38
625.846	87.38
626.053	80.38
626.259	69.38
626.466	82.38
626.673	92.38
626.879	66.38
627.086	81.38
627.293	87.38
627.499	74.38
627.706	94.38
627.912	91.38
628.119	85.38
628.325	86.38
628.532	75.38
628.738	87.38
628.945	81.38
629.151	79.38
629.357	75.38
629.564	91.38
629.77	91.38
629.976	86.38
630.183	83.38
630.389	73.38
630.595	90.38
630.802	73.38
631.008	81.38
631.214	82.38
631.42	85.38
631.627	87.38
631.833	86.38
632.039	88.38
632.245	89.38
632.451	93.38
632.657	84.38
632.863	93.38
633.069	89.38
633.275	76.38
633.481	91.38
633.688	89.38
633.893	84.38
634.099	84.38
634.305	75.38
634.511	81.38
634.717	95.38
634.923	90.38
635.129	87.38
635.335	84.38
635.541	80.38
635.747	90.38
635.952	78.38
636.158	76.38
636.364	77.38
636.57	73.38
636.775	70.38
636.981	61.38
637.187	93.38
637.392	84.38
637.598	90.38
637.804	75.38
638.009	83.38
638.215	81.38
638.421	77.38
638.626	82.38
638.832	89.38
639.037	85.38
639.243	63.38
639.448	80.38
639.654	85.38
639.859	86.38
640.065	78.38
640.27	84.38
640.475	93.38
640.681	79.38
640.886	86.38
641.091	84.38
641.297	82.38
641.502	85.38
641.707	76.38
641.913	80.38
642.118	103.38
642.323	89.38
642.528	83.38
642.733	92.38
642.939	86.38
643.144	85.38
643.349	94.38
643.554	89.38
643.759	73.38
643.964	104.38
644.169	88.38
644.374	94.38
644.579	102.38
644.784	72.38
644.989	86.38
645.194	91.38
645.399	88.38
645.604	95.38
645.809	80.38
646.014	69.38
646.219	77.38
646.423	76.38
646.628	79.38
646.833	84.38
647.038	60.38
647.243	76.38
647.447	68.38
647.652	93.38
647.857	90.38
648.062	84.38
648.266	88.38
648.471	86.38
648.676	83.38
648.88	78.38
649.085	76.38
649.289	91.38
649.494	84.38
649.698	105.38
649.903	87.38
650.107	88.38
650.312	74.38
650.516	82.38
650.721	85.38
650.925	91.38
651.13	87.38
651.334	95.38
651.539	95.38
651.743	88.38
651.947	75.38
652.152	88.38
652.356	83.38
652.56	82.38
652.764	89.38
652.969	82.38
653.173	66.38
653.377	75.38
653.581	74.38
653.785	88.38
653.99	91.38
654.194	66.38
654.398	83.38
654.602	82.38
654.806	88.38
655.01	96.38
655.214	89.38
655.418	75.38
655.622	91.38
655.826	82.38
656.03	76.38
656.234	89.38
656.438	83.38
656.642	84.38
656.846	89.38
657.049	75.38
657.253	96.38
657.457	78.38
657.661	85.38
657.865	93.38
658.068	80.38
658.272	84.38
658.476	90.38
658.68	89.38
658.883	91.38
659.087	86.38
659.291	79.38
659.494	80.38
659.698	80.38
659.901	88.38
660.105	84.38
660.309	77.38
660.512	85.38
660.716	81.38
660.919	75.38
661.123	89.38
661.326	79.38
661.53	91.38
661.733	83.38
661.936	88.38
662.14	79.38
662.343	74.38
662.546	73.38
662.75	82.38
662.953	90.38
663.156	91.38
663.36	92.38
663.563	80.38
663.766	73.38
663.969	89.38
664.173	75.38
664.376	77.38
664.579	79.38
664.782	82.38
664.985	94.38
665.188	81.38
665.391	95.38
665.594	83.38
665.797	79.38
666	82.38
666.203	80.38
666.406	75.38
666.609	71.38
666.812	81.38
667.015	79.38
667.218	100.38
667.421	76.38
667.624	82.38
667.827	70.38
668.03	75.38
668.232	86.38
668.435	77.38
668.638	83.38
668.841	81.38
669.043	78.38
669.246	73.38
669.449	73.38
669.651	73.38
669.854	77.38
670.057	79.38
670.259	96.38
670.462	88.38
670.665	80.38
670.867	63.38
671.07	65.38
671.272	79.38
671.475	86.38
671.677	89.38
671.88	89.38
672.082	94.38
672.284	88.38
672.487	94.38
672.689	82.38
672.892	70.38
