Data from KBr_3_HRD10591_00028.txt Node
Date: Mon Jan 19 13:22:36 EST 2026
User: Yrep
Spectrometer: HR+D1059
Trigger mode: 1
Integration Time (sec): 1.000000E-1
Scans to average: 1
Electric dark correction enabled: true
Nonlinearity correction enabled: false
Boxcar width: 0
XAxis mode: Wavelengths
Number of Pixels in Spectrum: 2048
>>>>>Begin Spectral Data<<<<<
223.165	-7.56
223.4	-7.56
223.635	-7.56
223.869	-20.56
224.104	-12.56
224.338	-13.56
224.573	-17.56
224.808	-7.56
225.042	-15.56
225.277	-11.56
225.511	-4.56
225.746	-0.56
225.98	2.44
226.215	7.44
226.449	28.44
226.683	8.44
226.918	31.44
227.152	33.44
227.387	29.44
227.621	37.44
227.856	54.44
228.09	45.44
228.324	60.44
228.559	60.44
228.793	69.44
229.027	61.44
229.262	74.44
229.496	56.44
229.73	76.44
229.964	74.44
230.199	75.44
230.433	81.44
230.667	73.44
230.901	70.44
231.136	73.44
231.37	80.44
231.604	74.44
231.838	68.44
232.072	72.44
232.306	77.44
232.541	95.44
232.775	87.44
233.009	85.44
233.243	80.44
233.477	72.44
233.711	80.44
233.945	87.44
234.179	73.44
234.413	87.44
234.647	70.44
234.881	65.44
235.115	77.44
235.349	74.44
235.583	83.44
235.817	83.44
236.051	76.44
236.285	83.44
236.519	81.44
236.753	85.44
236.987	88.44
237.221	67.44
237.455	87.44
237.689	73.44
237.922	82.44
238.156	74.44
238.39	75.44
238.624	73.44
238.858	79.44
239.091	67.44
239.325	79.44
239.559	91.44
239.793	82.44
240.027	81.44
240.26	81.44
240.494	83.44
240.728	68.44
240.961	84.44
241.195	84.44
241.429	89.44
241.662	93.44
241.896	79.44
242.13	79.44
242.363	74.44
242.597	79.44
242.83	77.44
243.064	81.44
243.298	78.44
243.531	81.44
243.765	76.44
243.998	79.44
244.232	85.44
244.465	79.44
244.699	83.44
244.932	79.44
245.166	69.44
245.399	83.44
245.633	79.44
245.866	68.44
246.099	87.44
246.333	81.44
246.566	74.44
246.8	79.44
247.033	73.44
247.266	75.44
247.5	87.44
247.733	79.44
247.966	76.44
248.2	77.44
248.433	78.44
248.666	80.44
248.899	77.44
249.133	81.44
249.366	89.44
249.599	71.44
249.832	83.44
250.066	83.44
250.299	77.44
250.532	79.44
250.765	59.44
250.998	75.44
251.231	73.44
251.465	83.44
251.698	64.44
251.931	67.44
252.164	95.44
252.397	80.44
252.63	65.44
252.863	82.44
253.096	94.44
253.329	92.44
253.562	77.44
253.795	76.44
254.028	84.44
254.261	79.44
254.494	88.44
254.727	93.44
254.96	73.44
255.193	93.44
255.426	77.44
255.659	76.44
255.892	91.44
256.124	82.44
256.357	92.44
256.59	71.44
256.823	84.44
257.056	75.44
257.289	90.44
257.521	74.44
257.754	82.44
257.987	85.44
258.22	78.44
258.452	83.44
258.685	84.44
258.918	75.44
259.151	94.44
259.383	87.44
259.616	78.44
259.849	81.44
260.081	81.44
260.314	88.44
260.547	77.44
260.779	82.44
261.012	80.44
261.244	96.44
261.477	83.44
261.71	77.44
261.942	68.44
262.175	83.44
262.407	93.44
262.64	86.44
262.872	87.44
263.105	84.44
263.337	81.44
263.57	84.44
263.802	68.44
264.035	84.44
264.267	78.44
264.499	77.44
264.732	79.44
264.964	78.44
265.197	72.44
265.429	78.44
265.661	93.44
265.894	85.44
266.126	93.44
266.358	92.44
266.591	95.44
266.823	74.44
267.055	84.44
267.287	83.44
267.52	86.44
267.752	90.44
267.984	77.44
268.216	79.44
268.448	84.44
268.681	73.44
268.913	79.44
269.145	90.44
269.377	94.44
269.609	89.44
269.841	85.44
270.073	81.44
270.306	81.44
270.538	73.44
270.77	97.44
271.002	95.44
271.234	87.44
271.466	97.44
271.698	100.44
271.93	83.44
272.162	99.44
272.394	86.44
272.626	78.44
272.858	93.44
273.09	92.44
273.322	70.44
273.553	74.44
273.785	75.44
274.017	76.44
274.249	78.44
274.481	80.44
274.713	94.44
274.945	85.44
275.176	89.44
275.408	81.44
275.64	88.44
275.872	75.44
276.104	91.44
276.335	90.44
276.567	81.44
276.799	81.44
277.031	84.44
277.262	76.44
277.494	84.44
277.726	98.44
277.957	81.44
278.189	83.44
278.421	95.44
278.652	89.44
278.884	97.44
279.115	72.44
279.347	87.44
279.579	93.44
279.81	75.44
280.042	77.44
280.273	95.44
280.505	79.44
280.736	79.44
280.968	87.44
281.199	90.44
281.431	71.44
281.662	88.44
281.894	89.44
282.125	88.44
282.356	95.44
282.588	83.44
282.819	92.44
283.051	84.44
283.282	102.44
283.513	108.44
283.745	90.44
283.976	67.44
284.207	86.44
284.439	104.44
284.67	89.44
284.901	99.44
285.132	88.44
285.364	77.44
285.595	84.44
285.826	90.44
286.057	87.44
286.288	90.44
286.52	84.44
286.751	91.44
286.982	86.44
287.213	88.44
287.444	105.44
287.675	82.44
287.906	80.44
288.138	81.44
288.369	88.44
288.6	75.44
288.831	87.44
289.062	98.44
289.293	80.44
289.524	88.44
289.755	86.44
289.986	81.44
290.217	81.44
290.448	82.44
290.679	84.44
290.91	78.44
291.141	86.44
291.371	82.44
291.602	96.44
291.833	85.44
292.064	82.44
292.295	78.44
292.526	84.44
292.757	72.44
292.987	102.44
293.218	82.44
293.449	95.44
293.68	92.44
293.91	97.44
294.141	81.44
294.372	87.44
294.603	89.44
294.833	81.44
295.064	80.44
295.295	83.44
295.525	77.44
295.756	76.44
295.987	74.44
296.217	88.44
296.448	91.44
296.679	76.44
296.909	86.44
297.14	79.44
297.37	91.44
297.601	98.44
297.831	75.44
298.062	96.44
298.292	78.44
298.523	88.44
298.753	87.44
298.984	71.44
299.214	92.44
299.445	95.44
299.675	90.44
299.905	86.44
300.136	88.44
300.366	68.44
300.597	95.44
300.827	80.44
301.057	74.44
301.288	78.44
301.518	91.44
301.748	101.44
301.979	103.44
302.209	89.44
302.439	87.44
302.669	80.44
302.9	87.44
303.13	71.44
303.36	86.44
303.59	91.44
303.82	91.44
304.051	84.44
304.281	96.44
304.511	82.44
304.741	88.44
304.971	79.44
305.201	89.44
305.431	85.44
305.661	84.44
305.891	77.44
306.121	83.44
306.352	93.44
306.582	91.44
306.812	96.44
307.042	74.44
307.272	81.44
307.502	82.44
307.731	79.44
307.961	91.44
308.191	83.44
308.421	90.44
308.651	73.44
308.881	89.44
309.111	75.44
309.341	76.44
309.571	97.44
309.8	91.44
310.03	91.44
310.26	72.44
310.49	86.44
310.72	79.44
310.949	83.44
311.179	96.44
311.409	74.44
311.639	95.44
311.868	91.44
312.098	95.44
312.328	79.44
312.557	66.44
312.787	69.44
313.017	92.44
313.246	73.44
313.476	84.44
313.706	83.44
313.935	85.44
314.165	72.44
314.394	77.44
314.624	81.44
314.853	93.44
315.083	95.44
315.312	96.44
315.542	85.44
315.771	106.44
316.001	79.44
316.23	95.44
316.46	75.44
316.689	94.44
316.919	87.44
317.148	89.44
317.377	93.44
317.607	84.44
317.836	82.44
318.065	79.44
318.295	96.44
318.524	106.44
318.753	82.44
318.983	91.44
319.212	89.44
319.441	87.44
319.67	73.44
319.9	98.44
320.129	76.44
320.358	93.44
320.587	87.44
320.816	90.44
321.046	85.44
321.275	84.44
321.504	88.44
321.733	85.44
321.962	78.44
322.191	95.44
322.42	77.44
322.649	92.44
322.878	90.44
323.108	84.44
323.337	87.44
323.566	92.44
323.795	79.44
324.024	94.44
324.253	87.44
324.482	90.44
324.71	103.44
324.939	99.44
325.168	87.44
325.397	86.44
325.626	93.44
325.855	93.44
326.084	84.44
326.313	87.44
326.542	83.44
326.77	84.44
326.999	99.44
327.228	91.44
327.457	75.44
327.686	72.44
327.914	75.44
328.143	78.44
328.372	69.44
328.6	92.44
328.829	84.44
329.058	90.44
329.287	95.44
329.515	88.44
329.744	75.44
329.972	91.44
330.201	97.44
330.43	85.44
330.658	77.44
330.887	86.44
331.115	90.44
331.344	75.44
331.572	95.44
331.801	91.44
332.03	85.44
332.258	84.44
332.486	88.44
332.715	92.44
332.943	74.44
333.172	87.44
333.4	86.44
333.629	92.44
333.857	79.44
334.085	92.44
334.314	100.44
334.542	92.44
334.771	93.44
334.999	85.44
335.227	85.44
335.455	87.44
335.684	89.44
335.912	72.44
336.14	69.44
336.369	85.44
336.597	85.44
336.825	81.44
337.053	79.44
337.281	76.44
337.51	87.44
337.738	73.44
337.966	76.44
338.194	78.44
338.422	95.44
338.65	93.44
338.878	74.44
339.106	87.44
339.334	100.44
339.562	83.44
339.79	79.44
340.018	81.44
340.246	82.44
340.474	90.44
340.702	85.44
340.93	88.44
341.158	88.44
341.386	69.44
341.614	89.44
341.842	89.44
342.07	92.44
342.298	96.44
342.526	109.44
342.754	97.44
342.981	79.44
343.209	96.44
343.437	91.44
343.665	83.44
343.893	87.44
344.12	73.44
344.348	84.44
344.576	96.44
344.804	86.44
345.031	77.44
345.259	105.44
345.487	82.44
345.714	75.44
345.942	77.44
346.17	84.44
346.397	86.44
346.625	88.44
346.853	67.44
347.08	78.44
347.308	81.44
347.535	84.44
347.763	95.44
347.99	77.44
348.218	71.44
348.445	81.44
348.673	87.44
348.9	82.44
349.128	93.44
349.355	76.44
349.583	82.44
349.81	85.44
350.037	72.44
350.265	91.44
350.492	71.44
350.72	91.44
350.947	91.44
351.174	82.44
351.402	93.44
351.629	94.44
351.856	91.44
352.083	83.44
352.311	87.44
352.538	88.44
352.765	81.44
352.992	95.44
353.22	85.44
353.447	85.44
353.674	84.44
353.901	90.44
354.128	76.44
354.355	77.44
354.583	82.44
354.81	89.44
355.037	89.44
355.264	79.44
355.491	97.44
355.718	75.44
355.945	82.44
356.172	74.44
356.399	83.44
356.626	84.44
356.853	75.44
357.08	89.44
357.307	84.44
357.534	76.44
357.761	82.44
357.988	80.44
358.215	97.44
358.441	73.44
358.668	79.44
358.895	85.44
359.122	85.44
359.349	88.44
359.576	77.44
359.802	90.44
360.029	87.44
360.256	88.44
360.483	99.44
360.709	87.44
360.936	82.44
361.163	80.44
361.39	79.44
361.616	80.44
361.843	78.44
362.07	84.44
362.296	76.44
362.523	91.44
362.749	63.44
362.976	82.44
363.203	85.44
363.429	87.44
363.656	83.44
363.882	82.44
364.109	100.44
364.335	83.44
364.562	81.44
364.788	75.44
365.015	73.44
365.241	79.44
365.468	84.44
365.694	85.44
365.92	93.44
366.147	91.44
366.373	83.44
366.599	88.44
366.826	87.44
367.052	85.44
367.278	83.44
367.505	82.44
367.731	90.44
367.957	73.44
368.184	75.44
368.41	85.44
368.636	73.44
368.862	85.44
369.089	91.44
369.315	99.44
369.541	87.44
369.767	89.44
369.993	75.44
370.219	80.44
370.445	83.44
370.672	79.44
370.898	94.44
371.124	83.44
371.35	85.44
371.576	79.44
371.802	76.44
372.028	87.44
372.254	77.44
372.48	76.44
372.706	86.44
372.932	83.44
373.158	96.44
373.384	84.44
373.61	96.44
373.835	101.44
374.061	84.44
374.287	98.44
374.513	70.44
374.739	87.44
374.965	78.44
375.191	84.44
375.416	77.44
375.642	79.44
375.868	77.44
376.094	85.44
376.319	92.44
376.545	85.44
376.771	84.44
376.997	96.44
377.222	88.44
377.448	78.44
377.674	81.44
377.899	83.44
378.125	67.44
378.35	91.44
378.576	100.44
378.802	81.44
379.027	84.44
379.253	86.44
379.478	82.44
379.704	84.44
379.929	73.44
380.155	82.44
380.38	94.44
380.606	81.44
380.831	95.44
381.057	73.44
381.282	83.44
381.507	82.44
381.733	93.44
381.958	86.44
382.184	79.44
382.409	76.44
382.634	79.44
382.86	92.44
383.085	79.44
383.31	91.44
383.535	79.44
383.761	73.44
383.986	84.44
384.211	83.44
384.436	79.44
384.662	84.44
384.887	76.44
385.112	76.44
385.337	82.44
385.562	63.44
385.787	81.44
386.013	87.44
386.238	88.44
386.463	76.44
386.688	94.44
386.913	93.44
387.138	88.44
387.363	81.44
387.588	92.44
387.813	64.44
388.038	84.44
388.263	73.44
388.488	72.44
388.713	90.44
388.938	79.44
389.163	68.44
389.387	77.44
389.612	88.44
389.837	92.44
390.062	85.44
390.287	82.44
390.512	91.44
390.736	83.44
390.961	96.44
391.186	85.44
391.411	69.44
391.636	83.44
391.86	85.44
392.085	89.44
392.31	83.44
392.534	68.44
392.759	82.44
392.984	79.44
393.208	75.44
393.433	92.44
393.658	78.44
393.882	79.44
394.107	85.44
394.331	79.44
394.556	87.44
394.78	85.44
395.005	79.44
395.229	80.44
395.454	72.44
395.678	85.44
395.903	80.44
396.127	89.44
396.352	99.44
396.576	90.44
396.801	95.44
397.025	81.44
397.249	86.44
397.474	91.44
397.698	98.44
397.922	81.44
398.147	82.44
398.371	79.44
398.595	87.44
398.82	84.44
399.044	90.44
399.268	85.44
399.492	77.44
399.717	74.44
399.941	77.44
400.165	98.44
400.389	90.44
400.613	92.44
400.837	93.44
401.062	80.44
401.286	83.44
401.51	79.44
401.734	79.44
401.958	104.44
402.182	88.44
402.406	81.44
402.63	85.44
402.854	76.44
403.078	91.44
403.302	74.44
403.526	86.44
403.75	69.44
403.974	92.44
404.198	104.44
404.422	133.44
404.645	165.44
404.869	133.44
405.093	127.44
405.317	96.44
405.541	77.44
405.765	74.44
405.988	94.44
406.212	97.44
406.436	99.44
406.66	99.44
406.883	84.44
407.107	95.44
407.331	90.44
407.555	75.44
407.778	84.44
408.002	87.44
408.226	77.44
408.449	87.44
408.673	78.44
408.896	102.44
409.12	88.44
409.344	110.44
409.567	89.44
409.791	96.44
410.014	89.44
410.238	81.44
410.461	84.44
410.685	96.44
410.908	83.44
411.132	97.44
411.355	81.44
411.578	95.44
411.802	96.44
412.025	91.44
412.249	102.44
412.472	83.44
412.695	92.44
412.919	86.44
413.142	87.44
413.365	96.44
413.589	75.44
413.812	71.44
414.035	84.44
414.258	88.44
414.482	80.44
414.705	90.44
414.928	79.44
415.151	93.44
415.374	85.44
415.597	85.44
415.821	79.44
416.044	74.44
416.267	88.44
416.49	78.44
416.713	95.44
416.936	88.44
417.159	91.44
417.382	77.44
417.605	83.44
417.828	78.44
418.051	94.44
418.274	89.44
418.497	91.44
418.72	107.44
418.943	90.44
419.166	83.44
419.389	80.44
419.611	89.44
419.834	85.44
420.057	86.44
420.28	86.44
420.503	84.44
420.726	89.44
420.948	81.44
421.171	69.44
421.394	90.44
421.617	77.44
421.839	90.44
422.062	85.44
422.285	78.44
422.507	99.44
422.73	90.44
422.953	82.44
423.175	85.44
423.398	97.44
423.621	85.44
423.843	80.44
424.066	85.44
424.288	76.44
424.511	105.44
424.733	91.44
424.956	95.44
425.178	97.44
425.401	107.44
425.623	91.44
425.846	82.44
426.068	89.44
426.291	104.44
426.513	88.44
426.735	108.44
426.958	97.44
427.18	88.44
427.402	91.44
427.625	83.44
427.847	76.44
428.069	84.44
428.292	94.44
428.514	108.44
428.736	89.44
428.958	71.44
429.181	88.44
429.403	91.44
429.625	89.44
429.847	76.44
430.069	102.44
430.292	97.44
430.514	91.44
430.736	83.44
430.958	97.44
431.18	75.44
431.402	84.44
431.624	93.44
431.846	85.44
432.068	92.44
432.29	87.44
432.512	91.44
432.734	87.44
432.956	79.44
433.178	93.44
433.4	93.44
433.622	82.44
433.844	84.44
434.066	91.44
434.287	81.44
434.509	81.44
434.731	77.44
434.953	81.44
435.175	98.44
435.397	87.44
435.618	89.44
435.84	90.44
436.062	95.44
436.284	80.44
436.505	95.44
436.727	94.44
436.949	83.44
437.17	79.44
437.392	79.44
437.614	91.44
437.835	79.44
438.057	84.44
438.278	100.44
438.5	92.44
438.721	87.44
438.943	80.44
439.165	83.44
439.386	87.44
439.608	95.44
439.829	67.44
440.05	101.44
440.272	85.44
440.493	83.44
440.715	99.44
440.936	84.44
441.158	84.44
441.379	93.44
441.6	89.44
441.822	84.44
442.043	75.44
442.264	84.44
442.486	79.44
442.707	79.44
442.928	72.44
443.149	91.44
443.371	88.44
443.592	77.44
443.813	80.44
444.034	94.44
444.255	94.44
444.476	91.44
444.698	83.44
444.919	87.44
445.14	124.44
445.361	119.44
445.582	75.44
445.803	81.44
446.024	88.44
446.245	104.44
446.466	97.44
446.687	95.44
446.908	93.44
447.129	77.44
447.35	83.44
447.571	89.44
447.792	86.44
448.013	82.44
448.234	90.44
448.455	87.44
448.675	84.44
448.896	70.44
449.117	80.44
449.338	90.44
449.559	85.44
449.779	92.44
450	83.44
450.221	75.44
450.442	81.44
450.662	89.44
450.883	85.44
451.104	99.44
451.324	99.44
451.545	96.44
451.766	88.44
451.986	74.44
452.207	84.44
452.428	89.44
452.648	83.44
452.869	93.44
453.089	86.44
453.31	83.44
453.53	81.44
453.751	80.44
453.971	87.44
454.192	92.44
454.412	98.44
454.633	84.44
454.853	87.44
455.073	82.44
455.294	93.44
455.514	93.44
455.734	93.44
455.955	87.44
456.175	87.44
456.395	83.44
456.616	75.44
456.836	86.44
457.056	85.44
457.276	94.44
457.497	82.44
457.717	83.44
457.937	91.44
458.157	83.44
458.377	80.44
458.598	84.44
458.818	88.44
459.038	84.44
459.258	79.44
459.478	104.44
459.698	80.44
459.918	77.44
460.138	89.44
460.358	105.44
460.578	82.44
460.798	89.44
461.018	86.44
461.238	77.44
461.458	68.44
461.678	77.44
461.898	97.44
462.118	98.44
462.338	91.44
462.558	94.44
462.777	95.44
462.997	92.44
463.217	92.44
463.437	84.44
463.657	75.44
463.876	80.44
464.096	77.44
464.316	92.44
464.536	90.44
464.755	90.44
464.975	84.44
465.195	71.44
465.414	87.44
465.634	82.44
465.854	93.44
466.073	93.44
466.293	93.44
466.512	80.44
466.732	83.44
466.951	87.44
467.171	88.44
467.391	83.44
467.61	99.44
467.829	101.44
468.049	96.44
468.268	99.44
468.488	97.44
468.707	87.44
468.927	77.44
469.146	95.44
469.365	101.44
469.585	99.44
469.804	91.44
470.023	85.44
470.243	79.44
470.462	82.44
470.681	90.44
470.901	88.44
471.12	90.44
471.339	96.44
471.558	90.44
471.777	85.44
471.997	87.44
472.216	95.44
472.435	73.44
472.654	85.44
472.873	81.44
473.092	93.44
473.311	81.44
473.53	80.44
473.749	90.44
473.968	89.44
474.187	85.44
474.406	75.44
474.625	76.44
474.844	97.44
475.063	91.44
475.282	71.44
475.501	85.44
475.72	85.44
475.939	93.44
476.158	90.44
476.377	95.44
476.596	87.44
476.814	82.44
477.033	98.44
477.252	69.44
477.471	91.44
477.69	97.44
477.908	97.44
478.127	91.44
478.346	80.44
478.564	87.44
478.783	93.44
479.002	95.44
479.22	89.44
479.439	103.44
479.658	85.44
479.876	80.44
480.095	90.44
480.313	83.44
480.532	88.44
480.751	97.44
480.969	91.44
481.188	83.44
481.406	93.44
481.624	89.44
481.843	69.44
482.061	90.44
482.28	90.44
482.498	99.44
482.717	87.44
482.935	84.44
483.153	79.44
483.372	95.44
483.59	93.44
483.808	96.44
484.027	98.44
484.245	90.44
484.463	80.44
484.681	84.44
484.9	91.44
485.118	80.44
485.336	88.44
485.554	102.44
485.772	87.44
485.99	97.44
486.209	77.44
486.427	84.44
486.645	91.44
486.863	98.44
487.081	76.44
487.299	92.44
487.517	88.44
487.735	94.44
487.953	90.44
488.171	85.44
488.389	82.44
488.607	94.44
488.825	90.44
489.043	96.44
489.261	77.44
489.479	90.44
489.696	92.44
489.914	80.44
490.132	83.44
490.35	107.44
490.568	96.44
490.786	91.44
491.003	93.44
491.221	99.44
491.439	91.44
491.657	95.44
491.874	118.44
492.092	107.44
492.31	93.44
492.527	92.44
492.745	94.44
492.963	99.44
493.18	96.44
493.398	92.44
493.615	87.44
493.833	90.44
494.05	86.44
494.268	84.44
494.485	91.44
494.703	87.44
494.92	93.44
495.138	94.44
495.355	100.44
495.573	98.44
495.79	87.44
496.008	110.44
496.225	80.44
496.442	98.44
496.66	90.44
496.877	92.44
497.094	91.44
497.312	103.44
497.529	85.44
497.746	96.44
497.963	76.44
498.181	92.44
498.398	87.44
498.615	98.44
498.832	95.44
499.049	103.44
499.267	101.44
499.484	93.44
499.701	81.44
499.918	89.44
500.135	91.44
500.352	90.44
500.569	90.44
500.786	88.44
501.003	93.44
501.22	92.44
501.437	92.44
501.654	77.44
501.871	84.44
502.088	100.44
502.305	95.44
502.522	91.44
502.739	87.44
502.956	88.44
503.172	94.44
503.389	89.44
503.606	94.44
503.823	95.44
504.04	93.44
504.256	90.44
504.473	103.44
504.69	91.44
504.907	94.44
505.123	92.44
505.34	84.44
505.557	90.44
505.773	93.44
505.99	91.44
506.207	88.44
506.423	90.44
506.64	87.44
506.856	94.44
507.073	79.44
507.289	77.44
507.506	84.44
507.722	84.44
507.939	89.44
508.155	97.44
508.372	81.44
508.588	93.44
508.805	89.44
509.021	93.44
509.238	78.44
509.454	89.44
509.67	77.44
509.887	92.44
510.103	101.44
510.319	97.44
510.536	83.44
510.752	92.44
510.968	93.44
511.184	93.44
511.401	84.44
511.617	93.44
511.833	83.44
512.049	84.44
512.265	89.44
512.481	87.44
512.698	85.44
512.914	72.44
513.13	82.44
513.346	94.44
513.562	89.44
513.778	95.44
513.994	87.44
514.21	89.44
514.426	73.44
514.642	82.44
514.858	87.44
515.074	81.44
515.29	85.44
515.506	87.44
515.721	79.44
515.937	99.44
516.153	90.44
516.369	91.44
516.585	79.44
516.801	95.44
517.016	80.44
517.232	103.44
517.448	80.44
517.664	99.44
517.879	100.44
518.095	92.44
518.311	75.44
518.527	92.44
518.742	94.44
518.958	82.44
519.173	99.44
519.389	87.44
519.605	96.44
519.82	97.44
520.036	93.44
520.251	84.44
520.467	85.44
520.682	81.44
520.898	77.44
521.113	80.44
521.329	88.44
521.544	87.44
521.76	86.44
521.975	82.44
522.19	70.44
522.406	89.44
522.621	88.44
522.836	83.44
523.052	79.44
523.267	85.44
523.482	87.44
523.698	89.44
523.913	92.44
524.128	80.44
524.343	98.44
524.559	82.44
524.774	79.44
524.989	91.44
525.204	81.44
525.419	87.44
525.634	80.44
525.849	94.44
526.064	72.44
526.28	98.44
526.495	104.44
526.71	92.44
526.925	81.44
527.14	94.44
527.355	90.44
527.57	85.44
527.785	73.44
527.999	90.44
528.214	95.44
528.429	91.44
528.644	83.44
528.859	79.44
529.074	95.44
529.289	93.44
529.503	85.44
529.718	92.44
529.933	69.44
530.148	79.44
530.363	87.44
530.577	83.44
530.792	91.44
531.007	84.44
531.221	92.44
531.436	89.44
531.651	81.44
531.865	95.44
532.08	84.44
532.295	85.44
532.509	85.44
532.724	86.44
532.938	84.44
533.153	89.44
533.367	69.44
533.582	98.44
533.796	96.44
534.011	109.44
534.225	81.44
534.44	95.44
534.654	99.44
534.868	101.44
535.083	87.44
535.297	90.44
535.511	91.44
535.726	91.44
535.94	98.44
536.154	87.44
536.369	85.44
536.583	98.44
536.797	88.44
537.011	82.44
537.225	84.44
537.44	78.44
537.654	83.44
537.868	79.44
538.082	100.44
538.296	82.44
538.51	73.44
538.724	86.44
538.938	77.44
539.153	85.44
539.367	95.44
539.581	81.44
539.795	97.44
540.009	86.44
540.222	91.44
540.436	92.44
540.65	83.44
540.864	83.44
541.078	77.44
541.292	83.44
541.506	68.44
541.72	96.44
541.934	83.44
542.147	87.44
542.361	88.44
542.575	89.44
542.789	89.44
543.002	98.44
543.216	89.44
543.43	97.44
543.644	95.44
543.857	74.44
544.071	83.44
544.285	91.44
544.498	91.44
544.712	107.44
544.925	91.44
545.139	80.44
545.352	98.44
545.566	98.44
545.779	96.44
545.993	80.44
546.206	93.44
546.42	84.44
546.633	103.44
546.847	99.44
547.06	102.44
547.274	89.44
547.487	89.44
547.7	96.44
547.914	92.44
548.127	84.44
548.34	100.44
548.554	92.44
548.767	100.44
548.98	81.44
549.193	83.44
549.407	101.44
549.62	96.44
549.833	94.44
550.046	95.44
550.259	93.44
550.473	96.44
550.686	93.44
550.899	95.44
551.112	99.44
551.325	87.44
551.538	85.44
551.751	86.44
551.964	88.44
552.177	81.44
552.39	80.44
552.603	89.44
552.816	83.44
553.029	92.44
553.242	83.44
553.455	87.44
553.667	95.44
553.88	80.44
554.093	93.44
554.306	92.44
554.519	90.44
554.732	106.44
554.944	87.44
555.157	80.44
555.37	82.44
555.583	92.44
555.795	94.44
556.008	86.44
556.221	95.44
556.433	100.44
556.646	91.44
556.859	83.44
557.071	90.44
557.284	90.44
557.496	80.44
557.709	93.44
557.921	96.44
558.134	85.44
558.346	83.44
558.559	79.44
558.771	86.44
558.984	95.44
559.196	90.44
559.409	97.44
559.621	96.44
559.833	77.44
560.046	85.44
560.258	98.44
560.47	74.44
560.683	88.44
560.895	93.44
561.107	98.44
561.32	93.44
561.532	88.44
561.744	86.44
561.956	94.44
562.168	92.44
562.381	94.44
562.593	84.44
562.805	69.44
563.017	82.44
563.229	79.44
563.441	89.44
563.653	83.44
563.865	81.44
564.077	78.44
564.289	89.44
564.501	95.44
564.713	95.44
564.925	90.44
565.137	89.44
565.349	98.44
565.561	100.44
565.773	97.44
565.985	89.44
566.197	83.44
566.408	88.44
566.62	89.44
566.832	75.44
567.044	97.44
567.255	81.44
567.467	92.44
567.679	81.44
567.891	107.44
568.102	95.44
568.314	82.44
568.526	90.44
568.737	80.44
568.949	101.44
569.161	95.44
569.372	85.44
569.584	91.44
569.795	91.44
570.007	88.44
570.218	87.44
570.43	85.44
570.641	91.44
570.853	84.44
571.064	79.44
571.276	85.44
571.487	88.44
571.698	94.44
571.91	77.44
572.121	87.44
572.333	92.44
572.544	88.44
572.755	78.44
572.966	88.44
573.178	75.44
573.389	101.44
573.6	91.44
573.811	79.44
574.023	93.44
574.234	87.44
574.445	96.44
574.656	91.44
574.867	89.44
575.078	82.44
575.289	90.44
575.501	92.44
575.712	89.44
575.923	91.44
576.134	99.44
576.345	91.44
576.556	87.44
576.767	101.44
576.978	84.44
577.188	83.44
577.399	82.44
577.61	83.44
577.821	92.44
578.032	83.44
578.243	77.44
578.454	107.44
578.665	90.44
578.875	92.44
579.086	82.44
579.297	85.44
579.508	84.44
579.718	101.44
579.929	85.44
580.14	84.44
580.35	102.44
580.561	125.44
580.772	93.44
580.982	112.44
581.193	91.44
581.403	103.44
581.614	95.44
581.825	90.44
582.035	99.44
582.246	83.44
582.456	87.44
582.667	98.44
582.877	87.44
583.087	79.44
583.298	97.44
583.508	108.44
583.719	96.44
583.929	92.44
584.139	92.44
584.35	89.44
584.56	77.44
584.77	82.44
584.981	84.44
585.191	96.44
585.401	107.44
585.611	104.44
585.821	77.44
586.032	84.44
586.242	90.44
586.452	92.44
586.662	85.44
586.872	86.44
587.082	76.44
587.292	109.44
587.502	85.44
587.713	79.44
587.923	91.44
588.133	92.44
588.343	75.44
588.553	108.44
588.762	138.44
588.972	219.44
589.182	484.44
589.392	338.44
589.602	237.44
589.812	399.44
590.022	252.44
590.232	120.44
590.441	108.44
590.651	96.44
590.861	96.44
591.071	92.44
591.281	91.44
591.49	91.44
591.7	89.44
591.91	78.44
592.119	87.44
592.329	81.44
592.539	79.44
592.748	83.44
592.958	82.44
593.167	87.44
593.377	89.44
593.587	101.44
593.796	81.44
594.006	84.44
594.215	79.44
594.424	91.44
594.634	81.44
594.843	94.44
595.053	101.44
595.262	92.44
595.472	92.44
595.681	94.44
595.89	70.44
596.1	81.44
596.309	89.44
596.518	99.44
596.727	86.44
596.937	85.44
597.146	82.44
597.355	83.44
597.564	97.44
597.774	68.44
597.983	68.44
598.192	88.44
598.401	95.44
598.61	93.44
598.819	85.44
599.028	88.44
599.237	95.44
599.446	104.44
599.655	84.44
599.864	98.44
600.073	84.44
600.282	95.44
600.491	79.44
600.7	86.44
600.909	73.44
601.118	85.44
601.327	84.44
601.536	65.44
601.745	82.44
601.953	103.44
602.162	87.44
602.371	92.44
602.58	90.44
602.789	97.44
602.997	92.44
603.206	83.44
603.415	79.44
603.623	73.44
603.832	88.44
604.041	95.44
604.249	98.44
604.458	91.44
604.666	77.44
604.875	77.44
605.084	94.44
605.292	91.44
605.501	83.44
605.709	75.44
605.918	84.44
606.126	97.44
606.334	88.44
606.543	83.44
606.751	83.44
606.96	96.44
607.168	92.44
607.376	85.44
607.585	87.44
607.793	97.44
608.001	94.44
608.21	79.44
608.418	83.44
608.626	79.44
608.834	84.44
609.043	81.44
609.251	83.44
609.459	77.44
609.667	93.44
609.875	98.44
610.083	89.44
610.291	81.44
610.499	82.44
610.707	80.44
610.916	75.44
611.124	91.44
611.332	88.44
611.54	79.44
611.748	86.44
611.955	91.44
612.163	90.44
612.371	84.44
612.579	84.44
612.787	97.44
612.995	74.44
613.203	77.44
613.411	73.44
613.618	82.44
613.826	77.44
614.034	91.44
614.242	88.44
614.449	84.44
614.657	94.44
614.865	79.44
615.072	81.44
615.28	89.44
615.488	93.44
615.695	81.44
615.903	87.44
616.111	100.44
616.318	97.44
616.526	91.44
616.733	70.44
616.941	84.44
617.148	82.44
617.356	95.44
617.563	69.44
617.771	95.44
617.978	85.44
618.185	88.44
618.393	90.44
618.6	88.44
618.807	82.44
619.015	100.44
619.222	85.44
619.429	82.44
619.637	89.44
619.844	92.44
620.051	99.44
620.258	90.44
620.466	85.44
620.673	78.44
620.88	94.44
621.087	93.44
621.294	73.44
621.501	83.44
621.708	88.44
621.915	78.44
622.122	83.44
622.329	73.44
622.536	87.44
622.743	96.44
622.95	90.44
623.157	98.44
623.364	90.44
623.571	84.44
623.778	96.44
623.985	92.44
624.192	82.44
624.399	77.44
624.606	94.44
624.812	102.44
625.019	92.44
625.226	99.44
625.433	89.44
625.639	82.44
625.846	87.44
626.053	95.44
626.259	68.44
626.466	87.44
626.673	79.44
626.879	82.44
627.086	94.44
627.293	75.44
627.499	82.44
627.706	88.44
627.912	91.44
628.119	93.44
628.325	82.44
628.532	85.44
628.738	89.44
628.945	82.44
629.151	70.44
629.357	76.44
629.564	89.44
629.77	92.44
629.976	83.44
630.183	82.44
630.389	91.44
630.595	98.44
630.802	69.44
631.008	75.44
631.214	87.44
631.42	72.44
631.627	79.44
631.833	81.44
632.039	78.44
632.245	93.44
632.451	81.44
632.657	84.44
632.863	70.44
633.069	86.44
633.275	100.44
633.481	77.44
633.688	82.44
633.893	88.44
634.099	83.44
634.305	87.44
634.511	97.44
634.717	76.44
634.923	77.44
635.129	84.44
635.335	83.44
635.541	78.44
635.747	85.44
635.952	63.44
636.158	75.44
636.364	86.44
636.57	80.44
636.775	82.44
636.981	70.44
637.187	88.44
637.392	83.44
637.598	88.44
637.804	73.44
638.009	87.44
638.215	66.44
638.421	77.44
638.626	81.44
638.832	81.44
639.037	80.44
639.243	72.44
639.448	102.44
639.654	93.44
639.859	89.44
640.065	88.44
640.27	94.44
640.475	80.44
640.681	98.44
640.886	83.44
641.091	88.44
641.297	82.44
641.502	89.44
641.707	88.44
641.913	84.44
642.118	87.44
642.323	95.44
642.528	89.44
642.733	88.44
642.939	90.44
643.144	79.44
643.349	88.44
643.554	89.44
643.759	79.44
643.964	74.44
644.169	71.44
644.374	100.44
644.579	93.44
644.784	76.44
644.989	72.44
645.194	83.44
645.399	85.44
645.604	81.44
645.809	91.44
646.014	79.44
646.219	93.44
646.423	73.44
646.628	86.44
646.833	92.44
647.038	82.44
647.243	82.44
647.447	75.44
647.652	77.44
647.857	73.44
648.062	80.44
648.266	83.44
648.471	90.44
648.676	84.44
648.88	78.44
649.085	81.44
649.289	81.44
649.494	97.44
649.698	85.44
649.903	70.44
650.107	94.44
650.312	90.44
650.516	84.44
650.721	85.44
650.925	64.44
651.13	93.44
651.334	101.44
651.539	97.44
651.743	86.44
651.947	85.44
652.152	76.44
652.356	96.44
652.56	90.44
652.764	95.44
652.969	86.44
653.173	90.44
653.377	84.44
653.581	69.44
653.785	74.44
653.99	73.44
654.194	96.44
654.398	71.44
654.602	87.44
654.806	88.44
655.01	80.44
655.214	73.44
655.418	83.44
655.622	77.44
655.826	90.44
656.03	68.44
656.234	83.44
656.438	83.44
656.642	96.44
656.846	87.44
657.049	91.44
657.253	83.44
657.457	87.44
657.661	61.44
657.865	77.44
658.068	80.44
658.272	78.44
658.476	75.44
658.68	80.44
658.883	81.44
659.087	79.44
659.291	89.44
659.494	79.44
659.698	88.44
659.901	90.44
660.105	79.44
660.309	70.44
660.512	77.44
660.716	89.44
660.919	82.44
661.123	79.44
661.326	75.44
661.53	88.44
661.733	92.44
661.936	73.44
662.14	86.44
662.343	82.44
662.546	81.44
662.75	83.44
662.953	81.44
663.156	90.44
663.36	81.44
663.563	79.44
663.766	80.44
663.969	83.44
664.173	87.44
664.376	94.44
664.579	68.44
664.782	84.44
664.985	54.44
665.188	76.44
665.391	75.44
665.594	103.44
665.797	71.44
666	88.44
666.203	70.44
666.406	67.44
666.609	79.44
666.812	88.44
667.015	85.44
667.218	92.44
667.421	89.44
667.624	88.44
667.827	73.44
668.03	75.44
668.232	72.44
668.435	81.44
668.638	79.44
668.841	75.44
669.043	89.44
669.246	81.44
669.449	77.44
669.651	76.44
669.854	72.44
670.057	91.44
670.259	83.44
670.462	78.44
670.665	87.44
670.867	70.44
671.07	80.44
671.272	66.44
671.475	68.44
671.677	93.44
671.88	81.44
672.082	80.44
672.284	85.44
672.487	81.44
672.689	79.44
672.892	81.44
