Data from KBr_3_HRD10591_00030.txt Node
Date: Mon Jan 19 13:22:37 EST 2026
User: Yrep
Spectrometer: HR+D1059
Trigger mode: 1
Integration Time (sec): 1.000000E-1
Scans to average: 1
Electric dark correction enabled: true
Nonlinearity correction enabled: false
Boxcar width: 0
XAxis mode: Wavelengths
Number of Pixels in Spectrum: 2048
>>>>>Begin Spectral Data<<<<<
223.165	-20.94
223.4	-20.94
223.635	-20.94
223.869	-16.94
224.104	-17.94
224.338	-15.94
224.573	-18.94
224.808	-3.94
225.042	-14.94
225.277	-4.94
225.511	1.06
225.746	5.06
225.98	12.06
226.215	11.06
226.449	26.06
226.683	14.06
226.918	19.06
227.152	26.06
227.387	24.06
227.621	39.06
227.856	39.06
228.09	39.06
228.324	43.06
228.559	48.06
228.793	45.06
229.027	48.06
229.262	69.06
229.496	49.06
229.73	61.06
229.964	56.06
230.199	48.06
230.433	61.06
230.667	68.06
230.901	73.06
231.136	80.06
231.37	75.06
231.604	81.06
231.838	67.06
232.072	68.06
232.306	73.06
232.541	74.06
232.775	74.06
233.009	69.06
233.243	91.06
233.477	76.06
233.711	76.06
233.945	69.06
234.179	63.06
234.413	77.06
234.647	89.06
234.881	73.06
235.115	70.06
235.349	73.06
235.583	76.06
235.817	76.06
236.051	69.06
236.285	70.06
236.519	70.06
236.753	75.06
236.987	87.06
237.221	66.06
237.455	67.06
237.689	75.06
237.922	74.06
238.156	76.06
238.39	66.06
238.624	79.06
238.858	63.06
239.091	76.06
239.325	65.06
239.559	74.06
239.793	64.06
240.027	65.06
240.26	60.06
240.494	75.06
240.728	57.06
240.961	79.06
241.195	67.06
241.429	79.06
241.662	73.06
241.896	83.06
242.13	77.06
242.363	79.06
242.597	77.06
242.83	67.06
243.064	75.06
243.298	69.06
243.531	62.06
243.765	77.06
243.998	68.06
244.232	80.06
244.465	78.06
244.699	79.06
244.932	70.06
245.166	75.06
245.399	64.06
245.633	85.06
245.866	49.06
246.099	63.06
246.333	61.06
246.566	84.06
246.8	57.06
247.033	67.06
247.266	70.06
247.5	63.06
247.733	71.06
247.966	83.06
248.2	68.06
248.433	71.06
248.666	77.06
248.899	60.06
249.133	68.06
249.366	85.06
249.599	78.06
249.832	71.06
250.066	84.06
250.299	67.06
250.532	76.06
250.765	77.06
250.998	70.06
251.231	64.06
251.465	82.06
251.698	57.06
251.931	81.06
252.164	77.06
252.397	68.06
252.63	88.06
252.863	64.06
253.096	73.06
253.329	56.06
253.562	70.06
253.795	77.06
254.028	78.06
254.261	72.06
254.494	74.06
254.727	79.06
254.96	73.06
255.193	59.06
255.426	72.06
255.659	66.06
255.892	71.06
256.124	64.06
256.357	64.06
256.59	79.06
256.823	81.06
257.056	74.06
257.289	70.06
257.521	79.06
257.754	81.06
257.987	81.06
258.22	72.06
258.452	73.06
258.685	78.06
258.918	80.06
259.151	67.06
259.383	82.06
259.616	77.06
259.849	74.06
260.081	83.06
260.314	80.06
260.547	75.06
260.779	82.06
261.012	62.06
261.244	72.06
261.477	74.06
261.71	75.06
261.942	68.06
262.175	80.06
262.407	77.06
262.64	87.06
262.872	63.06
263.105	79.06
263.337	78.06
263.57	75.06
263.802	85.06
264.035	76.06
264.267	74.06
264.499	82.06
264.732	76.06
264.964	76.06
265.197	73.06
265.429	76.06
265.661	63.06
265.894	90.06
266.126	66.06
266.358	75.06
266.591	80.06
266.823	83.06
267.055	87.06
267.287	83.06
267.52	77.06
267.752	76.06
267.984	71.06
268.216	72.06
268.448	79.06
268.681	81.06
268.913	83.06
269.145	74.06
269.377	76.06
269.609	81.06
269.841	84.06
270.073	71.06
270.306	79.06
270.538	80.06
270.77	79.06
271.002	60.06
271.234	83.06
271.466	88.06
271.698	78.06
271.93	64.06
272.162	77.06
272.394	67.06
272.626	78.06
272.858	79.06
273.09	83.06
273.322	91.06
273.553	85.06
273.785	76.06
274.017	74.06
274.249	79.06
274.481	80.06
274.713	85.06
274.945	79.06
275.176	69.06
275.408	86.06
275.64	81.06
275.872	73.06
276.104	70.06
276.335	82.06
276.567	86.06
276.799	81.06
277.031	69.06
277.262	62.06
277.494	76.06
277.726	82.06
277.957	87.06
278.189	69.06
278.421	90.06
278.652	81.06
278.884	85.06
279.115	82.06
279.347	73.06
279.579	71.06
279.81	76.06
280.042	83.06
280.273	60.06
280.505	74.06
280.736	80.06
280.968	79.06
281.199	78.06
281.431	86.06
281.662	76.06
281.894	77.06
282.125	84.06
282.356	87.06
282.588	70.06
282.819	76.06
283.051	75.06
283.282	73.06
283.513	76.06
283.745	84.06
283.976	83.06
284.207	74.06
284.439	81.06
284.67	83.06
284.901	81.06
285.132	70.06
285.364	92.06
285.595	73.06
285.826	75.06
286.057	92.06
286.288	89.06
286.52	78.06
286.751	81.06
286.982	85.06
287.213	71.06
287.444	75.06
287.675	86.06
287.906	64.06
288.138	69.06
288.369	78.06
288.6	77.06
288.831	90.06
289.062	83.06
289.293	89.06
289.524	77.06
289.755	77.06
289.986	74.06
290.217	67.06
290.448	89.06
290.679	93.06
290.91	76.06
291.141	74.06
291.371	78.06
291.602	78.06
291.833	78.06
292.064	77.06
292.295	87.06
292.526	77.06
292.757	94.06
292.987	74.06
293.218	79.06
293.449	78.06
293.68	71.06
293.91	83.06
294.141	82.06
294.372	90.06
294.603	79.06
294.833	78.06
295.064	53.06
295.295	86.06
295.525	73.06
295.756	83.06
295.987	85.06
296.217	84.06
296.448	85.06
296.679	65.06
296.909	80.06
297.14	89.06
297.37	90.06
297.601	82.06
297.831	74.06
298.062	84.06
298.292	78.06
298.523	79.06
298.753	87.06
298.984	80.06
299.214	73.06
299.445	81.06
299.675	75.06
299.905	86.06
300.136	83.06
300.366	73.06
300.597	89.06
300.827	89.06
301.057	89.06
301.288	87.06
301.518	76.06
301.748	71.06
301.979	99.06
302.209	70.06
302.439	70.06
302.669	69.06
302.9	68.06
303.13	82.06
303.36	75.06
303.59	97.06
303.82	77.06
304.051	85.06
304.281	81.06
304.511	82.06
304.741	65.06
304.971	85.06
305.201	78.06
305.431	84.06
305.661	73.06
305.891	82.06
306.121	80.06
306.352	77.06
306.582	78.06
306.812	86.06
307.042	73.06
307.272	81.06
307.502	75.06
307.731	69.06
307.961	90.06
308.191	63.06
308.421	87.06
308.651	90.06
308.881	77.06
309.111	73.06
309.341	68.06
309.571	77.06
309.8	74.06
310.03	74.06
310.26	86.06
310.49	86.06
310.72	74.06
310.949	77.06
311.179	89.06
311.409	82.06
311.639	77.06
311.868	92.06
312.098	84.06
312.328	87.06
312.557	81.06
312.787	75.06
313.017	75.06
313.246	87.06
313.476	91.06
313.706	73.06
313.935	71.06
314.165	78.06
314.394	80.06
314.624	75.06
314.853	86.06
315.083	86.06
315.312	82.06
315.542	72.06
315.771	94.06
316.001	81.06
316.23	66.06
316.46	64.06
316.689	82.06
316.919	84.06
317.148	77.06
317.377	87.06
317.607	81.06
317.836	77.06
318.065	70.06
318.295	90.06
318.524	74.06
318.753	79.06
318.983	77.06
319.212	79.06
319.441	89.06
319.67	81.06
319.9	84.06
320.129	83.06
320.358	77.06
320.587	86.06
320.816	76.06
321.046	69.06
321.275	83.06
321.504	59.06
321.733	75.06
321.962	78.06
322.191	91.06
322.42	76.06
322.649	76.06
322.878	68.06
323.108	75.06
323.337	85.06
323.566	89.06
323.795	80.06
324.024	87.06
324.253	75.06
324.482	70.06
324.71	85.06
324.939	85.06
325.168	97.06
325.397	87.06
325.626	88.06
325.855	84.06
326.084	68.06
326.313	73.06
326.542	70.06
326.77	75.06
326.999	80.06
327.228	83.06
327.457	85.06
327.686	80.06
327.914	73.06
328.143	79.06
328.372	65.06
328.6	80.06
328.829	78.06
329.058	85.06
329.287	81.06
329.515	88.06
329.744	83.06
329.972	85.06
330.201	90.06
330.43	78.06
330.658	97.06
330.887	85.06
331.115	77.06
331.344	74.06
331.572	88.06
331.801	82.06
332.03	72.06
332.258	88.06
332.486	76.06
332.715	81.06
332.943	81.06
333.172	83.06
333.4	82.06
333.629	93.06
333.857	90.06
334.085	81.06
334.314	91.06
334.542	73.06
334.771	74.06
334.999	76.06
335.227	73.06
335.455	75.06
335.684	79.06
335.912	71.06
336.14	80.06
336.369	70.06
336.597	60.06
336.825	85.06
337.053	75.06
337.281	88.06
337.51	60.06
337.738	86.06
337.966	76.06
338.194	79.06
338.422	79.06
338.65	86.06
338.878	80.06
339.106	73.06
339.334	101.06
339.562	82.06
339.79	81.06
340.018	70.06
340.246	70.06
340.474	89.06
340.702	72.06
340.93	65.06
341.158	86.06
341.386	73.06
341.614	89.06
341.842	86.06
342.07	72.06
342.298	78.06
342.526	84.06
342.754	57.06
342.981	81.06
343.209	83.06
343.437	85.06
343.665	74.06
343.893	79.06
344.12	79.06
344.348	85.06
344.576	76.06
344.804	86.06
345.031	84.06
345.259	68.06
345.487	81.06
345.714	92.06
345.942	95.06
346.17	70.06
346.397	76.06
346.625	77.06
346.853	84.06
347.08	80.06
347.308	86.06
347.535	80.06
347.763	92.06
347.99	84.06
348.218	82.06
348.445	84.06
348.673	87.06
348.9	71.06
349.128	66.06
349.355	71.06
349.583	82.06
349.81	76.06
350.037	87.06
350.265	79.06
350.492	88.06
350.72	94.06
350.947	81.06
351.174	76.06
351.402	84.06
351.629	83.06
351.856	82.06
352.083	76.06
352.311	82.06
352.538	78.06
352.765	71.06
352.992	97.06
353.22	79.06
353.447	84.06
353.674	81.06
353.901	73.06
354.128	84.06
354.355	79.06
354.583	74.06
354.81	80.06
355.037	78.06
355.264	78.06
355.491	76.06
355.718	68.06
355.945	87.06
356.172	86.06
356.399	77.06
356.626	77.06
356.853	69.06
357.08	86.06
357.307	75.06
357.534	94.06
357.761	78.06
357.988	72.06
358.215	72.06
358.441	87.06
358.668	76.06
358.895	76.06
359.122	69.06
359.349	70.06
359.576	73.06
359.802	64.06
360.029	75.06
360.256	69.06
360.483	90.06
360.709	79.06
360.936	74.06
361.163	77.06
361.39	65.06
361.616	90.06
361.843	85.06
362.07	64.06
362.296	79.06
362.523	90.06
362.749	75.06
362.976	79.06
363.203	69.06
363.429	78.06
363.656	91.06
363.882	78.06
364.109	83.06
364.335	77.06
364.562	83.06
364.788	67.06
365.015	77.06
365.241	68.06
365.468	82.06
365.694	73.06
365.92	84.06
366.147	88.06
366.373	69.06
366.599	85.06
366.826	81.06
367.052	73.06
367.278	87.06
367.505	102.06
367.731	92.06
367.957	83.06
368.184	93.06
368.41	66.06
368.636	91.06
368.862	84.06
369.089	71.06
369.315	69.06
369.541	72.06
369.767	74.06
369.993	86.06
370.219	62.06
370.445	69.06
370.672	73.06
370.898	67.06
371.124	70.06
371.35	67.06
371.576	79.06
371.802	77.06
372.028	88.06
372.254	78.06
372.48	79.06
372.706	77.06
372.932	83.06
373.158	89.06
373.384	75.06
373.61	101.06
373.835	78.06
374.061	86.06
374.287	92.06
374.513	76.06
374.739	72.06
374.965	84.06
375.191	77.06
375.416	77.06
375.642	78.06
375.868	80.06
376.094	78.06
376.319	85.06
376.545	64.06
376.771	73.06
376.997	70.06
377.222	88.06
377.448	81.06
377.674	70.06
377.899	60.06
378.125	66.06
378.35	84.06
378.576	73.06
378.802	74.06
379.027	77.06
379.253	68.06
379.478	74.06
379.704	78.06
379.929	67.06
380.155	71.06
380.38	84.06
380.606	71.06
380.831	88.06
381.057	85.06
381.282	55.06
381.507	78.06
381.733	78.06
381.958	74.06
382.184	82.06
382.409	72.06
382.634	63.06
382.86	75.06
383.085	73.06
383.31	75.06
383.535	80.06
383.761	76.06
383.986	81.06
384.211	78.06
384.436	71.06
384.662	88.06
384.887	80.06
385.112	86.06
385.337	76.06
385.562	71.06
385.787	67.06
386.013	86.06
386.238	90.06
386.463	84.06
386.688	92.06
386.913	63.06
387.138	67.06
387.363	83.06
387.588	78.06
387.813	72.06
388.038	77.06
388.263	88.06
388.488	69.06
388.713	99.06
388.938	70.06
389.163	62.06
389.387	75.06
389.612	85.06
389.837	77.06
390.062	67.06
390.287	76.06
390.512	82.06
390.736	82.06
390.961	66.06
391.186	82.06
391.411	74.06
391.636	85.06
391.86	81.06
392.085	69.06
392.31	75.06
392.534	74.06
392.759	84.06
392.984	82.06
393.208	79.06
393.433	71.06
393.658	77.06
393.882	74.06
394.107	80.06
394.331	70.06
394.556	77.06
394.78	64.06
395.005	85.06
395.229	75.06
395.454	79.06
395.678	87.06
395.903	80.06
396.127	73.06
396.352	81.06
396.576	72.06
396.801	83.06
397.025	73.06
397.249	87.06
397.474	84.06
397.698	83.06
397.922	70.06
398.147	80.06
398.371	70.06
398.595	80.06
398.82	73.06
399.044	78.06
399.268	84.06
399.492	75.06
399.717	66.06
399.941	67.06
400.165	75.06
400.389	83.06
400.613	76.06
400.837	78.06
401.062	84.06
401.286	84.06
401.51	68.06
401.734	79.06
401.958	63.06
402.182	69.06
402.406	84.06
402.63	65.06
402.854	92.06
403.078	78.06
403.302	84.06
403.526	67.06
403.75	77.06
403.974	71.06
404.198	83.06
404.422	103.06
404.645	105.06
404.869	83.06
405.093	97.06
405.317	88.06
405.541	79.06
405.765	77.06
405.988	80.06
406.212	73.06
406.436	78.06
406.66	77.06
406.883	89.06
407.107	81.06
407.331	70.06
407.555	65.06
407.778	72.06
408.002	75.06
408.226	75.06
408.449	70.06
408.673	85.06
408.896	76.06
409.12	87.06
409.344	106.06
409.567	62.06
409.791	65.06
410.014	77.06
410.238	76.06
410.461	77.06
410.685	72.06
410.908	78.06
411.132	78.06
411.355	89.06
411.578	63.06
411.802	75.06
412.025	76.06
412.249	70.06
412.472	85.06
412.695	74.06
412.919	89.06
413.142	74.06
413.365	86.06
413.589	75.06
413.812	75.06
414.035	87.06
414.258	74.06
414.482	85.06
414.705	66.06
414.928	85.06
415.151	71.06
415.374	74.06
415.597	98.06
415.821	76.06
416.044	67.06
416.267	75.06
416.49	77.06
416.713	82.06
416.936	76.06
417.159	71.06
417.382	77.06
417.605	81.06
417.828	84.06
418.051	82.06
418.274	67.06
418.497	75.06
418.72	78.06
418.943	81.06
419.166	93.06
419.389	84.06
419.611	97.06
419.834	67.06
420.057	78.06
420.28	79.06
420.503	79.06
420.726	91.06
420.948	81.06
421.171	77.06
421.394	73.06
421.617	75.06
421.839	68.06
422.062	78.06
422.285	75.06
422.507	93.06
422.73	91.06
422.953	72.06
423.175	81.06
423.398	91.06
423.621	72.06
423.843	63.06
424.066	71.06
424.288	84.06
424.511	71.06
424.733	76.06
424.956	76.06
425.178	74.06
425.401	79.06
425.623	78.06
425.846	60.06
426.068	78.06
426.291	61.06
426.513	71.06
426.735	77.06
426.958	62.06
427.18	90.06
427.402	80.06
427.625	67.06
427.847	75.06
428.069	81.06
428.292	77.06
428.514	73.06
428.736	71.06
428.958	84.06
429.181	69.06
429.403	78.06
429.625	78.06
429.847	66.06
430.069	82.06
430.292	83.06
430.514	83.06
430.736	78.06
430.958	87.06
431.18	63.06
431.402	65.06
431.624	73.06
431.846	76.06
432.068	74.06
432.29	64.06
432.512	76.06
432.734	75.06
432.956	66.06
433.178	86.06
433.4	84.06
433.622	89.06
433.844	77.06
434.066	74.06
434.287	77.06
434.509	82.06
434.731	80.06
434.953	82.06
435.175	72.06
435.397	88.06
435.618	74.06
435.84	76.06
436.062	75.06
436.284	62.06
436.505	80.06
436.727	80.06
436.949	85.06
437.17	71.06
437.392	63.06
437.614	74.06
437.835	79.06
438.057	76.06
438.278	77.06
438.5	95.06
438.721	75.06
438.943	74.06
439.165	68.06
439.386	67.06
439.608	78.06
439.829	81.06
440.05	84.06
440.272	78.06
440.493	79.06
440.715	70.06
440.936	73.06
441.158	78.06
441.379	78.06
441.6	75.06
441.822	73.06
442.043	69.06
442.264	91.06
442.486	78.06
442.707	86.06
442.928	87.06
443.149	80.06
443.371	73.06
443.592	71.06
443.813	73.06
444.034	66.06
444.255	67.06
444.476	75.06
444.698	77.06
444.919	82.06
445.14	150.06
445.361	110.06
445.582	60.06
445.803	70.06
446.024	89.06
446.245	90.06
446.466	90.06
446.687	70.06
446.908	89.06
447.129	69.06
447.35	64.06
447.571	80.06
447.792	71.06
448.013	83.06
448.234	77.06
448.455	77.06
448.675	76.06
448.896	87.06
449.117	94.06
449.338	81.06
449.559	79.06
449.779	75.06
450	74.06
450.221	75.06
450.442	85.06
450.662	76.06
450.883	86.06
451.104	89.06
451.324	79.06
451.545	82.06
451.766	82.06
451.986	77.06
452.207	70.06
452.428	75.06
452.648	93.06
452.869	69.06
453.089	75.06
453.31	76.06
453.53	76.06
453.751	69.06
453.971	68.06
454.192	77.06
454.412	71.06
454.633	72.06
454.853	83.06
455.073	79.06
455.294	83.06
455.514	98.06
455.734	80.06
455.955	85.06
456.175	72.06
456.395	68.06
456.616	77.06
456.836	74.06
457.056	67.06
457.276	75.06
457.497	68.06
457.717	90.06
457.937	76.06
458.157	78.06
458.377	79.06
458.598	78.06
458.818	82.06
459.038	79.06
459.258	76.06
459.478	62.06
459.698	64.06
459.918	79.06
460.138	68.06
460.358	53.06
460.578	61.06
460.798	83.06
461.018	86.06
461.238	67.06
461.458	75.06
461.678	70.06
461.898	60.06
462.118	75.06
462.338	77.06
462.558	69.06
462.777	79.06
462.997	72.06
463.217	76.06
463.437	78.06
463.657	72.06
463.876	77.06
464.096	61.06
464.316	73.06
464.536	63.06
464.755	67.06
464.975	77.06
465.195	62.06
465.414	88.06
465.634	69.06
465.854	77.06
466.073	83.06
466.293	83.06
466.512	85.06
466.732	75.06
466.951	70.06
467.171	81.06
467.391	83.06
467.61	77.06
467.829	81.06
468.049	89.06
468.268	77.06
468.488	78.06
468.707	84.06
468.927	76.06
469.146	80.06
469.365	85.06
469.585	81.06
469.804	65.06
470.023	79.06
470.243	75.06
470.462	70.06
470.681	68.06
470.901	82.06
471.12	87.06
471.339	91.06
471.558	81.06
471.777	73.06
471.997	73.06
472.216	87.06
472.435	68.06
472.654	66.06
472.873	84.06
473.092	74.06
473.311	82.06
473.53	79.06
473.749	74.06
473.968	88.06
474.187	69.06
474.406	73.06
474.625	75.06
474.844	75.06
475.063	81.06
475.282	77.06
475.501	70.06
475.72	69.06
475.939	83.06
476.158	85.06
476.377	69.06
476.596	78.06
476.814	65.06
477.033	70.06
477.252	89.06
477.471	83.06
477.69	69.06
477.908	77.06
478.127	86.06
478.346	82.06
478.564	84.06
478.783	74.06
479.002	78.06
479.22	72.06
479.439	74.06
479.658	73.06
479.876	76.06
480.095	73.06
480.313	85.06
480.532	79.06
480.751	74.06
480.969	66.06
481.188	76.06
481.406	84.06
481.624	89.06
481.843	76.06
482.061	87.06
482.28	76.06
482.498	63.06
482.717	84.06
482.935	84.06
483.153	95.06
483.372	74.06
483.59	78.06
483.808	79.06
484.027	66.06
484.245	81.06
484.463	76.06
484.681	90.06
484.9	81.06
485.118	79.06
485.336	66.06
485.554	83.06
485.772	77.06
485.99	73.06
486.209	74.06
486.427	93.06
486.645	82.06
486.863	85.06
487.081	76.06
487.299	68.06
487.517	90.06
487.735	75.06
487.953	68.06
488.171	76.06
488.389	83.06
488.607	64.06
488.825	71.06
489.043	88.06
489.261	69.06
489.479	85.06
489.696	92.06
489.914	82.06
490.132	79.06
490.35	81.06
490.568	80.06
490.786	85.06
491.003	88.06
491.221	87.06
491.439	79.06
491.657	79.06
491.874	76.06
492.092	84.06
492.31	95.06
492.527	89.06
492.745	101.06
492.963	83.06
493.18	105.06
493.398	104.06
493.615	92.06
493.833	85.06
494.05	80.06
494.268	82.06
494.485	91.06
494.703	84.06
494.92	81.06
495.138	77.06
495.355	83.06
495.573	86.06
495.79	90.06
496.008	84.06
496.225	90.06
496.442	90.06
496.66	81.06
496.877	81.06
497.094	84.06
497.312	95.06
497.529	81.06
497.746	81.06
497.963	72.06
498.181	90.06
498.398	71.06
498.615	74.06
498.832	89.06
499.049	87.06
499.267	86.06
499.484	78.06
499.701	83.06
499.918	84.06
500.135	83.06
500.352	91.06
500.569	76.06
500.786	84.06
501.003	89.06
501.22	93.06
501.437	83.06
501.654	84.06
501.871	86.06
502.088	88.06
502.305	97.06
502.522	79.06
502.739	77.06
502.956	79.06
503.172	70.06
503.389	84.06
503.606	88.06
503.823	69.06
504.04	75.06
504.256	80.06
504.473	77.06
504.69	75.06
504.907	76.06
505.123	74.06
505.34	73.06
505.557	82.06
505.773	75.06
505.99	69.06
506.207	73.06
506.423	83.06
506.64	86.06
506.856	83.06
507.073	68.06
507.289	88.06
507.506	87.06
507.722	81.06
507.939	79.06
508.155	91.06
508.372	81.06
508.588	79.06
508.805	89.06
509.021	79.06
509.238	81.06
509.454	81.06
509.67	87.06
509.887	79.06
510.103	83.06
510.319	88.06
510.536	79.06
510.752	79.06
510.968	77.06
511.184	81.06
511.401	82.06
511.617	77.06
511.833	86.06
512.049	91.06
512.265	75.06
512.481	73.06
512.698	86.06
512.914	74.06
513.13	78.06
513.346	94.06
513.562	83.06
513.778	94.06
513.994	77.06
514.21	77.06
514.426	79.06
514.642	79.06
514.858	67.06
515.074	77.06
515.29	78.06
515.506	64.06
515.721	81.06
515.937	77.06
516.153	71.06
516.369	83.06
516.585	70.06
516.801	91.06
517.016	70.06
517.232	81.06
517.448	69.06
517.664	82.06
517.879	75.06
518.095	82.06
518.311	75.06
518.527	83.06
518.742	68.06
518.958	72.06
519.173	76.06
519.389	82.06
519.605	80.06
519.82	77.06
520.036	81.06
520.251	70.06
520.467	84.06
520.682	74.06
520.898	85.06
521.113	89.06
521.329	81.06
521.544	73.06
521.76	65.06
521.975	62.06
522.19	79.06
522.406	77.06
522.621	79.06
522.836	78.06
523.052	86.06
523.267	78.06
523.482	83.06
523.698	89.06
523.913	73.06
524.128	75.06
524.343	81.06
524.559	87.06
524.774	70.06
524.989	57.06
525.204	62.06
525.419	84.06
525.634	71.06
525.849	74.06
526.064	83.06
526.28	92.06
526.495	79.06
526.71	81.06
526.925	75.06
527.14	82.06
527.355	88.06
527.57	77.06
527.785	74.06
527.999	77.06
528.214	73.06
528.429	86.06
528.644	94.06
528.859	89.06
529.074	88.06
529.289	76.06
529.503	66.06
529.718	63.06
529.933	77.06
530.148	76.06
530.363	98.06
530.577	90.06
530.792	74.06
531.007	82.06
531.221	72.06
531.436	82.06
531.651	77.06
531.865	74.06
532.08	88.06
532.295	93.06
532.509	75.06
532.724	94.06
532.938	75.06
533.153	82.06
533.367	74.06
533.582	74.06
533.796	87.06
534.011	92.06
534.225	78.06
534.44	91.06
534.654	77.06
534.868	76.06
535.083	81.06
535.297	76.06
535.511	69.06
535.726	91.06
535.94	68.06
536.154	71.06
536.369	84.06
536.583	77.06
536.797	82.06
537.011	82.06
537.225	79.06
537.44	83.06
537.654	91.06
537.868	66.06
538.082	70.06
538.296	81.06
538.51	61.06
538.724	77.06
538.938	86.06
539.153	93.06
539.367	89.06
539.581	82.06
539.795	87.06
540.009	68.06
540.222	63.06
540.436	79.06
540.65	76.06
540.864	79.06
541.078	71.06
541.292	84.06
541.506	93.06
541.72	85.06
541.934	83.06
542.147	86.06
542.361	71.06
542.575	83.06
542.789	83.06
543.002	73.06
543.216	72.06
543.43	96.06
543.644	77.06
543.857	86.06
544.071	75.06
544.285	79.06
544.498	70.06
544.712	88.06
544.925	88.06
545.139	84.06
545.352	77.06
545.566	94.06
545.779	80.06
545.993	90.06
546.206	79.06
546.42	62.06
546.633	86.06
546.847	86.06
547.06	84.06
547.274	85.06
547.487	76.06
547.7	72.06
547.914	91.06
548.127	69.06
548.34	98.06
548.554	89.06
548.767	89.06
548.98	78.06
549.193	71.06
549.407	81.06
549.62	90.06
549.833	81.06
550.046	91.06
550.259	76.06
550.473	79.06
550.686	85.06
550.899	96.06
551.112	91.06
551.325	92.06
551.538	77.06
551.751	84.06
551.964	70.06
552.177	76.06
552.39	84.06
552.603	89.06
552.816	75.06
553.029	78.06
553.242	94.06
553.455	82.06
553.667	81.06
553.88	93.06
554.093	76.06
554.306	77.06
554.519	84.06
554.732	87.06
554.944	85.06
555.157	92.06
555.37	87.06
555.583	87.06
555.795	72.06
556.008	84.06
556.221	85.06
556.433	77.06
556.646	78.06
556.859	86.06
557.071	84.06
557.284	92.06
557.496	87.06
557.709	84.06
557.921	85.06
558.134	86.06
558.346	89.06
558.559	85.06
558.771	103.06
558.984	98.06
559.196	80.06
559.409	62.06
559.621	78.06
559.833	71.06
560.046	81.06
560.258	77.06
560.47	89.06
560.683	75.06
560.895	83.06
561.107	69.06
561.32	90.06
561.532	81.06
561.744	85.06
561.956	66.06
562.168	76.06
562.381	79.06
562.593	78.06
562.805	81.06
563.017	93.06
563.229	89.06
563.441	77.06
563.653	80.06
563.865	83.06
564.077	87.06
564.289	88.06
564.501	86.06
564.713	90.06
564.925	76.06
565.137	74.06
565.349	87.06
565.561	70.06
565.773	85.06
565.985	69.06
566.197	75.06
566.408	77.06
566.62	79.06
566.832	74.06
567.044	63.06
567.255	83.06
567.467	76.06
567.679	77.06
567.891	84.06
568.102	65.06
568.314	95.06
568.526	65.06
568.737	89.06
568.949	89.06
569.161	82.06
569.372	58.06
569.584	73.06
569.795	96.06
570.007	67.06
570.218	87.06
570.43	86.06
570.641	84.06
570.853	81.06
571.064	79.06
571.276	73.06
571.487	83.06
571.698	94.06
571.91	72.06
572.121	91.06
572.333	102.06
572.544	74.06
572.755	68.06
572.966	77.06
573.178	81.06
573.389	71.06
573.6	77.06
573.811	79.06
574.023	76.06
574.234	84.06
574.445	76.06
574.656	88.06
574.867	85.06
575.078	77.06
575.289	67.06
575.501	87.06
575.712	87.06
575.923	102.06
576.134	83.06
576.345	88.06
576.556	93.06
576.767	84.06
576.978	87.06
577.188	84.06
577.399	73.06
577.61	77.06
577.821	83.06
578.032	73.06
578.243	83.06
578.454	97.06
578.665	76.06
578.875	90.06
579.086	91.06
579.297	88.06
579.508	73.06
579.718	74.06
579.929	84.06
580.14	89.06
580.35	85.06
580.561	90.06
580.772	81.06
580.982	89.06
581.193	91.06
581.403	85.06
581.614	78.06
581.825	88.06
582.035	85.06
582.246	84.06
582.456	78.06
582.667	68.06
582.877	89.06
583.087	87.06
583.298	99.06
583.508	99.06
583.719	83.06
583.929	77.06
584.139	85.06
584.35	86.06
584.56	81.06
584.77	78.06
584.981	68.06
585.191	83.06
585.401	83.06
585.611	78.06
585.821	89.06
586.032	83.06
586.242	72.06
586.452	87.06
586.662	88.06
586.872	82.06
587.082	79.06
587.292	86.06
587.502	82.06
587.713	82.06
587.923	87.06
588.133	72.06
588.343	89.06
588.553	81.06
588.762	93.06
588.972	130.06
589.182	210.06
589.392	181.06
589.602	122.06
589.812	198.06
590.022	125.06
590.232	94.06
590.441	98.06
590.651	91.06
590.861	71.06
591.071	89.06
591.281	78.06
591.49	61.06
591.7	65.06
591.91	75.06
592.119	86.06
592.329	83.06
592.539	77.06
592.748	82.06
592.958	75.06
593.167	74.06
593.377	88.06
593.587	88.06
593.796	78.06
594.006	83.06
594.215	83.06
594.424	73.06
594.634	84.06
594.843	83.06
595.053	66.06
595.262	71.06
595.472	70.06
595.681	75.06
595.89	77.06
596.1	66.06
596.309	83.06
596.518	74.06
596.727	70.06
596.937	78.06
597.146	80.06
597.355	81.06
597.564	83.06
597.774	89.06
597.983	77.06
598.192	69.06
598.401	90.06
598.61	94.06
598.819	87.06
599.028	88.06
599.237	72.06
599.446	91.06
599.655	82.06
599.864	77.06
600.073	98.06
600.282	84.06
600.491	77.06
600.7	83.06
600.909	86.06
601.118	82.06
601.327	73.06
601.536	81.06
601.745	90.06
601.953	83.06
602.162	74.06
602.371	89.06
602.58	77.06
602.789	83.06
602.997	88.06
603.206	92.06
603.415	77.06
603.623	79.06
603.832	85.06
604.041	74.06
604.249	85.06
604.458	71.06
604.666	83.06
604.875	90.06
605.084	85.06
605.292	70.06
605.501	72.06
605.709	87.06
605.918	91.06
606.126	95.06
606.334	94.06
606.543	84.06
606.751	86.06
606.96	70.06
607.168	73.06
607.376	75.06
607.585	75.06
607.793	79.06
608.001	82.06
608.21	88.06
608.418	78.06
608.626	85.06
608.834	80.06
609.043	86.06
609.251	90.06
609.459	82.06
609.667	86.06
609.875	88.06
610.083	85.06
610.291	69.06
610.499	88.06
610.707	78.06
610.916	83.06
611.124	81.06
611.332	77.06
611.54	76.06
611.748	82.06
611.955	86.06
612.163	74.06
612.371	100.06
612.579	69.06
612.787	90.06
612.995	91.06
613.203	82.06
613.411	76.06
613.618	80.06
613.826	91.06
614.034	73.06
614.242	78.06
614.449	82.06
614.657	85.06
614.865	79.06
615.072	80.06
615.28	69.06
615.488	94.06
615.695	78.06
615.903	78.06
616.111	86.06
616.318	88.06
616.526	75.06
616.733	83.06
616.941	75.06
617.148	75.06
617.356	82.06
617.563	81.06
617.771	89.06
617.978	87.06
618.185	88.06
618.393	81.06
618.6	75.06
618.807	71.06
619.015	75.06
619.222	79.06
619.429	86.06
619.637	80.06
619.844	81.06
620.051	76.06
620.258	88.06
620.466	72.06
620.673	73.06
620.88	76.06
621.087	88.06
621.294	79.06
621.501	74.06
621.708	81.06
621.915	95.06
622.122	87.06
622.329	92.06
622.536	74.06
622.743	80.06
622.95	80.06
623.157	74.06
623.364	85.06
623.571	73.06
623.778	74.06
623.985	95.06
624.192	72.06
624.399	83.06
624.606	76.06
624.812	82.06
625.019	91.06
625.226	74.06
625.433	62.06
625.639	78.06
625.846	78.06
626.053	78.06
626.259	73.06
626.466	75.06
626.673	71.06
626.879	70.06
627.086	86.06
627.293	82.06
627.499	87.06
627.706	90.06
627.912	69.06
628.119	77.06
628.325	86.06
628.532	104.06
628.738	73.06
628.945	95.06
629.151	82.06
629.357	84.06
629.564	81.06
629.77	82.06
629.976	66.06
630.183	70.06
630.389	78.06
630.595	64.06
630.802	75.06
631.008	59.06
631.214	76.06
631.42	77.06
631.627	86.06
631.833	91.06
632.039	77.06
632.245	67.06
632.451	68.06
632.657	69.06
632.863	74.06
633.069	80.06
633.275	99.06
633.481	86.06
633.688	84.06
633.893	93.06
634.099	81.06
634.305	82.06
634.511	83.06
634.717	88.06
634.923	65.06
635.129	79.06
635.335	81.06
635.541	77.06
635.747	77.06
635.952	80.06
636.158	85.06
636.364	94.06
636.57	86.06
636.775	79.06
636.981	69.06
637.187	70.06
637.392	69.06
637.598	86.06
637.804	66.06
638.009	73.06
638.215	70.06
638.421	75.06
638.626	79.06
638.832	77.06
639.037	85.06
639.243	76.06
639.448	90.06
639.654	78.06
639.859	77.06
640.065	82.06
640.27	97.06
640.475	69.06
640.681	78.06
640.886	87.06
641.091	65.06
641.297	77.06
641.502	70.06
641.707	77.06
641.913	66.06
642.118	67.06
642.323	87.06
642.528	93.06
642.733	81.06
642.939	83.06
643.144	84.06
643.349	73.06
643.554	67.06
643.759	93.06
643.964	67.06
644.169	86.06
644.374	93.06
644.579	79.06
644.784	81.06
644.989	79.06
645.194	83.06
645.399	77.06
645.604	77.06
645.809	86.06
646.014	82.06
646.219	81.06
646.423	84.06
646.628	71.06
646.833	78.06
647.038	85.06
647.243	90.06
647.447	76.06
647.652	82.06
647.857	79.06
648.062	88.06
648.266	77.06
648.471	83.06
648.676	82.06
648.88	75.06
649.085	83.06
649.289	83.06
649.494	82.06
649.698	78.06
649.903	87.06
650.107	93.06
650.312	86.06
650.516	79.06
650.721	62.06
650.925	81.06
651.13	73.06
651.334	82.06
651.539	79.06
651.743	75.06
651.947	77.06
652.152	70.06
652.356	85.06
652.56	71.06
652.764	74.06
652.969	74.06
653.173	73.06
653.377	78.06
653.581	79.06
653.785	84.06
653.99	73.06
654.194	95.06
654.398	75.06
654.602	66.06
654.806	54.06
655.01	88.06
655.214	79.06
655.418	74.06
655.622	79.06
655.826	85.06
656.03	82.06
656.234	67.06
656.438	65.06
656.642	78.06
656.846	70.06
657.049	77.06
657.253	86.06
657.457	75.06
657.661	83.06
657.865	70.06
658.068	78.06
658.272	90.06
658.476	78.06
658.68	84.06
658.883	84.06
659.087	86.06
659.291	62.06
659.494	74.06
659.698	71.06
659.901	84.06
660.105	81.06
660.309	86.06
660.512	69.06
660.716	73.06
660.919	62.06
661.123	72.06
661.326	78.06
661.53	74.06
661.733	77.06
661.936	73.06
662.14	72.06
662.343	66.06
662.546	65.06
662.75	76.06
662.953	63.06
663.156	78.06
663.36	76.06
663.563	67.06
663.766	85.06
663.969	75.06
664.173	70.06
664.376	73.06
664.579	68.06
664.782	74.06
664.985	76.06
665.188	91.06
665.391	77.06
665.594	56.06
665.797	71.06
666	90.06
666.203	81.06
666.406	86.06
666.609	83.06
666.812	78.06
667.015	75.06
667.218	67.06
667.421	82.06
667.624	74.06
667.827	75.06
668.03	69.06
668.232	78.06
668.435	81.06
668.638	81.06
668.841	89.06
669.043	69.06
669.246	71.06
669.449	72.06
669.651	71.06
669.854	74.06
670.057	87.06
670.259	76.06
670.462	85.06
670.665	62.06
670.867	64.06
671.07	74.06
671.272	85.06
671.475	89.06
671.677	64.06
671.88	80.06
672.082	73.06
672.284	81.06
672.487	78.06
672.689	83.06
672.892	68.06
