Data from KBr_3_HRD10591_00015.txt Node
Date: Mon Jan 19 13:22:29 EST 2026
User: Yrep
Spectrometer: HR+D1059
Trigger mode: 1
Integration Time (sec): 1.000000E-1
Scans to average: 1
Electric dark correction enabled: true
Nonlinearity correction enabled: false
Boxcar width: 0
XAxis mode: Wavelengths
Number of Pixels in Spectrum: 2048
>>>>>Begin Spectral Data<<<<<
223.165	-10.12
223.4	-10.12
223.635	-10.12
223.869	-9.12
224.104	-31.12
224.338	-24.12
224.573	-19.12
224.808	-8.12
225.042	-5.12
225.277	-8.12
225.511	-5.12
225.746	3.88
225.98	14.88
226.215	16.88
226.449	23.88
226.683	4.88
226.918	22.88
227.152	32.88
227.387	36.88
227.621	17.88
227.856	35.88
228.09	40.88
228.324	68.88
228.559	77.88
228.793	59.88
229.027	53.88
229.262	64.88
229.496	65.88
229.73	83.88
229.964	59.88
230.199	68.88
230.433	66.88
230.667	80.88
230.901	74.88
231.136	76.88
231.37	79.88
231.604	66.88
231.838	93.88
232.072	87.88
232.306	91.88
232.541	74.88
232.775	71.88
233.009	91.88
233.243	89.88
233.477	89.88
233.711	79.88
233.945	87.88
234.179	77.88
234.413	78.88
234.647	78.88
234.881	81.88
235.115	82.88
235.349	76.88
235.583	76.88
235.817	78.88
236.051	73.88
236.285	78.88
236.519	78.88
236.753	78.88
236.987	61.88
237.221	69.88
237.455	71.88
237.689	73.88
237.922	76.88
238.156	77.88
238.39	71.88
238.624	81.88
238.858	79.88
239.091	70.88
239.325	74.88
239.559	78.88
239.793	86.88
240.027	60.88
240.26	76.88
240.494	86.88
240.728	76.88
240.961	68.88
241.195	89.88
241.429	81.88
241.662	81.88
241.896	80.88
242.13	81.88
242.363	70.88
242.597	86.88
242.83	77.88
243.064	90.88
243.298	73.88
243.531	64.88
243.765	68.88
243.998	74.88
244.232	89.88
244.465	77.88
244.699	69.88
244.932	81.88
245.166	73.88
245.399	83.88
245.633	70.88
245.866	67.88
246.099	75.88
246.333	65.88
246.566	78.88
246.8	68.88
247.033	66.88
247.266	89.88
247.5	85.88
247.733	83.88
247.966	84.88
248.2	73.88
248.433	72.88
248.666	86.88
248.899	68.88
249.133	87.88
249.366	91.88
249.599	71.88
249.832	84.88
250.066	83.88
250.299	79.88
250.532	80.88
250.765	82.88
250.998	76.88
251.231	71.88
251.465	90.88
251.698	81.88
251.931	71.88
252.164	88.88
252.397	76.88
252.63	81.88
252.863	66.88
253.096	74.88
253.329	80.88
253.562	85.88
253.795	74.88
254.028	92.88
254.261	76.88
254.494	86.88
254.727	78.88
254.96	76.88
255.193	85.88
255.426	68.88
255.659	87.88
255.892	64.88
256.124	86.88
256.357	75.88
256.59	85.88
256.823	83.88
257.056	80.88
257.289	77.88
257.521	85.88
257.754	71.88
257.987	80.88
258.22	73.88
258.452	86.88
258.685	79.88
258.918	88.88
259.151	68.88
259.383	75.88
259.616	90.88
259.849	82.88
260.081	78.88
260.314	89.88
260.547	78.88
260.779	75.88
261.012	86.88
261.244	69.88
261.477	65.88
261.71	81.88
261.942	69.88
262.175	93.88
262.407	76.88
262.64	88.88
262.872	77.88
263.105	74.88
263.337	87.88
263.57	67.88
263.802	87.88
264.035	86.88
264.267	76.88
264.499	69.88
264.732	68.88
264.964	86.88
265.197	71.88
265.429	90.88
265.661	74.88
265.894	69.88
266.126	78.88
266.358	96.88
266.591	85.88
266.823	80.88
267.055	94.88
267.287	83.88
267.52	83.88
267.752	72.88
267.984	85.88
268.216	86.88
268.448	90.88
268.681	82.88
268.913	74.88
269.145	85.88
269.377	80.88
269.609	83.88
269.841	82.88
270.073	90.88
270.306	83.88
270.538	85.88
270.77	82.88
271.002	84.88
271.234	87.88
271.466	84.88
271.698	84.88
271.93	80.88
272.162	88.88
272.394	90.88
272.626	89.88
272.858	86.88
273.09	79.88
273.322	72.88
273.553	77.88
273.785	91.88
274.017	83.88
274.249	94.88
274.481	82.88
274.713	84.88
274.945	88.88
275.176	85.88
275.408	61.88
275.64	57.88
275.872	86.88
276.104	77.88
276.335	76.88
276.567	86.88
276.799	84.88
277.031	71.88
277.262	83.88
277.494	73.88
277.726	85.88
277.957	79.88
278.189	78.88
278.421	96.88
278.652	67.88
278.884	73.88
279.115	77.88
279.347	81.88
279.579	83.88
279.81	74.88
280.042	68.88
280.273	91.88
280.505	74.88
280.736	74.88
280.968	87.88
281.199	92.88
281.431	92.88
281.662	78.88
281.894	85.88
282.125	75.88
282.356	72.88
282.588	82.88
282.819	92.88
283.051	89.88
283.282	96.88
283.513	73.88
283.745	87.88
283.976	77.88
284.207	80.88
284.439	78.88
284.67	91.88
284.901	84.88
285.132	92.88
285.364	82.88
285.595	89.88
285.826	81.88
286.057	80.88
286.288	91.88
286.52	84.88
286.751	92.88
286.982	89.88
287.213	95.88
287.444	74.88
287.675	83.88
287.906	86.88
288.138	98.88
288.369	87.88
288.6	86.88
288.831	73.88
289.062	64.88
289.293	93.88
289.524	81.88
289.755	77.88
289.986	75.88
290.217	97.88
290.448	95.88
290.679	72.88
290.91	102.88
291.141	98.88
291.371	91.88
291.602	79.88
291.833	87.88
292.064	72.88
292.295	82.88
292.526	84.88
292.757	87.88
292.987	93.88
293.218	73.88
293.449	77.88
293.68	76.88
293.91	79.88
294.141	83.88
294.372	81.88
294.603	76.88
294.833	89.88
295.064	90.88
295.295	78.88
295.525	83.88
295.756	89.88
295.987	97.88
296.217	93.88
296.448	94.88
296.679	88.88
296.909	91.88
297.14	77.88
297.37	84.88
297.601	78.88
297.831	74.88
298.062	91.88
298.292	79.88
298.523	95.88
298.753	97.88
298.984	80.88
299.214	92.88
299.445	94.88
299.675	87.88
299.905	84.88
300.136	79.88
300.366	82.88
300.597	81.88
300.827	80.88
301.057	84.88
301.288	71.88
301.518	83.88
301.748	71.88
301.979	99.88
302.209	89.88
302.439	89.88
302.669	81.88
302.9	82.88
303.13	80.88
303.36	87.88
303.59	83.88
303.82	82.88
304.051	89.88
304.281	86.88
304.511	82.88
304.741	88.88
304.971	81.88
305.201	81.88
305.431	73.88
305.661	87.88
305.891	85.88
306.121	87.88
306.352	82.88
306.582	80.88
306.812	83.88
307.042	75.88
307.272	86.88
307.502	85.88
307.731	83.88
307.961	76.88
308.191	80.88
308.421	65.88
308.651	86.88
308.881	77.88
309.111	83.88
309.341	71.88
309.571	74.88
309.8	75.88
310.03	79.88
310.26	90.88
310.49	91.88
310.72	86.88
310.949	74.88
311.179	84.88
311.409	84.88
311.639	69.88
311.868	79.88
312.098	77.88
312.328	104.88
312.557	97.88
312.787	96.88
313.017	68.88
313.246	84.88
313.476	80.88
313.706	94.88
313.935	86.88
314.165	86.88
314.394	91.88
314.624	80.88
314.853	88.88
315.083	80.88
315.312	70.88
315.542	86.88
315.771	66.88
316.001	92.88
316.23	84.88
316.46	79.88
316.689	84.88
316.919	95.88
317.148	84.88
317.377	93.88
317.607	78.88
317.836	67.88
318.065	78.88
318.295	93.88
318.524	85.88
318.753	83.88
318.983	75.88
319.212	89.88
319.441	93.88
319.67	73.88
319.9	88.88
320.129	76.88
320.358	86.88
320.587	79.88
320.816	74.88
321.046	81.88
321.275	67.88
321.504	77.88
321.733	74.88
321.962	71.88
322.191	85.88
322.42	84.88
322.649	80.88
322.878	87.88
323.108	98.88
323.337	96.88
323.566	105.88
323.795	85.88
324.024	83.88
324.253	79.88
324.482	89.88
324.71	87.88
324.939	86.88
325.168	84.88
325.397	79.88
325.626	89.88
325.855	85.88
326.084	90.88
326.313	80.88
326.542	99.88
326.77	84.88
326.999	83.88
327.228	89.88
327.457	69.88
327.686	80.88
327.914	78.88
328.143	86.88
328.372	91.88
328.6	94.88
328.829	78.88
329.058	91.88
329.287	92.88
329.515	68.88
329.744	84.88
329.972	66.88
330.201	84.88
330.43	91.88
330.658	84.88
330.887	78.88
331.115	78.88
331.344	75.88
331.572	82.88
331.801	75.88
332.03	93.88
332.258	86.88
332.486	88.88
332.715	93.88
332.943	80.88
333.172	76.88
333.4	81.88
333.629	71.88
333.857	88.88
334.085	82.88
334.314	82.88
334.542	76.88
334.771	87.88
334.999	84.88
335.227	79.88
335.455	83.88
335.684	98.88
335.912	94.88
336.14	75.88
336.369	76.88
336.597	89.88
336.825	97.88
337.053	79.88
337.281	94.88
337.51	93.88
337.738	86.88
337.966	81.88
338.194	74.88
338.422	78.88
338.65	97.88
338.878	79.88
339.106	86.88
339.334	89.88
339.562	80.88
339.79	71.88
340.018	86.88
340.246	78.88
340.474	93.88
340.702	86.88
340.93	81.88
341.158	87.88
341.386	84.88
341.614	81.88
341.842	77.88
342.07	89.88
342.298	78.88
342.526	67.88
342.754	74.88
342.981	74.88
343.209	78.88
343.437	94.88
343.665	76.88
343.893	86.88
344.12	87.88
344.348	78.88
344.576	96.88
344.804	80.88
345.031	85.88
345.259	87.88
345.487	78.88
345.714	74.88
345.942	81.88
346.17	95.88
346.397	80.88
346.625	90.88
346.853	80.88
347.08	84.88
347.308	79.88
347.535	80.88
347.763	77.88
347.99	87.88
348.218	107.88
348.445	86.88
348.673	93.88
348.9	91.88
349.128	81.88
349.355	93.88
349.583	105.88
349.81	95.88
350.037	87.88
350.265	90.88
350.492	87.88
350.72	83.88
350.947	71.88
351.174	80.88
351.402	74.88
351.629	88.88
351.856	78.88
352.083	81.88
352.311	86.88
352.538	87.88
352.765	87.88
352.992	86.88
353.22	70.88
353.447	96.88
353.674	106.88
353.901	102.88
354.128	86.88
354.355	86.88
354.583	80.88
354.81	90.88
355.037	85.88
355.264	92.88
355.491	81.88
355.718	83.88
355.945	85.88
356.172	84.88
356.399	95.88
356.626	78.88
356.853	88.88
357.08	79.88
357.307	84.88
357.534	87.88
357.761	93.88
357.988	90.88
358.215	81.88
358.441	81.88
358.668	83.88
358.895	77.88
359.122	76.88
359.349	81.88
359.576	89.88
359.802	81.88
360.029	86.88
360.256	83.88
360.483	84.88
360.709	83.88
360.936	80.88
361.163	84.88
361.39	84.88
361.616	91.88
361.843	81.88
362.07	89.88
362.296	87.88
362.523	75.88
362.749	82.88
362.976	87.88
363.203	89.88
363.429	87.88
363.656	83.88
363.882	99.88
364.109	76.88
364.335	86.88
364.562	86.88
364.788	93.88
365.015	82.88
365.241	74.88
365.468	83.88
365.694	81.88
365.92	76.88
366.147	74.88
366.373	80.88
366.599	81.88
366.826	69.88
367.052	80.88
367.278	89.88
367.505	88.88
367.731	80.88
367.957	72.88
368.184	74.88
368.41	95.88
368.636	80.88
368.862	83.88
369.089	92.88
369.315	84.88
369.541	87.88
369.767	85.88
369.993	83.88
370.219	86.88
370.445	84.88
370.672	90.88
370.898	90.88
371.124	83.88
371.35	83.88
371.576	79.88
371.802	75.88
372.028	77.88
372.254	75.88
372.48	81.88
372.706	75.88
372.932	74.88
373.158	69.88
373.384	76.88
373.61	79.88
373.835	66.88
374.061	81.88
374.287	73.88
374.513	89.88
374.739	73.88
374.965	96.88
375.191	90.88
375.416	79.88
375.642	79.88
375.868	81.88
376.094	63.88
376.319	86.88
376.545	80.88
376.771	96.88
376.997	81.88
377.222	74.88
377.448	81.88
377.674	91.88
377.899	92.88
378.125	90.88
378.35	86.88
378.576	88.88
378.802	94.88
379.027	70.88
379.253	77.88
379.478	69.88
379.704	78.88
379.929	86.88
380.155	75.88
380.38	80.88
380.606	73.88
380.831	83.88
381.057	99.88
381.282	79.88
381.507	83.88
381.733	79.88
381.958	71.88
382.184	75.88
382.409	86.88
382.634	86.88
382.86	82.88
383.085	91.88
383.31	94.88
383.535	82.88
383.761	83.88
383.986	65.88
384.211	72.88
384.436	81.88
384.662	76.88
384.887	89.88
385.112	81.88
385.337	89.88
385.562	70.88
385.787	78.88
386.013	84.88
386.238	89.88
386.463	94.88
386.688	99.88
386.913	71.88
387.138	68.88
387.363	74.88
387.588	80.88
387.813	67.88
388.038	92.88
388.263	84.88
388.488	88.88
388.713	93.88
388.938	86.88
389.163	82.88
389.387	81.88
389.612	82.88
389.837	94.88
390.062	82.88
390.287	88.88
390.512	83.88
390.736	79.88
390.961	73.88
391.186	72.88
391.411	79.88
391.636	78.88
391.86	86.88
392.085	79.88
392.31	83.88
392.534	85.88
392.759	68.88
392.984	67.88
393.208	87.88
393.433	89.88
393.658	88.88
393.882	89.88
394.107	76.88
394.331	88.88
394.556	79.88
394.78	75.88
395.005	79.88
395.229	78.88
395.454	73.88
395.678	77.88
395.903	84.88
396.127	81.88
396.352	84.88
396.576	80.88
396.801	88.88
397.025	86.88
397.249	87.88
397.474	88.88
397.698	65.88
397.922	81.88
398.147	85.88
398.371	89.88
398.595	80.88
398.82	86.88
399.044	79.88
399.268	76.88
399.492	83.88
399.717	84.88
399.941	63.88
400.165	80.88
400.389	70.88
400.613	77.88
400.837	96.88
401.062	76.88
401.286	76.88
401.51	90.88
401.734	72.88
401.958	80.88
402.182	87.88
402.406	75.88
402.63	76.88
402.854	88.88
403.078	78.88
403.302	82.88
403.526	92.88
403.75	91.88
403.974	85.88
404.198	97.88
404.422	119.88
404.645	128.88
404.869	136.88
405.093	105.88
405.317	87.88
405.541	85.88
405.765	89.88
405.988	83.88
406.212	86.88
406.436	93.88
406.66	85.88
406.883	91.88
407.107	77.88
407.331	82.88
407.555	95.88
407.778	76.88
408.002	86.88
408.226	76.88
408.449	80.88
408.673	74.88
408.896	74.88
409.12	74.88
409.344	92.88
409.567	103.88
409.791	77.88
410.014	82.88
410.238	87.88
410.461	74.88
410.685	90.88
410.908	83.88
411.132	80.88
411.355	71.88
411.578	86.88
411.802	80.88
412.025	80.88
412.249	86.88
412.472	90.88
412.695	80.88
412.919	81.88
413.142	91.88
413.365	81.88
413.589	83.88
413.812	80.88
414.035	85.88
414.258	63.88
414.482	85.88
414.705	80.88
414.928	74.88
415.151	76.88
415.374	90.88
415.597	90.88
415.821	74.88
416.044	90.88
416.267	89.88
416.49	80.88
416.713	81.88
416.936	78.88
417.159	74.88
417.382	76.88
417.605	75.88
417.828	70.88
418.051	87.88
418.274	76.88
418.497	74.88
418.72	85.88
418.943	89.88
419.166	84.88
419.389	77.88
419.611	78.88
419.834	79.88
420.057	87.88
420.28	80.88
420.503	77.88
420.726	86.88
420.948	86.88
421.171	92.88
421.394	91.88
421.617	79.88
421.839	79.88
422.062	100.88
422.285	84.88
422.507	87.88
422.73	90.88
422.953	95.88
423.175	70.88
423.398	75.88
423.621	87.88
423.843	89.88
424.066	96.88
424.288	90.88
424.511	82.88
424.733	75.88
424.956	89.88
425.178	75.88
425.401	88.88
425.623	95.88
425.846	60.88
426.068	74.88
426.291	85.88
426.513	82.88
426.735	78.88
426.958	88.88
427.18	90.88
427.402	81.88
427.625	88.88
427.847	87.88
428.069	82.88
428.292	73.88
428.514	76.88
428.736	93.88
428.958	79.88
429.181	86.88
429.403	94.88
429.625	86.88
429.847	73.88
430.069	95.88
430.292	78.88
430.514	66.88
430.736	96.88
430.958	86.88
431.18	69.88
431.402	86.88
431.624	85.88
431.846	73.88
432.068	88.88
432.29	89.88
432.512	75.88
432.734	91.88
432.956	92.88
433.178	80.88
433.4	91.88
433.622	74.88
433.844	76.88
434.066	83.88
434.287	79.88
434.509	82.88
434.731	89.88
434.953	86.88
435.175	84.88
435.397	82.88
435.618	81.88
435.84	89.88
436.062	77.88
436.284	82.88
436.505	105.88
436.727	93.88
436.949	91.88
437.17	81.88
437.392	79.88
437.614	81.88
437.835	72.88
438.057	78.88
438.278	88.88
438.5	79.88
438.721	84.88
438.943	83.88
439.165	77.88
439.386	89.88
439.608	85.88
439.829	80.88
440.05	79.88
440.272	94.88
440.493	83.88
440.715	86.88
440.936	102.88
441.158	92.88
441.379	90.88
441.6	86.88
441.822	94.88
442.043	72.88
442.264	76.88
442.486	81.88
442.707	90.88
442.928	80.88
443.149	80.88
443.371	94.88
443.592	84.88
443.813	78.88
444.034	89.88
444.255	87.88
444.476	92.88
444.698	102.88
444.919	86.88
445.14	162.88
445.361	106.88
445.582	84.88
445.803	87.88
446.024	72.88
446.245	81.88
446.466	85.88
446.687	89.88
446.908	96.88
447.129	84.88
447.35	90.88
447.571	68.88
447.792	78.88
448.013	92.88
448.234	82.88
448.455	80.88
448.675	87.88
448.896	77.88
449.117	84.88
449.338	96.88
449.559	97.88
449.779	88.88
450	80.88
450.221	104.88
450.442	95.88
450.662	74.88
450.883	81.88
451.104	90.88
451.324	75.88
451.545	84.88
451.766	83.88
451.986	74.88
452.207	76.88
452.428	81.88
452.648	94.88
452.869	84.88
453.089	88.88
453.31	89.88
453.53	83.88
453.751	82.88
453.971	90.88
454.192	74.88
454.412	83.88
454.633	84.88
454.853	85.88
455.073	87.88
455.294	95.88
455.514	84.88
455.734	88.88
455.955	82.88
456.175	76.88
456.395	78.88
456.616	90.88
456.836	87.88
457.056	81.88
457.276	90.88
457.497	81.88
457.717	92.88
457.937	90.88
458.157	76.88
458.377	69.88
458.598	102.88
458.818	82.88
459.038	86.88
459.258	89.88
459.478	87.88
459.698	77.88
459.918	86.88
460.138	79.88
460.358	88.88
460.578	87.88
460.798	87.88
461.018	88.88
461.238	77.88
461.458	80.88
461.678	76.88
461.898	91.88
462.118	86.88
462.338	86.88
462.558	77.88
462.777	80.88
462.997	91.88
463.217	90.88
463.437	69.88
463.657	77.88
463.876	82.88
464.096	81.88
464.316	84.88
464.536	76.88
464.755	92.88
464.975	85.88
465.195	84.88
465.414	91.88
465.634	86.88
465.854	74.88
466.073	74.88
466.293	89.88
466.512	89.88
466.732	78.88
466.951	78.88
467.171	94.88
467.391	90.88
467.61	71.88
467.829	83.88
468.049	88.88
468.268	73.88
468.488	85.88
468.707	93.88
468.927	92.88
469.146	98.88
469.365	90.88
469.585	85.88
469.804	99.88
470.023	82.88
470.243	87.88
470.462	79.88
470.681	93.88
470.901	99.88
471.12	92.88
471.339	77.88
471.558	92.88
471.777	90.88
471.997	92.88
472.216	79.88
472.435	71.88
472.654	88.88
472.873	99.88
473.092	89.88
473.311	85.88
473.53	80.88
473.749	78.88
473.968	87.88
474.187	93.88
474.406	85.88
474.625	112.88
474.844	91.88
475.063	79.88
475.282	85.88
475.501	85.88
475.72	95.88
475.939	83.88
476.158	73.88
476.377	86.88
476.596	60.88
476.814	94.88
477.033	79.88
477.252	81.88
477.471	78.88
477.69	86.88
477.908	99.88
478.127	90.88
478.346	80.88
478.564	91.88
478.783	100.88
479.002	77.88
479.22	92.88
479.439	80.88
479.658	90.88
479.876	69.88
480.095	75.88
480.313	75.88
480.532	78.88
480.751	86.88
480.969	86.88
481.188	84.88
481.406	76.88
481.624	84.88
481.843	76.88
482.061	83.88
482.28	81.88
482.498	79.88
482.717	92.88
482.935	93.88
483.153	86.88
483.372	84.88
483.59	72.88
483.808	78.88
484.027	81.88
484.245	86.88
484.463	95.88
484.681	97.88
484.9	95.88
485.118	91.88
485.336	87.88
485.554	89.88
485.772	84.88
485.99	83.88
486.209	81.88
486.427	74.88
486.645	73.88
486.863	91.88
487.081	91.88
487.299	84.88
487.517	83.88
487.735	78.88
487.953	80.88
488.171	68.88
488.389	99.88
488.607	90.88
488.825	76.88
489.043	94.88
489.261	79.88
489.479	96.88
489.696	85.88
489.914	90.88
490.132	87.88
490.35	88.88
490.568	75.88
490.786	87.88
491.003	82.88
491.221	84.88
491.439	88.88
491.657	84.88
491.874	81.88
492.092	108.88
492.31	93.88
492.527	90.88
492.745	106.88
492.963	95.88
493.18	88.88
493.398	74.88
493.615	85.88
493.833	97.88
494.05	91.88
494.268	81.88
494.485	89.88
494.703	89.88
494.92	105.88
495.138	89.88
495.355	91.88
495.573	76.88
495.79	79.88
496.008	102.88
496.225	93.88
496.442	102.88
496.66	98.88
496.877	89.88
497.094	100.88
497.312	88.88
497.529	96.88
497.746	68.88
497.963	95.88
498.181	81.88
498.398	94.88
498.615	84.88
498.832	91.88
499.049	91.88
499.267	80.88
499.484	64.88
499.701	94.88
499.918	107.88
500.135	94.88
500.352	102.88
500.569	102.88
500.786	79.88
501.003	87.88
501.22	86.88
501.437	71.88
501.654	68.88
501.871	74.88
502.088	70.88
502.305	86.88
502.522	83.88
502.739	79.88
502.956	72.88
503.172	82.88
503.389	82.88
503.606	80.88
503.823	83.88
504.04	84.88
504.256	82.88
504.473	88.88
504.69	81.88
504.907	93.88
505.123	78.88
505.34	76.88
505.557	91.88
505.773	98.88
505.99	88.88
506.207	86.88
506.423	90.88
506.64	89.88
506.856	81.88
507.073	80.88
507.289	84.88
507.506	91.88
507.722	83.88
507.939	86.88
508.155	95.88
508.372	83.88
508.588	79.88
508.805	86.88
509.021	91.88
509.238	99.88
509.454	90.88
509.67	84.88
509.887	75.88
510.103	75.88
510.319	91.88
510.536	95.88
510.752	81.88
510.968	80.88
511.184	81.88
511.401	96.88
511.617	91.88
511.833	86.88
512.049	88.88
512.265	89.88
512.481	99.88
512.698	91.88
512.914	95.88
513.13	79.88
513.346	80.88
513.562	86.88
513.778	83.88
513.994	90.88
514.21	93.88
514.426	93.88
514.642	90.88
514.858	79.88
515.074	74.88
515.29	80.88
515.506	86.88
515.721	91.88
515.937	100.88
516.153	72.88
516.369	86.88
516.585	89.88
516.801	88.88
517.016	76.88
517.232	77.88
517.448	78.88
517.664	92.88
517.879	74.88
518.095	75.88
518.311	78.88
518.527	83.88
518.742	88.88
518.958	102.88
519.173	97.88
519.389	72.88
519.605	81.88
519.82	98.88
520.036	79.88
520.251	79.88
520.467	89.88
520.682	90.88
520.898	78.88
521.113	80.88
521.329	98.88
521.544	80.88
521.76	79.88
521.975	85.88
522.19	86.88
522.406	92.88
522.621	86.88
522.836	90.88
523.052	88.88
523.267	88.88
523.482	74.88
523.698	91.88
523.913	87.88
524.128	89.88
524.343	87.88
524.559	80.88
524.774	96.88
524.989	86.88
525.204	91.88
525.419	82.88
525.634	92.88
525.849	83.88
526.064	90.88
526.28	87.88
526.495	76.88
526.71	100.88
526.925	89.88
527.14	93.88
527.355	87.88
527.57	91.88
527.785	85.88
527.999	82.88
528.214	79.88
528.429	99.88
528.644	105.88
528.859	82.88
529.074	91.88
529.289	88.88
529.503	107.88
529.718	93.88
529.933	83.88
530.148	81.88
530.363	89.88
530.577	83.88
530.792	90.88
531.007	90.88
531.221	91.88
531.436	78.88
531.651	91.88
531.865	87.88
532.08	78.88
532.295	94.88
532.509	89.88
532.724	75.88
532.938	83.88
533.153	80.88
533.367	93.88
533.582	92.88
533.796	98.88
534.011	92.88
534.225	88.88
534.44	97.88
534.654	89.88
534.868	91.88
535.083	95.88
535.297	82.88
535.511	90.88
535.726	76.88
535.94	92.88
536.154	94.88
536.369	99.88
536.583	78.88
536.797	88.88
537.011	95.88
537.225	68.88
537.44	83.88
537.654	80.88
537.868	70.88
538.082	90.88
538.296	89.88
538.51	95.88
538.724	87.88
538.938	79.88
539.153	91.88
539.367	91.88
539.581	94.88
539.795	86.88
540.009	82.88
540.222	78.88
540.436	88.88
540.65	82.88
540.864	81.88
541.078	88.88
541.292	100.88
541.506	91.88
541.72	92.88
541.934	93.88
542.147	95.88
542.361	88.88
542.575	93.88
542.789	84.88
543.002	99.88
543.216	89.88
543.43	78.88
543.644	92.88
543.857	82.88
544.071	90.88
544.285	90.88
544.498	90.88
544.712	93.88
544.925	90.88
545.139	88.88
545.352	90.88
545.566	86.88
545.779	83.88
545.993	89.88
546.206	94.88
546.42	94.88
546.633	94.88
546.847	87.88
547.06	83.88
547.274	84.88
547.487	92.88
547.7	95.88
547.914	85.88
548.127	96.88
548.34	91.88
548.554	88.88
548.767	81.88
548.98	99.88
549.193	89.88
549.407	91.88
549.62	86.88
549.833	80.88
550.046	92.88
550.259	92.88
550.473	84.88
550.686	100.88
550.899	99.88
551.112	94.88
551.325	86.88
551.538	87.88
551.751	89.88
551.964	106.88
552.177	102.88
552.39	73.88
552.603	98.88
552.816	80.88
553.029	95.88
553.242	91.88
553.455	87.88
553.667	88.88
553.88	80.88
554.093	94.88
554.306	86.88
554.519	79.88
554.732	99.88
554.944	86.88
555.157	89.88
555.37	79.88
555.583	97.88
555.795	96.88
556.008	80.88
556.221	92.88
556.433	75.88
556.646	75.88
556.859	87.88
557.071	87.88
557.284	77.88
557.496	73.88
557.709	89.88
557.921	85.88
558.134	84.88
558.346	78.88
558.559	76.88
558.771	88.88
558.984	68.88
559.196	87.88
559.409	90.88
559.621	77.88
559.833	90.88
560.046	86.88
560.258	76.88
560.47	87.88
560.683	97.88
560.895	84.88
561.107	93.88
561.32	99.88
561.532	91.88
561.744	86.88
561.956	84.88
562.168	82.88
562.381	98.88
562.593	87.88
562.805	94.88
563.017	94.88
563.229	87.88
563.441	77.88
563.653	84.88
563.865	77.88
564.077	89.88
564.289	82.88
564.501	90.88
564.713	85.88
564.925	78.88
565.137	79.88
565.349	89.88
565.561	80.88
565.773	82.88
565.985	83.88
566.197	91.88
566.408	83.88
566.62	97.88
566.832	88.88
567.044	86.88
567.255	85.88
567.467	96.88
567.679	90.88
567.891	86.88
568.102	94.88
568.314	88.88
568.526	79.88
568.737	83.88
568.949	81.88
569.161	91.88
569.372	84.88
569.584	92.88
569.795	90.88
570.007	84.88
570.218	82.88
570.43	86.88
570.641	82.88
570.853	87.88
571.064	82.88
571.276	76.88
571.487	91.88
571.698	94.88
571.91	84.88
572.121	101.88
572.333	84.88
572.544	85.88
572.755	86.88
572.966	91.88
573.178	81.88
573.389	79.88
573.6	80.88
573.811	87.88
574.023	83.88
574.234	87.88
574.445	85.88
574.656	76.88
574.867	83.88
575.078	81.88
575.289	77.88
575.501	75.88
575.712	87.88
575.923	89.88
576.134	91.88
576.345	83.88
576.556	83.88
576.767	84.88
576.978	96.88
577.188	74.88
577.399	76.88
577.61	84.88
577.821	90.88
578.032	83.88
578.243	91.88
578.454	89.88
578.665	84.88
578.875	89.88
579.086	92.88
579.297	77.88
579.508	88.88
579.718	83.88
579.929	91.88
580.14	91.88
580.35	95.88
580.561	111.88
580.772	94.88
580.982	87.88
581.193	78.88
581.403	89.88
581.614	97.88
581.825	92.88
582.035	84.88
582.246	91.88
582.456	81.88
582.667	73.88
582.877	86.88
583.087	86.88
583.298	83.88
583.508	100.88
583.719	92.88
583.929	75.88
584.139	81.88
584.35	83.88
584.56	91.88
584.77	88.88
584.981	89.88
585.191	85.88
585.401	81.88
585.611	87.88
585.821	86.88
586.032	86.88
586.242	91.88
586.452	82.88
586.662	94.88
586.872	79.88
587.082	83.88
587.292	92.88
587.502	97.88
587.713	88.88
587.923	81.88
588.133	95.88
588.343	91.88
588.553	108.88
588.762	122.88
588.972	185.88
589.182	388.88
589.392	272.88
589.602	193.88
589.812	321.88
590.022	195.88
590.232	112.88
590.441	107.88
590.651	94.88
590.861	104.88
591.071	90.88
591.281	82.88
591.49	88.88
591.7	79.88
591.91	89.88
592.119	89.88
592.329	82.88
592.539	87.88
592.748	67.88
592.958	83.88
593.167	82.88
593.377	86.88
593.587	97.88
593.796	99.88
594.006	81.88
594.215	75.88
594.424	111.88
594.634	94.88
594.843	90.88
595.053	79.88
595.262	77.88
595.472	77.88
595.681	74.88
595.89	78.88
596.1	91.88
596.309	90.88
596.518	86.88
596.727	82.88
596.937	85.88
597.146	95.88
597.355	87.88
597.564	75.88
597.774	74.88
597.983	69.88
598.192	79.88
598.401	82.88
598.61	87.88
598.819	90.88
599.028	85.88
599.237	82.88
599.446	78.88
599.655	85.88
599.864	79.88
600.073	88.88
600.282	82.88
600.491	90.88
600.7	77.88
600.909	87.88
601.118	90.88
601.327	95.88
601.536	94.88
601.745	83.88
601.953	79.88
602.162	76.88
602.371	86.88
602.58	89.88
602.789	91.88
602.997	90.88
603.206	83.88
603.415	86.88
603.623	77.88
603.832	83.88
604.041	82.88
604.249	83.88
604.458	91.88
604.666	91.88
604.875	68.88
605.084	89.88
605.292	84.88
605.501	80.88
605.709	70.88
605.918	75.88
606.126	93.88
606.334	96.88
606.543	83.88
606.751	90.88
606.96	78.88
607.168	103.88
607.376	93.88
607.585	92.88
607.793	85.88
608.001	92.88
608.21	93.88
608.418	75.88
608.626	89.88
608.834	90.88
609.043	92.88
609.251	88.88
609.459	82.88
609.667	80.88
609.875	75.88
610.083	90.88
610.291	77.88
610.499	91.88
610.707	88.88
610.916	90.88
611.124	78.88
611.332	88.88
611.54	94.88
611.748	97.88
611.955	90.88
612.163	89.88
612.371	94.88
612.579	83.88
612.787	82.88
612.995	73.88
613.203	89.88
613.411	94.88
613.618	88.88
613.826	92.88
614.034	93.88
614.242	90.88
614.449	96.88
614.657	75.88
614.865	90.88
615.072	89.88
615.28	82.88
615.488	79.88
615.695	76.88
615.903	79.88
616.111	98.88
616.318	94.88
616.526	81.88
616.733	96.88
616.941	101.88
617.148	78.88
617.356	80.88
617.563	93.88
617.771	92.88
617.978	91.88
618.185	72.88
618.393	89.88
618.6	78.88
618.807	89.88
619.015	79.88
619.222	100.88
619.429	74.88
619.637	97.88
619.844	85.88
620.051	81.88
620.258	89.88
620.466	80.88
620.673	82.88
620.88	94.88
621.087	77.88
621.294	86.88
621.501	81.88
621.708	95.88
621.915	95.88
622.122	75.88
622.329	84.88
622.536	91.88
622.743	90.88
622.95	95.88
623.157	85.88
623.364	88.88
623.571	78.88
623.778	80.88
623.985	80.88
624.192	87.88
624.399	101.88
624.606	86.88
624.812	78.88
625.019	82.88
625.226	77.88
625.433	84.88
625.639	98.88
625.846	86.88
626.053	86.88
626.259	83.88
626.466	78.88
626.673	78.88
626.879	78.88
627.086	79.88
627.293	99.88
627.499	94.88
627.706	89.88
627.912	102.88
628.119	92.88
628.325	87.88
628.532	85.88
628.738	84.88
628.945	90.88
629.151	102.88
629.357	78.88
629.564	85.88
629.77	74.88
629.976	82.88
630.183	76.88
630.389	97.88
630.595	84.88
630.802	77.88
631.008	98.88
631.214	88.88
631.42	85.88
631.627	97.88
631.833	95.88
632.039	66.88
632.245	81.88
632.451	94.88
632.657	86.88
632.863	84.88
633.069	79.88
633.275	92.88
633.481	75.88
633.688	81.88
633.893	90.88
634.099	93.88
634.305	85.88
634.511	86.88
634.717	86.88
634.923	85.88
635.129	86.88
635.335	79.88
635.541	83.88
635.747	82.88
635.952	81.88
636.158	82.88
636.364	90.88
636.57	90.88
636.775	95.88
636.981	74.88
637.187	85.88
637.392	73.88
637.598	80.88
637.804	81.88
638.009	82.88
638.215	88.88
638.421	89.88
638.626	81.88
638.832	94.88
639.037	86.88
639.243	95.88
639.448	74.88
639.654	95.88
639.859	88.88
640.065	86.88
640.27	87.88
640.475	84.88
640.681	71.88
640.886	82.88
641.091	87.88
641.297	78.88
641.502	79.88
641.707	70.88
641.913	86.88
642.118	80.88
642.323	83.88
642.528	89.88
642.733	91.88
642.939	93.88
643.144	94.88
643.349	81.88
643.554	90.88
643.759	87.88
643.964	83.88
644.169	84.88
644.374	76.88
644.579	90.88
644.784	75.88
644.989	74.88
645.194	88.88
645.399	83.88
645.604	99.88
645.809	86.88
646.014	83.88
646.219	89.88
646.423	67.88
646.628	88.88
646.833	88.88
647.038	88.88
647.243	87.88
647.447	86.88
647.652	76.88
647.857	83.88
648.062	86.88
648.266	75.88
648.471	81.88
648.676	88.88
648.88	88.88
649.085	88.88
649.289	76.88
649.494	83.88
649.698	87.88
649.903	85.88
650.107	89.88
650.312	95.88
650.516	80.88
650.721	86.88
650.925	90.88
651.13	76.88
651.334	99.88
651.539	83.88
651.743	92.88
651.947	80.88
652.152	82.88
652.356	72.88
652.56	82.88
652.764	96.88
652.969	80.88
653.173	95.88
653.377	74.88
653.581	86.88
653.785	89.88
653.99	80.88
654.194	99.88
654.398	76.88
654.602	72.88
654.806	80.88
655.01	77.88
655.214	87.88
655.418	98.88
655.622	96.88
655.826	83.88
656.03	76.88
656.234	96.88
656.438	67.88
656.642	85.88
656.846	78.88
657.049	70.88
657.253	81.88
657.457	86.88
657.661	74.88
657.865	95.88
658.068	91.88
658.272	81.88
658.476	86.88
658.68	72.88
658.883	80.88
659.087	85.88
659.291	70.88
659.494	74.88
659.698	77.88
659.901	83.88
660.105	77.88
660.309	91.88
660.512	75.88
660.716	84.88
660.919	87.88
661.123	82.88
661.326	95.88
661.53	87.88
661.733	82.88
661.936	75.88
662.14	97.88
662.343	89.88
662.546	89.88
662.75	72.88
662.953	82.88
663.156	72.88
663.36	79.88
663.563	88.88
663.766	88.88
663.969	81.88
664.173	78.88
664.376	83.88
664.579	68.88
664.782	85.88
664.985	75.88
665.188	86.88
665.391	94.88
665.594	77.88
665.797	85.88
666	74.88
666.203	74.88
666.406	93.88
666.609	90.88
666.812	72.88
667.015	73.88
667.218	85.88
667.421	83.88
667.624	68.88
667.827	90.88
668.03	83.88
668.232	82.88
668.435	81.88
668.638	90.88
668.841	90.88
669.043	78.88
669.246	84.88
669.449	83.88
669.651	83.88
669.854	83.88
670.057	92.88
670.259	72.88
670.462	67.88
670.665	74.88
670.867	78.88
671.07	88.88
671.272	89.88
671.475	97.88
671.677	90.88
671.88	81.88
672.082	88.88
672.284	96.88
672.487	92.88
672.689	91.88
672.892	84.88
