Data from BG_HRD10591_036.txt Node
Date: Fri May 16 15:21:12 EDT 2025
User: Yrep
Spectrometer: HR+D1059
Trigger mode: 1
Integration Time (sec): 1.000000E-1
Scans to average: 1
Electric dark correction enabled: true
Nonlinearity correction enabled: false
Boxcar width: 0
XAxis mode: Wavelengths
Number of Pixels in Spectrum: 2048
>>>>>Begin Spectral Data<<<<<
223.165	-15.75
223.4	-15.75
223.635	-15.75
223.869	-23.75
224.104	-22.75
224.338	-21.75
224.573	-16.75
224.808	-10.75
225.042	-11.75
225.277	-1.75
225.511	5.25
225.746	1.25
225.98	6.25
226.215	3.25
226.449	18.25
226.683	20.25
226.918	29.25
227.152	41.25
227.387	31.25
227.621	42.25
227.856	48.25
228.09	34.25
228.324	46.25
228.559	53.25
228.793	50.25
229.027	62.25
229.262	71.25
229.496	44.25
229.73	76.25
229.964	65.25
230.199	81.25
230.433	74.25
230.667	70.25
230.901	78.25
231.136	69.25
231.37	70.25
231.604	60.25
231.838	72.25
232.072	78.25
232.306	81.25
232.541	80.25
232.775	88.25
233.009	61.25
233.243	65.25
233.477	81.25
233.711	86.25
233.945	83.25
234.179	67.25
234.413	64.25
234.647	75.25
234.881	94.25
235.115	74.25
235.349	85.25
235.583	72.25
235.817	81.25
236.051	92.25
236.285	63.25
236.519	82.25
236.753	69.25
236.987	92.25
237.221	83.25
237.455	79.25
237.689	83.25
237.922	76.25
238.156	64.25
238.39	77.25
238.624	89.25
238.858	77.25
239.091	77.25
239.325	88.25
239.559	83.25
239.793	68.25
240.027	79.25
240.26	84.25
240.494	74.25
240.728	61.25
240.961	61.25
241.195	87.25
241.429	74.25
241.662	75.25
241.896	71.25
242.13	82.25
242.363	76.25
242.597	73.25
242.83	77.25
243.064	76.25
243.298	68.25
243.531	83.25
243.765	72.25
243.998	72.25
244.232	82.25
244.465	85.25
244.699	70.25
244.932	85.25
245.166	70.25
245.399	74.25
245.633	89.25
245.866	90.25
246.099	72.25
246.333	77.25
246.566	80.25
246.8	81.25
247.033	77.25
247.266	68.25
247.5	66.25
247.733	77.25
247.966	69.25
248.2	83.25
248.433	86.25
248.666	75.25
248.899	75.25
249.133	75.25
249.366	80.25
249.599	90.25
249.832	72.25
250.066	77.25
250.299	87.25
250.532	80.25
250.765	77.25
250.998	69.25
251.231	71.25
251.465	69.25
251.698	80.25
251.931	82.25
252.164	84.25
252.397	86.25
252.63	85.25
252.863	77.25
253.096	80.25
253.329	67.25
253.562	83.25
253.795	68.25
254.028	86.25
254.261	73.25
254.494	76.25
254.727	84.25
254.96	83.25
255.193	79.25
255.426	73.25
255.659	78.25
255.892	68.25
256.124	83.25
256.357	77.25
256.59	69.25
256.823	68.25
257.056	80.25
257.289	83.25
257.521	69.25
257.754	87.25
257.987	83.25
258.22	67.25
258.452	72.25
258.685	76.25
258.918	89.25
259.151	83.25
259.383	98.25
259.616	68.25
259.849	81.25
260.081	79.25
260.314	72.25
260.547	70.25
260.779	72.25
261.012	82.25
261.244	83.25
261.477	100.25
261.71	84.25
261.942	90.25
262.175	80.25
262.407	82.25
262.64	87.25
262.872	63.25
263.105	67.25
263.337	80.25
263.57	77.25
263.802	87.25
264.035	81.25
264.267	84.25
264.499	81.25
264.732	78.25
264.964	72.25
265.197	75.25
265.429	83.25
265.661	84.25
265.894	85.25
266.126	87.25
266.358	87.25
266.591	65.25
266.823	85.25
267.055	88.25
267.287	92.25
267.52	72.25
267.752	84.25
267.984	73.25
268.216	82.25
268.448	86.25
268.681	78.25
268.913	74.25
269.145	74.25
269.377	80.25
269.609	77.25
269.841	84.25
270.073	69.25
270.306	74.25
270.538	80.25
270.77	86.25
271.002	90.25
271.234	95.25
271.466	90.25
271.698	79.25
271.93	75.25
272.162	79.25
272.394	88.25
272.626	83.25
272.858	84.25
273.09	74.25
273.322	79.25
273.553	86.25
273.785	77.25
274.017	74.25
274.249	72.25
274.481	75.25
274.713	85.25
274.945	91.25
275.176	86.25
275.408	97.25
275.64	100.25
275.872	84.25
276.104	86.25
276.335	69.25
276.567	75.25
276.799	74.25
277.031	86.25
277.262	79.25
277.494	89.25
277.726	80.25
277.957	74.25
278.189	88.25
278.421	75.25
278.652	79.25
278.884	86.25
279.115	73.25
279.347	74.25
279.579	76.25
279.81	88.25
280.042	88.25
280.273	71.25
280.505	70.25
280.736	78.25
280.968	73.25
281.199	70.25
281.431	86.25
281.662	90.25
281.894	79.25
282.125	81.25
282.356	76.25
282.588	86.25
282.819	81.25
283.051	78.25
283.282	86.25
283.513	85.25
283.745	88.25
283.976	75.25
284.207	69.25
284.439	68.25
284.67	87.25
284.901	95.25
285.132	83.25
285.364	90.25
285.595	90.25
285.826	76.25
286.057	75.25
286.288	90.25
286.52	91.25
286.751	93.25
286.982	83.25
287.213	96.25
287.444	82.25
287.675	78.25
287.906	92.25
288.138	80.25
288.369	89.25
288.6	95.25
288.831	84.25
289.062	95.25
289.293	68.25
289.524	80.25
289.755	88.25
289.986	81.25
290.217	81.25
290.448	79.25
290.679	91.25
290.91	91.25
291.141	82.25
291.371	90.25
291.602	74.25
291.833	81.25
292.064	78.25
292.295	85.25
292.526	80.25
292.757	72.25
292.987	87.25
293.218	79.25
293.449	92.25
293.68	88.25
293.91	76.25
294.141	92.25
294.372	85.25
294.603	82.25
294.833	78.25
295.064	80.25
295.295	95.25
295.525	82.25
295.756	79.25
295.987	86.25
296.217	92.25
296.448	68.25
296.679	77.25
296.909	84.25
297.14	95.25
297.37	88.25
297.601	87.25
297.831	74.25
298.062	78.25
298.292	101.25
298.523	90.25
298.753	74.25
298.984	82.25
299.214	88.25
299.445	83.25
299.675	85.25
299.905	85.25
300.136	81.25
300.366	86.25
300.597	78.25
300.827	88.25
301.057	75.25
301.288	86.25
301.518	84.25
301.748	75.25
301.979	99.25
302.209	82.25
302.439	78.25
302.669	92.25
302.9	78.25
303.13	82.25
303.36	76.25
303.59	76.25
303.82	82.25
304.051	92.25
304.281	87.25
304.511	84.25
304.741	82.25
304.971	91.25
305.201	82.25
305.431	77.25
305.661	78.25
305.891	87.25
306.121	83.25
306.352	78.25
306.582	83.25
306.812	88.25
307.042	90.25
307.272	87.25
307.502	91.25
307.731	82.25
307.961	73.25
308.191	86.25
308.421	91.25
308.651	87.25
308.881	74.25
309.111	77.25
309.341	86.25
309.571	77.25
309.8	70.25
310.03	79.25
310.26	80.25
310.49	80.25
310.72	103.25
310.949	85.25
311.179	83.25
311.409	78.25
311.639	88.25
311.868	88.25
312.098	76.25
312.328	76.25
312.557	82.25
312.787	89.25
313.017	87.25
313.246	77.25
313.476	84.25
313.706	86.25
313.935	75.25
314.165	82.25
314.394	78.25
314.624	73.25
314.853	82.25
315.083	83.25
315.312	75.25
315.542	83.25
315.771	92.25
316.001	83.25
316.23	80.25
316.46	73.25
316.689	75.25
316.919	85.25
317.148	96.25
317.377	86.25
317.607	87.25
317.836	86.25
318.065	77.25
318.295	87.25
318.524	96.25
318.753	86.25
318.983	78.25
319.212	75.25
319.441	93.25
319.67	91.25
319.9	83.25
320.129	76.25
320.358	74.25
320.587	75.25
320.816	79.25
321.046	77.25
321.275	91.25
321.504	72.25
321.733	82.25
321.962	94.25
322.191	74.25
322.42	84.25
322.649	104.25
322.878	93.25
323.108	78.25
323.337	87.25
323.566	82.25
323.795	89.25
324.024	80.25
324.253	85.25
324.482	73.25
324.71	72.25
324.939	82.25
325.168	78.25
325.397	79.25
325.626	86.25
325.855	68.25
326.084	73.25
326.313	84.25
326.542	100.25
326.77	95.25
326.999	88.25
327.228	82.25
327.457	80.25
327.686	82.25
327.914	78.25
328.143	79.25
328.372	84.25
328.6	75.25
328.829	74.25
329.058	76.25
329.287	79.25
329.515	80.25
329.744	79.25
329.972	87.25
330.201	78.25
330.43	90.25
330.658	70.25
330.887	88.25
331.115	80.25
331.344	79.25
331.572	82.25
331.801	86.25
332.03	81.25
332.258	83.25
332.486	72.25
332.715	82.25
332.943	75.25
333.172	83.25
333.4	79.25
333.629	99.25
333.857	73.25
334.085	82.25
334.314	76.25
334.542	80.25
334.771	74.25
334.999	84.25
335.227	73.25
335.455	74.25
335.684	84.25
335.912	82.25
336.14	67.25
336.369	76.25
336.597	87.25
336.825	86.25
337.053	74.25
337.281	81.25
337.51	99.25
337.738	84.25
337.966	75.25
338.194	58.25
338.422	75.25
338.65	84.25
338.878	75.25
339.106	80.25
339.334	82.25
339.562	70.25
339.79	87.25
340.018	77.25
340.246	72.25
340.474	80.25
340.702	91.25
340.93	81.25
341.158	74.25
341.386	82.25
341.614	102.25
341.842	71.25
342.07	98.25
342.298	71.25
342.526	98.25
342.754	77.25
342.981	80.25
343.209	82.25
343.437	98.25
343.665	77.25
343.893	82.25
344.12	71.25
344.348	78.25
344.576	87.25
344.804	82.25
345.031	58.25
345.259	86.25
345.487	84.25
345.714	85.25
345.942	77.25
346.17	80.25
346.397	83.25
346.625	76.25
346.853	76.25
347.08	84.25
347.308	99.25
347.535	79.25
347.763	81.25
347.99	91.25
348.218	69.25
348.445	74.25
348.673	88.25
348.9	77.25
349.128	83.25
349.355	77.25
349.583	84.25
349.81	96.25
350.037	71.25
350.265	69.25
350.492	72.25
350.72	79.25
350.947	83.25
351.174	70.25
351.402	87.25
351.629	85.25
351.856	87.25
352.083	91.25
352.311	77.25
352.538	75.25
352.765	79.25
352.992	85.25
353.22	87.25
353.447	81.25
353.674	78.25
353.901	86.25
354.128	79.25
354.355	73.25
354.583	81.25
354.81	79.25
355.037	88.25
355.264	85.25
355.491	76.25
355.718	75.25
355.945	71.25
356.172	83.25
356.399	88.25
356.626	80.25
356.853	79.25
357.08	68.25
357.307	73.25
357.534	68.25
357.761	90.25
357.988	102.25
358.215	86.25
358.441	63.25
358.668	73.25
358.895	72.25
359.122	83.25
359.349	77.25
359.576	93.25
359.802	72.25
360.029	64.25
360.256	78.25
360.483	75.25
360.709	74.25
360.936	81.25
361.163	93.25
361.39	87.25
361.616	88.25
361.843	77.25
362.07	94.25
362.296	83.25
362.523	94.25
362.749	78.25
362.976	79.25
363.203	86.25
363.429	82.25
363.656	79.25
363.882	78.25
364.109	79.25
364.335	85.25
364.562	91.25
364.788	79.25
365.015	76.25
365.241	76.25
365.468	81.25
365.694	82.25
365.92	74.25
366.147	83.25
366.373	82.25
366.599	79.25
366.826	79.25
367.052	84.25
367.278	88.25
367.505	88.25
367.731	94.25
367.957	93.25
368.184	76.25
368.41	82.25
368.636	71.25
368.862	86.25
369.089	85.25
369.315	87.25
369.541	80.25
369.767	80.25
369.993	95.25
370.219	92.25
370.445	79.25
370.672	78.25
370.898	67.25
371.124	74.25
371.35	78.25
371.576	94.25
371.802	80.25
372.028	84.25
372.254	77.25
372.48	88.25
372.706	95.25
372.932	92.25
373.158	95.25
373.384	86.25
373.61	81.25
373.835	73.25
374.061	73.25
374.287	76.25
374.513	82.25
374.739	70.25
374.965	76.25
375.191	86.25
375.416	83.25
375.642	82.25
375.868	74.25
376.094	72.25
376.319	86.25
376.545	68.25
376.771	72.25
376.997	85.25
377.222	74.25
377.448	82.25
377.674	94.25
377.899	65.25
378.125	82.25
378.35	86.25
378.576	77.25
378.802	76.25
379.027	85.25
379.253	64.25
379.478	78.25
379.704	78.25
379.929	85.25
380.155	76.25
380.38	86.25
380.606	80.25
380.831	70.25
381.057	90.25
381.282	82.25
381.507	76.25
381.733	77.25
381.958	82.25
382.184	75.25
382.409	77.25
382.634	74.25
382.86	90.25
383.085	80.25
383.31	73.25
383.535	77.25
383.761	87.25
383.986	85.25
384.211	76.25
384.436	76.25
384.662	61.25
384.887	89.25
385.112	78.25
385.337	70.25
385.562	79.25
385.787	86.25
386.013	72.25
386.238	91.25
386.463	82.25
386.688	88.25
386.913	76.25
387.138	88.25
387.363	79.25
387.588	82.25
387.813	73.25
388.038	75.25
388.263	79.25
388.488	86.25
388.713	88.25
388.938	73.25
389.163	87.25
389.387	78.25
389.612	81.25
389.837	86.25
390.062	82.25
390.287	65.25
390.512	78.25
390.736	64.25
390.961	79.25
391.186	88.25
391.411	82.25
391.636	78.25
391.86	87.25
392.085	88.25
392.31	86.25
392.534	85.25
392.759	76.25
392.984	75.25
393.208	82.25
393.433	80.25
393.658	70.25
393.882	83.25
394.107	81.25
394.331	82.25
394.556	71.25
394.78	79.25
395.005	79.25
395.229	79.25
395.454	72.25
395.678	85.25
395.903	94.25
396.127	86.25
396.352	70.25
396.576	80.25
396.801	84.25
397.025	82.25
397.249	80.25
397.474	72.25
397.698	73.25
397.922	92.25
398.147	78.25
398.371	82.25
398.595	69.25
398.82	72.25
399.044	75.25
399.268	80.25
399.492	87.25
399.717	78.25
399.941	78.25
400.165	80.25
400.389	78.25
400.613	82.25
400.837	86.25
401.062	96.25
401.286	83.25
401.51	94.25
401.734	83.25
401.958	66.25
402.182	82.25
402.406	77.25
402.63	77.25
402.854	80.25
403.078	71.25
403.302	86.25
403.526	67.25
403.75	88.25
403.974	78.25
404.198	91.25
404.422	68.25
404.645	75.25
404.869	84.25
405.093	99.25
405.317	80.25
405.541	84.25
405.765	79.25
405.988	68.25
406.212	73.25
406.436	76.25
406.66	90.25
406.883	80.25
407.107	79.25
407.331	84.25
407.555	69.25
407.778	72.25
408.002	76.25
408.226	76.25
408.449	85.25
408.673	77.25
408.896	80.25
409.12	74.25
409.344	72.25
409.567	67.25
409.791	92.25
410.014	85.25
410.238	71.25
410.461	77.25
410.685	73.25
410.908	74.25
411.132	79.25
411.355	84.25
411.578	78.25
411.802	90.25
412.025	75.25
412.249	78.25
412.472	74.25
412.695	76.25
412.919	69.25
413.142	71.25
413.365	81.25
413.589	83.25
413.812	77.25
414.035	83.25
414.258	91.25
414.482	85.25
414.705	72.25
414.928	75.25
415.151	61.25
415.374	80.25
415.597	79.25
415.821	85.25
416.044	80.25
416.267	82.25
416.49	73.25
416.713	84.25
416.936	85.25
417.159	78.25
417.382	86.25
417.605	70.25
417.828	99.25
418.051	85.25
418.274	79.25
418.497	78.25
418.72	81.25
418.943	79.25
419.166	85.25
419.389	82.25
419.611	91.25
419.834	100.25
420.057	85.25
420.28	82.25
420.503	75.25
420.726	72.25
420.948	84.25
421.171	75.25
421.394	77.25
421.617	75.25
421.839	87.25
422.062	92.25
422.285	82.25
422.507	82.25
422.73	62.25
422.953	69.25
423.175	73.25
423.398	72.25
423.621	82.25
423.843	80.25
424.066	71.25
424.288	78.25
424.511	79.25
424.733	102.25
424.956	82.25
425.178	80.25
425.401	89.25
425.623	76.25
425.846	80.25
426.068	73.25
426.291	75.25
426.513	68.25
426.735	82.25
426.958	69.25
427.18	86.25
427.402	87.25
427.625	85.25
427.847	72.25
428.069	78.25
428.292	87.25
428.514	84.25
428.736	73.25
428.958	85.25
429.181	85.25
429.403	77.25
429.625	77.25
429.847	88.25
430.069	87.25
430.292	79.25
430.514	64.25
430.736	58.25
430.958	90.25
431.18	79.25
431.402	84.25
431.624	94.25
431.846	70.25
432.068	89.25
432.29	72.25
432.512	79.25
432.734	69.25
432.956	72.25
433.178	79.25
433.4	79.25
433.622	85.25
433.844	92.25
434.066	87.25
434.287	79.25
434.509	69.25
434.731	75.25
434.953	76.25
435.175	60.25
435.397	85.25
435.618	83.25
435.84	84.25
436.062	58.25
436.284	93.25
436.505	82.25
436.727	92.25
436.949	75.25
437.17	78.25
437.392	80.25
437.614	90.25
437.835	70.25
438.057	71.25
438.278	77.25
438.5	78.25
438.721	77.25
438.943	84.25
439.165	69.25
439.386	81.25
439.608	68.25
439.829	77.25
440.05	102.25
440.272	82.25
440.493	84.25
440.715	85.25
440.936	87.25
441.158	92.25
441.379	86.25
441.6	83.25
441.822	89.25
442.043	71.25
442.264	78.25
442.486	79.25
442.707	69.25
442.928	75.25
443.149	70.25
443.371	80.25
443.592	78.25
443.813	81.25
444.034	88.25
444.255	75.25
444.476	94.25
444.698	84.25
444.919	82.25
445.14	162.25
445.361	107.25
445.582	65.25
445.803	59.25
446.024	84.25
446.245	80.25
446.466	90.25
446.687	80.25
446.908	77.25
447.129	62.25
447.35	78.25
447.571	89.25
447.792	73.25
448.013	76.25
448.234	63.25
448.455	82.25
448.675	89.25
448.896	88.25
449.117	75.25
449.338	60.25
449.559	80.25
449.779	87.25
450	72.25
450.221	81.25
450.442	80.25
450.662	82.25
450.883	80.25
451.104	80.25
451.324	66.25
451.545	78.25
451.766	71.25
451.986	68.25
452.207	67.25
452.428	80.25
452.648	84.25
452.869	72.25
453.089	86.25
453.31	67.25
453.53	78.25
453.751	84.25
453.971	82.25
454.192	90.25
454.412	62.25
454.633	64.25
454.853	86.25
455.073	84.25
455.294	85.25
455.514	83.25
455.734	74.25
455.955	76.25
456.175	100.25
456.395	92.25
456.616	88.25
456.836	86.25
457.056	78.25
457.276	77.25
457.497	88.25
457.717	87.25
457.937	71.25
458.157	78.25
458.377	78.25
458.598	82.25
458.818	75.25
459.038	79.25
459.258	80.25
459.478	71.25
459.698	74.25
459.918	87.25
460.138	77.25
460.358	76.25
460.578	64.25
460.798	77.25
461.018	72.25
461.238	67.25
461.458	92.25
461.678	80.25
461.898	70.25
462.118	65.25
462.338	85.25
462.558	73.25
462.777	78.25
462.997	79.25
463.217	92.25
463.437	90.25
463.657	61.25
463.876	83.25
464.096	68.25
464.316	80.25
464.536	91.25
464.755	76.25
464.975	71.25
465.195	74.25
465.414	89.25
465.634	69.25
465.854	83.25
466.073	72.25
466.293	79.25
466.512	76.25
466.732	77.25
466.951	68.25
467.171	73.25
467.391	80.25
467.61	78.25
467.829	79.25
468.049	53.25
468.268	75.25
468.488	76.25
468.707	72.25
468.927	82.25
469.146	66.25
469.365	77.25
469.585	79.25
469.804	81.25
470.023	83.25
470.243	75.25
470.462	93.25
470.681	84.25
470.901	84.25
471.12	78.25
471.339	68.25
471.558	80.25
471.777	71.25
471.997	82.25
472.216	76.25
472.435	85.25
472.654	82.25
472.873	87.25
473.092	77.25
473.311	83.25
473.53	79.25
473.749	67.25
473.968	88.25
474.187	69.25
474.406	68.25
474.625	107.25
474.844	79.25
475.063	83.25
475.282	75.25
475.501	73.25
475.72	71.25
475.939	86.25
476.158	86.25
476.377	75.25
476.596	84.25
476.814	83.25
477.033	82.25
477.252	76.25
477.471	79.25
477.69	67.25
477.908	72.25
478.127	68.25
478.346	92.25
478.564	74.25
478.783	83.25
479.002	82.25
479.22	93.25
479.439	78.25
479.658	78.25
479.876	85.25
480.095	70.25
480.313	70.25
480.532	80.25
480.751	99.25
480.969	75.25
481.188	85.25
481.406	73.25
481.624	73.25
481.843	88.25
482.061	78.25
482.28	83.25
482.498	94.25
482.717	68.25
482.935	77.25
483.153	69.25
483.372	85.25
483.59	97.25
483.808	87.25
484.027	78.25
484.245	74.25
484.463	73.25
484.681	85.25
484.9	78.25
485.118	72.25
485.336	70.25
485.554	82.25
485.772	87.25
485.99	74.25
486.209	68.25
486.427	80.25
486.645	74.25
486.863	83.25
487.081	68.25
487.299	83.25
487.517	70.25
487.735	78.25
487.953	91.25
488.171	90.25
488.389	80.25
488.607	83.25
488.825	86.25
489.043	80.25
489.261	79.25
489.479	77.25
489.696	83.25
489.914	84.25
490.132	80.25
490.35	86.25
490.568	82.25
490.786	68.25
491.003	86.25
491.221	76.25
491.439	86.25
491.657	76.25
491.874	75.25
492.092	86.25
492.31	90.25
492.527	71.25
492.745	85.25
492.963	64.25
493.18	78.25
493.398	85.25
493.615	75.25
493.833	75.25
494.05	74.25
494.268	98.25
494.485	82.25
494.703	86.25
494.92	80.25
495.138	73.25
495.355	67.25
495.573	82.25
495.79	90.25
496.008	88.25
496.225	91.25
496.442	65.25
496.66	90.25
496.877	90.25
497.094	84.25
497.312	78.25
497.529	91.25
497.746	83.25
497.963	71.25
498.181	70.25
498.398	86.25
498.615	87.25
498.832	76.25
499.049	76.25
499.267	98.25
499.484	82.25
499.701	82.25
499.918	86.25
500.135	91.25
500.352	94.25
500.569	74.25
500.786	83.25
501.003	78.25
501.22	85.25
501.437	77.25
501.654	79.25
501.871	87.25
502.088	80.25
502.305	89.25
502.522	86.25
502.739	83.25
502.956	88.25
503.172	87.25
503.389	74.25
503.606	86.25
503.823	86.25
504.04	88.25
504.256	71.25
504.473	89.25
504.69	90.25
504.907	92.25
505.123	90.25
505.34	89.25
505.557	88.25
505.773	86.25
505.99	78.25
506.207	62.25
506.423	61.25
506.64	87.25
506.856	83.25
507.073	86.25
507.289	79.25
507.506	86.25
507.722	84.25
507.939	72.25
508.155	76.25
508.372	86.25
508.588	95.25
508.805	84.25
509.021	76.25
509.238	84.25
509.454	65.25
509.67	84.25
509.887	78.25
510.103	85.25
510.319	80.25
510.536	76.25
510.752	91.25
510.968	70.25
511.184	82.25
511.401	81.25
511.617	88.25
511.833	78.25
512.049	77.25
512.265	78.25
512.481	69.25
512.698	76.25
512.914	85.25
513.13	89.25
513.346	83.25
513.562	83.25
513.778	80.25
513.994	85.25
514.21	94.25
514.426	76.25
514.642	84.25
514.858	77.25
515.074	68.25
515.29	89.25
515.506	86.25
515.721	68.25
515.937	79.25
516.153	79.25
516.369	75.25
516.585	73.25
516.801	74.25
517.016	75.25
517.232	80.25
517.448	76.25
517.664	80.25
517.879	81.25
518.095	75.25
518.311	77.25
518.527	87.25
518.742	90.25
518.958	77.25
519.173	85.25
519.389	76.25
519.605	79.25
519.82	73.25
520.036	84.25
520.251	75.25
520.467	90.25
520.682	81.25
520.898	82.25
521.113	85.25
521.329	75.25
521.544	74.25
521.76	80.25
521.975	86.25
522.19	74.25
522.406	82.25
522.621	84.25
522.836	75.25
523.052	92.25
523.267	94.25
523.482	78.25
523.698	77.25
523.913	76.25
524.128	79.25
524.343	71.25
524.559	79.25
524.774	77.25
524.989	82.25
525.204	86.25
525.419	80.25
525.634	78.25
525.849	94.25
526.064	79.25
526.28	98.25
526.495	72.25
526.71	84.25
526.925	87.25
527.14	89.25
527.355	74.25
527.57	73.25
527.785	83.25
527.999	94.25
528.214	87.25
528.429	86.25
528.644	86.25
528.859	79.25
529.074	88.25
529.289	85.25
529.503	65.25
529.718	82.25
529.933	81.25
530.148	83.25
530.363	86.25
530.577	75.25
530.792	74.25
531.007	84.25
531.221	80.25
531.436	87.25
531.651	76.25
531.865	82.25
532.08	88.25
532.295	89.25
532.509	82.25
532.724	86.25
532.938	74.25
533.153	86.25
533.367	79.25
533.582	82.25
533.796	90.25
534.011	99.25
534.225	78.25
534.44	79.25
534.654	87.25
534.868	87.25
535.083	80.25
535.297	85.25
535.511	92.25
535.726	92.25
535.94	90.25
536.154	93.25
536.369	82.25
536.583	84.25
536.797	84.25
537.011	74.25
537.225	77.25
537.44	86.25
537.654	69.25
537.868	77.25
538.082	79.25
538.296	79.25
538.51	78.25
538.724	77.25
538.938	80.25
539.153	74.25
539.367	83.25
539.581	83.25
539.795	75.25
540.009	100.25
540.222	92.25
540.436	72.25
540.65	82.25
540.864	88.25
541.078	81.25
541.292	91.25
541.506	70.25
541.72	94.25
541.934	94.25
542.147	80.25
542.361	83.25
542.575	64.25
542.789	81.25
543.002	88.25
543.216	81.25
543.43	85.25
543.644	70.25
543.857	89.25
544.071	76.25
544.285	81.25
544.498	86.25
544.712	75.25
544.925	80.25
545.139	71.25
545.352	87.25
545.566	75.25
545.779	86.25
545.993	82.25
546.206	71.25
546.42	95.25
546.633	71.25
546.847	87.25
547.06	86.25
547.274	73.25
547.487	76.25
547.7	89.25
547.914	92.25
548.127	93.25
548.34	79.25
548.554	87.25
548.767	82.25
548.98	87.25
549.193	92.25
549.407	87.25
549.62	95.25
549.833	86.25
550.046	83.25
550.259	91.25
550.473	79.25
550.686	89.25
550.899	72.25
551.112	81.25
551.325	82.25
551.538	76.25
551.751	84.25
551.964	81.25
552.177	82.25
552.39	88.25
552.603	82.25
552.816	78.25
553.029	84.25
553.242	85.25
553.455	85.25
553.667	95.25
553.88	79.25
554.093	72.25
554.306	82.25
554.519	82.25
554.732	82.25
554.944	82.25
555.157	95.25
555.37	68.25
555.583	83.25
555.795	67.25
556.008	73.25
556.221	99.25
556.433	61.25
556.646	73.25
556.859	89.25
557.071	91.25
557.284	84.25
557.496	90.25
557.709	84.25
557.921	82.25
558.134	83.25
558.346	95.25
558.559	87.25
558.771	84.25
558.984	78.25
559.196	88.25
559.409	82.25
559.621	86.25
559.833	79.25
560.046	70.25
560.258	80.25
560.47	82.25
560.683	79.25
560.895	89.25
561.107	75.25
561.32	89.25
561.532	80.25
561.744	89.25
561.956	85.25
562.168	82.25
562.381	74.25
562.593	80.25
562.805	71.25
563.017	74.25
563.229	92.25
563.441	87.25
563.653	87.25
563.865	80.25
564.077	66.25
564.289	65.25
564.501	77.25
564.713	83.25
564.925	81.25
565.137	84.25
565.349	84.25
565.561	74.25
565.773	73.25
565.985	67.25
566.197	71.25
566.408	75.25
566.62	86.25
566.832	85.25
567.044	79.25
567.255	77.25
567.467	80.25
567.679	92.25
567.891	77.25
568.102	82.25
568.314	80.25
568.526	93.25
568.737	76.25
568.949	78.25
569.161	76.25
569.372	76.25
569.584	88.25
569.795	96.25
570.007	82.25
570.218	86.25
570.43	94.25
570.641	82.25
570.853	95.25
571.064	78.25
571.276	82.25
571.487	88.25
571.698	83.25
571.91	64.25
572.121	68.25
572.333	80.25
572.544	82.25
572.755	94.25
572.966	87.25
573.178	85.25
573.389	78.25
573.6	77.25
573.811	85.25
574.023	83.25
574.234	75.25
574.445	94.25
574.656	87.25
574.867	91.25
575.078	88.25
575.289	89.25
575.501	76.25
575.712	83.25
575.923	81.25
576.134	93.25
576.345	86.25
576.556	86.25
576.767	86.25
576.978	90.25
577.188	65.25
577.399	90.25
577.61	78.25
577.821	76.25
578.032	78.25
578.243	86.25
578.454	80.25
578.665	68.25
578.875	76.25
579.086	76.25
579.297	87.25
579.508	74.25
579.718	90.25
579.929	100.25
580.14	84.25
580.35	82.25
580.561	80.25
580.772	82.25
580.982	66.25
581.193	91.25
581.403	95.25
581.614	76.25
581.825	84.25
582.035	78.25
582.246	86.25
582.456	72.25
582.667	72.25
582.877	75.25
583.087	82.25
583.298	78.25
583.508	93.25
583.719	82.25
583.929	75.25
584.139	75.25
584.35	88.25
584.56	74.25
584.77	87.25
584.981	92.25
585.191	87.25
585.401	80.25
585.611	73.25
585.821	81.25
586.032	78.25
586.242	70.25
586.452	74.25
586.662	69.25
586.872	73.25
587.082	80.25
587.292	82.25
587.502	90.25
587.713	85.25
587.923	84.25
588.133	70.25
588.343	81.25
588.553	87.25
588.762	91.25
588.972	93.25
589.182	87.25
589.392	88.25
589.602	67.25
589.812	84.25
590.022	87.25
590.232	70.25
590.441	80.25
590.651	79.25
590.861	71.25
591.071	88.25
591.281	83.25
591.49	96.25
591.7	86.25
591.91	96.25
592.119	77.25
592.329	85.25
592.539	74.25
592.748	83.25
592.958	80.25
593.167	81.25
593.377	87.25
593.587	87.25
593.796	93.25
594.006	88.25
594.215	83.25
594.424	84.25
594.634	78.25
594.843	72.25
595.053	74.25
595.262	75.25
595.472	67.25
595.681	76.25
595.89	82.25
596.1	82.25
596.309	95.25
596.518	85.25
596.727	82.25
596.937	90.25
597.146	85.25
597.355	74.25
597.564	83.25
597.774	70.25
597.983	82.25
598.192	82.25
598.401	79.25
598.61	87.25
598.819	75.25
599.028	75.25
599.237	88.25
599.446	77.25
599.655	74.25
599.864	80.25
600.073	83.25
600.282	80.25
600.491	89.25
600.7	99.25
600.909	79.25
601.118	84.25
601.327	78.25
601.536	80.25
601.745	81.25
601.953	75.25
602.162	71.25
602.371	72.25
602.58	83.25
602.789	83.25
602.997	78.25
603.206	84.25
603.415	77.25
603.623	62.25
603.832	80.25
604.041	83.25
604.249	92.25
604.458	88.25
604.666	87.25
604.875	83.25
605.084	96.25
605.292	90.25
605.501	91.25
605.709	70.25
605.918	79.25
606.126	86.25
606.334	88.25
606.543	75.25
606.751	92.25
606.96	82.25
607.168	84.25
607.376	83.25
607.585	73.25
607.793	78.25
608.001	82.25
608.21	89.25
608.418	84.25
608.626	82.25
608.834	87.25
609.043	93.25
609.251	77.25
609.459	79.25
609.667	82.25
609.875	68.25
610.083	63.25
610.291	85.25
610.499	85.25
610.707	82.25
610.916	78.25
611.124	90.25
611.332	99.25
611.54	70.25
611.748	82.25
611.955	96.25
612.163	72.25
612.371	72.25
612.579	79.25
612.787	87.25
612.995	60.25
613.203	94.25
613.411	96.25
613.618	75.25
613.826	82.25
614.034	95.25
614.242	89.25
614.449	80.25
614.657	82.25
614.865	82.25
615.072	85.25
615.28	89.25
615.488	88.25
615.695	86.25
615.903	83.25
616.111	87.25
616.318	92.25
616.526	76.25
616.733	84.25
616.941	80.25
617.148	71.25
617.356	85.25
617.563	75.25
617.771	80.25
617.978	78.25
618.185	91.25
618.393	94.25
618.6	83.25
618.807	79.25
619.015	84.25
619.222	72.25
619.429	75.25
619.637	82.25
619.844	73.25
620.051	78.25
620.258	70.25
620.466	83.25
620.673	87.25
620.88	74.25
621.087	62.25
621.294	82.25
621.501	79.25
621.708	95.25
621.915	79.25
622.122	78.25
622.329	81.25
622.536	75.25
622.743	74.25
622.95	78.25
623.157	75.25
623.364	87.25
623.571	87.25
623.778	87.25
623.985	78.25
624.192	63.25
624.399	83.25
624.606	93.25
624.812	76.25
625.019	76.25
625.226	89.25
625.433	82.25
625.639	89.25
625.846	84.25
626.053	77.25
626.259	93.25
626.466	70.25
626.673	88.25
626.879	94.25
627.086	84.25
627.293	89.25
627.499	78.25
627.706	103.25
627.912	86.25
628.119	88.25
628.325	79.25
628.532	79.25
628.738	76.25
628.945	82.25
629.151	84.25
629.357	87.25
629.564	78.25
629.77	88.25
629.976	75.25
630.183	84.25
630.389	84.25
630.595	81.25
630.802	73.25
631.008	74.25
631.214	78.25
631.42	78.25
631.627	79.25
631.833	89.25
632.039	78.25
632.245	77.25
632.451	83.25
632.657	80.25
632.863	93.25
633.069	85.25
633.275	85.25
633.481	74.25
633.688	67.25
633.893	76.25
634.099	83.25
634.305	85.25
634.511	96.25
634.717	87.25
634.923	87.25
635.129	80.25
635.335	71.25
635.541	75.25
635.747	85.25
635.952	70.25
636.158	95.25
636.364	91.25
636.57	85.25
636.775	86.25
636.981	67.25
637.187	72.25
637.392	80.25
637.598	80.25
637.804	83.25
638.009	79.25
638.215	92.25
638.421	84.25
638.626	80.25
638.832	78.25
639.037	79.25
639.243	73.25
639.448	100.25
639.654	78.25
639.859	79.25
640.065	89.25
640.27	83.25
640.475	78.25
640.681	78.25
640.886	105.25
641.091	77.25
641.297	88.25
641.502	89.25
641.707	85.25
641.913	81.25
642.118	87.25
642.323	79.25
642.528	72.25
642.733	86.25
642.939	92.25
643.144	81.25
643.349	81.25
643.554	86.25
643.759	83.25
643.964	91.25
644.169	80.25
644.374	82.25
644.579	84.25
644.784	75.25
644.989	83.25
645.194	79.25
645.399	76.25
645.604	84.25
645.809	93.25
646.014	84.25
646.219	88.25
646.423	84.25
646.628	83.25
646.833	87.25
647.038	89.25
647.243	98.25
647.447	74.25
647.652	83.25
647.857	69.25
648.062	77.25
648.266	75.25
648.471	76.25
648.676	94.25
648.88	77.25
649.085	80.25
649.289	79.25
649.494	78.25
649.698	73.25
649.903	82.25
650.107	87.25
650.312	87.25
650.516	79.25
650.721	79.25
650.925	71.25
651.13	88.25
651.334	80.25
651.539	77.25
651.743	82.25
651.947	91.25
652.152	82.25
652.356	83.25
652.56	87.25
652.764	78.25
652.969	71.25
653.173	83.25
653.377	76.25
653.581	82.25
653.785	96.25
653.99	89.25
654.194	78.25
654.398	70.25
654.602	72.25
654.806	80.25
655.01	85.25
655.214	86.25
655.418	85.25
655.622	84.25
655.826	76.25
656.03	77.25
656.234	82.25
656.438	76.25
656.642	95.25
656.846	68.25
657.049	72.25
657.253	78.25
657.457	68.25
657.661	88.25
657.865	75.25
658.068	76.25
658.272	84.25
658.476	88.25
658.68	90.25
658.883	77.25
659.087	76.25
659.291	81.25
659.494	81.25
659.698	80.25
659.901	93.25
660.105	75.25
660.309	92.25
660.512	81.25
660.716	79.25
660.919	94.25
661.123	83.25
661.326	89.25
661.53	79.25
661.733	92.25
661.936	85.25
662.14	72.25
662.343	71.25
662.546	77.25
662.75	81.25
662.953	78.25
663.156	72.25
663.36	98.25
663.563	93.25
663.766	58.25
663.969	79.25
664.173	76.25
664.376	82.25
664.579	88.25
664.782	87.25
664.985	102.25
665.188	77.25
665.391	80.25
665.594	84.25
665.797	65.25
666	84.25
666.203	79.25
666.406	78.25
666.609	81.25
666.812	79.25
667.015	82.25
667.218	78.25
667.421	70.25
667.624	84.25
667.827	82.25
668.03	70.25
668.232	83.25
668.435	82.25
668.638	92.25
668.841	77.25
669.043	75.25
669.246	78.25
669.449	72.25
669.651	83.25
669.854	78.25
670.057	71.25
670.259	65.25
670.462	77.25
670.665	77.25
670.867	79.25
671.07	75.25
671.272	77.25
671.475	82.25
671.677	78.25
671.88	77.25
672.082	84.25
672.284	86.25
672.487	80.25
672.689	92.25
672.892	82.25
