Data from BG_HRD10591_089.txt Node
Date: Fri May 16 15:21:38 EDT 2025
User: Yrep
Spectrometer: HR+D1059
Trigger mode: 1
Integration Time (sec): 1.000000E-1
Scans to average: 1
Electric dark correction enabled: true
Nonlinearity correction enabled: false
Boxcar width: 0
XAxis mode: Wavelengths
Number of Pixels in Spectrum: 2048
>>>>>Begin Spectral Data<<<<<
223.165	-25.25
223.4	-25.25
223.635	-25.25
223.869	-24.25
224.104	-20.25
224.338	-23.25
224.573	-21.25
224.808	-4.25
225.042	-7.25
225.277	4.75
225.511	-10.25
225.746	8.75
225.98	-9.25
226.215	22.75
226.449	12.75
226.683	31.75
226.918	23.75
227.152	40.75
227.387	38.75
227.621	57.75
227.856	59.75
228.09	49.75
228.324	48.75
228.559	47.75
228.793	59.75
229.027	54.75
229.262	70.75
229.496	69.75
229.73	82.75
229.964	87.75
230.199	84.75
230.433	60.75
230.667	86.75
230.901	83.75
231.136	67.75
231.37	79.75
231.604	95.75
231.838	79.75
232.072	88.75
232.306	81.75
232.541	86.75
232.775	89.75
233.009	67.75
233.243	73.75
233.477	84.75
233.711	74.75
233.945	79.75
234.179	79.75
234.413	76.75
234.647	76.75
234.881	79.75
235.115	74.75
235.349	88.75
235.583	82.75
235.817	92.75
236.051	82.75
236.285	88.75
236.519	87.75
236.753	77.75
236.987	84.75
237.221	77.75
237.455	80.75
237.689	81.75
237.922	97.75
238.156	59.75
238.39	86.75
238.624	79.75
238.858	84.75
239.091	72.75
239.325	76.75
239.559	75.75
239.793	74.75
240.027	79.75
240.26	74.75
240.494	92.75
240.728	86.75
240.961	81.75
241.195	70.75
241.429	72.75
241.662	72.75
241.896	73.75
242.13	77.75
242.363	81.75
242.597	77.75
242.83	77.75
243.064	80.75
243.298	81.75
243.531	72.75
243.765	78.75
243.998	70.75
244.232	101.75
244.465	76.75
244.699	84.75
244.932	57.75
245.166	62.75
245.399	81.75
245.633	87.75
245.866	81.75
246.099	76.75
246.333	89.75
246.566	66.75
246.8	80.75
247.033	81.75
247.266	68.75
247.5	64.75
247.733	73.75
247.966	88.75
248.2	71.75
248.433	84.75
248.666	79.75
248.899	74.75
249.133	84.75
249.366	91.75
249.599	84.75
249.832	69.75
250.066	85.75
250.299	73.75
250.532	88.75
250.765	83.75
250.998	74.75
251.231	59.75
251.465	74.75
251.698	78.75
251.931	76.75
252.164	79.75
252.397	89.75
252.63	72.75
252.863	74.75
253.096	80.75
253.329	83.75
253.562	83.75
253.795	74.75
254.028	84.75
254.261	68.75
254.494	89.75
254.727	80.75
254.96	86.75
255.193	78.75
255.426	89.75
255.659	86.75
255.892	98.75
256.124	75.75
256.357	77.75
256.59	92.75
256.823	80.75
257.056	96.75
257.289	89.75
257.521	83.75
257.754	68.75
257.987	89.75
258.22	82.75
258.452	86.75
258.685	82.75
258.918	76.75
259.151	83.75
259.383	88.75
259.616	80.75
259.849	62.75
260.081	88.75
260.314	92.75
260.547	63.75
260.779	82.75
261.012	89.75
261.244	85.75
261.477	76.75
261.71	80.75
261.942	84.75
262.175	89.75
262.407	90.75
262.64	79.75
262.872	89.75
263.105	91.75
263.337	87.75
263.57	75.75
263.802	86.75
264.035	84.75
264.267	94.75
264.499	98.75
264.732	83.75
264.964	90.75
265.197	68.75
265.429	79.75
265.661	74.75
265.894	80.75
266.126	90.75
266.358	69.75
266.591	76.75
266.823	90.75
267.055	82.75
267.287	92.75
267.52	83.75
267.752	84.75
267.984	80.75
268.216	82.75
268.448	80.75
268.681	80.75
268.913	66.75
269.145	74.75
269.377	71.75
269.609	72.75
269.841	91.75
270.073	89.75
270.306	74.75
270.538	93.75
270.77	75.75
271.002	65.75
271.234	78.75
271.466	89.75
271.698	66.75
271.93	79.75
272.162	90.75
272.394	82.75
272.626	78.75
272.858	74.75
273.09	82.75
273.322	84.75
273.553	85.75
273.785	94.75
274.017	77.75
274.249	77.75
274.481	82.75
274.713	76.75
274.945	91.75
275.176	95.75
275.408	83.75
275.64	94.75
275.872	93.75
276.104	81.75
276.335	87.75
276.567	83.75
276.799	74.75
277.031	82.75
277.262	92.75
277.494	91.75
277.726	75.75
277.957	75.75
278.189	89.75
278.421	74.75
278.652	95.75
278.884	83.75
279.115	82.75
279.347	78.75
279.579	81.75
279.81	84.75
280.042	87.75
280.273	86.75
280.505	92.75
280.736	83.75
280.968	76.75
281.199	84.75
281.431	102.75
281.662	90.75
281.894	94.75
282.125	83.75
282.356	78.75
282.588	93.75
282.819	77.75
283.051	86.75
283.282	84.75
283.513	83.75
283.745	80.75
283.976	97.75
284.207	87.75
284.439	94.75
284.67	86.75
284.901	78.75
285.132	94.75
285.364	77.75
285.595	68.75
285.826	96.75
286.057	84.75
286.288	86.75
286.52	81.75
286.751	67.75
286.982	86.75
287.213	92.75
287.444	93.75
287.675	92.75
287.906	70.75
288.138	83.75
288.369	83.75
288.6	74.75
288.831	77.75
289.062	82.75
289.293	74.75
289.524	91.75
289.755	90.75
289.986	68.75
290.217	82.75
290.448	88.75
290.679	88.75
290.91	82.75
291.141	82.75
291.371	95.75
291.602	84.75
291.833	87.75
292.064	78.75
292.295	88.75
292.526	91.75
292.757	87.75
292.987	88.75
293.218	87.75
293.449	97.75
293.68	99.75
293.91	77.75
294.141	90.75
294.372	77.75
294.603	97.75
294.833	84.75
295.064	82.75
295.295	83.75
295.525	88.75
295.756	100.75
295.987	88.75
296.217	83.75
296.448	72.75
296.679	71.75
296.909	84.75
297.14	74.75
297.37	88.75
297.601	72.75
297.831	88.75
298.062	100.75
298.292	86.75
298.523	87.75
298.753	95.75
298.984	81.75
299.214	91.75
299.445	97.75
299.675	98.75
299.905	80.75
300.136	88.75
300.366	97.75
300.597	76.75
300.827	80.75
301.057	77.75
301.288	78.75
301.518	84.75
301.748	102.75
301.979	105.75
302.209	84.75
302.439	79.75
302.669	90.75
302.9	64.75
303.13	88.75
303.36	88.75
303.59	88.75
303.82	97.75
304.051	90.75
304.281	95.75
304.511	94.75
304.741	87.75
304.971	87.75
305.201	86.75
305.431	70.75
305.661	83.75
305.891	74.75
306.121	91.75
306.352	78.75
306.582	83.75
306.812	96.75
307.042	83.75
307.272	75.75
307.502	87.75
307.731	78.75
307.961	78.75
308.191	91.75
308.421	72.75
308.651	78.75
308.881	82.75
309.111	76.75
309.341	82.75
309.571	89.75
309.8	75.75
310.03	77.75
310.26	92.75
310.49	85.75
310.72	88.75
310.949	90.75
311.179	107.75
311.409	95.75
311.639	88.75
311.868	86.75
312.098	85.75
312.328	80.75
312.557	81.75
312.787	90.75
313.017	83.75
313.246	84.75
313.476	71.75
313.706	98.75
313.935	80.75
314.165	76.75
314.394	96.75
314.624	94.75
314.853	82.75
315.083	86.75
315.312	74.75
315.542	73.75
315.771	93.75
316.001	78.75
316.23	85.75
316.46	94.75
316.689	89.75
316.919	78.75
317.148	82.75
317.377	77.75
317.607	80.75
317.836	83.75
318.065	99.75
318.295	101.75
318.524	80.75
318.753	78.75
318.983	85.75
319.212	91.75
319.441	92.75
319.67	84.75
319.9	109.75
320.129	88.75
320.358	89.75
320.587	90.75
320.816	76.75
321.046	76.75
321.275	78.75
321.504	84.75
321.733	83.75
321.962	88.75
322.191	98.75
322.42	78.75
322.649	84.75
322.878	83.75
323.108	84.75
323.337	80.75
323.566	87.75
323.795	82.75
324.024	81.75
324.253	87.75
324.482	72.75
324.71	77.75
324.939	80.75
325.168	86.75
325.397	74.75
325.626	83.75
325.855	80.75
326.084	94.75
326.313	77.75
326.542	83.75
326.77	77.75
326.999	82.75
327.228	76.75
327.457	74.75
327.686	96.75
327.914	87.75
328.143	73.75
328.372	97.75
328.6	81.75
328.829	87.75
329.058	100.75
329.287	94.75
329.515	84.75
329.744	75.75
329.972	88.75
330.201	81.75
330.43	99.75
330.658	91.75
330.887	91.75
331.115	77.75
331.344	68.75
331.572	87.75
331.801	79.75
332.03	93.75
332.258	90.75
332.486	92.75
332.715	84.75
332.943	81.75
333.172	79.75
333.4	91.75
333.629	89.75
333.857	96.75
334.085	102.75
334.314	86.75
334.542	96.75
334.771	86.75
334.999	87.75
335.227	97.75
335.455	74.75
335.684	92.75
335.912	69.75
336.14	82.75
336.369	83.75
336.597	82.75
336.825	102.75
337.053	67.75
337.281	78.75
337.51	69.75
337.738	75.75
337.966	93.75
338.194	76.75
338.422	85.75
338.65	84.75
338.878	92.75
339.106	92.75
339.334	77.75
339.562	67.75
339.79	80.75
340.018	93.75
340.246	70.75
340.474	72.75
340.702	97.75
340.93	78.75
341.158	98.75
341.386	81.75
341.614	81.75
341.842	91.75
342.07	73.75
342.298	83.75
342.526	97.75
342.754	90.75
342.981	87.75
343.209	73.75
343.437	103.75
343.665	84.75
343.893	88.75
344.12	90.75
344.348	80.75
344.576	82.75
344.804	87.75
345.031	80.75
345.259	85.75
345.487	86.75
345.714	87.75
345.942	78.75
346.17	82.75
346.397	92.75
346.625	89.75
346.853	93.75
347.08	86.75
347.308	87.75
347.535	90.75
347.763	74.75
347.99	89.75
348.218	82.75
348.445	78.75
348.673	83.75
348.9	82.75
349.128	94.75
349.355	86.75
349.583	85.75
349.81	86.75
350.037	76.75
350.265	78.75
350.492	83.75
350.72	77.75
350.947	88.75
351.174	95.75
351.402	71.75
351.629	80.75
351.856	81.75
352.083	66.75
352.311	92.75
352.538	86.75
352.765	75.75
352.992	88.75
353.22	81.75
353.447	81.75
353.674	87.75
353.901	86.75
354.128	79.75
354.355	79.75
354.583	75.75
354.81	96.75
355.037	86.75
355.264	81.75
355.491	95.75
355.718	82.75
355.945	82.75
356.172	86.75
356.399	96.75
356.626	95.75
356.853	73.75
357.08	80.75
357.307	93.75
357.534	89.75
357.761	99.75
357.988	90.75
358.215	77.75
358.441	75.75
358.668	80.75
358.895	86.75
359.122	76.75
359.349	83.75
359.576	79.75
359.802	82.75
360.029	83.75
360.256	95.75
360.483	82.75
360.709	80.75
360.936	82.75
361.163	97.75
361.39	79.75
361.616	84.75
361.843	71.75
362.07	92.75
362.296	68.75
362.523	88.75
362.749	92.75
362.976	92.75
363.203	76.75
363.429	89.75
363.656	83.75
363.882	78.75
364.109	97.75
364.335	83.75
364.562	83.75
364.788	81.75
365.015	81.75
365.241	70.75
365.468	77.75
365.694	76.75
365.92	77.75
366.147	79.75
366.373	80.75
366.599	89.75
366.826	88.75
367.052	88.75
367.278	85.75
367.505	79.75
367.731	98.75
367.957	72.75
368.184	86.75
368.41	97.75
368.636	88.75
368.862	84.75
369.089	83.75
369.315	88.75
369.541	86.75
369.767	96.75
369.993	76.75
370.219	86.75
370.445	83.75
370.672	84.75
370.898	85.75
371.124	77.75
371.35	70.75
371.576	93.75
371.802	88.75
372.028	102.75
372.254	77.75
372.48	89.75
372.706	77.75
372.932	84.75
373.158	83.75
373.384	74.75
373.61	95.75
373.835	86.75
374.061	73.75
374.287	73.75
374.513	80.75
374.739	74.75
374.965	89.75
375.191	66.75
375.416	90.75
375.642	94.75
375.868	80.75
376.094	64.75
376.319	83.75
376.545	86.75
376.771	71.75
376.997	99.75
377.222	74.75
377.448	91.75
377.674	84.75
377.899	82.75
378.125	81.75
378.35	92.75
378.576	80.75
378.802	65.75
379.027	91.75
379.253	88.75
379.478	90.75
379.704	86.75
379.929	86.75
380.155	88.75
380.38	89.75
380.606	81.75
380.831	90.75
381.057	95.75
381.282	75.75
381.507	76.75
381.733	88.75
381.958	90.75
382.184	84.75
382.409	94.75
382.634	81.75
382.86	93.75
383.085	98.75
383.31	103.75
383.535	84.75
383.761	86.75
383.986	83.75
384.211	78.75
384.436	93.75
384.662	94.75
384.887	95.75
385.112	84.75
385.337	85.75
385.562	84.75
385.787	82.75
386.013	82.75
386.238	81.75
386.463	79.75
386.688	110.75
386.913	92.75
387.138	95.75
387.363	80.75
387.588	89.75
387.813	74.75
388.038	80.75
388.263	81.75
388.488	83.75
388.713	78.75
388.938	81.75
389.163	93.75
389.387	78.75
389.612	72.75
389.837	92.75
390.062	79.75
390.287	68.75
390.512	83.75
390.736	82.75
390.961	89.75
391.186	98.75
391.411	96.75
391.636	96.75
391.86	66.75
392.085	91.75
392.31	67.75
392.534	73.75
392.759	77.75
392.984	86.75
393.208	88.75
393.433	66.75
393.658	65.75
393.882	79.75
394.107	88.75
394.331	89.75
394.556	90.75
394.78	87.75
395.005	76.75
395.229	77.75
395.454	84.75
395.678	96.75
395.903	87.75
396.127	86.75
396.352	82.75
396.576	79.75
396.801	76.75
397.025	79.75
397.249	75.75
397.474	85.75
397.698	81.75
397.922	80.75
398.147	89.75
398.371	79.75
398.595	82.75
398.82	90.75
399.044	74.75
399.268	84.75
399.492	82.75
399.717	83.75
399.941	77.75
400.165	112.75
400.389	78.75
400.613	71.75
400.837	75.75
401.062	82.75
401.286	81.75
401.51	76.75
401.734	69.75
401.958	83.75
402.182	96.75
402.406	77.75
402.63	83.75
402.854	95.75
403.078	83.75
403.302	77.75
403.526	86.75
403.75	82.75
403.974	97.75
404.198	80.75
404.422	77.75
404.645	70.75
404.869	81.75
405.093	75.75
405.317	86.75
405.541	84.75
405.765	64.75
405.988	83.75
406.212	86.75
406.436	80.75
406.66	92.75
406.883	79.75
407.107	90.75
407.331	89.75
407.555	71.75
407.778	79.75
408.002	66.75
408.226	82.75
408.449	88.75
408.673	102.75
408.896	78.75
409.12	79.75
409.344	86.75
409.567	77.75
409.791	73.75
410.014	67.75
410.238	75.75
410.461	82.75
410.685	79.75
410.908	90.75
411.132	90.75
411.355	83.75
411.578	69.75
411.802	82.75
412.025	84.75
412.249	85.75
412.472	89.75
412.695	89.75
412.919	99.75
413.142	85.75
413.365	83.75
413.589	87.75
413.812	79.75
414.035	87.75
414.258	86.75
414.482	81.75
414.705	93.75
414.928	86.75
415.151	82.75
415.374	79.75
415.597	74.75
415.821	81.75
416.044	78.75
416.267	89.75
416.49	89.75
416.713	85.75
416.936	84.75
417.159	65.75
417.382	79.75
417.605	84.75
417.828	98.75
418.051	81.75
418.274	87.75
418.497	91.75
418.72	78.75
418.943	76.75
419.166	89.75
419.389	74.75
419.611	74.75
419.834	75.75
420.057	66.75
420.28	86.75
420.503	76.75
420.726	74.75
420.948	77.75
421.171	82.75
421.394	75.75
421.617	79.75
421.839	80.75
422.062	81.75
422.285	90.75
422.507	83.75
422.73	78.75
422.953	92.75
423.175	72.75
423.398	65.75
423.621	74.75
423.843	90.75
424.066	78.75
424.288	86.75
424.511	78.75
424.733	81.75
424.956	74.75
425.178	83.75
425.401	84.75
425.623	74.75
425.846	73.75
426.068	94.75
426.291	79.75
426.513	91.75
426.735	71.75
426.958	85.75
427.18	78.75
427.402	71.75
427.625	78.75
427.847	86.75
428.069	90.75
428.292	89.75
428.514	80.75
428.736	80.75
428.958	77.75
429.181	89.75
429.403	88.75
429.625	73.75
429.847	86.75
430.069	88.75
430.292	91.75
430.514	88.75
430.736	94.75
430.958	88.75
431.18	69.75
431.402	75.75
431.624	89.75
431.846	88.75
432.068	78.75
432.29	76.75
432.512	83.75
432.734	74.75
432.956	85.75
433.178	86.75
433.4	89.75
433.622	80.75
433.844	78.75
434.066	80.75
434.287	85.75
434.509	75.75
434.731	76.75
434.953	78.75
435.175	74.75
435.397	91.75
435.618	81.75
435.84	70.75
436.062	78.75
436.284	74.75
436.505	85.75
436.727	80.75
436.949	86.75
437.17	87.75
437.392	73.75
437.614	90.75
437.835	87.75
438.057	80.75
438.278	83.75
438.5	83.75
438.721	87.75
438.943	79.75
439.165	78.75
439.386	81.75
439.608	82.75
439.829	88.75
440.05	83.75
440.272	90.75
440.493	78.75
440.715	86.75
440.936	95.75
441.158	84.75
441.379	76.75
441.6	83.75
441.822	83.75
442.043	76.75
442.264	78.75
442.486	66.75
442.707	78.75
442.928	86.75
443.149	81.75
443.371	86.75
443.592	89.75
443.813	75.75
444.034	72.75
444.255	83.75
444.476	83.75
444.698	83.75
444.919	76.75
445.14	172.75
445.361	118.75
445.582	76.75
445.803	76.75
446.024	84.75
446.245	95.75
446.466	75.75
446.687	71.75
446.908	86.75
447.129	84.75
447.35	80.75
447.571	83.75
447.792	70.75
448.013	84.75
448.234	81.75
448.455	76.75
448.675	79.75
448.896	67.75
449.117	78.75
449.338	75.75
449.559	83.75
449.779	79.75
450	89.75
450.221	90.75
450.442	96.75
450.662	84.75
450.883	83.75
451.104	91.75
451.324	71.75
451.545	75.75
451.766	76.75
451.986	105.75
452.207	95.75
452.428	90.75
452.648	77.75
452.869	87.75
453.089	86.75
453.31	73.75
453.53	92.75
453.751	73.75
453.971	77.75
454.192	82.75
454.412	72.75
454.633	78.75
454.853	91.75
455.073	86.75
455.294	109.75
455.514	86.75
455.734	72.75
455.955	80.75
456.175	82.75
456.395	95.75
456.616	84.75
456.836	88.75
457.056	87.75
457.276	83.75
457.497	80.75
457.717	76.75
457.937	86.75
458.157	88.75
458.377	89.75
458.598	72.75
458.818	82.75
459.038	87.75
459.258	89.75
459.478	84.75
459.698	72.75
459.918	92.75
460.138	87.75
460.358	76.75
460.578	85.75
460.798	72.75
461.018	91.75
461.238	81.75
461.458	66.75
461.678	74.75
461.898	76.75
462.118	87.75
462.338	76.75
462.558	98.75
462.777	93.75
462.997	93.75
463.217	81.75
463.437	99.75
463.657	86.75
463.876	77.75
464.096	90.75
464.316	88.75
464.536	73.75
464.755	89.75
464.975	83.75
465.195	93.75
465.414	82.75
465.634	91.75
465.854	103.75
466.073	86.75
466.293	73.75
466.512	84.75
466.732	94.75
466.951	79.75
467.171	94.75
467.391	82.75
467.61	98.75
467.829	79.75
468.049	75.75
468.268	69.75
468.488	78.75
468.707	74.75
468.927	71.75
469.146	95.75
469.365	83.75
469.585	94.75
469.804	97.75
470.023	83.75
470.243	83.75
470.462	90.75
470.681	88.75
470.901	76.75
471.12	81.75
471.339	89.75
471.558	89.75
471.777	86.75
471.997	79.75
472.216	92.75
472.435	70.75
472.654	81.75
472.873	78.75
473.092	79.75
473.311	80.75
473.53	82.75
473.749	80.75
473.968	89.75
474.187	94.75
474.406	97.75
474.625	85.75
474.844	91.75
475.063	74.75
475.282	87.75
475.501	83.75
475.72	91.75
475.939	92.75
476.158	90.75
476.377	86.75
476.596	77.75
476.814	89.75
477.033	82.75
477.252	90.75
477.471	82.75
477.69	92.75
477.908	74.75
478.127	102.75
478.346	96.75
478.564	89.75
478.783	86.75
479.002	75.75
479.22	98.75
479.439	84.75
479.658	88.75
479.876	90.75
480.095	93.75
480.313	67.75
480.532	89.75
480.751	87.75
480.969	78.75
481.188	67.75
481.406	112.75
481.624	74.75
481.843	92.75
482.061	97.75
482.28	81.75
482.498	79.75
482.717	83.75
482.935	98.75
483.153	83.75
483.372	83.75
483.59	85.75
483.808	74.75
484.027	78.75
484.245	86.75
484.463	87.75
484.681	95.75
484.9	81.75
485.118	90.75
485.336	95.75
485.554	87.75
485.772	81.75
485.99	90.75
486.209	86.75
486.427	84.75
486.645	79.75
486.863	79.75
487.081	86.75
487.299	74.75
487.517	75.75
487.735	83.75
487.953	77.75
488.171	79.75
488.389	92.75
488.607	76.75
488.825	80.75
489.043	88.75
489.261	87.75
489.479	91.75
489.696	73.75
489.914	77.75
490.132	82.75
490.35	76.75
490.568	78.75
490.786	79.75
491.003	92.75
491.221	80.75
491.439	84.75
491.657	79.75
491.874	74.75
492.092	78.75
492.31	89.75
492.527	92.75
492.745	83.75
492.963	91.75
493.18	94.75
493.398	83.75
493.615	87.75
493.833	83.75
494.05	81.75
494.268	75.75
494.485	79.75
494.703	80.75
494.92	95.75
495.138	92.75
495.355	79.75
495.573	75.75
495.79	74.75
496.008	78.75
496.225	73.75
496.442	84.75
496.66	79.75
496.877	82.75
497.094	103.75
497.312	86.75
497.529	89.75
497.746	91.75
497.963	95.75
498.181	67.75
498.398	82.75
498.615	81.75
498.832	82.75
499.049	90.75
499.267	82.75
499.484	88.75
499.701	89.75
499.918	97.75
500.135	79.75
500.352	76.75
500.569	97.75
500.786	82.75
501.003	81.75
501.22	89.75
501.437	90.75
501.654	77.75
501.871	80.75
502.088	85.75
502.305	83.75
502.522	94.75
502.739	76.75
502.956	90.75
503.172	80.75
503.389	74.75
503.606	91.75
503.823	87.75
504.04	87.75
504.256	95.75
504.473	87.75
504.69	82.75
504.907	86.75
505.123	98.75
505.34	81.75
505.557	77.75
505.773	78.75
505.99	96.75
506.207	80.75
506.423	91.75
506.64	73.75
506.856	80.75
507.073	93.75
507.289	77.75
507.506	74.75
507.722	88.75
507.939	86.75
508.155	98.75
508.372	86.75
508.588	83.75
508.805	80.75
509.021	91.75
509.238	88.75
509.454	67.75
509.67	94.75
509.887	79.75
510.103	89.75
510.319	78.75
510.536	94.75
510.752	81.75
510.968	75.75
511.184	82.75
511.401	76.75
511.617	82.75
511.833	73.75
512.049	81.75
512.265	99.75
512.481	96.75
512.698	82.75
512.914	90.75
513.13	78.75
513.346	100.75
513.562	88.75
513.778	80.75
513.994	83.75
514.21	81.75
514.426	79.75
514.642	73.75
514.858	86.75
515.074	86.75
515.29	86.75
515.506	94.75
515.721	80.75
515.937	84.75
516.153	88.75
516.369	90.75
516.585	83.75
516.801	81.75
517.016	82.75
517.232	86.75
517.448	77.75
517.664	81.75
517.879	97.75
518.095	90.75
518.311	91.75
518.527	68.75
518.742	72.75
518.958	80.75
519.173	91.75
519.389	92.75
519.605	80.75
519.82	89.75
520.036	73.75
520.251	90.75
520.467	87.75
520.682	76.75
520.898	74.75
521.113	66.75
521.329	90.75
521.544	96.75
521.76	98.75
521.975	85.75
522.19	82.75
522.406	81.75
522.621	87.75
522.836	90.75
523.052	82.75
523.267	91.75
523.482	93.75
523.698	91.75
523.913	80.75
524.128	79.75
524.343	90.75
524.559	92.75
524.774	76.75
524.989	72.75
525.204	72.75
525.419	77.75
525.634	85.75
525.849	82.75
526.064	76.75
526.28	89.75
526.495	65.75
526.71	78.75
526.925	87.75
527.14	83.75
527.355	82.75
527.57	91.75
527.785	82.75
527.999	94.75
528.214	89.75
528.429	92.75
528.644	85.75
528.859	97.75
529.074	82.75
529.289	90.75
529.503	79.75
529.718	83.75
529.933	92.75
530.148	76.75
530.363	86.75
530.577	76.75
530.792	68.75
531.007	99.75
531.221	98.75
531.436	90.75
531.651	89.75
531.865	83.75
532.08	90.75
532.295	83.75
532.509	73.75
532.724	72.75
532.938	77.75
533.153	74.75
533.367	80.75
533.582	77.75
533.796	82.75
534.011	62.75
534.225	80.75
534.44	82.75
534.654	95.75
534.868	74.75
535.083	85.75
535.297	93.75
535.511	92.75
535.726	86.75
535.94	85.75
536.154	82.75
536.369	78.75
536.583	83.75
536.797	89.75
537.011	80.75
537.225	80.75
537.44	86.75
537.654	90.75
537.868	87.75
538.082	88.75
538.296	89.75
538.51	89.75
538.724	89.75
538.938	79.75
539.153	84.75
539.367	84.75
539.581	88.75
539.795	87.75
540.009	85.75
540.222	86.75
540.436	74.75
540.65	86.75
540.864	94.75
541.078	79.75
541.292	87.75
541.506	94.75
541.72	89.75
541.934	75.75
542.147	82.75
542.361	72.75
542.575	86.75
542.789	80.75
543.002	75.75
543.216	81.75
543.43	88.75
543.644	94.75
543.857	102.75
544.071	91.75
544.285	86.75
544.498	81.75
544.712	103.75
544.925	86.75
545.139	87.75
545.352	86.75
545.566	85.75
545.779	88.75
545.993	83.75
546.206	91.75
546.42	83.75
546.633	87.75
546.847	75.75
547.06	88.75
547.274	97.75
547.487	82.75
547.7	93.75
547.914	76.75
548.127	78.75
548.34	68.75
548.554	80.75
548.767	104.75
548.98	79.75
549.193	102.75
549.407	90.75
549.62	76.75
549.833	73.75
550.046	85.75
550.259	81.75
550.473	88.75
550.686	90.75
550.899	74.75
551.112	84.75
551.325	86.75
551.538	78.75
551.751	83.75
551.964	95.75
552.177	81.75
552.39	88.75
552.603	92.75
552.816	75.75
553.029	84.75
553.242	92.75
553.455	86.75
553.667	86.75
553.88	86.75
554.093	78.75
554.306	83.75
554.519	89.75
554.732	70.75
554.944	80.75
555.157	79.75
555.37	88.75
555.583	65.75
555.795	73.75
556.008	75.75
556.221	79.75
556.433	89.75
556.646	79.75
556.859	92.75
557.071	80.75
557.284	73.75
557.496	76.75
557.709	83.75
557.921	88.75
558.134	96.75
558.346	84.75
558.559	78.75
558.771	84.75
558.984	89.75
559.196	87.75
559.409	74.75
559.621	80.75
559.833	78.75
560.046	86.75
560.258	75.75
560.47	85.75
560.683	82.75
560.895	88.75
561.107	68.75
561.32	86.75
561.532	84.75
561.744	81.75
561.956	89.75
562.168	82.75
562.381	86.75
562.593	78.75
562.805	82.75
563.017	79.75
563.229	88.75
563.441	98.75
563.653	92.75
563.865	89.75
564.077	91.75
564.289	91.75
564.501	83.75
564.713	88.75
564.925	80.75
565.137	86.75
565.349	86.75
565.561	102.75
565.773	89.75
565.985	99.75
566.197	79.75
566.408	94.75
566.62	91.75
566.832	80.75
567.044	99.75
567.255	67.75
567.467	79.75
567.679	74.75
567.891	82.75
568.102	78.75
568.314	90.75
568.526	80.75
568.737	89.75
568.949	92.75
569.161	99.75
569.372	80.75
569.584	85.75
569.795	96.75
570.007	95.75
570.218	78.75
570.43	77.75
570.641	77.75
570.853	81.75
571.064	92.75
571.276	84.75
571.487	85.75
571.698	90.75
571.91	87.75
572.121	74.75
572.333	97.75
572.544	80.75
572.755	98.75
572.966	80.75
573.178	93.75
573.389	77.75
573.6	77.75
573.811	87.75
574.023	83.75
574.234	87.75
574.445	86.75
574.656	102.75
574.867	81.75
575.078	86.75
575.289	80.75
575.501	86.75
575.712	81.75
575.923	90.75
576.134	91.75
576.345	104.75
576.556	82.75
576.767	84.75
576.978	92.75
577.188	80.75
577.399	107.75
577.61	92.75
577.821	87.75
578.032	76.75
578.243	75.75
578.454	88.75
578.665	82.75
578.875	82.75
579.086	74.75
579.297	85.75
579.508	76.75
579.718	70.75
579.929	82.75
580.14	83.75
580.35	67.75
580.561	78.75
580.772	73.75
580.982	86.75
581.193	79.75
581.403	83.75
581.614	76.75
581.825	91.75
582.035	88.75
582.246	83.75
582.456	86.75
582.667	90.75
582.877	85.75
583.087	88.75
583.298	86.75
583.508	88.75
583.719	80.75
583.929	71.75
584.139	95.75
584.35	81.75
584.56	88.75
584.77	99.75
584.981	83.75
585.191	81.75
585.401	80.75
585.611	79.75
585.821	82.75
586.032	77.75
586.242	81.75
586.452	82.75
586.662	86.75
586.872	90.75
587.082	77.75
587.292	92.75
587.502	84.75
587.713	83.75
587.923	79.75
588.133	94.75
588.343	94.75
588.553	79.75
588.762	88.75
588.972	79.75
589.182	93.75
589.392	91.75
589.602	73.75
589.812	80.75
590.022	93.75
590.232	86.75
590.441	90.75
590.651	90.75
590.861	82.75
591.071	95.75
591.281	74.75
591.49	99.75
591.7	92.75
591.91	92.75
592.119	70.75
592.329	75.75
592.539	86.75
592.748	87.75
592.958	73.75
593.167	79.75
593.377	94.75
593.587	91.75
593.796	86.75
594.006	78.75
594.215	80.75
594.424	82.75
594.634	86.75
594.843	85.75
595.053	86.75
595.262	82.75
595.472	87.75
595.681	82.75
595.89	84.75
596.1	95.75
596.309	89.75
596.518	77.75
596.727	79.75
596.937	82.75
597.146	91.75
597.355	83.75
597.564	75.75
597.774	64.75
597.983	60.75
598.192	76.75
598.401	88.75
598.61	100.75
598.819	88.75
599.028	86.75
599.237	93.75
599.446	77.75
599.655	80.75
599.864	91.75
600.073	86.75
600.282	95.75
600.491	71.75
600.7	95.75
600.909	85.75
601.118	86.75
601.327	83.75
601.536	89.75
601.745	80.75
601.953	87.75
602.162	80.75
602.371	100.75
602.58	85.75
602.789	86.75
602.997	75.75
603.206	94.75
603.415	93.75
603.623	80.75
603.832	72.75
604.041	89.75
604.249	78.75
604.458	82.75
604.666	95.75
604.875	81.75
605.084	62.75
605.292	75.75
605.501	73.75
605.709	85.75
605.918	89.75
606.126	94.75
606.334	82.75
606.543	79.75
606.751	80.75
606.96	84.75
607.168	89.75
607.376	84.75
607.585	82.75
607.793	76.75
608.001	86.75
608.21	98.75
608.418	78.75
608.626	92.75
608.834	81.75
609.043	83.75
609.251	92.75
609.459	83.75
609.667	87.75
609.875	81.75
610.083	85.75
610.291	89.75
610.499	86.75
610.707	86.75
610.916	92.75
611.124	81.75
611.332	82.75
611.54	95.75
611.748	78.75
611.955	71.75
612.163	93.75
612.371	79.75
612.579	75.75
612.787	88.75
612.995	87.75
613.203	93.75
613.411	86.75
613.618	74.75
613.826	77.75
614.034	84.75
614.242	86.75
614.449	73.75
614.657	93.75
614.865	85.75
615.072	84.75
615.28	82.75
615.488	85.75
615.695	78.75
615.903	81.75
616.111	80.75
616.318	83.75
616.526	96.75
616.733	87.75
616.941	88.75
617.148	78.75
617.356	77.75
617.563	80.75
617.771	90.75
617.978	97.75
618.185	92.75
618.393	74.75
618.6	81.75
618.807	91.75
619.015	91.75
619.222	78.75
619.429	88.75
619.637	88.75
619.844	82.75
620.051	91.75
620.258	73.75
620.466	84.75
620.673	80.75
620.88	73.75
621.087	73.75
621.294	95.75
621.501	88.75
621.708	92.75
621.915	78.75
622.122	89.75
622.329	75.75
622.536	82.75
622.743	82.75
622.95	66.75
623.157	87.75
623.364	83.75
623.571	99.75
623.778	82.75
623.985	86.75
624.192	91.75
624.399	80.75
624.606	83.75
624.812	81.75
625.019	78.75
625.226	92.75
625.433	76.75
625.639	93.75
625.846	80.75
626.053	87.75
626.259	82.75
626.466	94.75
626.673	98.75
626.879	89.75
627.086	91.75
627.293	99.75
627.499	77.75
627.706	83.75
627.912	75.75
628.119	75.75
628.325	80.75
628.532	71.75
628.738	84.75
628.945	80.75
629.151	81.75
629.357	86.75
629.564	86.75
629.77	94.75
629.976	73.75
630.183	74.75
630.389	83.75
630.595	77.75
630.802	82.75
631.008	83.75
631.214	87.75
631.42	84.75
631.627	86.75
631.833	71.75
632.039	71.75
632.245	94.75
632.451	82.75
632.657	91.75
632.863	73.75
633.069	76.75
633.275	75.75
633.481	81.75
633.688	73.75
633.893	77.75
634.099	81.75
634.305	90.75
634.511	77.75
634.717	84.75
634.923	91.75
635.129	94.75
635.335	79.75
635.541	80.75
635.747	77.75
635.952	75.75
636.158	79.75
636.364	89.75
636.57	86.75
636.775	83.75
636.981	74.75
637.187	91.75
637.392	81.75
637.598	86.75
637.804	79.75
638.009	83.75
638.215	78.75
638.421	84.75
638.626	86.75
638.832	82.75
639.037	83.75
639.243	87.75
639.448	82.75
639.654	80.75
639.859	77.75
640.065	73.75
640.27	88.75
640.475	93.75
640.681	81.75
640.886	74.75
641.091	74.75
641.297	100.75
641.502	80.75
641.707	86.75
641.913	100.75
642.118	89.75
642.323	93.75
642.528	83.75
642.733	89.75
642.939	85.75
643.144	81.75
643.349	90.75
643.554	76.75
643.759	89.75
643.964	86.75
644.169	74.75
644.374	84.75
644.579	89.75
644.784	71.75
644.989	95.75
645.194	90.75
645.399	78.75
645.604	75.75
645.809	93.75
646.014	86.75
646.219	94.75
646.423	84.75
646.628	79.75
646.833	96.75
647.038	95.75
647.243	86.75
647.447	84.75
647.652	81.75
647.857	80.75
648.062	82.75
648.266	90.75
648.471	87.75
648.676	92.75
648.88	87.75
649.085	90.75
649.289	93.75
649.494	93.75
649.698	79.75
649.903	87.75
650.107	97.75
650.312	90.75
650.516	91.75
650.721	82.75
650.925	84.75
651.13	80.75
651.334	84.75
651.539	93.75
651.743	77.75
651.947	83.75
652.152	92.75
652.356	94.75
652.56	79.75
652.764	82.75
652.969	102.75
653.173	82.75
653.377	75.75
653.581	86.75
653.785	93.75
653.99	82.75
654.194	84.75
654.398	79.75
654.602	84.75
654.806	93.75
655.01	92.75
655.214	89.75
655.418	84.75
655.622	86.75
655.826	82.75
656.03	84.75
656.234	85.75
656.438	87.75
656.642	91.75
656.846	82.75
657.049	92.75
657.253	77.75
657.457	87.75
657.661	95.75
657.865	88.75
658.068	89.75
658.272	97.75
658.476	83.75
658.68	87.75
658.883	82.75
659.087	74.75
659.291	71.75
659.494	87.75
659.698	86.75
659.901	87.75
660.105	103.75
660.309	76.75
660.512	92.75
660.716	82.75
660.919	85.75
661.123	80.75
661.326	93.75
661.53	75.75
661.733	84.75
661.936	82.75
662.14	81.75
662.343	83.75
662.546	94.75
662.75	72.75
662.953	96.75
663.156	90.75
663.36	81.75
663.563	88.75
663.766	86.75
663.969	82.75
664.173	83.75
664.376	88.75
664.579	78.75
664.782	84.75
664.985	92.75
665.188	87.75
665.391	91.75
665.594	87.75
665.797	72.75
666	89.75
666.203	69.75
666.406	67.75
666.609	80.75
666.812	83.75
667.015	89.75
667.218	79.75
667.421	78.75
667.624	74.75
667.827	87.75
668.03	83.75
668.232	91.75
668.435	82.75
668.638	80.75
668.841	86.75
669.043	89.75
669.246	83.75
669.449	82.75
669.651	90.75
669.854	88.75
670.057	89.75
670.259	86.75
670.462	76.75
670.665	90.75
670.867	85.75
671.07	87.75
671.272	92.75
671.475	91.75
671.677	81.75
671.88	87.75
672.082	74.75
672.284	82.75
672.487	79.75
672.689	90.75
672.892	92.75
