Data from Circ_2004_H10_HRD10591_00062.txt Node
Date: Wed Jan 03 10:33:26 EST 2024
User: Yrep
Spectrometer: HR+D1059
Trigger mode: 1
Integration Time (sec): 1.000000E-1
Scans to average: 1
Electric dark correction enabled: true
Nonlinearity correction enabled: false
Boxcar width: 0
XAxis mode: Wavelengths
Number of Pixels in Spectrum: 2048
>>>>>Begin Spectral Data<<<<<
223.165	-11.44
223.4	-11.44
223.635	-11.44
223.869	-18.44
224.104	-23.44
224.338	-20.44
224.573	-4.44
224.808	-18.44
225.042	-4.44
225.277	-7.44
225.511	-4.44
225.746	-0.44
225.98	28.56
226.215	2.56
226.449	11.56
226.683	23.56
226.918	21.56
227.152	25.56
227.387	26.56
227.621	31.56
227.856	53.56
228.09	56.56
228.324	73.56
228.559	63.56
228.793	73.56
229.027	70.56
229.262	64.56
229.496	76.56
229.73	81.56
229.964	92.56
230.199	73.56
230.433	79.56
230.667	77.56
230.901	89.56
231.136	91.56
231.37	79.56
231.604	97.56
231.838	87.56
232.072	81.56
232.306	70.56
232.541	90.56
232.775	83.56
233.009	90.56
233.243	82.56
233.477	96.56
233.711	72.56
233.945	82.56
234.179	83.56
234.413	78.56
234.647	71.56
234.881	79.56
235.115	82.56
235.349	79.56
235.583	78.56
235.817	83.56
236.051	77.56
236.285	74.56
236.519	67.56
236.753	79.56
236.987	71.56
237.221	78.56
237.455	91.56
237.689	56.56
237.922	67.56
238.156	72.56
238.39	72.56
238.624	77.56
238.858	82.56
239.091	68.56
239.325	83.56
239.559	79.56
239.793	72.56
240.027	75.56
240.26	76.56
240.494	87.56
240.728	88.56
240.961	84.56
241.195	72.56
241.429	73.56
241.662	82.56
241.896	83.56
242.13	69.56
242.363	64.56
242.597	85.56
242.83	85.56
243.064	85.56
243.298	84.56
243.531	80.56
243.765	77.56
243.998	88.56
244.232	78.56
244.465	79.56
244.699	77.56
244.932	74.56
245.166	82.56
245.399	59.56
245.633	77.56
245.866	89.56
246.099	78.56
246.333	65.56
246.566	88.56
246.8	78.56
247.033	83.56
247.266	65.56
247.5	81.56
247.733	77.56
247.966	73.56
248.2	81.56
248.433	81.56
248.666	86.56
248.899	79.56
249.133	84.56
249.366	105.56
249.599	103.56
249.832	88.56
250.066	73.56
250.299	78.56
250.532	74.56
250.765	75.56
250.998	66.56
251.231	53.56
251.465	69.56
251.698	85.56
251.931	82.56
252.164	86.56
252.397	93.56
252.63	97.56
252.863	72.56
253.096	83.56
253.329	79.56
253.562	59.56
253.795	71.56
254.028	79.56
254.261	63.56
254.494	75.56
254.727	88.56
254.96	74.56
255.193	84.56
255.426	63.56
255.659	75.56
255.892	89.56
256.124	85.56
256.357	89.56
256.59	93.56
256.823	95.56
257.056	79.56
257.289	81.56
257.521	75.56
257.754	88.56
257.987	79.56
258.22	73.56
258.452	88.56
258.685	84.56
258.918	79.56
259.151	84.56
259.383	75.56
259.616	92.56
259.849	81.56
260.081	89.56
260.314	75.56
260.547	85.56
260.779	88.56
261.012	88.56
261.244	91.56
261.477	105.56
261.71	88.56
261.942	98.56
262.175	112.56
262.407	84.56
262.64	84.56
262.872	71.56
263.105	68.56
263.337	82.56
263.57	87.56
263.802	72.56
264.035	77.56
264.267	83.56
264.499	78.56
264.732	80.56
264.964	79.56
265.197	76.56
265.429	78.56
265.661	68.56
265.894	75.56
266.126	75.56
266.358	64.56
266.591	88.56
266.823	89.56
267.055	81.56
267.287	81.56
267.52	70.56
267.752	67.56
267.984	74.56
268.216	84.56
268.448	83.56
268.681	80.56
268.913	77.56
269.145	81.56
269.377	84.56
269.609	68.56
269.841	86.56
270.073	80.56
270.306	91.56
270.538	73.56
270.77	91.56
271.002	92.56
271.234	102.56
271.466	101.56
271.698	90.56
271.93	80.56
272.162	91.56
272.394	97.56
272.626	83.56
272.858	77.56
273.09	91.56
273.322	82.56
273.553	93.56
273.785	69.56
274.017	81.56
274.249	87.56
274.481	99.56
274.713	79.56
274.945	79.56
275.176	95.56
275.408	92.56
275.64	79.56
275.872	90.56
276.104	88.56
276.335	96.56
276.567	100.56
276.799	108.56
277.031	118.56
277.262	105.56
277.494	93.56
277.726	93.56
277.957	86.56
278.189	80.56
278.421	84.56
278.652	83.56
278.884	76.56
279.115	89.56
279.347	90.56
279.579	87.56
279.81	77.56
280.042	105.56
280.273	131.56
280.505	121.56
280.736	90.56
280.968	99.56
281.199	93.56
281.431	79.56
281.662	89.56
281.894	75.56
282.125	97.56
282.356	111.56
282.588	137.56
282.819	95.56
283.051	87.56
283.282	68.56
283.513	95.56
283.745	82.56
283.976	77.56
284.207	79.56
284.439	86.56
284.67	78.56
284.901	84.56
285.132	88.56
285.364	79.56
285.595	79.56
285.826	93.56
286.057	84.56
286.288	88.56
286.52	91.56
286.751	94.56
286.982	89.56
287.213	84.56
287.444	77.56
287.675	79.56
287.906	98.56
288.138	86.56
288.369	90.56
288.6	104.56
288.831	91.56
289.062	79.56
289.293	89.56
289.524	84.56
289.755	87.56
289.986	83.56
290.217	69.56
290.448	88.56
290.679	84.56
290.91	86.56
291.141	99.56
291.371	84.56
291.602	85.56
291.833	93.56
292.064	85.56
292.295	77.56
292.526	75.56
292.757	87.56
292.987	79.56
293.218	90.56
293.449	85.56
293.68	95.56
293.91	78.56
294.141	85.56
294.372	74.56
294.603	95.56
294.833	82.56
295.064	78.56
295.295	89.56
295.525	97.56
295.756	89.56
295.987	124.56
296.217	131.56
296.448	119.56
296.679	84.56
296.909	75.56
297.14	91.56
297.37	79.56
297.601	85.56
297.831	82.56
298.062	85.56
298.292	89.56
298.523	89.56
298.753	79.56
298.984	89.56
299.214	92.56
299.445	109.56
299.675	92.56
299.905	92.56
300.136	84.56
300.366	85.56
300.597	76.56
300.827	100.56
301.057	88.56
301.288	107.56
301.518	73.56
301.748	98.56
301.979	103.56
302.209	81.56
302.439	85.56
302.669	93.56
302.9	97.56
303.13	83.56
303.36	101.56
303.59	103.56
303.82	104.56
304.051	109.56
304.281	83.56
304.511	78.56
304.741	85.56
304.971	87.56
305.201	85.56
305.431	89.56
305.661	80.56
305.891	81.56
306.121	94.56
306.352	101.56
306.582	110.56
306.812	95.56
307.042	94.56
307.272	101.56
307.502	117.56
307.731	113.56
307.961	99.56
308.191	95.56
308.421	86.56
308.651	87.56
308.881	96.56
309.111	103.56
309.341	90.56
309.571	82.56
309.8	89.56
310.03	87.56
310.26	97.56
310.49	95.56
310.72	92.56
310.949	94.56
311.179	106.56
311.409	84.56
311.639	72.56
311.868	109.56
312.098	93.56
312.328	92.56
312.557	106.56
312.787	101.56
313.017	119.56
313.246	81.56
313.476	88.56
313.706	89.56
313.935	90.56
314.165	96.56
314.394	90.56
314.624	103.56
314.853	110.56
315.083	88.56
315.312	86.56
315.542	73.56
315.771	101.56
316.001	93.56
316.23	97.56
316.46	87.56
316.689	83.56
316.919	86.56
317.148	108.56
317.377	100.56
317.607	87.56
317.836	79.56
318.065	85.56
318.295	91.56
318.524	88.56
318.753	89.56
318.983	95.56
319.212	95.56
319.441	90.56
319.67	111.56
319.9	80.56
320.129	82.56
320.358	96.56
320.587	102.56
320.816	100.56
321.046	94.56
321.275	88.56
321.504	96.56
321.733	102.56
321.962	99.56
322.191	89.56
322.42	95.56
322.649	105.56
322.878	94.56
323.108	115.56
323.337	121.56
323.566	130.56
323.795	148.56
324.024	197.56
324.253	393.56
324.482	829.56
324.71	1661.56
324.939	2247.56
325.168	827.56
325.397	237.56
325.626	131.56
325.855	136.56
326.084	133.56
326.313	144.56
326.542	152.56
326.77	220.56
326.999	453.56
327.228	937.56
327.457	1684.56
327.686	1359.56
327.914	386.56
328.143	260.56
328.372	269.56
328.6	200.56
328.829	141.56
329.058	137.56
329.287	138.56
329.515	125.56
329.744	130.56
329.972	198.56
330.201	357.56
330.43	488.56
330.658	263.56
330.887	175.56
331.115	128.56
331.344	106.56
331.572	115.56
331.801	105.56
332.03	95.56
332.258	104.56
332.486	110.56
332.715	103.56
332.943	104.56
333.172	97.56
333.4	105.56
333.629	120.56
333.857	149.56
334.085	193.56
334.314	333.56
334.542	596.56
334.771	595.56
334.999	208.56
335.227	127.56
335.455	104.56
335.684	110.56
335.912	94.56
336.14	104.56
336.369	99.56
336.597	91.56
336.825	91.56
337.053	91.56
337.281	96.56
337.51	81.56
337.738	95.56
337.966	91.56
338.194	91.56
338.422	100.56
338.65	103.56
338.878	98.56
339.106	105.56
339.334	97.56
339.562	87.56
339.79	99.56
340.018	85.56
340.246	91.56
340.474	97.56
340.702	95.56
340.93	100.56
341.158	88.56
341.386	95.56
341.614	92.56
341.842	101.56
342.07	88.56
342.298	72.56
342.526	96.56
342.754	84.56
342.981	84.56
343.209	78.56
343.437	95.56
343.665	86.56
343.893	100.56
344.12	96.56
344.348	101.56
344.576	99.56
344.804	102.56
345.031	92.56
345.259	105.56
345.487	93.56
345.714	88.56
345.942	93.56
346.17	94.56
346.397	90.56
346.625	97.56
346.853	83.56
347.08	108.56
347.308	81.56
347.535	96.56
347.763	89.56
347.99	98.56
348.218	87.56
348.445	104.56
348.673	110.56
348.9	98.56
349.128	102.56
349.355	75.56
349.583	93.56
349.81	86.56
350.037	88.56
350.265	99.56
350.492	95.56
350.72	87.56
350.947	97.56
351.174	94.56
351.402	109.56
351.629	107.56
351.856	118.56
352.083	100.56
352.311	104.56
352.538	95.56
352.765	112.56
352.992	110.56
353.22	89.56
353.447	94.56
353.674	99.56
353.901	83.56
354.128	97.56
354.355	95.56
354.583	104.56
354.81	89.56
355.037	93.56
355.264	87.56
355.491	91.56
355.718	82.56
355.945	94.56
356.172	101.56
356.399	97.56
356.626	87.56
356.853	85.56
357.08	91.56
357.307	83.56
357.534	100.56
357.761	79.56
357.988	107.56
358.215	91.56
358.441	103.56
358.668	89.56
358.895	89.56
359.122	66.56
359.349	97.56
359.576	78.56
359.802	93.56
360.029	89.56
360.256	109.56
360.483	107.56
360.709	83.56
360.936	94.56
361.163	80.56
361.39	105.56
361.616	95.56
361.843	81.56
362.07	98.56
362.296	93.56
362.523	102.56
362.749	88.56
362.976	95.56
363.203	99.56
363.429	90.56
363.656	81.56
363.882	83.56
364.109	98.56
364.335	108.56
364.562	93.56
364.788	87.56
365.015	96.56
365.241	101.56
365.468	107.56
365.694	99.56
365.92	84.56
366.147	89.56
366.373	96.56
366.599	95.56
366.826	94.56
367.052	72.56
367.278	90.56
367.505	96.56
367.731	88.56
367.957	85.56
368.184	103.56
368.41	99.56
368.636	114.56
368.862	109.56
369.089	109.56
369.315	93.56
369.541	88.56
369.767	77.56
369.993	103.56
370.219	100.56
370.445	76.56
370.672	85.56
370.898	98.56
371.124	98.56
371.35	94.56
371.576	87.56
371.802	88.56
372.028	91.56
372.254	86.56
372.48	98.56
372.706	85.56
372.932	86.56
373.158	89.56
373.384	87.56
373.61	95.56
373.835	82.56
374.061	97.56
374.287	102.56
374.513	88.56
374.739	87.56
374.965	83.56
375.191	99.56
375.416	95.56
375.642	85.56
375.868	85.56
376.094	89.56
376.319	84.56
376.545	67.56
376.771	86.56
376.997	71.56
377.222	96.56
377.448	90.56
377.674	95.56
377.899	89.56
378.125	94.56
378.35	93.56
378.576	80.56
378.802	83.56
379.027	93.56
379.253	96.56
379.478	85.56
379.704	78.56
379.929	88.56
380.155	88.56
380.38	90.56
380.606	90.56
380.831	88.56
381.057	89.56
381.282	79.56
381.507	93.56
381.733	106.56
381.958	74.56
382.184	95.56
382.409	80.56
382.634	89.56
382.86	94.56
383.085	97.56
383.31	93.56
383.535	104.56
383.761	95.56
383.986	90.56
384.211	95.56
384.436	87.56
384.662	106.56
384.887	99.56
385.112	97.56
385.337	96.56
385.562	107.56
385.787	93.56
386.013	102.56
386.238	100.56
386.463	91.56
386.688	114.56
386.913	92.56
387.138	96.56
387.363	90.56
387.588	104.56
387.813	105.56
388.038	104.56
388.263	97.56
388.488	97.56
388.713	94.56
388.938	92.56
389.163	78.56
389.387	95.56
389.612	89.56
389.837	87.56
390.062	96.56
390.287	84.56
390.512	85.56
390.736	71.56
390.961	84.56
391.186	84.56
391.411	97.56
391.636	82.56
391.86	94.56
392.085	83.56
392.31	91.56
392.534	84.56
392.759	96.56
392.984	88.56
393.208	95.56
393.433	90.56
393.658	78.56
393.882	73.56
394.107	96.56
394.331	77.56
394.556	83.56
394.78	85.56
395.005	85.56
395.229	93.56
395.454	76.56
395.678	97.56
395.903	95.56
396.127	96.56
396.352	88.56
396.576	88.56
396.801	83.56
397.025	86.56
397.249	77.56
397.474	85.56
397.698	85.56
397.922	78.56
398.147	85.56
398.371	80.56
398.595	94.56
398.82	76.56
399.044	89.56
399.268	81.56
399.492	92.56
399.717	92.56
399.941	104.56
400.165	97.56
400.389	69.56
400.613	98.56
400.837	85.56
401.062	88.56
401.286	96.56
401.51	101.56
401.734	89.56
401.958	85.56
402.182	99.56
402.406	132.56
402.63	106.56
402.854	95.56
403.078	85.56
403.302	88.56
403.526	108.56
403.75	93.56
403.974	87.56
404.198	80.56
404.422	103.56
404.645	89.56
404.869	84.56
405.093	94.56
405.317	117.56
405.541	104.56
405.765	100.56
405.988	118.56
406.212	161.56
406.436	201.56
406.66	145.56
406.883	83.56
407.107	83.56
407.331	104.56
407.555	89.56
407.778	110.56
408.002	81.56
408.226	94.56
408.449	87.56
408.673	79.56
408.896	102.56
409.12	88.56
409.344	109.56
409.567	84.56
409.791	95.56
410.014	76.56
410.238	86.56
410.461	83.56
410.685	86.56
410.908	92.56
411.132	99.56
411.355	91.56
411.578	103.56
411.802	93.56
412.025	90.56
412.249	99.56
412.472	103.56
412.695	120.56
412.919	94.56
413.142	103.56
413.365	87.56
413.589	99.56
413.812	102.56
414.035	92.56
414.258	83.56
414.482	84.56
414.705	94.56
414.928	83.56
415.151	91.56
415.374	94.56
415.597	88.56
415.821	83.56
416.044	83.56
416.267	86.56
416.49	91.56
416.713	75.56
416.936	89.56
417.159	89.56
417.382	89.56
417.605	78.56
417.828	94.56
418.051	75.56
418.274	80.56
418.497	79.56
418.72	92.56
418.943	84.56
419.166	96.56
419.389	88.56
419.611	78.56
419.834	94.56
420.057	89.56
420.28	85.56
420.503	84.56
420.726	89.56
420.948	82.56
421.171	92.56
421.394	88.56
421.617	88.56
421.839	92.56
422.062	89.56
422.285	94.56
422.507	99.56
422.73	101.56
422.953	94.56
423.175	79.56
423.398	92.56
423.621	71.56
423.843	89.56
424.066	89.56
424.288	88.56
424.511	109.56
424.733	102.56
424.956	120.56
425.178	111.56
425.401	99.56
425.623	90.56
425.846	80.56
426.068	103.56
426.291	84.56
426.513	91.56
426.735	84.56
426.958	95.56
427.18	110.56
427.402	151.56
427.625	179.56
427.847	175.56
428.069	156.56
428.292	114.56
428.514	92.56
428.736	90.56
428.958	105.56
429.181	82.56
429.403	105.56
429.625	72.56
429.847	90.56
430.069	96.56
430.292	96.56
430.514	81.56
430.736	80.56
430.958	63.56
431.18	75.56
431.402	72.56
431.624	97.56
431.846	76.56
432.068	88.56
432.29	90.56
432.512	93.56
432.734	93.56
432.956	94.56
433.178	87.56
433.4	111.56
433.622	87.56
433.844	96.56
434.066	81.56
434.287	86.56
434.509	103.56
434.731	96.56
434.953	89.56
435.175	85.56
435.397	86.56
435.618	89.56
435.84	96.56
436.062	124.56
436.284	132.56
436.505	113.56
436.727	108.56
436.949	99.56
437.17	80.56
437.392	77.56
437.614	82.56
437.835	105.56
438.057	108.56
438.278	109.56
438.5	99.56
438.721	116.56
438.943	113.56
439.165	101.56
439.386	86.56
439.608	85.56
439.829	103.56
440.05	129.56
440.272	151.56
440.493	101.56
440.715	87.56
440.936	80.56
441.158	88.56
441.379	97.56
441.6	86.56
441.822	90.56
442.043	93.56
442.264	116.56
442.486	115.56
442.707	94.56
442.928	105.56
443.149	140.56
443.371	131.56
443.592	109.56
443.813	100.56
444.034	95.56
444.255	95.56
444.476	93.56
444.698	81.56
444.919	87.56
445.14	129.56
445.361	130.56
445.582	109.56
445.803	149.56
446.024	148.56
446.245	129.56
446.466	98.56
446.687	89.56
446.908	91.56
447.129	91.56
447.35	93.56
447.571	87.56
447.792	92.56
448.013	92.56
448.234	101.56
448.455	95.56
448.675	113.56
448.896	110.56
449.117	92.56
449.338	109.56
449.559	124.56
449.779	143.56
450	74.56
450.221	88.56
450.442	93.56
450.662	77.56
450.883	99.56
451.104	120.56
451.324	97.56
451.545	87.56
451.766	89.56
451.986	87.56
452.207	86.56
452.428	110.56
452.648	99.56
452.869	96.56
453.089	97.56
453.31	109.56
453.53	92.56
453.751	84.56
453.971	114.56
454.192	100.56
454.412	91.56
454.633	83.56
454.853	81.56
455.073	82.56
455.294	99.56
455.514	103.56
455.734	87.56
455.955	81.56
456.175	88.56
456.395	89.56
456.616	74.56
456.836	91.56
457.056	90.56
457.276	75.56
457.497	84.56
457.717	80.56
457.937	84.56
458.157	89.56
458.377	86.56
458.598	111.56
458.818	148.56
459.038	148.56
459.258	124.56
459.478	79.56
459.698	93.56
459.918	87.56
460.138	86.56
460.358	79.56
460.578	79.56
460.798	86.56
461.018	87.56
461.238	71.56
461.458	85.56
461.678	86.56
461.898	86.56
462.118	76.56
462.338	81.56
462.558	95.56
462.777	89.56
462.997	86.56
463.217	95.56
463.437	72.56
463.657	98.56
463.876	92.56
464.096	95.56
464.316	85.56
464.536	105.56
464.755	107.56
464.975	108.56
465.195	157.56
465.414	154.56
465.634	88.56
465.854	82.56
466.073	80.56
466.293	92.56
466.512	91.56
466.732	92.56
466.951	82.56
467.171	85.56
467.391	97.56
467.61	108.56
467.829	121.56
468.049	210.56
468.268	301.56
468.488	140.56
468.707	98.56
468.927	81.56
469.146	89.56
469.365	86.56
469.585	96.56
469.804	101.56
470.023	88.56
470.243	91.56
470.462	90.56
470.681	103.56
470.901	79.56
471.12	89.56
471.339	93.56
471.558	100.56
471.777	99.56
471.997	137.56
472.216	399.56
472.435	819.56
472.654	240.56
472.873	116.56
473.092	98.56
473.311	81.56
473.53	89.56
473.749	92.56
473.968	103.56
474.187	120.56
474.406	95.56
474.625	95.56
474.844	88.56
475.063	87.56
475.282	87.56
475.501	84.56
475.72	96.56
475.939	88.56
476.158	96.56
476.377	84.56
476.596	87.56
476.814	95.56
477.033	97.56
477.252	92.56
477.471	74.56
477.69	95.56
477.908	83.56
478.127	81.56
478.346	92.56
478.564	88.56
478.783	109.56
479.002	93.56
479.22	93.56
479.439	103.56
479.658	101.56
479.876	101.56
480.095	97.56
480.313	96.56
480.532	115.56
480.751	159.56
480.969	381.56
481.188	1431.56
481.406	863.56
481.624	172.56
481.843	116.56
482.061	91.56
482.28	92.56
482.498	89.56
482.717	96.56
482.935	86.56
483.153	87.56
483.372	84.56
483.59	86.56
483.808	87.56
484.027	86.56
484.245	75.56
484.463	86.56
484.681	80.56
484.9	92.56
485.118	94.56
485.336	92.56
485.554	79.56
485.772	107.56
485.99	100.56
486.209	89.56
486.427	95.56
486.645	87.56
486.863	98.56
487.081	96.56
487.299	94.56
487.517	100.56
487.735	95.56
487.953	92.56
488.171	87.56
488.389	79.56
488.607	86.56
488.825	68.56
489.043	81.56
489.261	87.56
489.479	88.56
489.696	97.56
489.914	80.56
490.132	104.56
490.35	97.56
490.568	82.56
490.786	85.56
491.003	80.56
491.221	90.56
491.439	94.56
491.657	91.56
491.874	87.56
492.092	76.56
492.31	77.56
492.527	95.56
492.745	89.56
492.963	82.56
493.18	95.56
493.398	92.56
493.615	87.56
493.833	93.56
494.05	90.56
494.268	91.56
494.485	89.56
494.703	78.56
494.92	98.56
495.138	89.56
495.355	86.56
495.573	91.56
495.79	98.56
496.008	89.56
496.225	89.56
496.442	87.56
496.66	94.56
496.877	83.56
497.094	82.56
497.312	90.56
497.529	80.56
497.746	82.56
497.963	96.56
498.181	88.56
498.398	102.56
498.615	110.56
498.832	103.56
499.049	85.56
499.267	88.56
499.484	93.56
499.701	90.56
499.918	91.56
500.135	86.56
500.352	104.56
500.569	89.56
500.786	86.56
501.003	84.56
501.22	87.56
501.437	77.56
501.654	77.56
501.871	114.56
502.088	85.56
502.305	91.56
502.522	83.56
502.739	100.56
502.956	103.56
503.172	83.56
503.389	86.56
503.606	116.56
503.823	102.56
504.04	84.56
504.256	87.56
504.473	85.56
504.69	85.56
504.907	83.56
505.123	85.56
505.34	85.56
505.557	85.56
505.773	82.56
505.99	94.56
506.207	98.56
506.423	86.56
506.64	81.56
506.856	93.56
507.073	93.56
507.289	89.56
507.506	93.56
507.722	107.56
507.939	113.56
508.155	97.56
508.372	86.56
508.588	98.56
508.805	83.56
509.021	107.56
509.238	91.56
509.454	95.56
509.67	101.56
509.887	93.56
510.103	121.56
510.319	195.56
510.536	619.56
510.752	1937.56
510.968	529.56
511.184	142.56
511.401	94.56
511.617	106.56
511.833	98.56
512.049	89.56
512.265	91.56
512.481	75.56
512.698	87.56
512.914	78.56
513.13	94.56
513.346	97.56
513.562	76.56
513.778	95.56
513.994	96.56
514.21	94.56
514.426	128.56
514.642	123.56
514.858	118.56
515.074	143.56
515.29	406.56
515.506	1304.56
515.721	490.56
515.937	151.56
516.153	113.56
516.369	97.56
516.585	100.56
516.801	91.56
517.016	90.56
517.232	82.56
517.448	86.56
517.664	97.56
517.879	98.56
518.095	87.56
518.311	101.56
518.527	102.56
518.742	76.56
518.958	94.56
519.173	100.56
519.389	89.56
519.605	103.56
519.82	95.56
520.036	110.56
520.251	111.56
520.467	117.56
520.682	104.56
520.898	108.56
521.113	103.56
521.329	145.56
521.544	203.56
521.76	525.56
521.975	2171.56
522.19	1304.56
522.406	287.56
522.621	118.56
522.836	101.56
523.052	75.56
523.267	84.56
523.482	104.56
523.698	102.56
523.913	124.56
524.128	110.56
524.343	87.56
524.559	83.56
524.774	102.56
524.989	100.56
525.204	98.56
525.419	94.56
525.634	104.56
525.849	85.56
526.064	105.56
526.28	87.56
526.495	84.56
526.71	82.56
526.925	83.56
527.14	85.56
527.355	87.56
527.57	87.56
527.785	94.56
527.999	70.56
528.214	95.56
528.429	93.56
528.644	90.56
528.859	103.56
529.074	87.56
529.289	124.56
529.503	166.56
529.718	99.56
529.933	86.56
530.148	95.56
530.363	95.56
530.577	102.56
530.792	94.56
531.007	88.56
531.221	94.56
531.436	81.56
531.651	90.56
531.865	87.56
532.08	97.56
532.295	95.56
532.509	100.56
532.724	97.56
532.938	89.56
533.153	89.56
533.367	87.56
533.582	84.56
533.796	96.56
534.011	93.56
534.225	88.56
534.44	92.56
534.654	85.56
534.868	99.56
535.083	83.56
535.297	95.56
535.511	94.56
535.726	91.56
535.94	91.56
536.154	100.56
536.369	102.56
536.583	105.56
536.797	91.56
537.011	94.56
537.225	79.56
537.44	94.56
537.654	99.56
537.868	83.56
538.082	103.56
538.296	84.56
538.51	91.56
538.724	99.56
538.938	94.56
539.153	93.56
539.367	103.56
539.581	97.56
539.795	83.56
540.009	84.56
540.222	92.56
540.436	75.56
540.65	93.56
540.864	70.56
541.078	108.56
541.292	78.56
541.506	88.56
541.72	77.56
541.934	88.56
542.147	94.56
542.361	84.56
542.575	88.56
542.789	95.56
543.002	84.56
543.216	89.56
543.43	95.56
543.644	89.56
543.857	83.56
544.071	100.56
544.285	82.56
544.498	95.56
544.712	80.56
544.925	89.56
545.139	88.56
545.352	80.56
545.566	83.56
545.779	96.56
545.993	71.56
546.206	87.56
546.42	84.56
546.633	88.56
546.847	88.56
547.06	90.56
547.274	89.56
547.487	94.56
547.7	96.56
547.914	78.56
548.127	77.56
548.34	89.56
548.554	73.56
548.767	93.56
548.98	89.56
549.193	80.56
549.407	93.56
549.62	96.56
549.833	95.56
550.046	91.56
550.259	75.56
550.473	76.56
550.686	87.56
550.899	100.56
551.112	91.56
551.325	78.56
551.538	95.56
551.751	99.56
551.964	101.56
552.177	86.56
552.39	81.56
552.603	102.56
552.816	89.56
553.029	90.56
553.242	85.56
553.455	88.56
553.667	99.56
553.88	111.56
554.093	94.56
554.306	93.56
554.519	85.56
554.732	86.56
554.944	96.56
555.157	91.56
555.37	95.56
555.583	71.56
555.795	101.56
556.008	87.56
556.221	94.56
556.433	96.56
556.646	85.56
556.859	75.56
557.071	91.56
557.284	87.56
557.496	104.56
557.709	94.56
557.921	89.56
558.134	96.56
558.346	106.56
558.559	86.56
558.771	90.56
558.984	86.56
559.196	104.56
559.409	92.56
559.621	95.56
559.833	92.56
560.046	91.56
560.258	92.56
560.47	102.56
560.683	89.56
560.895	87.56
561.107	84.56
561.32	93.56
561.532	99.56
561.744	97.56
561.956	92.56
562.168	85.56
562.381	104.56
562.593	89.56
562.805	100.56
563.017	104.56
563.229	87.56
563.441	83.56
563.653	91.56
563.865	75.56
564.077	71.56
564.289	88.56
564.501	81.56
564.713	81.56
564.925	90.56
565.137	114.56
565.349	89.56
565.561	84.56
565.773	97.56
565.985	83.56
566.197	87.56
566.408	86.56
566.62	79.56
566.832	87.56
567.044	85.56
567.255	82.56
567.467	86.56
567.679	85.56
567.891	88.56
568.102	79.56
568.314	88.56
568.526	80.56
568.737	85.56
568.949	89.56
569.161	91.56
569.372	75.56
569.584	81.56
569.795	93.56
570.007	107.56
570.218	211.56
570.43	113.56
570.641	87.56
570.853	93.56
571.064	89.56
571.276	90.56
571.487	87.56
571.698	93.56
571.91	89.56
572.121	75.56
572.333	68.56
572.544	83.56
572.755	81.56
572.966	96.56
573.178	89.56
573.389	89.56
573.6	89.56
573.811	71.56
574.023	93.56
574.234	77.56
574.445	88.56
574.656	88.56
574.867	74.56
575.078	80.56
575.289	96.56
575.501	84.56
575.712	76.56
575.923	86.56
576.134	84.56
576.345	86.56
576.556	84.56
576.767	93.56
576.978	89.56
577.188	70.56
577.399	86.56
577.61	78.56
577.821	80.56
578.032	93.56
578.243	228.56
578.454	605.56
578.665	197.56
578.875	92.56
579.086	92.56
579.297	78.56
579.508	85.56
579.718	73.56
579.929	87.56
580.14	84.56
580.35	89.56
580.561	88.56
580.772	83.56
580.982	68.56
581.193	81.56
581.403	74.56
581.614	95.56
581.825	85.56
582.035	86.56
582.246	81.56
582.456	93.56
582.667	92.56
582.877	83.56
583.087	80.56
583.298	83.56
583.508	91.56
583.719	83.56
583.929	83.56
584.139	87.56
584.35	88.56
584.56	87.56
584.77	80.56
584.981	80.56
585.191	79.56
585.401	90.56
585.611	86.56
585.821	88.56
586.032	90.56
586.242	90.56
586.452	90.56
586.662	72.56
586.872	89.56
587.082	78.56
587.292	80.56
587.502	80.56
587.713	70.56
587.923	94.56
588.133	105.56
588.343	89.56
588.553	81.56
588.762	85.56
588.972	87.56
589.182	111.56
589.392	94.56
589.602	94.56
589.812	108.56
590.022	99.56
590.232	81.56
590.441	75.56
590.651	87.56
590.861	87.56
591.071	86.56
591.281	77.56
591.49	86.56
591.7	94.56
591.91	92.56
592.119	83.56
592.329	89.56
592.539	97.56
592.748	94.56
592.958	83.56
593.167	84.56
593.377	89.56
593.587	91.56
593.796	91.56
594.006	75.56
594.215	77.56
594.424	80.56
594.634	87.56
594.843	83.56
595.053	100.56
595.262	94.56
595.472	97.56
595.681	96.56
595.89	77.56
596.1	95.56
596.309	82.56
596.518	88.56
596.727	94.56
596.937	85.56
597.146	98.56
597.355	88.56
597.564	83.56
597.774	75.56
597.983	82.56
598.192	76.56
598.401	86.56
598.61	88.56
598.819	87.56
599.028	85.56
599.237	78.56
599.446	83.56
599.655	71.56
599.864	83.56
600.073	102.56
600.282	90.56
600.491	99.56
600.7	77.56
600.909	87.56
601.118	88.56
601.327	64.56
601.536	103.56
601.745	81.56
601.953	78.56
602.162	95.56
602.371	92.56
602.58	84.56
602.789	102.56
602.997	81.56
603.206	88.56
603.415	97.56
603.623	104.56
603.832	70.56
604.041	84.56
604.249	99.56
604.458	91.56
604.666	90.56
604.875	86.56
605.084	72.56
605.292	72.56
605.501	76.56
605.709	97.56
605.918	100.56
606.126	95.56
606.334	87.56
606.543	89.56
606.751	75.56
606.96	74.56
607.168	82.56
607.376	96.56
607.585	88.56
607.793	88.56
608.001	98.56
608.21	80.56
608.418	88.56
608.626	87.56
608.834	79.56
609.043	75.56
609.251	81.56
609.459	81.56
609.667	97.56
609.875	78.56
610.083	91.56
610.291	87.56
610.499	81.56
610.707	94.56
610.916	86.56
611.124	93.56
611.332	76.56
611.54	87.56
611.748	82.56
611.955	100.56
612.163	73.56
612.371	81.56
612.579	73.56
612.787	89.56
612.995	94.56
613.203	89.56
613.411	67.56
613.618	72.56
613.826	89.56
614.034	69.56
614.242	87.56
614.449	91.56
614.657	79.56
614.865	67.56
615.072	84.56
615.28	79.56
615.488	95.56
615.695	94.56
615.903	89.56
616.111	96.56
616.318	95.56
616.526	88.56
616.733	81.56
616.941	96.56
617.148	93.56
617.356	101.56
617.563	78.56
617.771	74.56
617.978	93.56
618.185	81.56
618.393	82.56
618.6	92.56
618.807	85.56
619.015	98.56
619.222	91.56
619.429	76.56
619.637	81.56
619.844	88.56
620.051	82.56
620.258	82.56
620.466	81.56
620.673	76.56
620.88	78.56
621.087	87.56
621.294	82.56
621.501	67.56
621.708	73.56
621.915	88.56
622.122	86.56
622.329	88.56
622.536	95.56
622.743	85.56
622.95	78.56
623.157	80.56
623.364	91.56
623.571	82.56
623.778	84.56
623.985	78.56
624.192	85.56
624.399	86.56
624.606	94.56
624.812	79.56
625.019	64.56
625.226	84.56
625.433	97.56
625.639	85.56
625.846	92.56
626.053	87.56
626.259	75.56
626.466	74.56
626.673	81.56
626.879	77.56
627.086	92.56
627.293	87.56
627.499	84.56
627.706	84.56
627.912	88.56
628.119	90.56
628.325	79.56
628.532	77.56
628.738	106.56
628.945	86.56
629.151	95.56
629.357	88.56
629.564	83.56
629.77	74.56
629.976	70.56
630.183	81.56
630.389	67.56
630.595	80.56
630.802	97.56
631.008	82.56
631.214	85.56
631.42	82.56
631.627	86.56
631.833	79.56
632.039	84.56
632.245	82.56
632.451	85.56
632.657	82.56
632.863	100.56
633.069	86.56
633.275	83.56
633.481	65.56
633.688	75.56
633.893	75.56
634.099	84.56
634.305	94.56
634.511	79.56
634.717	77.56
634.923	92.56
635.129	101.56
635.335	79.56
635.541	82.56
635.747	81.56
635.952	95.56
636.158	114.56
636.364	159.56
636.57	148.56
636.775	93.56
636.981	88.56
637.187	76.56
637.392	88.56
637.598	84.56
637.804	89.56
638.009	87.56
638.215	76.56
638.421	93.56
638.626	79.56
638.832	77.56
639.037	84.56
639.243	78.56
639.448	76.56
639.654	78.56
639.859	70.56
640.065	82.56
640.27	89.56
640.475	86.56
640.681	80.56
640.886	89.56
641.091	89.56
641.297	97.56
641.502	92.56
641.707	93.56
641.913	83.56
642.118	84.56
642.323	78.56
642.528	83.56
642.733	90.56
642.939	77.56
643.144	81.56
643.349	80.56
643.554	89.56
643.759	81.56
643.964	64.56
644.169	86.56
644.374	66.56
644.579	79.56
644.784	85.56
644.989	88.56
645.194	87.56
645.399	85.56
645.604	88.56
645.809	79.56
646.014	96.56
646.219	87.56
646.423	71.56
646.628	82.56
646.833	88.56
647.038	75.56
647.243	81.56
647.447	89.56
647.652	81.56
647.857	82.56
648.062	94.56
648.266	87.56
648.471	104.56
648.676	87.56
648.88	89.56
649.085	93.56
649.289	88.56
649.494	95.56
649.698	123.56
649.903	94.56
650.107	93.56
650.312	96.56
650.516	90.56
650.721	88.56
650.925	85.56
651.13	77.56
651.334	72.56
651.539	85.56
651.743	71.56
651.947	84.56
652.152	85.56
652.356	80.56
652.56	61.56
652.764	84.56
652.969	75.56
653.173	93.56
653.377	81.56
653.581	86.56
653.785	83.56
653.99	85.56
654.194	95.56
654.398	87.56
654.602	68.56
654.806	87.56
655.01	107.56
655.214	87.56
655.418	89.56
655.622	89.56
655.826	80.56
656.03	100.56
656.234	112.56
656.438	100.56
656.642	96.56
656.846	86.56
657.049	80.56
657.253	78.56
657.457	77.56
657.661	76.56
657.865	87.56
658.068	91.56
658.272	75.56
658.476	97.56
658.68	78.56
658.883	77.56
659.087	86.56
659.291	85.56
659.494	62.56
659.698	83.56
659.901	77.56
660.105	78.56
660.309	90.56
660.512	86.56
660.716	93.56
660.919	85.56
661.123	95.56
661.326	93.56
661.53	85.56
661.733	76.56
661.936	77.56
662.14	86.56
662.343	83.56
662.546	74.56
662.75	90.56
662.953	72.56
663.156	82.56
663.36	83.56
663.563	81.56
663.766	77.56
663.969	86.56
664.173	87.56
664.376	82.56
664.579	76.56
664.782	71.56
664.985	89.56
665.188	79.56
665.391	78.56
665.594	73.56
665.797	77.56
666	92.56
666.203	77.56
666.406	80.56
666.609	100.56
666.812	86.56
667.015	94.56
667.218	92.56
667.421	72.56
667.624	86.56
667.827	102.56
668.03	83.56
668.232	80.56
668.435	73.56
668.638	85.56
668.841	81.56
669.043	82.56
669.246	80.56
669.449	83.56
669.651	87.56
669.854	81.56
670.057	83.56
670.259	82.56
670.462	80.56
670.665	96.56
670.867	77.56
671.07	84.56
671.272	84.56
671.475	86.56
671.677	77.56
671.88	81.56
672.082	91.56
672.284	65.56
672.487	77.56
672.689	77.56
672.892	82.56
