Data from Circ_2004_H10_HRD10591_00054.txt Node
Date: Wed Jan 03 10:33:25 EST 2024
User: Yrep
Spectrometer: HR+D1059
Trigger mode: 1
Integration Time (sec): 1.000000E-1
Scans to average: 1
Electric dark correction enabled: true
Nonlinearity correction enabled: false
Boxcar width: 0
XAxis mode: Wavelengths
Number of Pixels in Spectrum: 2048
>>>>>Begin Spectral Data<<<<<
223.165	-22.81
223.4	-22.81
223.635	-22.81
223.869	-15.81
224.104	-28.81
224.338	-9.81
224.573	0.19
224.808	-9.81
225.042	-8.81
225.277	-7.81
225.511	-6.81
225.746	1.19
225.98	6.19
226.215	19.19
226.449	25.19
226.683	14.19
226.918	23.19
227.152	21.19
227.387	32.19
227.621	41.19
227.856	49.19
228.09	29.19
228.324	35.19
228.559	47.19
228.793	49.19
229.027	61.19
229.262	73.19
229.496	60.19
229.73	87.19
229.964	84.19
230.199	72.19
230.433	65.19
230.667	82.19
230.901	84.19
231.136	85.19
231.37	90.19
231.604	76.19
231.838	77.19
232.072	87.19
232.306	72.19
232.541	85.19
232.775	87.19
233.009	86.19
233.243	80.19
233.477	77.19
233.711	71.19
233.945	78.19
234.179	80.19
234.413	85.19
234.647	82.19
234.881	68.19
235.115	73.19
235.349	74.19
235.583	74.19
235.817	78.19
236.051	80.19
236.285	78.19
236.519	77.19
236.753	78.19
236.987	86.19
237.221	75.19
237.455	90.19
237.689	69.19
237.922	80.19
238.156	78.19
238.39	70.19
238.624	94.19
238.858	67.19
239.091	67.19
239.325	84.19
239.559	66.19
239.793	76.19
240.027	75.19
240.26	69.19
240.494	79.19
240.728	89.19
240.961	84.19
241.195	63.19
241.429	75.19
241.662	69.19
241.896	71.19
242.13	86.19
242.363	65.19
242.597	89.19
242.83	79.19
243.064	75.19
243.298	69.19
243.531	77.19
243.765	79.19
243.998	77.19
244.232	78.19
244.465	82.19
244.699	79.19
244.932	84.19
245.166	76.19
245.399	80.19
245.633	68.19
245.866	74.19
246.099	81.19
246.333	79.19
246.566	66.19
246.8	77.19
247.033	65.19
247.266	76.19
247.5	90.19
247.733	93.19
247.966	75.19
248.2	79.19
248.433	92.19
248.666	87.19
248.899	86.19
249.133	85.19
249.366	84.19
249.599	87.19
249.832	81.19
250.066	96.19
250.299	81.19
250.532	94.19
250.765	86.19
250.998	71.19
251.231	84.19
251.465	95.19
251.698	97.19
251.931	88.19
252.164	89.19
252.397	81.19
252.63	68.19
252.863	85.19
253.096	74.19
253.329	77.19
253.562	80.19
253.795	67.19
254.028	88.19
254.261	81.19
254.494	83.19
254.727	77.19
254.96	93.19
255.193	94.19
255.426	81.19
255.659	65.19
255.892	88.19
256.124	102.19
256.357	89.19
256.59	82.19
256.823	81.19
257.056	75.19
257.289	71.19
257.521	85.19
257.754	93.19
257.987	81.19
258.22	79.19
258.452	94.19
258.685	89.19
258.918	94.19
259.151	84.19
259.383	70.19
259.616	81.19
259.849	71.19
260.081	77.19
260.314	80.19
260.547	90.19
260.779	93.19
261.012	82.19
261.244	80.19
261.477	87.19
261.71	89.19
261.942	102.19
262.175	123.19
262.407	86.19
262.64	69.19
262.872	86.19
263.105	82.19
263.337	86.19
263.57	93.19
263.802	73.19
264.035	89.19
264.267	66.19
264.499	95.19
264.732	83.19
264.964	80.19
265.197	81.19
265.429	74.19
265.661	73.19
265.894	88.19
266.126	88.19
266.358	79.19
266.591	76.19
266.823	82.19
267.055	86.19
267.287	95.19
267.52	71.19
267.752	91.19
267.984	93.19
268.216	71.19
268.448	77.19
268.681	89.19
268.913	79.19
269.145	69.19
269.377	91.19
269.609	85.19
269.841	84.19
270.073	81.19
270.306	91.19
270.538	82.19
270.77	86.19
271.002	88.19
271.234	71.19
271.466	85.19
271.698	75.19
271.93	87.19
272.162	86.19
272.394	80.19
272.626	75.19
272.858	73.19
273.09	85.19
273.322	88.19
273.553	78.19
273.785	76.19
274.017	80.19
274.249	74.19
274.481	81.19
274.713	74.19
274.945	88.19
275.176	83.19
275.408	81.19
275.64	95.19
275.872	101.19
276.104	88.19
276.335	100.19
276.567	99.19
276.799	111.19
277.031	123.19
277.262	113.19
277.494	105.19
277.726	74.19
277.957	72.19
278.189	81.19
278.421	79.19
278.652	78.19
278.884	79.19
279.115	84.19
279.347	85.19
279.579	90.19
279.81	107.19
280.042	108.19
280.273	117.19
280.505	112.19
280.736	94.19
280.968	87.19
281.199	89.19
281.431	91.19
281.662	92.19
281.894	90.19
282.125	86.19
282.356	115.19
282.588	147.19
282.819	123.19
283.051	85.19
283.282	86.19
283.513	92.19
283.745	89.19
283.976	86.19
284.207	84.19
284.439	73.19
284.67	72.19
284.901	85.19
285.132	72.19
285.364	64.19
285.595	96.19
285.826	82.19
286.057	74.19
286.288	88.19
286.52	82.19
286.751	92.19
286.982	93.19
287.213	83.19
287.444	100.19
287.675	93.19
287.906	88.19
288.138	105.19
288.369	80.19
288.6	99.19
288.831	88.19
289.062	89.19
289.293	85.19
289.524	81.19
289.755	70.19
289.986	100.19
290.217	88.19
290.448	86.19
290.679	83.19
290.91	86.19
291.141	87.19
291.371	85.19
291.602	83.19
291.833	89.19
292.064	84.19
292.295	97.19
292.526	82.19
292.757	87.19
292.987	94.19
293.218	79.19
293.449	85.19
293.68	85.19
293.91	84.19
294.141	84.19
294.372	96.19
294.603	97.19
294.833	85.19
295.064	83.19
295.295	94.19
295.525	80.19
295.756	107.19
295.987	133.19
296.217	135.19
296.448	125.19
296.679	98.19
296.909	107.19
297.14	80.19
297.37	76.19
297.601	79.19
297.831	75.19
298.062	90.19
298.292	74.19
298.523	101.19
298.753	91.19
298.984	88.19
299.214	86.19
299.445	96.19
299.675	93.19
299.905	82.19
300.136	87.19
300.366	85.19
300.597	69.19
300.827	93.19
301.057	99.19
301.288	113.19
301.518	90.19
301.748	81.19
301.979	102.19
302.209	99.19
302.439	86.19
302.669	90.19
302.9	86.19
303.13	86.19
303.36	95.19
303.59	103.19
303.82	111.19
304.051	98.19
304.281	97.19
304.511	88.19
304.741	85.19
304.971	101.19
305.201	89.19
305.431	91.19
305.661	84.19
305.891	81.19
306.121	99.19
306.352	99.19
306.582	97.19
306.812	94.19
307.042	115.19
307.272	113.19
307.502	114.19
307.731	103.19
307.961	113.19
308.191	92.19
308.421	91.19
308.651	82.19
308.881	101.19
309.111	91.19
309.341	98.19
309.571	90.19
309.8	87.19
310.03	111.19
310.26	103.19
310.49	78.19
310.72	88.19
310.949	92.19
311.179	91.19
311.409	88.19
311.639	97.19
311.868	93.19
312.098	94.19
312.328	86.19
312.557	106.19
312.787	102.19
313.017	107.19
313.246	95.19
313.476	102.19
313.706	75.19
313.935	83.19
314.165	96.19
314.394	93.19
314.624	80.19
314.853	86.19
315.083	81.19
315.312	103.19
315.542	90.19
315.771	86.19
316.001	76.19
316.23	85.19
316.46	81.19
316.689	91.19
316.919	103.19
317.148	97.19
317.377	90.19
317.607	82.19
317.836	83.19
318.065	87.19
318.295	86.19
318.524	94.19
318.753	93.19
318.983	87.19
319.212	112.19
319.441	105.19
319.67	112.19
319.9	95.19
320.129	85.19
320.358	85.19
320.587	95.19
320.816	98.19
321.046	96.19
321.275	102.19
321.504	89.19
321.733	79.19
321.962	112.19
322.191	104.19
322.42	111.19
322.649	100.19
322.878	105.19
323.108	123.19
323.337	119.19
323.566	135.19
323.795	151.19
324.024	223.19
324.253	433.19
324.482	927.19
324.71	1880.19
324.939	2497.19
325.168	897.19
325.397	271.19
325.626	145.19
325.855	153.19
326.084	124.19
326.313	124.19
326.542	172.19
326.77	238.19
326.999	517.19
327.228	1051.19
327.457	1923.19
327.686	1481.19
327.914	442.19
328.143	315.19
328.372	310.19
328.6	193.19
328.829	132.19
329.058	138.19
329.287	143.19
329.515	142.19
329.744	157.19
329.972	238.19
330.201	425.19
330.43	600.19
330.658	295.19
330.887	181.19
331.115	146.19
331.344	113.19
331.572	91.19
331.801	115.19
332.03	92.19
332.258	102.19
332.486	91.19
332.715	105.19
332.943	106.19
333.172	95.19
333.4	111.19
333.629	113.19
333.857	151.19
334.085	233.19
334.314	405.19
334.542	725.19
334.771	686.19
334.999	214.19
335.227	123.19
335.455	101.19
335.684	93.19
335.912	95.19
336.14	93.19
336.369	108.19
336.597	104.19
336.825	108.19
337.053	95.19
337.281	96.19
337.51	103.19
337.738	91.19
337.966	96.19
338.194	109.19
338.422	97.19
338.65	97.19
338.878	93.19
339.106	84.19
339.334	96.19
339.562	99.19
339.79	76.19
340.018	84.19
340.246	91.19
340.474	89.19
340.702	91.19
340.93	85.19
341.158	91.19
341.386	94.19
341.614	93.19
341.842	89.19
342.07	96.19
342.298	83.19
342.526	86.19
342.754	82.19
342.981	91.19
343.209	92.19
343.437	93.19
343.665	90.19
343.893	88.19
344.12	85.19
344.348	84.19
344.576	88.19
344.804	89.19
345.031	95.19
345.259	92.19
345.487	82.19
345.714	92.19
345.942	86.19
346.17	84.19
346.397	94.19
346.625	93.19
346.853	99.19
347.08	78.19
347.308	102.19
347.535	93.19
347.763	86.19
347.99	107.19
348.218	92.19
348.445	74.19
348.673	84.19
348.9	89.19
349.128	98.19
349.355	98.19
349.583	103.19
349.81	81.19
350.037	90.19
350.265	93.19
350.492	102.19
350.72	104.19
350.947	91.19
351.174	126.19
351.402	99.19
351.629	81.19
351.856	91.19
352.083	97.19
352.311	97.19
352.538	96.19
352.765	103.19
352.992	115.19
353.22	107.19
353.447	93.19
353.674	94.19
353.901	95.19
354.128	94.19
354.355	94.19
354.583	103.19
354.81	107.19
355.037	97.19
355.264	92.19
355.491	83.19
355.718	79.19
355.945	87.19
356.172	87.19
356.399	92.19
356.626	85.19
356.853	87.19
357.08	93.19
357.307	76.19
357.534	88.19
357.761	85.19
357.988	84.19
358.215	92.19
358.441	90.19
358.668	94.19
358.895	82.19
359.122	82.19
359.349	86.19
359.576	94.19
359.802	98.19
360.029	112.19
360.256	110.19
360.483	102.19
360.709	76.19
360.936	93.19
361.163	87.19
361.39	93.19
361.616	79.19
361.843	101.19
362.07	99.19
362.296	93.19
362.523	87.19
362.749	84.19
362.976	88.19
363.203	92.19
363.429	90.19
363.656	86.19
363.882	82.19
364.109	78.19
364.335	88.19
364.562	80.19
364.788	73.19
365.015	86.19
365.241	79.19
365.468	97.19
365.694	101.19
365.92	89.19
366.147	76.19
366.373	82.19
366.599	84.19
366.826	88.19
367.052	78.19
367.278	99.19
367.505	88.19
367.731	82.19
367.957	93.19
368.184	95.19
368.41	107.19
368.636	110.19
368.862	116.19
369.089	83.19
369.315	94.19
369.541	94.19
369.767	81.19
369.993	87.19
370.219	100.19
370.445	69.19
370.672	88.19
370.898	97.19
371.124	85.19
371.35	72.19
371.576	69.19
371.802	76.19
372.028	77.19
372.254	94.19
372.48	86.19
372.706	82.19
372.932	83.19
373.158	68.19
373.384	85.19
373.61	97.19
373.835	73.19
374.061	79.19
374.287	88.19
374.513	94.19
374.739	91.19
374.965	76.19
375.191	82.19
375.416	90.19
375.642	78.19
375.868	90.19
376.094	86.19
376.319	90.19
376.545	91.19
376.771	77.19
376.997	83.19
377.222	83.19
377.448	89.19
377.674	87.19
377.899	94.19
378.125	96.19
378.35	100.19
378.576	90.19
378.802	99.19
379.027	82.19
379.253	76.19
379.478	103.19
379.704	99.19
379.929	90.19
380.155	95.19
380.38	90.19
380.606	91.19
380.831	87.19
381.057	98.19
381.282	93.19
381.507	84.19
381.733	90.19
381.958	94.19
382.184	85.19
382.409	107.19
382.634	103.19
382.86	90.19
383.085	96.19
383.31	94.19
383.535	92.19
383.761	94.19
383.986	105.19
384.211	91.19
384.436	85.19
384.662	97.19
384.887	91.19
385.112	104.19
385.337	92.19
385.562	96.19
385.787	90.19
386.013	114.19
386.238	113.19
386.463	106.19
386.688	99.19
386.913	93.19
387.138	93.19
387.363	110.19
387.588	105.19
387.813	94.19
388.038	87.19
388.263	100.19
388.488	96.19
388.713	85.19
388.938	80.19
389.163	86.19
389.387	93.19
389.612	92.19
389.837	79.19
390.062	74.19
390.287	93.19
390.512	80.19
390.736	77.19
390.961	82.19
391.186	92.19
391.411	87.19
391.636	104.19
391.86	75.19
392.085	62.19
392.31	87.19
392.534	81.19
392.759	86.19
392.984	85.19
393.208	88.19
393.433	86.19
393.658	97.19
393.882	86.19
394.107	86.19
394.331	93.19
394.556	77.19
394.78	89.19
395.005	91.19
395.229	90.19
395.454	88.19
395.678	82.19
395.903	85.19
396.127	93.19
396.352	90.19
396.576	77.19
396.801	82.19
397.025	83.19
397.249	77.19
397.474	94.19
397.698	86.19
397.922	88.19
398.147	77.19
398.371	86.19
398.595	78.19
398.82	87.19
399.044	85.19
399.268	77.19
399.492	100.19
399.717	74.19
399.941	87.19
400.165	87.19
400.389	85.19
400.613	86.19
400.837	82.19
401.062	91.19
401.286	83.19
401.51	88.19
401.734	99.19
401.958	102.19
402.182	119.19
402.406	162.19
402.63	102.19
402.854	92.19
403.078	94.19
403.302	94.19
403.526	72.19
403.75	75.19
403.974	85.19
404.198	70.19
404.422	78.19
404.645	91.19
404.869	93.19
405.093	103.19
405.317	120.19
405.541	113.19
405.765	89.19
405.988	131.19
406.212	176.19
406.436	228.19
406.66	165.19
406.883	102.19
407.107	91.19
407.331	85.19
407.555	96.19
407.778	81.19
408.002	79.19
408.226	92.19
408.449	97.19
408.673	70.19
408.896	96.19
409.12	84.19
409.344	84.19
409.567	81.19
409.791	78.19
410.014	94.19
410.238	83.19
410.461	93.19
410.685	86.19
410.908	89.19
411.132	104.19
411.355	95.19
411.578	92.19
411.802	75.19
412.025	88.19
412.249	91.19
412.472	100.19
412.695	121.19
412.919	104.19
413.142	82.19
413.365	107.19
413.589	86.19
413.812	81.19
414.035	83.19
414.258	82.19
414.482	92.19
414.705	81.19
414.928	87.19
415.151	82.19
415.374	90.19
415.597	100.19
415.821	78.19
416.044	93.19
416.267	94.19
416.49	87.19
416.713	81.19
416.936	91.19
417.159	79.19
417.382	92.19
417.605	114.19
417.828	92.19
418.051	89.19
418.274	83.19
418.497	94.19
418.72	86.19
418.943	88.19
419.166	92.19
419.389	81.19
419.611	77.19
419.834	86.19
420.057	95.19
420.28	80.19
420.503	88.19
420.726	88.19
420.948	99.19
421.171	92.19
421.394	80.19
421.617	75.19
421.839	85.19
422.062	93.19
422.285	92.19
422.507	80.19
422.73	93.19
422.953	90.19
423.175	85.19
423.398	83.19
423.621	79.19
423.843	88.19
424.066	78.19
424.288	82.19
424.511	85.19
424.733	104.19
424.956	101.19
425.178	88.19
425.401	98.19
425.623	85.19
425.846	76.19
426.068	82.19
426.291	103.19
426.513	90.19
426.735	83.19
426.958	96.19
427.18	109.19
427.402	134.19
427.625	191.19
427.847	173.19
428.069	167.19
428.292	98.19
428.514	81.19
428.736	79.19
428.958	87.19
429.181	83.19
429.403	71.19
429.625	85.19
429.847	80.19
430.069	94.19
430.292	85.19
430.514	91.19
430.736	67.19
430.958	93.19
431.18	78.19
431.402	86.19
431.624	79.19
431.846	94.19
432.068	86.19
432.29	97.19
432.512	76.19
432.734	85.19
432.956	102.19
433.178	103.19
433.4	102.19
433.622	96.19
433.844	74.19
434.066	97.19
434.287	84.19
434.509	88.19
434.731	87.19
434.953	82.19
435.175	90.19
435.397	84.19
435.618	108.19
435.84	94.19
436.062	127.19
436.284	103.19
436.505	112.19
436.727	113.19
436.949	93.19
437.17	75.19
437.392	87.19
437.614	89.19
437.835	101.19
438.057	108.19
438.278	118.19
438.5	105.19
438.721	123.19
438.943	91.19
439.165	89.19
439.386	76.19
439.608	86.19
439.829	113.19
440.05	121.19
440.272	139.19
440.493	101.19
440.715	89.19
440.936	79.19
441.158	82.19
441.379	91.19
441.6	88.19
441.822	96.19
442.043	84.19
442.264	99.19
442.486	103.19
442.707	101.19
442.928	105.19
443.149	139.19
443.371	131.19
443.592	108.19
443.813	105.19
444.034	120.19
444.255	81.19
444.476	68.19
444.698	89.19
444.919	83.19
445.14	131.19
445.361	113.19
445.582	115.19
445.803	137.19
446.024	129.19
446.245	133.19
446.466	109.19
446.687	80.19
446.908	85.19
447.129	86.19
447.35	99.19
447.571	84.19
447.792	102.19
448.013	92.19
448.234	99.19
448.455	86.19
448.675	111.19
448.896	131.19
449.117	85.19
449.338	102.19
449.559	143.19
449.779	133.19
450	95.19
450.221	90.19
450.442	92.19
450.662	104.19
450.883	97.19
451.104	95.19
451.324	81.19
451.545	86.19
451.766	74.19
451.986	69.19
452.207	67.19
452.428	75.19
452.648	83.19
452.869	95.19
453.089	112.19
453.31	129.19
453.53	96.19
453.751	93.19
453.971	91.19
454.192	94.19
454.412	76.19
454.633	96.19
454.853	78.19
455.073	85.19
455.294	84.19
455.514	102.19
455.734	93.19
455.955	77.19
456.175	89.19
456.395	70.19
456.616	73.19
456.836	97.19
457.056	83.19
457.276	78.19
457.497	77.19
457.717	81.19
457.937	84.19
458.157	81.19
458.377	85.19
458.598	109.19
458.818	158.19
459.038	183.19
459.258	115.19
459.478	107.19
459.698	80.19
459.918	74.19
460.138	83.19
460.358	83.19
460.578	98.19
460.798	83.19
461.018	100.19
461.238	63.19
461.458	76.19
461.678	81.19
461.898	78.19
462.118	74.19
462.338	72.19
462.558	75.19
462.777	82.19
462.997	102.19
463.217	75.19
463.437	78.19
463.657	99.19
463.876	80.19
464.096	87.19
464.316	86.19
464.536	85.19
464.755	85.19
464.975	117.19
465.195	151.19
465.414	172.19
465.634	93.19
465.854	94.19
466.073	76.19
466.293	91.19
466.512	84.19
466.732	86.19
466.951	77.19
467.171	92.19
467.391	97.19
467.61	123.19
467.829	138.19
468.049	261.19
468.268	353.19
468.488	129.19
468.707	66.19
468.927	82.19
469.146	90.19
469.365	89.19
469.585	84.19
469.804	109.19
470.023	93.19
470.243	100.19
470.462	99.19
470.681	119.19
470.901	99.19
471.12	91.19
471.339	81.19
471.558	82.19
471.777	107.19
471.997	167.19
472.216	483.19
472.435	982.19
472.654	265.19
472.873	118.19
473.092	95.19
473.311	91.19
473.53	81.19
473.749	96.19
473.968	87.19
474.187	108.19
474.406	98.19
474.625	75.19
474.844	82.19
475.063	69.19
475.282	69.19
475.501	84.19
475.72	95.19
475.939	82.19
476.158	93.19
476.377	70.19
476.596	78.19
476.814	95.19
477.033	102.19
477.252	84.19
477.471	69.19
477.69	87.19
477.908	86.19
478.127	98.19
478.346	82.19
478.564	89.19
478.783	98.19
479.002	112.19
479.22	96.19
479.439	111.19
479.658	105.19
479.876	100.19
480.095	99.19
480.313	105.19
480.532	113.19
480.751	166.19
480.969	441.19
481.188	1731.19
481.406	1038.19
481.624	200.19
481.843	108.19
482.061	101.19
482.28	95.19
482.498	78.19
482.717	84.19
482.935	99.19
483.153	79.19
483.372	75.19
483.59	95.19
483.808	100.19
484.027	87.19
484.245	102.19
484.463	97.19
484.681	98.19
484.9	80.19
485.118	84.19
485.336	82.19
485.554	92.19
485.772	99.19
485.99	87.19
486.209	90.19
486.427	101.19
486.645	99.19
486.863	116.19
487.081	103.19
487.299	86.19
487.517	77.19
487.735	94.19
487.953	90.19
488.171	85.19
488.389	90.19
488.607	81.19
488.825	94.19
489.043	85.19
489.261	88.19
489.479	89.19
489.696	80.19
489.914	87.19
490.132	91.19
490.35	69.19
490.568	83.19
490.786	93.19
491.003	90.19
491.221	84.19
491.439	81.19
491.657	93.19
491.874	86.19
492.092	82.19
492.31	86.19
492.527	85.19
492.745	89.19
492.963	92.19
493.18	85.19
493.398	92.19
493.615	89.19
493.833	87.19
494.05	78.19
494.268	82.19
494.485	76.19
494.703	84.19
494.92	73.19
495.138	90.19
495.355	79.19
495.573	94.19
495.79	83.19
496.008	86.19
496.225	85.19
496.442	84.19
496.66	84.19
496.877	76.19
497.094	99.19
497.312	98.19
497.529	79.19
497.746	82.19
497.963	85.19
498.181	85.19
498.398	89.19
498.615	101.19
498.832	102.19
499.049	89.19
499.267	78.19
499.484	83.19
499.701	84.19
499.918	75.19
500.135	84.19
500.352	93.19
500.569	90.19
500.786	85.19
501.003	89.19
501.22	91.19
501.437	79.19
501.654	83.19
501.871	117.19
502.088	91.19
502.305	88.19
502.522	77.19
502.739	98.19
502.956	87.19
503.172	93.19
503.389	87.19
503.606	96.19
503.823	85.19
504.04	99.19
504.256	106.19
504.473	83.19
504.69	90.19
504.907	99.19
505.123	99.19
505.34	101.19
505.557	87.19
505.773	88.19
505.99	85.19
506.207	76.19
506.423	94.19
506.64	99.19
506.856	69.19
507.073	80.19
507.289	78.19
507.506	76.19
507.722	101.19
507.939	101.19
508.155	79.19
508.372	79.19
508.588	89.19
508.805	103.19
509.021	94.19
509.238	91.19
509.454	92.19
509.67	105.19
509.887	85.19
510.103	139.19
510.319	198.19
510.536	754.19
510.752	2369.19
510.968	651.19
511.184	149.19
511.401	107.19
511.617	96.19
511.833	103.19
512.049	87.19
512.265	100.19
512.481	80.19
512.698	92.19
512.914	95.19
513.13	99.19
513.346	100.19
513.562	97.19
513.778	100.19
513.994	88.19
514.21	104.19
514.426	123.19
514.642	144.19
514.858	120.19
515.074	173.19
515.29	498.19
515.506	1674.19
515.721	608.19
515.937	161.19
516.153	117.19
516.369	102.19
516.585	101.19
516.801	97.19
517.016	103.19
517.232	90.19
517.448	97.19
517.664	95.19
517.879	109.19
518.095	93.19
518.311	93.19
518.527	103.19
518.742	87.19
518.958	95.19
519.173	87.19
519.389	87.19
519.605	88.19
519.82	100.19
520.036	78.19
520.251	125.19
520.467	110.19
520.682	104.19
520.898	111.19
521.113	117.19
521.329	139.19
521.544	225.19
521.76	622.19
521.975	2765.19
522.19	1645.19
522.406	339.19
522.621	139.19
522.836	114.19
523.052	90.19
523.267	93.19
523.482	87.19
523.698	91.19
523.913	118.19
524.128	105.19
524.343	84.19
524.559	91.19
524.774	88.19
524.989	95.19
525.204	106.19
525.419	96.19
525.634	92.19
525.849	92.19
526.064	92.19
526.28	95.19
526.495	95.19
526.71	84.19
526.925	88.19
527.14	67.19
527.355	79.19
527.57	94.19
527.785	83.19
527.999	102.19
528.214	98.19
528.429	92.19
528.644	106.19
528.859	83.19
529.074	109.19
529.289	117.19
529.503	189.19
529.718	93.19
529.933	85.19
530.148	82.19
530.363	93.19
530.577	88.19
530.792	93.19
531.007	96.19
531.221	86.19
531.436	89.19
531.651	77.19
531.865	96.19
532.08	102.19
532.295	98.19
532.509	102.19
532.724	83.19
532.938	100.19
533.153	81.19
533.367	91.19
533.582	83.19
533.796	96.19
534.011	95.19
534.225	112.19
534.44	105.19
534.654	90.19
534.868	88.19
535.083	67.19
535.297	94.19
535.511	95.19
535.726	95.19
535.94	90.19
536.154	91.19
536.369	80.19
536.583	87.19
536.797	94.19
537.011	87.19
537.225	91.19
537.44	91.19
537.654	92.19
537.868	82.19
538.082	81.19
538.296	85.19
538.51	81.19
538.724	75.19
538.938	83.19
539.153	98.19
539.367	110.19
539.581	89.19
539.795	94.19
540.009	78.19
540.222	75.19
540.436	85.19
540.65	95.19
540.864	83.19
541.078	110.19
541.292	87.19
541.506	82.19
541.72	98.19
541.934	92.19
542.147	87.19
542.361	90.19
542.575	86.19
542.789	80.19
543.002	79.19
543.216	93.19
543.43	87.19
543.644	93.19
543.857	94.19
544.071	92.19
544.285	97.19
544.498	101.19
544.712	86.19
544.925	89.19
545.139	94.19
545.352	99.19
545.566	98.19
545.779	81.19
545.993	76.19
546.206	77.19
546.42	94.19
546.633	92.19
546.847	97.19
547.06	84.19
547.274	103.19
547.487	90.19
547.7	74.19
547.914	90.19
548.127	79.19
548.34	79.19
548.554	84.19
548.767	91.19
548.98	84.19
549.193	89.19
549.407	82.19
549.62	84.19
549.833	88.19
550.046	93.19
550.259	78.19
550.473	80.19
550.686	89.19
550.899	86.19
551.112	81.19
551.325	102.19
551.538	87.19
551.751	67.19
551.964	90.19
552.177	107.19
552.39	87.19
552.603	94.19
552.816	91.19
553.029	91.19
553.242	87.19
553.455	100.19
553.667	109.19
553.88	97.19
554.093	91.19
554.306	91.19
554.519	92.19
554.732	84.19
554.944	81.19
555.157	91.19
555.37	82.19
555.583	93.19
555.795	94.19
556.008	85.19
556.221	76.19
556.433	82.19
556.646	88.19
556.859	83.19
557.071	84.19
557.284	84.19
557.496	82.19
557.709	96.19
557.921	87.19
558.134	96.19
558.346	89.19
558.559	86.19
558.771	76.19
558.984	97.19
559.196	102.19
559.409	96.19
559.621	87.19
559.833	100.19
560.046	85.19
560.258	96.19
560.47	102.19
560.683	93.19
560.895	94.19
561.107	97.19
561.32	95.19
561.532	91.19
561.744	82.19
561.956	86.19
562.168	89.19
562.381	78.19
562.593	79.19
562.805	81.19
563.017	77.19
563.229	87.19
563.441	91.19
563.653	70.19
563.865	91.19
564.077	90.19
564.289	85.19
564.501	91.19
564.713	82.19
564.925	79.19
565.137	114.19
565.349	84.19
565.561	91.19
565.773	92.19
565.985	99.19
566.197	83.19
566.408	86.19
566.62	86.19
566.832	80.19
567.044	73.19
567.255	74.19
567.467	76.19
567.679	83.19
567.891	88.19
568.102	88.19
568.314	84.19
568.526	78.19
568.737	98.19
568.949	105.19
569.161	97.19
569.372	95.19
569.584	83.19
569.795	93.19
570.007	103.19
570.218	220.19
570.43	125.19
570.641	91.19
570.853	85.19
571.064	77.19
571.276	95.19
571.487	89.19
571.698	73.19
571.91	81.19
572.121	82.19
572.333	86.19
572.544	98.19
572.755	89.19
572.966	91.19
573.178	89.19
573.389	87.19
573.6	105.19
573.811	85.19
574.023	85.19
574.234	87.19
574.445	77.19
574.656	75.19
574.867	90.19
575.078	86.19
575.289	97.19
575.501	93.19
575.712	94.19
575.923	90.19
576.134	93.19
576.345	87.19
576.556	76.19
576.767	85.19
576.978	95.19
577.188	104.19
577.399	83.19
577.61	97.19
577.821	96.19
578.032	114.19
578.243	263.19
578.454	735.19
578.665	206.19
578.875	106.19
579.086	79.19
579.297	82.19
579.508	91.19
579.718	85.19
579.929	74.19
580.14	78.19
580.35	95.19
580.561	73.19
580.772	84.19
580.982	94.19
581.193	91.19
581.403	80.19
581.614	82.19
581.825	89.19
582.035	76.19
582.246	94.19
582.456	87.19
582.667	77.19
582.877	75.19
583.087	77.19
583.298	87.19
583.508	98.19
583.719	80.19
583.929	89.19
584.139	77.19
584.35	75.19
584.56	93.19
584.77	89.19
584.981	95.19
585.191	97.19
585.401	91.19
585.611	79.19
585.821	98.19
586.032	94.19
586.242	99.19
586.452	77.19
586.662	86.19
586.872	96.19
587.082	91.19
587.292	91.19
587.502	89.19
587.713	77.19
587.923	96.19
588.133	96.19
588.343	75.19
588.553	67.19
588.762	83.19
588.972	106.19
589.182	122.19
589.392	113.19
589.602	97.19
589.812	116.19
590.022	85.19
590.232	79.19
590.441	93.19
590.651	87.19
590.861	74.19
591.071	74.19
591.281	84.19
591.49	69.19
591.7	84.19
591.91	85.19
592.119	82.19
592.329	97.19
592.539	100.19
592.748	74.19
592.958	85.19
593.167	83.19
593.377	89.19
593.587	96.19
593.796	75.19
594.006	66.19
594.215	81.19
594.424	93.19
594.634	70.19
594.843	73.19
595.053	86.19
595.262	85.19
595.472	85.19
595.681	79.19
595.89	93.19
596.1	80.19
596.309	71.19
596.518	86.19
596.727	80.19
596.937	103.19
597.146	89.19
597.355	75.19
597.564	91.19
597.774	85.19
597.983	84.19
598.192	92.19
598.401	81.19
598.61	87.19
598.819	87.19
599.028	84.19
599.237	89.19
599.446	84.19
599.655	81.19
599.864	94.19
600.073	80.19
600.282	79.19
600.491	91.19
600.7	86.19
600.909	89.19
601.118	87.19
601.327	88.19
601.536	78.19
601.745	87.19
601.953	87.19
602.162	88.19
602.371	94.19
602.58	83.19
602.789	92.19
602.997	88.19
603.206	86.19
603.415	71.19
603.623	84.19
603.832	77.19
604.041	87.19
604.249	92.19
604.458	77.19
604.666	73.19
604.875	71.19
605.084	74.19
605.292	72.19
605.501	92.19
605.709	87.19
605.918	76.19
606.126	78.19
606.334	83.19
606.543	86.19
606.751	79.19
606.96	82.19
607.168	71.19
607.376	82.19
607.585	85.19
607.793	83.19
608.001	95.19
608.21	84.19
608.418	81.19
608.626	82.19
608.834	87.19
609.043	81.19
609.251	77.19
609.459	78.19
609.667	101.19
609.875	93.19
610.083	78.19
610.291	85.19
610.499	86.19
610.707	81.19
610.916	91.19
611.124	76.19
611.332	81.19
611.54	85.19
611.748	92.19
611.955	96.19
612.163	86.19
612.371	97.19
612.579	87.19
612.787	92.19
612.995	94.19
613.203	83.19
613.411	77.19
613.618	73.19
613.826	92.19
614.034	80.19
614.242	80.19
614.449	78.19
614.657	84.19
614.865	81.19
615.072	85.19
615.28	83.19
615.488	79.19
615.695	84.19
615.903	86.19
616.111	98.19
616.318	98.19
616.526	111.19
616.733	91.19
616.941	82.19
617.148	95.19
617.356	84.19
617.563	79.19
617.771	84.19
617.978	94.19
618.185	86.19
618.393	86.19
618.6	84.19
618.807	70.19
619.015	87.19
619.222	77.19
619.429	81.19
619.637	87.19
619.844	84.19
620.051	74.19
620.258	75.19
620.466	89.19
620.673	85.19
620.88	95.19
621.087	89.19
621.294	77.19
621.501	79.19
621.708	84.19
621.915	69.19
622.122	68.19
622.329	75.19
622.536	88.19
622.743	70.19
622.95	78.19
623.157	85.19
623.364	85.19
623.571	84.19
623.778	79.19
623.985	97.19
624.192	81.19
624.399	81.19
624.606	80.19
624.812	85.19
625.019	71.19
625.226	94.19
625.433	80.19
625.639	78.19
625.846	82.19
626.053	74.19
626.259	92.19
626.466	97.19
626.673	68.19
626.879	77.19
627.086	90.19
627.293	75.19
627.499	81.19
627.706	83.19
627.912	59.19
628.119	82.19
628.325	90.19
628.532	77.19
628.738	79.19
628.945	89.19
629.151	88.19
629.357	84.19
629.564	93.19
629.77	77.19
629.976	70.19
630.183	72.19
630.389	82.19
630.595	86.19
630.802	88.19
631.008	82.19
631.214	82.19
631.42	86.19
631.627	84.19
631.833	83.19
632.039	80.19
632.245	71.19
632.451	103.19
632.657	78.19
632.863	82.19
633.069	87.19
633.275	89.19
633.481	69.19
633.688	78.19
633.893	82.19
634.099	68.19
634.305	101.19
634.511	83.19
634.717	87.19
634.923	89.19
635.129	86.19
635.335	79.19
635.541	78.19
635.747	90.19
635.952	82.19
636.158	97.19
636.364	191.19
636.57	148.19
636.775	83.19
636.981	86.19
637.187	103.19
637.392	87.19
637.598	82.19
637.804	85.19
638.009	84.19
638.215	72.19
638.421	88.19
638.626	74.19
638.832	74.19
639.037	67.19
639.243	71.19
639.448	87.19
639.654	80.19
639.859	88.19
640.065	82.19
640.27	95.19
640.475	83.19
640.681	80.19
640.886	64.19
641.091	68.19
641.297	75.19
641.502	74.19
641.707	90.19
641.913	90.19
642.118	94.19
642.323	82.19
642.528	88.19
642.733	83.19
642.939	95.19
643.144	76.19
643.349	89.19
643.554	90.19
643.759	93.19
643.964	87.19
644.169	86.19
644.374	78.19
644.579	96.19
644.784	70.19
644.989	84.19
645.194	84.19
645.399	79.19
645.604	71.19
645.809	87.19
646.014	83.19
646.219	87.19
646.423	82.19
646.628	83.19
646.833	76.19
647.038	92.19
647.243	81.19
647.447	76.19
647.652	82.19
647.857	84.19
648.062	91.19
648.266	78.19
648.471	82.19
648.676	99.19
648.88	75.19
649.085	87.19
649.289	83.19
649.494	102.19
649.698	146.19
649.903	100.19
650.107	86.19
650.312	95.19
650.516	84.19
650.721	80.19
650.925	84.19
651.13	87.19
651.334	73.19
651.539	74.19
651.743	62.19
651.947	84.19
652.152	77.19
652.356	85.19
652.56	74.19
652.764	83.19
652.969	65.19
653.173	73.19
653.377	70.19
653.581	73.19
653.785	81.19
653.99	86.19
654.194	83.19
654.398	84.19
654.602	75.19
654.806	74.19
655.01	104.19
655.214	90.19
655.418	83.19
655.622	83.19
655.826	83.19
656.03	79.19
656.234	82.19
656.438	82.19
656.642	88.19
656.846	92.19
657.049	92.19
657.253	96.19
657.457	80.19
657.661	78.19
657.865	80.19
658.068	69.19
658.272	79.19
658.476	92.19
658.68	78.19
658.883	82.19
659.087	66.19
659.291	78.19
659.494	79.19
659.698	77.19
659.901	76.19
660.105	72.19
660.309	91.19
660.512	82.19
660.716	82.19
660.919	69.19
661.123	79.19
661.326	90.19
661.53	83.19
661.733	77.19
661.936	84.19
662.14	73.19
662.343	74.19
662.546	74.19
662.75	92.19
662.953	85.19
663.156	73.19
663.36	94.19
663.563	67.19
663.766	83.19
663.969	70.19
664.173	68.19
664.376	70.19
664.579	66.19
664.782	84.19
664.985	69.19
665.188	80.19
665.391	69.19
665.594	70.19
665.797	71.19
666	87.19
666.203	72.19
666.406	69.19
666.609	87.19
666.812	77.19
667.015	96.19
667.218	87.19
667.421	80.19
667.624	77.19
667.827	80.19
668.03	83.19
668.232	78.19
668.435	77.19
668.638	66.19
668.841	78.19
669.043	79.19
669.246	77.19
669.449	77.19
669.651	63.19
669.854	87.19
670.057	70.19
670.259	70.19
670.462	81.19
670.665	68.19
670.867	67.19
671.07	62.19
671.272	87.19
671.475	85.19
671.677	77.19
671.88	73.19
672.082	79.19
672.284	85.19
672.487	89.19
672.689	97.19
672.892	78.19
