Data from Circ_2004_H10_HRD10591_00075.txt Node
Date: Wed Jan 03 10:33:29 EST 2024
User: Yrep
Spectrometer: HR+D1059
Trigger mode: 1
Integration Time (sec): 1.000000E-1
Scans to average: 1
Electric dark correction enabled: true
Nonlinearity correction enabled: false
Boxcar width: 0
XAxis mode: Wavelengths
Number of Pixels in Spectrum: 2048
>>>>>Begin Spectral Data<<<<<
223.165	-11.19
223.4	-11.19
223.635	-11.19
223.869	-17.19
224.104	-21.19
224.338	-24.19
224.573	-24.19
224.808	-8.19
225.042	-5.19
225.277	7.81
225.511	11.81
225.746	9.81
225.98	-2.19
226.215	9.81
226.449	11.81
226.683	13.81
226.918	15.81
227.152	32.81
227.387	27.81
227.621	49.81
227.856	37.81
228.09	51.81
228.324	67.81
228.559	70.81
228.793	62.81
229.027	68.81
229.262	72.81
229.496	82.81
229.73	86.81
229.964	87.81
230.199	79.81
230.433	73.81
230.667	78.81
230.901	78.81
231.136	84.81
231.37	90.81
231.604	86.81
231.838	76.81
232.072	74.81
232.306	87.81
232.541	90.81
232.775	88.81
233.009	88.81
233.243	80.81
233.477	91.81
233.711	75.81
233.945	90.81
234.179	59.81
234.413	87.81
234.647	66.81
234.881	80.81
235.115	72.81
235.349	92.81
235.583	88.81
235.817	84.81
236.051	81.81
236.285	75.81
236.519	71.81
236.753	82.81
236.987	80.81
237.221	69.81
237.455	97.81
237.689	71.81
237.922	80.81
238.156	83.81
238.39	97.81
238.624	86.81
238.858	90.81
239.091	75.81
239.325	80.81
239.559	80.81
239.793	88.81
240.027	71.81
240.26	94.81
240.494	90.81
240.728	84.81
240.961	77.81
241.195	91.81
241.429	78.81
241.662	82.81
241.896	73.81
242.13	73.81
242.363	71.81
242.597	66.81
242.83	74.81
243.064	89.81
243.298	72.81
243.531	69.81
243.765	75.81
243.998	84.81
244.232	80.81
244.465	92.81
244.699	93.81
244.932	70.81
245.166	83.81
245.399	76.81
245.633	68.81
245.866	84.81
246.099	87.81
246.333	79.81
246.566	82.81
246.8	81.81
247.033	87.81
247.266	87.81
247.5	82.81
247.733	78.81
247.966	76.81
248.2	80.81
248.433	79.81
248.666	87.81
248.899	70.81
249.133	82.81
249.366	111.81
249.599	112.81
249.832	95.81
250.066	92.81
250.299	85.81
250.532	89.81
250.765	86.81
250.998	79.81
251.231	81.81
251.465	92.81
251.698	90.81
251.931	87.81
252.164	95.81
252.397	82.81
252.63	98.81
252.863	81.81
253.096	81.81
253.329	74.81
253.562	71.81
253.795	98.81
254.028	86.81
254.261	83.81
254.494	72.81
254.727	86.81
254.96	77.81
255.193	90.81
255.426	91.81
255.659	90.81
255.892	93.81
256.124	82.81
256.357	91.81
256.59	87.81
256.823	83.81
257.056	88.81
257.289	84.81
257.521	88.81
257.754	95.81
257.987	84.81
258.22	95.81
258.452	79.81
258.685	77.81
258.918	84.81
259.151	79.81
259.383	78.81
259.616	82.81
259.849	79.81
260.081	88.81
260.314	76.81
260.547	95.81
260.779	91.81
261.012	110.81
261.244	96.81
261.477	88.81
261.71	96.81
261.942	113.81
262.175	132.81
262.407	93.81
262.64	95.81
262.872	88.81
263.105	80.81
263.337	92.81
263.57	88.81
263.802	90.81
264.035	96.81
264.267	79.81
264.499	84.81
264.732	87.81
264.964	74.81
265.197	77.81
265.429	87.81
265.661	76.81
265.894	79.81
266.126	80.81
266.358	74.81
266.591	87.81
266.823	82.81
267.055	79.81
267.287	93.81
267.52	97.81
267.752	98.81
267.984	86.81
268.216	94.81
268.448	80.81
268.681	100.81
268.913	90.81
269.145	82.81
269.377	81.81
269.609	90.81
269.841	72.81
270.073	76.81
270.306	86.81
270.538	87.81
270.77	81.81
271.002	80.81
271.234	81.81
271.466	93.81
271.698	94.81
271.93	83.81
272.162	90.81
272.394	100.81
272.626	88.81
272.858	82.81
273.09	89.81
273.322	98.81
273.553	100.81
273.785	92.81
274.017	82.81
274.249	88.81
274.481	85.81
274.713	94.81
274.945	86.81
275.176	90.81
275.408	96.81
275.64	105.81
275.872	119.81
276.104	106.81
276.335	96.81
276.567	112.81
276.799	122.81
277.031	149.81
277.262	143.81
277.494	127.81
277.726	104.81
277.957	94.81
278.189	76.81
278.421	82.81
278.652	90.81
278.884	84.81
279.115	83.81
279.347	91.81
279.579	104.81
279.81	114.81
280.042	143.81
280.273	188.81
280.505	144.81
280.736	98.81
280.968	91.81
281.199	74.81
281.431	89.81
281.662	95.81
281.894	90.81
282.125	106.81
282.356	129.81
282.588	168.81
282.819	134.81
283.051	95.81
283.282	97.81
283.513	92.81
283.745	97.81
283.976	82.81
284.207	88.81
284.439	96.81
284.67	92.81
284.901	93.81
285.132	78.81
285.364	84.81
285.595	95.81
285.826	84.81
286.057	86.81
286.288	86.81
286.52	82.81
286.751	81.81
286.982	92.81
287.213	90.81
287.444	88.81
287.675	92.81
287.906	96.81
288.138	88.81
288.369	96.81
288.6	88.81
288.831	80.81
289.062	102.81
289.293	95.81
289.524	96.81
289.755	91.81
289.986	92.81
290.217	99.81
290.448	93.81
290.679	96.81
290.91	89.81
291.141	89.81
291.371	86.81
291.602	91.81
291.833	94.81
292.064	75.81
292.295	81.81
292.526	83.81
292.757	83.81
292.987	79.81
293.218	79.81
293.449	91.81
293.68	86.81
293.91	95.81
294.141	92.81
294.372	86.81
294.603	77.81
294.833	89.81
295.064	84.81
295.295	90.81
295.525	93.81
295.756	110.81
295.987	119.81
296.217	167.81
296.448	134.81
296.679	102.81
296.909	87.81
297.14	73.81
297.37	91.81
297.601	76.81
297.831	112.81
298.062	104.81
298.292	92.81
298.523	94.81
298.753	86.81
298.984	91.81
299.214	92.81
299.445	92.81
299.675	85.81
299.905	112.81
300.136	106.81
300.366	91.81
300.597	80.81
300.827	105.81
301.057	104.81
301.288	116.81
301.518	106.81
301.748	85.81
301.979	98.81
302.209	98.81
302.439	83.81
302.669	86.81
302.9	78.81
303.13	98.81
303.36	118.81
303.59	117.81
303.82	119.81
304.051	118.81
304.281	95.81
304.511	92.81
304.741	88.81
304.971	84.81
305.201	96.81
305.431	92.81
305.661	113.81
305.891	98.81
306.121	104.81
306.352	112.81
306.582	113.81
306.812	113.81
307.042	120.81
307.272	137.81
307.502	138.81
307.731	143.81
307.961	114.81
308.191	94.81
308.421	91.81
308.651	103.81
308.881	96.81
309.111	103.81
309.341	103.81
309.571	91.81
309.8	113.81
310.03	110.81
310.26	107.81
310.49	101.81
310.72	107.81
310.949	121.81
311.179	106.81
311.409	105.81
311.639	100.81
311.868	93.81
312.098	98.81
312.328	97.81
312.557	104.81
312.787	119.81
313.017	111.81
313.246	104.81
313.476	96.81
313.706	89.81
313.935	97.81
314.165	116.81
314.394	108.81
314.624	111.81
314.853	99.81
315.083	88.81
315.312	112.81
315.542	104.81
315.771	93.81
316.001	96.81
316.23	96.81
316.46	86.81
316.689	91.81
316.919	95.81
317.148	106.81
317.377	120.81
317.607	99.81
317.836	91.81
318.065	101.81
318.295	86.81
318.524	88.81
318.753	93.81
318.983	87.81
319.212	96.81
319.441	99.81
319.67	118.81
319.9	102.81
320.129	91.81
320.358	92.81
320.587	101.81
320.816	122.81
321.046	99.81
321.275	99.81
321.504	101.81
321.733	94.81
321.962	109.81
322.191	111.81
322.42	101.81
322.649	119.81
322.878	124.81
323.108	119.81
323.337	144.81
323.566	149.81
323.795	181.81
324.024	238.81
324.253	480.81
324.482	1033.81
324.71	2112.81
324.939	2830.81
325.168	1035.81
325.397	292.81
325.626	169.81
325.855	150.81
326.084	120.81
326.313	128.81
326.542	189.81
326.77	276.81
326.999	551.81
327.228	1162.81
327.457	2094.81
327.686	1680.81
327.914	503.81
328.143	408.81
328.372	463.81
328.6	260.81
328.829	162.81
329.058	167.81
329.287	178.81
329.515	166.81
329.744	193.81
329.972	326.81
330.201	645.81
330.43	924.81
330.658	449.81
330.887	242.81
331.115	170.81
331.344	107.81
331.572	113.81
331.801	117.81
332.03	122.81
332.258	111.81
332.486	87.81
332.715	91.81
332.943	104.81
333.172	112.81
333.4	128.81
333.629	149.81
333.857	180.81
334.085	320.81
334.314	578.81
334.542	1139.81
334.771	1065.81
334.999	302.81
335.227	146.81
335.455	123.81
335.684	114.81
335.912	104.81
336.14	104.81
336.369	98.81
336.597	115.81
336.825	119.81
337.053	92.81
337.281	88.81
337.51	84.81
337.738	103.81
337.966	94.81
338.194	98.81
338.422	103.81
338.65	106.81
338.878	97.81
339.106	90.81
339.334	98.81
339.562	96.81
339.79	93.81
340.018	89.81
340.246	83.81
340.474	106.81
340.702	87.81
340.93	92.81
341.158	103.81
341.386	92.81
341.614	87.81
341.842	78.81
342.07	101.81
342.298	95.81
342.526	88.81
342.754	90.81
342.981	84.81
343.209	96.81
343.437	102.81
343.665	94.81
343.893	104.81
344.12	86.81
344.348	96.81
344.576	91.81
344.804	94.81
345.031	100.81
345.259	95.81
345.487	107.81
345.714	102.81
345.942	99.81
346.17	100.81
346.397	90.81
346.625	103.81
346.853	90.81
347.08	91.81
347.308	98.81
347.535	88.81
347.763	121.81
347.99	105.81
348.218	114.81
348.445	126.81
348.673	104.81
348.9	96.81
349.128	101.81
349.355	90.81
349.583	95.81
349.81	91.81
350.037	88.81
350.265	102.81
350.492	96.81
350.72	89.81
350.947	104.81
351.174	110.81
351.402	117.81
351.629	107.81
351.856	109.81
352.083	102.81
352.311	120.81
352.538	121.81
352.765	117.81
352.992	136.81
353.22	130.81
353.447	103.81
353.674	111.81
353.901	102.81
354.128	89.81
354.355	99.81
354.583	102.81
354.81	103.81
355.037	103.81
355.264	96.81
355.491	88.81
355.718	89.81
355.945	88.81
356.172	112.81
356.399	111.81
356.626	102.81
356.853	90.81
357.08	93.81
357.307	107.81
357.534	88.81
357.761	87.81
357.988	80.81
358.215	83.81
358.441	98.81
358.668	99.81
358.895	94.81
359.122	83.81
359.349	92.81
359.576	94.81
359.802	112.81
360.029	140.81
360.256	150.81
360.483	123.81
360.709	109.81
360.936	105.81
361.163	109.81
361.39	114.81
361.616	106.81
361.843	109.81
362.07	106.81
362.296	118.81
362.523	107.81
362.749	103.81
362.976	109.81
363.203	116.81
363.429	100.81
363.656	102.81
363.882	95.81
364.109	86.81
364.335	100.81
364.562	84.81
364.788	98.81
365.015	113.81
365.241	104.81
365.468	119.81
365.694	112.81
365.92	87.81
366.147	91.81
366.373	106.81
366.599	95.81
366.826	83.81
367.052	90.81
367.278	102.81
367.505	81.81
367.731	93.81
367.957	106.81
368.184	86.81
368.41	101.81
368.636	123.81
368.862	141.81
369.089	126.81
369.315	102.81
369.541	105.81
369.767	104.81
369.993	88.81
370.219	90.81
370.445	91.81
370.672	100.81
370.898	104.81
371.124	100.81
371.35	97.81
371.576	91.81
371.802	92.81
372.028	98.81
372.254	86.81
372.48	95.81
372.706	86.81
372.932	83.81
373.158	89.81
373.384	75.81
373.61	90.81
373.835	90.81
374.061	91.81
374.287	102.81
374.513	100.81
374.739	107.81
374.965	97.81
375.191	87.81
375.416	94.81
375.642	94.81
375.868	91.81
376.094	89.81
376.319	94.81
376.545	91.81
376.771	87.81
376.997	111.81
377.222	97.81
377.448	86.81
377.674	93.81
377.899	81.81
378.125	96.81
378.35	98.81
378.576	93.81
378.802	84.81
379.027	106.81
379.253	93.81
379.478	100.81
379.704	83.81
379.929	83.81
380.155	75.81
380.38	104.81
380.606	103.81
380.831	95.81
381.057	90.81
381.282	89.81
381.507	105.81
381.733	109.81
381.958	98.81
382.184	106.81
382.409	92.81
382.634	107.81
382.86	100.81
383.085	99.81
383.31	94.81
383.535	109.81
383.761	91.81
383.986	99.81
384.211	103.81
384.436	103.81
384.662	93.81
384.887	105.81
385.112	104.81
385.337	101.81
385.562	95.81
385.787	102.81
386.013	97.81
386.238	118.81
386.463	106.81
386.688	120.81
386.913	104.81
387.138	110.81
387.363	107.81
387.588	102.81
387.813	99.81
388.038	101.81
388.263	105.81
388.488	104.81
388.713	94.81
388.938	102.81
389.163	108.81
389.387	100.81
389.612	104.81
389.837	110.81
390.062	103.81
390.287	110.81
390.512	96.81
390.736	99.81
390.961	90.81
391.186	104.81
391.411	90.81
391.636	101.81
391.86	111.81
392.085	97.81
392.31	91.81
392.534	88.81
392.759	87.81
392.984	87.81
393.208	95.81
393.433	88.81
393.658	87.81
393.882	102.81
394.107	98.81
394.331	85.81
394.556	92.81
394.78	97.81
395.005	87.81
395.229	90.81
395.454	100.81
395.678	79.81
395.903	97.81
396.127	101.81
396.352	76.81
396.576	105.81
396.801	85.81
397.025	88.81
397.249	88.81
397.474	91.81
397.698	87.81
397.922	95.81
398.147	96.81
398.371	75.81
398.595	91.81
398.82	84.81
399.044	82.81
399.268	87.81
399.492	74.81
399.717	82.81
399.941	98.81
400.165	104.81
400.389	100.81
400.613	86.81
400.837	93.81
401.062	103.81
401.286	90.81
401.51	96.81
401.734	87.81
401.958	112.81
402.182	144.81
402.406	197.81
402.63	136.81
402.854	101.81
403.078	100.81
403.302	92.81
403.526	90.81
403.75	97.81
403.974	99.81
404.198	96.81
404.422	90.81
404.645	86.81
404.869	101.81
405.093	110.81
405.317	115.81
405.541	152.81
405.765	123.81
405.988	143.81
406.212	206.81
406.436	294.81
406.66	202.81
406.883	107.81
407.107	94.81
407.331	104.81
407.555	113.81
407.778	107.81
408.002	83.81
408.226	101.81
408.449	106.81
408.673	92.81
408.896	83.81
409.12	106.81
409.344	89.81
409.567	98.81
409.791	95.81
410.014	99.81
410.238	98.81
410.461	105.81
410.685	87.81
410.908	101.81
411.132	105.81
411.355	103.81
411.578	98.81
411.802	93.81
412.025	80.81
412.249	113.81
412.472	108.81
412.695	127.81
412.919	110.81
413.142	102.81
413.365	86.81
413.589	99.81
413.812	89.81
414.035	103.81
414.258	91.81
414.482	91.81
414.705	83.81
414.928	82.81
415.151	115.81
415.374	98.81
415.597	92.81
415.821	94.81
416.044	82.81
416.267	92.81
416.49	88.81
416.713	92.81
416.936	96.81
417.159	86.81
417.382	96.81
417.605	102.81
417.828	100.81
418.051	80.81
418.274	80.81
418.497	93.81
418.72	97.81
418.943	105.81
419.166	95.81
419.389	99.81
419.611	99.81
419.834	97.81
420.057	95.81
420.28	80.81
420.503	91.81
420.726	92.81
420.948	76.81
421.171	104.81
421.394	105.81
421.617	87.81
421.839	95.81
422.062	78.81
422.285	82.81
422.507	95.81
422.73	114.81
422.953	100.81
423.175	106.81
423.398	104.81
423.621	94.81
423.843	89.81
424.066	97.81
424.288	108.81
424.511	101.81
424.733	91.81
424.956	121.81
425.178	119.81
425.401	120.81
425.623	103.81
425.846	81.81
426.068	92.81
426.291	92.81
426.513	102.81
426.735	100.81
426.958	108.81
427.18	126.81
427.402	172.81
427.625	227.81
427.847	210.81
428.069	193.81
428.292	131.81
428.514	84.81
428.736	105.81
428.958	88.81
429.181	80.81
429.403	89.81
429.625	85.81
429.847	94.81
430.069	112.81
430.292	104.81
430.514	87.81
430.736	97.81
430.958	89.81
431.18	96.81
431.402	96.81
431.624	85.81
431.846	85.81
432.068	83.81
432.29	86.81
432.512	90.81
432.734	87.81
432.956	92.81
433.178	91.81
433.4	118.81
433.622	94.81
433.844	77.81
434.066	91.81
434.287	109.81
434.509	100.81
434.731	93.81
434.953	97.81
435.175	100.81
435.397	90.81
435.618	95.81
435.84	113.81
436.062	138.81
436.284	140.81
436.505	111.81
436.727	123.81
436.949	99.81
437.17	93.81
437.392	79.81
437.614	111.81
437.835	128.81
438.057	130.81
438.278	133.81
438.5	120.81
438.721	150.81
438.943	112.81
439.165	97.81
439.386	88.81
439.608	104.81
439.829	94.81
440.05	156.81
440.272	176.81
440.493	131.81
440.715	89.81
440.936	85.81
441.158	97.81
441.379	98.81
441.6	107.81
441.822	90.81
442.043	116.81
442.264	115.81
442.486	121.81
442.707	100.81
442.928	135.81
443.149	170.81
443.371	163.81
443.592	119.81
443.813	115.81
444.034	136.81
444.255	113.81
444.476	86.81
444.698	86.81
444.919	96.81
445.14	124.81
445.361	114.81
445.582	144.81
445.803	161.81
446.024	158.81
446.245	154.81
446.466	134.81
446.687	100.81
446.908	89.81
447.129	102.81
447.35	91.81
447.571	99.81
447.792	108.81
448.013	108.81
448.234	119.81
448.455	118.81
448.675	125.81
448.896	130.81
449.117	105.81
449.338	116.81
449.559	152.81
449.779	150.81
450	99.81
450.221	90.81
450.442	88.81
450.662	116.81
450.883	116.81
451.104	127.81
451.324	96.81
451.545	95.81
451.766	102.81
451.986	109.81
452.207	90.81
452.428	104.81
452.648	118.81
452.869	117.81
453.089	126.81
453.31	144.81
453.53	106.81
453.751	100.81
453.971	105.81
454.192	120.81
454.412	101.81
454.633	94.81
454.853	93.81
455.073	76.81
455.294	100.81
455.514	114.81
455.734	102.81
455.955	87.81
456.175	90.81
456.395	85.81
456.616	93.81
456.836	76.81
457.056	80.81
457.276	92.81
457.497	83.81
457.717	91.81
457.937	89.81
458.157	96.81
458.377	99.81
458.598	134.81
458.818	185.81
459.038	212.81
459.258	133.81
459.478	96.81
459.698	93.81
459.918	95.81
460.138	91.81
460.358	81.81
460.578	90.81
460.798	83.81
461.018	95.81
461.238	93.81
461.458	81.81
461.678	86.81
461.898	91.81
462.118	99.81
462.338	78.81
462.558	93.81
462.777	91.81
462.997	94.81
463.217	101.81
463.437	97.81
463.657	98.81
463.876	98.81
464.096	93.81
464.316	86.81
464.536	115.81
464.755	96.81
464.975	125.81
465.195	220.81
465.414	218.81
465.634	110.81
465.854	105.81
466.073	95.81
466.293	96.81
466.512	95.81
466.732	86.81
466.951	121.81
467.171	99.81
467.391	98.81
467.61	125.81
467.829	167.81
468.049	378.81
468.268	534.81
468.488	159.81
468.707	106.81
468.927	91.81
469.146	89.81
469.365	103.81
469.585	89.81
469.804	106.81
470.023	105.81
470.243	107.81
470.462	103.81
470.681	131.81
470.901	100.81
471.12	88.81
471.339	97.81
471.558	103.81
471.777	146.81
471.997	227.81
472.216	720.81
472.435	1529.81
472.654	401.81
472.873	142.81
473.092	107.81
473.311	102.81
473.53	97.81
473.749	96.81
473.968	107.81
474.187	120.81
474.406	105.81
474.625	97.81
474.844	99.81
475.063	95.81
475.282	80.81
475.501	89.81
475.72	96.81
475.939	90.81
476.158	83.81
476.377	73.81
476.596	101.81
476.814	101.81
477.033	118.81
477.252	105.81
477.471	96.81
477.69	77.81
477.908	87.81
478.127	108.81
478.346	100.81
478.564	105.81
478.783	102.81
479.002	99.81
479.22	98.81
479.439	117.81
479.658	115.81
479.876	118.81
480.095	118.81
480.313	127.81
480.532	136.81
480.751	226.81
480.969	665.81
481.188	2679.81
481.406	1596.81
481.624	279.81
481.843	119.81
482.061	94.81
482.28	108.81
482.498	93.81
482.717	105.81
482.935	97.81
483.153	90.81
483.372	89.81
483.59	96.81
483.808	85.81
484.027	92.81
484.245	100.81
484.463	102.81
484.681	94.81
484.9	96.81
485.118	107.81
485.336	93.81
485.554	100.81
485.772	94.81
485.99	106.81
486.209	106.81
486.427	96.81
486.645	118.81
486.863	120.81
487.081	112.81
487.299	98.81
487.517	99.81
487.735	92.81
487.953	92.81
488.171	88.81
488.389	104.81
488.607	112.81
488.825	92.81
489.043	86.81
489.261	81.81
489.479	100.81
489.696	90.81
489.914	95.81
490.132	91.81
490.35	84.81
490.568	94.81
490.786	86.81
491.003	90.81
491.221	90.81
491.439	87.81
491.657	96.81
491.874	89.81
492.092	94.81
492.31	91.81
492.527	103.81
492.745	115.81
492.963	96.81
493.18	99.81
493.398	105.81
493.615	96.81
493.833	98.81
494.05	99.81
494.268	87.81
494.485	91.81
494.703	81.81
494.92	101.81
495.138	95.81
495.355	102.81
495.573	93.81
495.79	92.81
496.008	99.81
496.225	84.81
496.442	97.81
496.66	89.81
496.877	83.81
497.094	97.81
497.312	87.81
497.529	85.81
497.746	97.81
497.963	100.81
498.181	95.81
498.398	88.81
498.615	114.81
498.832	107.81
499.049	105.81
499.267	98.81
499.484	84.81
499.701	93.81
499.918	90.81
500.135	80.81
500.352	88.81
500.569	95.81
500.786	89.81
501.003	92.81
501.22	73.81
501.437	103.81
501.654	115.81
501.871	136.81
502.088	100.81
502.305	110.81
502.522	91.81
502.739	107.81
502.956	91.81
503.172	101.81
503.389	108.81
503.606	125.81
503.823	103.81
504.04	90.81
504.256	78.81
504.473	83.81
504.69	102.81
504.907	99.81
505.123	79.81
505.34	84.81
505.557	89.81
505.773	94.81
505.99	95.81
506.207	92.81
506.423	95.81
506.64	79.81
506.856	89.81
507.073	79.81
507.289	91.81
507.506	90.81
507.722	119.81
507.939	126.81
508.155	89.81
508.372	96.81
508.588	102.81
508.805	91.81
509.021	99.81
509.238	89.81
509.454	98.81
509.67	105.81
509.887	114.81
510.103	134.81
510.319	234.81
510.536	896.81
510.752	2935.81
510.968	786.81
511.184	180.81
511.401	137.81
511.617	95.81
511.833	107.81
512.049	99.81
512.265	103.81
512.481	95.81
512.698	102.81
512.914	89.81
513.13	97.81
513.346	97.81
513.562	108.81
513.778	113.81
513.994	112.81
514.21	121.81
514.426	142.81
514.642	178.81
514.858	160.81
515.074	212.81
515.29	669.81
515.506	2346.81
515.721	824.81
515.937	206.81
516.153	136.81
516.369	93.81
516.585	103.81
516.801	98.81
517.016	114.81
517.232	99.81
517.448	100.81
517.664	82.81
517.879	95.81
518.095	105.81
518.311	86.81
518.527	113.81
518.742	92.81
518.958	78.81
519.173	96.81
519.389	105.81
519.605	98.81
519.82	110.81
520.036	115.81
520.251	148.81
520.467	129.81
520.682	113.81
520.898	129.81
521.113	130.81
521.329	163.81
521.544	292.81
521.76	844.81
521.975	3816.81
522.19	2197.81
522.406	443.81
522.621	163.81
522.836	104.81
523.052	116.81
523.267	105.81
523.482	97.81
523.698	100.81
523.913	122.81
524.128	107.81
524.343	105.81
524.559	104.81
524.774	95.81
524.989	100.81
525.204	115.81
525.419	114.81
525.634	103.81
525.849	94.81
526.064	70.81
526.28	105.81
526.495	88.81
526.71	90.81
526.925	84.81
527.14	89.81
527.355	89.81
527.57	96.81
527.785	88.81
527.999	102.81
528.214	86.81
528.429	104.81
528.644	91.81
528.859	97.81
529.074	112.81
529.289	146.81
529.503	247.81
529.718	112.81
529.933	107.81
530.148	86.81
530.363	98.81
530.577	94.81
530.792	95.81
531.007	88.81
531.221	92.81
531.436	110.81
531.651	102.81
531.865	86.81
532.08	96.81
532.295	96.81
532.509	90.81
532.724	93.81
532.938	96.81
533.153	107.81
533.367	108.81
533.582	84.81
533.796	86.81
534.011	95.81
534.225	94.81
534.44	90.81
534.654	101.81
534.868	86.81
535.083	90.81
535.297	104.81
535.511	106.81
535.726	113.81
535.94	113.81
536.154	99.81
536.369	92.81
536.583	91.81
536.797	104.81
537.011	82.81
537.225	91.81
537.44	96.81
537.654	92.81
537.868	88.81
538.082	84.81
538.296	105.81
538.51	84.81
538.724	82.81
538.938	92.81
539.153	100.81
539.367	118.81
539.581	99.81
539.795	85.81
540.009	101.81
540.222	95.81
540.436	90.81
540.65	90.81
540.864	83.81
541.078	101.81
541.292	89.81
541.506	100.81
541.72	89.81
541.934	94.81
542.147	87.81
542.361	86.81
542.575	98.81
542.789	82.81
543.002	92.81
543.216	87.81
543.43	96.81
543.644	102.81
543.857	95.81
544.071	87.81
544.285	91.81
544.498	84.81
544.712	92.81
544.925	84.81
545.139	92.81
545.352	104.81
545.566	78.81
545.779	83.81
545.993	99.81
546.206	96.81
546.42	91.81
546.633	87.81
546.847	102.81
547.06	92.81
547.274	96.81
547.487	78.81
547.7	94.81
547.914	99.81
548.127	85.81
548.34	78.81
548.554	76.81
548.767	86.81
548.98	89.81
549.193	89.81
549.407	78.81
549.62	104.81
549.833	87.81
550.046	92.81
550.259	90.81
550.473	88.81
550.686	96.81
550.899	91.81
551.112	92.81
551.325	94.81
551.538	85.81
551.751	75.81
551.964	86.81
552.177	96.81
552.39	80.81
552.603	88.81
552.816	86.81
553.029	106.81
553.242	102.81
553.455	95.81
553.667	113.81
553.88	99.81
554.093	113.81
554.306	99.81
554.519	103.81
554.732	89.81
554.944	92.81
555.157	92.81
555.37	84.81
555.583	74.81
555.795	94.81
556.008	102.81
556.221	76.81
556.433	81.81
556.646	93.81
556.859	85.81
557.071	103.81
557.284	102.81
557.496	88.81
557.709	78.81
557.921	89.81
558.134	76.81
558.346	95.81
558.559	96.81
558.771	79.81
558.984	87.81
559.196	87.81
559.409	91.81
559.621	107.81
559.833	94.81
560.046	91.81
560.258	98.81
560.47	110.81
560.683	100.81
560.895	91.81
561.107	99.81
561.32	87.81
561.532	72.81
561.744	98.81
561.956	88.81
562.168	84.81
562.381	90.81
562.593	100.81
562.805	85.81
563.017	101.81
563.229	97.81
563.441	93.81
563.653	82.81
563.865	100.81
564.077	91.81
564.289	85.81
564.501	102.81
564.713	97.81
564.925	95.81
565.137	95.81
565.349	80.81
565.561	89.81
565.773	85.81
565.985	79.81
566.197	87.81
566.408	87.81
566.62	87.81
566.832	97.81
567.044	95.81
567.255	94.81
567.467	82.81
567.679	90.81
567.891	78.81
568.102	101.81
568.314	90.81
568.526	93.81
568.737	76.81
568.949	82.81
569.161	89.81
569.372	90.81
569.584	85.81
569.795	100.81
570.007	128.81
570.218	279.81
570.43	142.81
570.641	98.81
570.853	91.81
571.064	82.81
571.276	82.81
571.487	100.81
571.698	106.81
571.91	83.81
572.121	99.81
572.333	82.81
572.544	87.81
572.755	95.81
572.966	90.81
573.178	103.81
573.389	104.81
573.6	97.81
573.811	96.81
574.023	80.81
574.234	82.81
574.445	86.81
574.656	75.81
574.867	82.81
575.078	79.81
575.289	71.81
575.501	95.81
575.712	87.81
575.923	96.81
576.134	88.81
576.345	91.81
576.556	89.81
576.767	96.81
576.978	86.81
577.188	83.81
577.399	92.81
577.61	111.81
577.821	101.81
578.032	108.81
578.243	306.81
578.454	933.81
578.665	246.81
578.875	111.81
579.086	96.81
579.297	98.81
579.508	95.81
579.718	92.81
579.929	89.81
580.14	102.81
580.35	96.81
580.561	91.81
580.772	82.81
580.982	71.81
581.193	90.81
581.403	92.81
581.614	86.81
581.825	80.81
582.035	102.81
582.246	73.81
582.456	90.81
582.667	86.81
582.877	91.81
583.087	76.81
583.298	84.81
583.508	87.81
583.719	92.81
583.929	83.81
584.139	95.81
584.35	82.81
584.56	102.81
584.77	104.81
584.981	99.81
585.191	90.81
585.401	84.81
585.611	95.81
585.821	99.81
586.032	84.81
586.242	93.81
586.452	78.81
586.662	87.81
586.872	95.81
587.082	104.81
587.292	72.81
587.502	84.81
587.713	95.81
587.923	89.81
588.133	90.81
588.343	89.81
588.553	86.81
588.762	75.81
588.972	96.81
589.182	118.81
589.392	107.81
589.602	90.81
589.812	111.81
590.022	103.81
590.232	76.81
590.441	84.81
590.651	87.81
590.861	74.81
591.071	92.81
591.281	83.81
591.49	90.81
591.7	103.81
591.91	87.81
592.119	68.81
592.329	96.81
592.539	91.81
592.748	95.81
592.958	78.81
593.167	87.81
593.377	90.81
593.587	97.81
593.796	71.81
594.006	88.81
594.215	89.81
594.424	98.81
594.634	89.81
594.843	80.81
595.053	85.81
595.262	98.81
595.472	82.81
595.681	89.81
595.89	95.81
596.1	84.81
596.309	92.81
596.518	82.81
596.727	65.81
596.937	85.81
597.146	102.81
597.355	84.81
597.564	90.81
597.774	82.81
597.983	82.81
598.192	98.81
598.401	93.81
598.61	84.81
598.819	84.81
599.028	85.81
599.237	88.81
599.446	87.81
599.655	87.81
599.864	87.81
600.073	81.81
600.282	79.81
600.491	84.81
600.7	92.81
600.909	99.81
601.118	84.81
601.327	99.81
601.536	102.81
601.745	91.81
601.953	83.81
602.162	107.81
602.371	92.81
602.58	81.81
602.789	101.81
602.997	88.81
603.206	87.81
603.415	83.81
603.623	91.81
603.832	96.81
604.041	90.81
604.249	89.81
604.458	83.81
604.666	87.81
604.875	87.81
605.084	84.81
605.292	80.81
605.501	101.81
605.709	91.81
605.918	91.81
606.126	83.81
606.334	89.81
606.543	76.81
606.751	89.81
606.96	94.81
607.168	82.81
607.376	89.81
607.585	95.81
607.793	96.81
608.001	79.81
608.21	84.81
608.418	86.81
608.626	71.81
608.834	75.81
609.043	84.81
609.251	99.81
609.459	107.81
609.667	81.81
609.875	88.81
610.083	106.81
610.291	80.81
610.499	86.81
610.707	89.81
610.916	89.81
611.124	87.81
611.332	84.81
611.54	79.81
611.748	87.81
611.955	89.81
612.163	95.81
612.371	107.81
612.579	93.81
612.787	88.81
612.995	101.81
613.203	89.81
613.411	81.81
613.618	72.81
613.826	77.81
614.034	89.81
614.242	90.81
614.449	90.81
614.657	71.81
614.865	89.81
615.072	94.81
615.28	94.81
615.488	85.81
615.695	84.81
615.903	84.81
616.111	114.81
616.318	89.81
616.526	101.81
616.733	103.81
616.941	97.81
617.148	109.81
617.356	84.81
617.563	84.81
617.771	81.81
617.978	85.81
618.185	85.81
618.393	93.81
618.6	89.81
618.807	88.81
619.015	94.81
619.222	91.81
619.429	88.81
619.637	95.81
619.844	89.81
620.051	86.81
620.258	82.81
620.466	89.81
620.673	72.81
620.88	86.81
621.087	83.81
621.294	95.81
621.501	91.81
621.708	73.81
621.915	90.81
622.122	82.81
622.329	87.81
622.536	96.81
622.743	90.81
622.95	80.81
623.157	86.81
623.364	81.81
623.571	94.81
623.778	92.81
623.985	92.81
624.192	92.81
624.399	86.81
624.606	75.81
624.812	85.81
625.019	81.81
625.226	83.81
625.433	88.81
625.639	91.81
625.846	94.81
626.053	93.81
626.259	84.81
626.466	93.81
626.673	92.81
626.879	77.81
627.086	82.81
627.293	78.81
627.499	111.81
627.706	87.81
627.912	95.81
628.119	88.81
628.325	83.81
628.532	90.81
628.738	95.81
628.945	90.81
629.151	99.81
629.357	84.81
629.564	92.81
629.77	83.81
629.976	87.81
630.183	93.81
630.389	97.81
630.595	77.81
630.802	86.81
631.008	90.81
631.214	93.81
631.42	84.81
631.627	90.81
631.833	85.81
632.039	82.81
632.245	84.81
632.451	86.81
632.657	96.81
632.863	95.81
633.069	72.81
633.275	79.81
633.481	70.81
633.688	80.81
633.893	92.81
634.099	82.81
634.305	89.81
634.511	78.81
634.717	89.81
634.923	76.81
635.129	96.81
635.335	83.81
635.541	108.81
635.747	86.81
635.952	93.81
636.158	108.81
636.364	258.81
636.57	217.81
636.775	113.81
636.981	87.81
637.187	80.81
637.392	70.81
637.598	74.81
637.804	86.81
638.009	91.81
638.215	82.81
638.421	83.81
638.626	80.81
638.832	88.81
639.037	83.81
639.243	79.81
639.448	71.81
639.654	88.81
639.859	81.81
640.065	66.81
640.27	88.81
640.475	89.81
640.681	81.81
640.886	88.81
641.091	92.81
641.297	77.81
641.502	94.81
641.707	86.81
641.913	89.81
642.118	82.81
642.323	100.81
642.528	95.81
642.733	97.81
642.939	89.81
643.144	87.81
643.349	102.81
643.554	76.81
643.759	70.81
643.964	87.81
644.169	104.81
644.374	76.81
644.579	83.81
644.784	83.81
644.989	87.81
645.194	93.81
645.399	86.81
645.604	94.81
645.809	79.81
646.014	81.81
646.219	78.81
646.423	95.81
646.628	85.81
646.833	91.81
647.038	91.81
647.243	79.81
647.447	91.81
647.652	89.81
647.857	95.81
648.062	90.81
648.266	96.81
648.471	95.81
648.676	93.81
648.88	97.81
649.085	98.81
649.289	102.81
649.494	99.81
649.698	149.81
649.903	93.81
650.107	87.81
650.312	96.81
650.516	80.81
650.721	77.81
650.925	81.81
651.13	85.81
651.334	87.81
651.539	76.81
651.743	86.81
651.947	73.81
652.152	90.81
652.356	85.81
652.56	106.81
652.764	95.81
652.969	97.81
653.173	92.81
653.377	99.81
653.581	85.81
653.785	74.81
653.99	78.81
654.194	79.81
654.398	81.81
654.602	75.81
654.806	95.81
655.01	106.81
655.214	86.81
655.418	96.81
655.622	74.81
655.826	90.81
656.03	97.81
656.234	95.81
656.438	96.81
656.642	98.81
656.846	98.81
657.049	89.81
657.253	90.81
657.457	95.81
657.661	100.81
657.865	78.81
658.068	74.81
658.272	77.81
658.476	76.81
658.68	83.81
658.883	83.81
659.087	89.81
659.291	72.81
659.494	81.81
659.698	90.81
659.901	91.81
660.105	89.81
660.309	72.81
660.512	82.81
660.716	77.81
660.919	83.81
661.123	87.81
661.326	88.81
661.53	91.81
661.733	93.81
661.936	82.81
662.14	94.81
662.343	80.81
662.546	86.81
662.75	96.81
662.953	94.81
663.156	86.81
663.36	86.81
663.563	81.81
663.766	85.81
663.969	75.81
664.173	92.81
664.376	75.81
664.579	75.81
664.782	97.81
664.985	83.81
665.188	85.81
665.391	93.81
665.594	83.81
665.797	79.81
666	86.81
666.203	83.81
666.406	84.81
666.609	85.81
666.812	84.81
667.015	90.81
667.218	88.81
667.421	96.81
667.624	87.81
667.827	74.81
668.03	92.81
668.232	74.81
668.435	88.81
668.638	81.81
668.841	89.81
669.043	90.81
669.246	97.81
669.449	90.81
669.651	103.81
669.854	78.81
670.057	87.81
670.259	79.81
670.462	80.81
670.665	72.81
670.867	89.81
671.07	83.81
671.272	86.81
671.475	88.81
671.677	90.81
671.88	67.81
672.082	86.81
672.284	87.81
672.487	84.81
672.689	79.81
672.892	79.81
