Data from Super_Dry_Prop_75_3_HRD10591_00015.txt Node
Date: Wed Dec 03 15:03:16 EST 2025
User: Yrep
Spectrometer: HR+D1059
Trigger mode: 1
Integration Time (sec): 1.000000E-1
Scans to average: 1
Electric dark correction enabled: true
Nonlinearity correction enabled: false
Boxcar width: 0
XAxis mode: Wavelengths
Number of Pixels in Spectrum: 2048
>>>>>Begin Spectral Data<<<<<
223.165	-9.88
223.4	-9.88
223.635	-9.88
223.869	-24.88
224.104	-19.88
224.338	-24.88
224.573	-21.88
224.808	-18.88
225.042	-8.88
225.277	-0.88
225.511	6.12
225.746	2.12
225.98	15.12
226.215	9.12
226.449	18.12
226.683	23.12
226.918	24.12
227.152	32.12
227.387	35.12
227.621	35.12
227.856	46.12
228.09	49.12
228.324	46.12
228.559	66.12
228.793	47.12
229.027	64.12
229.262	49.12
229.496	48.12
229.73	77.12
229.964	65.12
230.199	54.12
230.433	75.12
230.667	73.12
230.901	85.12
231.136	75.12
231.37	81.12
231.604	88.12
231.838	89.12
232.072	78.12
232.306	67.12
232.541	78.12
232.775	72.12
233.009	82.12
233.243	77.12
233.477	70.12
233.711	88.12
233.945	76.12
234.179	90.12
234.413	87.12
234.647	82.12
234.881	67.12
235.115	86.12
235.349	88.12
235.583	84.12
235.817	71.12
236.051	82.12
236.285	74.12
236.519	73.12
236.753	83.12
236.987	66.12
237.221	74.12
237.455	87.12
237.689	78.12
237.922	74.12
238.156	84.12
238.39	71.12
238.624	80.12
238.858	67.12
239.091	80.12
239.325	71.12
239.559	74.12
239.793	85.12
240.027	66.12
240.26	80.12
240.494	81.12
240.728	82.12
240.961	85.12
241.195	83.12
241.429	82.12
241.662	86.12
241.896	89.12
242.13	80.12
242.363	75.12
242.597	65.12
242.83	81.12
243.064	74.12
243.298	67.12
243.531	66.12
243.765	87.12
243.998	76.12
244.232	81.12
244.465	78.12
244.699	70.12
244.932	69.12
245.166	68.12
245.399	77.12
245.633	78.12
245.866	81.12
246.099	88.12
246.333	78.12
246.566	74.12
246.8	75.12
247.033	75.12
247.266	63.12
247.5	74.12
247.733	75.12
247.966	80.12
248.2	76.12
248.433	71.12
248.666	77.12
248.899	74.12
249.133	88.12
249.366	99.12
249.599	75.12
249.832	91.12
250.066	83.12
250.299	67.12
250.532	69.12
250.765	79.12
250.998	78.12
251.231	72.12
251.465	73.12
251.698	75.12
251.931	95.12
252.164	83.12
252.397	68.12
252.63	73.12
252.863	63.12
253.096	73.12
253.329	85.12
253.562	91.12
253.795	86.12
254.028	81.12
254.261	68.12
254.494	85.12
254.727	73.12
254.96	84.12
255.193	90.12
255.426	90.12
255.659	81.12
255.892	89.12
256.124	80.12
256.357	89.12
256.59	72.12
256.823	67.12
257.056	82.12
257.289	72.12
257.521	65.12
257.754	72.12
257.987	83.12
258.22	87.12
258.452	80.12
258.685	80.12
258.918	75.12
259.151	67.12
259.383	78.12
259.616	69.12
259.849	81.12
260.081	75.12
260.314	75.12
260.547	78.12
260.779	74.12
261.012	85.12
261.244	77.12
261.477	89.12
261.71	93.12
261.942	90.12
262.175	81.12
262.407	81.12
262.64	75.12
262.872	86.12
263.105	70.12
263.337	78.12
263.57	90.12
263.802	68.12
264.035	88.12
264.267	79.12
264.499	90.12
264.732	94.12
264.964	89.12
265.197	86.12
265.429	85.12
265.661	77.12
265.894	72.12
266.126	85.12
266.358	74.12
266.591	85.12
266.823	91.12
267.055	69.12
267.287	86.12
267.52	77.12
267.752	77.12
267.984	85.12
268.216	75.12
268.448	68.12
268.681	79.12
268.913	90.12
269.145	78.12
269.377	79.12
269.609	90.12
269.841	77.12
270.073	76.12
270.306	95.12
270.538	93.12
270.77	97.12
271.002	81.12
271.234	74.12
271.466	81.12
271.698	79.12
271.93	81.12
272.162	85.12
272.394	85.12
272.626	79.12
272.858	90.12
273.09	86.12
273.322	76.12
273.553	72.12
273.785	106.12
274.017	77.12
274.249	70.12
274.481	83.12
274.713	78.12
274.945	80.12
275.176	78.12
275.408	84.12
275.64	84.12
275.872	75.12
276.104	99.12
276.335	94.12
276.567	80.12
276.799	81.12
277.031	85.12
277.262	77.12
277.494	72.12
277.726	81.12
277.957	84.12
278.189	71.12
278.421	86.12
278.652	91.12
278.884	79.12
279.115	89.12
279.347	96.12
279.579	79.12
279.81	75.12
280.042	89.12
280.273	92.12
280.505	82.12
280.736	100.12
280.968	86.12
281.199	81.12
281.431	82.12
281.662	85.12
281.894	85.12
282.125	82.12
282.356	95.12
282.588	96.12
282.819	77.12
283.051	87.12
283.282	76.12
283.513	86.12
283.745	96.12
283.976	84.12
284.207	95.12
284.439	87.12
284.67	86.12
284.901	79.12
285.132	82.12
285.364	90.12
285.595	87.12
285.826	93.12
286.057	82.12
286.288	88.12
286.52	82.12
286.751	88.12
286.982	89.12
287.213	76.12
287.444	93.12
287.675	85.12
287.906	82.12
288.138	89.12
288.369	84.12
288.6	104.12
288.831	78.12
289.062	86.12
289.293	71.12
289.524	84.12
289.755	89.12
289.986	82.12
290.217	93.12
290.448	98.12
290.679	87.12
290.91	74.12
291.141	97.12
291.371	80.12
291.602	82.12
291.833	85.12
292.064	88.12
292.295	74.12
292.526	95.12
292.757	87.12
292.987	83.12
293.218	92.12
293.449	72.12
293.68	71.12
293.91	93.12
294.141	97.12
294.372	83.12
294.603	91.12
294.833	83.12
295.064	75.12
295.295	90.12
295.525	84.12
295.756	78.12
295.987	93.12
296.217	83.12
296.448	92.12
296.679	79.12
296.909	101.12
297.14	101.12
297.37	98.12
297.601	79.12
297.831	82.12
298.062	95.12
298.292	75.12
298.523	92.12
298.753	85.12
298.984	75.12
299.214	75.12
299.445	66.12
299.675	73.12
299.905	94.12
300.136	88.12
300.366	75.12
300.597	86.12
300.827	79.12
301.057	73.12
301.288	100.12
301.518	81.12
301.748	95.12
301.979	85.12
302.209	75.12
302.439	85.12
302.669	91.12
302.9	75.12
303.13	88.12
303.36	85.12
303.59	95.12
303.82	81.12
304.051	63.12
304.281	97.12
304.511	77.12
304.741	82.12
304.971	82.12
305.201	75.12
305.431	88.12
305.661	87.12
305.891	77.12
306.121	94.12
306.352	85.12
306.582	86.12
306.812	81.12
307.042	85.12
307.272	85.12
307.502	89.12
307.731	97.12
307.961	85.12
308.191	86.12
308.421	84.12
308.651	90.12
308.881	94.12
309.111	83.12
309.341	85.12
309.571	78.12
309.8	85.12
310.03	83.12
310.26	79.12
310.49	93.12
310.72	86.12
310.949	94.12
311.179	86.12
311.409	80.12
311.639	84.12
311.868	79.12
312.098	83.12
312.328	98.12
312.557	96.12
312.787	97.12
313.017	72.12
313.246	76.12
313.476	88.12
313.706	82.12
313.935	91.12
314.165	94.12
314.394	82.12
314.624	75.12
314.853	79.12
315.083	80.12
315.312	94.12
315.542	88.12
315.771	85.12
316.001	87.12
316.23	81.12
316.46	87.12
316.689	80.12
316.919	103.12
317.148	95.12
317.377	91.12
317.607	95.12
317.836	90.12
318.065	99.12
318.295	82.12
318.524	87.12
318.753	83.12
318.983	90.12
319.212	65.12
319.441	87.12
319.67	85.12
319.9	105.12
320.129	83.12
320.358	83.12
320.587	60.12
320.816	91.12
321.046	84.12
321.275	97.12
321.504	83.12
321.733	75.12
321.962	85.12
322.191	80.12
322.42	82.12
322.649	98.12
322.878	103.12
323.108	96.12
323.337	87.12
323.566	87.12
323.795	77.12
324.024	83.12
324.253	86.12
324.482	89.12
324.71	84.12
324.939	99.12
325.168	87.12
325.397	101.12
325.626	88.12
325.855	85.12
326.084	81.12
326.313	86.12
326.542	85.12
326.77	98.12
326.999	97.12
327.228	87.12
327.457	88.12
327.686	93.12
327.914	83.12
328.143	71.12
328.372	94.12
328.6	85.12
328.829	81.12
329.058	86.12
329.287	93.12
329.515	85.12
329.744	90.12
329.972	98.12
330.201	95.12
330.43	88.12
330.658	86.12
330.887	99.12
331.115	89.12
331.344	86.12
331.572	86.12
331.801	81.12
332.03	87.12
332.258	85.12
332.486	81.12
332.715	85.12
332.943	85.12
333.172	74.12
333.4	84.12
333.629	75.12
333.857	84.12
334.085	87.12
334.314	80.12
334.542	77.12
334.771	69.12
334.999	90.12
335.227	69.12
335.455	91.12
335.684	97.12
335.912	93.12
336.14	73.12
336.369	86.12
336.597	82.12
336.825	87.12
337.053	88.12
337.281	93.12
337.51	96.12
337.738	85.12
337.966	76.12
338.194	95.12
338.422	80.12
338.65	88.12
338.878	89.12
339.106	80.12
339.334	83.12
339.562	87.12
339.79	101.12
340.018	78.12
340.246	81.12
340.474	94.12
340.702	103.12
340.93	75.12
341.158	88.12
341.386	80.12
341.614	80.12
341.842	83.12
342.07	74.12
342.298	85.12
342.526	72.12
342.754	81.12
342.981	81.12
343.209	104.12
343.437	99.12
343.665	74.12
343.893	79.12
344.12	82.12
344.348	68.12
344.576	87.12
344.804	87.12
345.031	83.12
345.259	84.12
345.487	81.12
345.714	81.12
345.942	81.12
346.17	78.12
346.397	80.12
346.625	82.12
346.853	75.12
347.08	81.12
347.308	82.12
347.535	83.12
347.763	75.12
347.99	85.12
348.218	89.12
348.445	82.12
348.673	82.12
348.9	93.12
349.128	69.12
349.355	66.12
349.583	93.12
349.81	85.12
350.037	82.12
350.265	98.12
350.492	65.12
350.72	85.12
350.947	75.12
351.174	67.12
351.402	82.12
351.629	90.12
351.856	87.12
352.083	78.12
352.311	79.12
352.538	82.12
352.765	85.12
352.992	85.12
353.22	82.12
353.447	85.12
353.674	82.12
353.901	86.12
354.128	87.12
354.355	86.12
354.583	83.12
354.81	92.12
355.037	82.12
355.264	86.12
355.491	87.12
355.718	81.12
355.945	87.12
356.172	86.12
356.399	90.12
356.626	84.12
356.853	77.12
357.08	94.12
357.307	79.12
357.534	85.12
357.761	100.12
357.988	86.12
358.215	87.12
358.441	85.12
358.668	86.12
358.895	89.12
359.122	86.12
359.349	90.12
359.576	95.12
359.802	79.12
360.029	77.12
360.256	83.12
360.483	80.12
360.709	88.12
360.936	102.12
361.163	99.12
361.39	85.12
361.616	71.12
361.843	86.12
362.07	71.12
362.296	77.12
362.523	79.12
362.749	87.12
362.976	81.12
363.203	93.12
363.429	85.12
363.656	93.12
363.882	91.12
364.109	79.12
364.335	75.12
364.562	69.12
364.788	72.12
365.015	80.12
365.241	81.12
365.468	81.12
365.694	76.12
365.92	84.12
366.147	89.12
366.373	79.12
366.599	85.12
366.826	87.12
367.052	74.12
367.278	81.12
367.505	71.12
367.731	81.12
367.957	74.12
368.184	90.12
368.41	75.12
368.636	74.12
368.862	90.12
369.089	93.12
369.315	84.12
369.541	78.12
369.767	62.12
369.993	74.12
370.219	80.12
370.445	70.12
370.672	67.12
370.898	91.12
371.124	96.12
371.35	71.12
371.576	90.12
371.802	82.12
372.028	86.12
372.254	78.12
372.48	79.12
372.706	81.12
372.932	79.12
373.158	86.12
373.384	82.12
373.61	86.12
373.835	87.12
374.061	72.12
374.287	89.12
374.513	81.12
374.739	100.12
374.965	99.12
375.191	67.12
375.416	86.12
375.642	82.12
375.868	87.12
376.094	83.12
376.319	83.12
376.545	78.12
376.771	85.12
376.997	86.12
377.222	87.12
377.448	92.12
377.674	89.12
377.899	101.12
378.125	102.12
378.35	83.12
378.576	65.12
378.802	78.12
379.027	88.12
379.253	90.12
379.478	78.12
379.704	82.12
379.929	77.12
380.155	74.12
380.38	78.12
380.606	90.12
380.831	112.12
381.057	75.12
381.282	82.12
381.507	86.12
381.733	79.12
381.958	87.12
382.184	74.12
382.409	73.12
382.634	86.12
382.86	89.12
383.085	91.12
383.31	105.12
383.535	81.12
383.761	82.12
383.986	97.12
384.211	93.12
384.436	82.12
384.662	66.12
384.887	85.12
385.112	93.12
385.337	95.12
385.562	97.12
385.787	88.12
386.013	91.12
386.238	91.12
386.463	98.12
386.688	98.12
386.913	89.12
387.138	77.12
387.363	96.12
387.588	89.12
387.813	95.12
388.038	90.12
388.263	84.12
388.488	91.12
388.713	83.12
388.938	76.12
389.163	83.12
389.387	84.12
389.612	89.12
389.837	103.12
390.062	89.12
390.287	82.12
390.512	91.12
390.736	87.12
390.961	88.12
391.186	101.12
391.411	97.12
391.636	78.12
391.86	85.12
392.085	82.12
392.31	78.12
392.534	83.12
392.759	95.12
392.984	97.12
393.208	104.12
393.433	120.12
393.658	109.12
393.882	81.12
394.107	87.12
394.331	89.12
394.556	91.12
394.78	83.12
395.005	81.12
395.229	84.12
395.454	78.12
395.678	87.12
395.903	91.12
396.127	89.12
396.352	94.12
396.576	95.12
396.801	101.12
397.025	106.12
397.249	89.12
397.474	81.12
397.698	76.12
397.922	84.12
398.147	104.12
398.371	74.12
398.595	85.12
398.82	74.12
399.044	69.12
399.268	74.12
399.492	88.12
399.717	87.12
399.941	76.12
400.165	95.12
400.389	93.12
400.613	93.12
400.837	85.12
401.062	97.12
401.286	93.12
401.51	83.12
401.734	70.12
401.958	86.12
402.182	84.12
402.406	91.12
402.63	79.12
402.854	88.12
403.078	94.12
403.302	81.12
403.526	90.12
403.75	78.12
403.974	95.12
404.198	84.12
404.422	95.12
404.645	95.12
404.869	82.12
405.093	81.12
405.317	77.12
405.541	86.12
405.765	85.12
405.988	78.12
406.212	83.12
406.436	72.12
406.66	90.12
406.883	77.12
407.107	77.12
407.331	86.12
407.555	78.12
407.778	93.12
408.002	74.12
408.226	78.12
408.449	78.12
408.673	102.12
408.896	88.12
409.12	79.12
409.344	79.12
409.567	79.12
409.791	87.12
410.014	69.12
410.238	71.12
410.461	102.12
410.685	80.12
410.908	82.12
411.132	94.12
411.355	83.12
411.578	79.12
411.802	82.12
412.025	81.12
412.249	95.12
412.472	80.12
412.695	77.12
412.919	88.12
413.142	87.12
413.365	99.12
413.589	74.12
413.812	90.12
414.035	91.12
414.258	98.12
414.482	82.12
414.705	73.12
414.928	90.12
415.151	93.12
415.374	79.12
415.597	82.12
415.821	80.12
416.044	83.12
416.267	73.12
416.49	79.12
416.713	72.12
416.936	69.12
417.159	100.12
417.382	85.12
417.605	91.12
417.828	87.12
418.051	89.12
418.274	88.12
418.497	78.12
418.72	88.12
418.943	71.12
419.166	84.12
419.389	83.12
419.611	77.12
419.834	74.12
420.057	88.12
420.28	81.12
420.503	87.12
420.726	73.12
420.948	80.12
421.171	79.12
421.394	86.12
421.617	97.12
421.839	93.12
422.062	91.12
422.285	104.12
422.507	91.12
422.73	113.12
422.953	90.12
423.175	87.12
423.398	83.12
423.621	78.12
423.843	74.12
424.066	94.12
424.288	82.12
424.511	77.12
424.733	83.12
424.956	76.12
425.178	85.12
425.401	87.12
425.623	74.12
425.846	71.12
426.068	80.12
426.291	95.12
426.513	86.12
426.735	68.12
426.958	77.12
427.18	90.12
427.402	68.12
427.625	79.12
427.847	101.12
428.069	83.12
428.292	79.12
428.514	82.12
428.736	74.12
428.958	82.12
429.181	88.12
429.403	75.12
429.625	72.12
429.847	81.12
430.069	80.12
430.292	91.12
430.514	87.12
430.736	89.12
430.958	80.12
431.18	96.12
431.402	82.12
431.624	91.12
431.846	72.12
432.068	89.12
432.29	84.12
432.512	90.12
432.734	71.12
432.956	84.12
433.178	85.12
433.4	96.12
433.622	79.12
433.844	93.12
434.066	65.12
434.287	69.12
434.509	82.12
434.731	70.12
434.953	79.12
435.175	94.12
435.397	77.12
435.618	71.12
435.84	83.12
436.062	76.12
436.284	81.12
436.505	93.12
436.727	68.12
436.949	67.12
437.17	82.12
437.392	75.12
437.614	83.12
437.835	65.12
438.057	87.12
438.278	73.12
438.5	85.12
438.721	95.12
438.943	93.12
439.165	78.12
439.386	70.12
439.608	60.12
439.829	85.12
440.05	85.12
440.272	81.12
440.493	89.12
440.715	85.12
440.936	74.12
441.158	91.12
441.379	86.12
441.6	86.12
441.822	89.12
442.043	86.12
442.264	85.12
442.486	83.12
442.707	69.12
442.928	85.12
443.149	68.12
443.371	86.12
443.592	72.12
443.813	79.12
444.034	69.12
444.255	87.12
444.476	89.12
444.698	73.12
444.919	81.12
445.14	143.12
445.361	104.12
445.582	83.12
445.803	78.12
446.024	88.12
446.245	91.12
446.466	87.12
446.687	85.12
446.908	82.12
447.129	64.12
447.35	72.12
447.571	69.12
447.792	82.12
448.013	91.12
448.234	78.12
448.455	85.12
448.675	80.12
448.896	87.12
449.117	75.12
449.338	80.12
449.559	95.12
449.779	94.12
450	98.12
450.221	82.12
450.442	78.12
450.662	82.12
450.883	85.12
451.104	76.12
451.324	80.12
451.545	84.12
451.766	84.12
451.986	76.12
452.207	83.12
452.428	73.12
452.648	80.12
452.869	95.12
453.089	73.12
453.31	77.12
453.53	80.12
453.751	76.12
453.971	84.12
454.192	80.12
454.412	74.12
454.633	82.12
454.853	89.12
455.073	70.12
455.294	77.12
455.514	82.12
455.734	82.12
455.955	67.12
456.175	91.12
456.395	65.12
456.616	80.12
456.836	79.12
457.056	77.12
457.276	78.12
457.497	85.12
457.717	70.12
457.937	83.12
458.157	73.12
458.377	93.12
458.598	83.12
458.818	83.12
459.038	81.12
459.258	81.12
459.478	98.12
459.698	91.12
459.918	91.12
460.138	74.12
460.358	74.12
460.578	94.12
460.798	97.12
461.018	88.12
461.238	86.12
461.458	80.12
461.678	71.12
461.898	73.12
462.118	78.12
462.338	78.12
462.558	69.12
462.777	70.12
462.997	97.12
463.217	93.12
463.437	74.12
463.657	77.12
463.876	92.12
464.096	102.12
464.316	82.12
464.536	83.12
464.755	67.12
464.975	89.12
465.195	81.12
465.414	77.12
465.634	83.12
465.854	71.12
466.073	91.12
466.293	79.12
466.512	96.12
466.732	89.12
466.951	64.12
467.171	80.12
467.391	83.12
467.61	77.12
467.829	83.12
468.049	77.12
468.268	81.12
468.488	74.12
468.707	67.12
468.927	66.12
469.146	70.12
469.365	78.12
469.585	78.12
469.804	83.12
470.023	87.12
470.243	83.12
470.462	71.12
470.681	79.12
470.901	101.12
471.12	81.12
471.339	74.12
471.558	93.12
471.777	83.12
471.997	82.12
472.216	98.12
472.435	86.12
472.654	86.12
472.873	95.12
473.092	89.12
473.311	99.12
473.53	81.12
473.749	74.12
473.968	73.12
474.187	85.12
474.406	81.12
474.625	78.12
474.844	80.12
475.063	82.12
475.282	98.12
475.501	72.12
475.72	89.12
475.939	71.12
476.158	81.12
476.377	81.12
476.596	84.12
476.814	78.12
477.033	79.12
477.252	82.12
477.471	93.12
477.69	69.12
477.908	72.12
478.127	75.12
478.346	81.12
478.564	77.12
478.783	77.12
479.002	69.12
479.22	84.12
479.439	90.12
479.658	77.12
479.876	88.12
480.095	73.12
480.313	78.12
480.532	75.12
480.751	84.12
480.969	77.12
481.188	80.12
481.406	90.12
481.624	103.12
481.843	89.12
482.061	84.12
482.28	77.12
482.498	94.12
482.717	81.12
482.935	83.12
483.153	90.12
483.372	87.12
483.59	89.12
483.808	71.12
484.027	86.12
484.245	83.12
484.463	75.12
484.681	87.12
484.9	71.12
485.118	75.12
485.336	74.12
485.554	88.12
485.772	75.12
485.99	96.12
486.209	83.12
486.427	84.12
486.645	82.12
486.863	86.12
487.081	90.12
487.299	78.12
487.517	82.12
487.735	91.12
487.953	74.12
488.171	83.12
488.389	80.12
488.607	89.12
488.825	77.12
489.043	82.12
489.261	93.12
489.479	75.12
489.696	76.12
489.914	78.12
490.132	66.12
490.35	89.12
490.568	80.12
490.786	85.12
491.003	81.12
491.221	77.12
491.439	75.12
491.657	85.12
491.874	82.12
492.092	77.12
492.31	83.12
492.527	97.12
492.745	77.12
492.963	81.12
493.18	103.12
493.398	94.12
493.615	73.12
493.833	74.12
494.05	85.12
494.268	90.12
494.485	83.12
494.703	76.12
494.92	83.12
495.138	82.12
495.355	83.12
495.573	75.12
495.79	76.12
496.008	82.12
496.225	76.12
496.442	76.12
496.66	87.12
496.877	83.12
497.094	75.12
497.312	75.12
497.529	78.12
497.746	71.12
497.963	75.12
498.181	74.12
498.398	93.12
498.615	95.12
498.832	94.12
499.049	77.12
499.267	75.12
499.484	73.12
499.701	80.12
499.918	83.12
500.135	90.12
500.352	86.12
500.569	85.12
500.786	81.12
501.003	82.12
501.22	76.12
501.437	77.12
501.654	82.12
501.871	97.12
502.088	98.12
502.305	83.12
502.522	91.12
502.739	97.12
502.956	79.12
503.172	86.12
503.389	74.12
503.606	74.12
503.823	87.12
504.04	102.12
504.256	83.12
504.473	79.12
504.69	82.12
504.907	88.12
505.123	89.12
505.34	74.12
505.557	85.12
505.773	101.12
505.99	89.12
506.207	89.12
506.423	87.12
506.64	84.12
506.856	78.12
507.073	97.12
507.289	87.12
507.506	78.12
507.722	81.12
507.939	99.12
508.155	86.12
508.372	79.12
508.588	83.12
508.805	79.12
509.021	89.12
509.238	95.12
509.454	93.12
509.67	84.12
509.887	85.12
510.103	84.12
510.319	89.12
510.536	88.12
510.752	73.12
510.968	96.12
511.184	78.12
511.401	83.12
511.617	97.12
511.833	94.12
512.049	85.12
512.265	81.12
512.481	83.12
512.698	81.12
512.914	84.12
513.13	85.12
513.346	83.12
513.562	95.12
513.778	72.12
513.994	88.12
514.21	82.12
514.426	79.12
514.642	73.12
514.858	86.12
515.074	74.12
515.29	81.12
515.506	77.12
515.721	97.12
515.937	89.12
516.153	79.12
516.369	91.12
516.585	83.12
516.801	74.12
517.016	90.12
517.232	69.12
517.448	93.12
517.664	83.12
517.879	95.12
518.095	102.12
518.311	99.12
518.527	81.12
518.742	87.12
518.958	88.12
519.173	86.12
519.389	86.12
519.605	83.12
519.82	74.12
520.036	87.12
520.251	82.12
520.467	75.12
520.682	92.12
520.898	93.12
521.113	92.12
521.329	81.12
521.544	87.12
521.76	97.12
521.975	92.12
522.19	68.12
522.406	83.12
522.621	85.12
522.836	80.12
523.052	89.12
523.267	101.12
523.482	83.12
523.698	94.12
523.913	80.12
524.128	84.12
524.343	77.12
524.559	77.12
524.774	109.12
524.989	88.12
525.204	83.12
525.419	74.12
525.634	85.12
525.849	83.12
526.064	89.12
526.28	79.12
526.495	78.12
526.71	86.12
526.925	81.12
527.14	75.12
527.355	82.12
527.57	77.12
527.785	75.12
527.999	81.12
528.214	80.12
528.429	85.12
528.644	85.12
528.859	85.12
529.074	69.12
529.289	96.12
529.503	80.12
529.718	74.12
529.933	83.12
530.148	88.12
530.363	77.12
530.577	93.12
530.792	93.12
531.007	70.12
531.221	87.12
531.436	77.12
531.651	75.12
531.865	83.12
532.08	87.12
532.295	89.12
532.509	96.12
532.724	76.12
532.938	75.12
533.153	90.12
533.367	77.12
533.582	68.12
533.796	85.12
534.011	79.12
534.225	89.12
534.44	91.12
534.654	93.12
534.868	78.12
535.083	88.12
535.297	88.12
535.511	88.12
535.726	74.12
535.94	88.12
536.154	98.12
536.369	91.12
536.583	89.12
536.797	89.12
537.011	79.12
537.225	96.12
537.44	88.12
537.654	93.12
537.868	87.12
538.082	88.12
538.296	88.12
538.51	73.12
538.724	85.12
538.938	84.12
539.153	81.12
539.367	79.12
539.581	75.12
539.795	83.12
540.009	95.12
540.222	69.12
540.436	77.12
540.65	85.12
540.864	75.12
541.078	93.12
541.292	95.12
541.506	85.12
541.72	85.12
541.934	83.12
542.147	78.12
542.361	65.12
542.575	69.12
542.789	76.12
543.002	89.12
543.216	86.12
543.43	82.12
543.644	83.12
543.857	100.12
544.071	89.12
544.285	83.12
544.498	79.12
544.712	96.12
544.925	84.12
545.139	79.12
545.352	75.12
545.566	90.12
545.779	80.12
545.993	75.12
546.206	66.12
546.42	79.12
546.633	89.12
546.847	95.12
547.06	85.12
547.274	74.12
547.487	89.12
547.7	85.12
547.914	85.12
548.127	87.12
548.34	85.12
548.554	83.12
548.767	84.12
548.98	90.12
549.193	94.12
549.407	81.12
549.62	112.12
549.833	95.12
550.046	79.12
550.259	81.12
550.473	89.12
550.686	97.12
550.899	87.12
551.112	86.12
551.325	82.12
551.538	91.12
551.751	94.12
551.964	93.12
552.177	109.12
552.39	96.12
552.603	82.12
552.816	83.12
553.029	88.12
553.242	79.12
553.455	77.12
553.667	93.12
553.88	75.12
554.093	94.12
554.306	87.12
554.519	88.12
554.732	97.12
554.944	86.12
555.157	75.12
555.37	87.12
555.583	81.12
555.795	102.12
556.008	83.12
556.221	80.12
556.433	93.12
556.646	82.12
556.859	98.12
557.071	86.12
557.284	75.12
557.496	88.12
557.709	87.12
557.921	87.12
558.134	78.12
558.346	79.12
558.559	98.12
558.771	78.12
558.984	76.12
559.196	93.12
559.409	95.12
559.621	82.12
559.833	86.12
560.046	63.12
560.258	85.12
560.47	81.12
560.683	92.12
560.895	82.12
561.107	93.12
561.32	81.12
561.532	62.12
561.744	80.12
561.956	77.12
562.168	85.12
562.381	82.12
562.593	83.12
562.805	80.12
563.017	84.12
563.229	86.12
563.441	73.12
563.653	85.12
563.865	85.12
564.077	80.12
564.289	77.12
564.501	88.12
564.713	85.12
564.925	93.12
565.137	89.12
565.349	84.12
565.561	73.12
565.773	91.12
565.985	73.12
566.197	79.12
566.408	90.12
566.62	84.12
566.832	95.12
567.044	88.12
567.255	81.12
567.467	103.12
567.679	83.12
567.891	86.12
568.102	96.12
568.314	75.12
568.526	76.12
568.737	105.12
568.949	93.12
569.161	63.12
569.372	75.12
569.584	81.12
569.795	93.12
570.007	83.12
570.218	87.12
570.43	94.12
570.641	70.12
570.853	99.12
571.064	82.12
571.276	85.12
571.487	77.12
571.698	85.12
571.91	80.12
572.121	93.12
572.333	82.12
572.544	79.12
572.755	95.12
572.966	103.12
573.178	94.12
573.389	95.12
573.6	82.12
573.811	87.12
574.023	82.12
574.234	98.12
574.445	86.12
574.656	80.12
574.867	78.12
575.078	85.12
575.289	87.12
575.501	89.12
575.712	84.12
575.923	96.12
576.134	83.12
576.345	88.12
576.556	86.12
576.767	97.12
576.978	97.12
577.188	76.12
577.399	82.12
577.61	90.12
577.821	85.12
578.032	90.12
578.243	92.12
578.454	97.12
578.665	112.12
578.875	86.12
579.086	91.12
579.297	80.12
579.508	95.12
579.718	103.12
579.929	100.12
580.14	90.12
580.35	83.12
580.561	64.12
580.772	85.12
580.982	74.12
581.193	79.12
581.403	104.12
581.614	93.12
581.825	79.12
582.035	100.12
582.246	84.12
582.456	98.12
582.667	90.12
582.877	87.12
583.087	79.12
583.298	83.12
583.508	85.12
583.719	90.12
583.929	88.12
584.139	89.12
584.35	82.12
584.56	73.12
584.77	93.12
584.981	101.12
585.191	83.12
585.401	86.12
585.611	93.12
585.821	90.12
586.032	79.12
586.242	85.12
586.452	90.12
586.662	99.12
586.872	99.12
587.082	75.12
587.292	88.12
587.502	88.12
587.713	94.12
587.923	107.12
588.133	85.12
588.343	97.12
588.553	97.12
588.762	123.12
588.972	223.12
589.182	481.12
589.392	276.12
589.602	225.12
589.812	386.12
590.022	187.12
590.232	102.12
590.441	95.12
590.651	86.12
590.861	87.12
591.071	98.12
591.281	97.12
591.49	83.12
591.7	74.12
591.91	81.12
592.119	81.12
592.329	86.12
592.539	88.12
592.748	80.12
592.958	84.12
593.167	76.12
593.377	93.12
593.587	88.12
593.796	85.12
594.006	89.12
594.215	90.12
594.424	74.12
594.634	75.12
594.843	95.12
595.053	83.12
595.262	85.12
595.472	91.12
595.681	93.12
595.89	91.12
596.1	88.12
596.309	82.12
596.518	87.12
596.727	87.12
596.937	83.12
597.146	82.12
597.355	86.12
597.564	71.12
597.774	93.12
597.983	74.12
598.192	80.12
598.401	82.12
598.61	99.12
598.819	81.12
599.028	78.12
599.237	86.12
599.446	82.12
599.655	81.12
599.864	87.12
600.073	86.12
600.282	92.12
600.491	93.12
600.7	82.12
600.909	79.12
601.118	87.12
601.327	98.12
601.536	104.12
601.745	87.12
601.953	95.12
602.162	93.12
602.371	80.12
602.58	90.12
602.789	74.12
602.997	96.12
603.206	94.12
603.415	93.12
603.623	91.12
603.832	83.12
604.041	84.12
604.249	79.12
604.458	90.12
604.666	86.12
604.875	86.12
605.084	75.12
605.292	101.12
605.501	91.12
605.709	79.12
605.918	77.12
606.126	87.12
606.334	82.12
606.543	83.12
606.751	66.12
606.96	86.12
607.168	72.12
607.376	80.12
607.585	89.12
607.793	93.12
608.001	83.12
608.21	90.12
608.418	83.12
608.626	83.12
608.834	89.12
609.043	85.12
609.251	91.12
609.459	81.12
609.667	86.12
609.875	82.12
610.083	83.12
610.291	77.12
610.499	82.12
610.707	74.12
610.916	74.12
611.124	90.12
611.332	83.12
611.54	97.12
611.748	83.12
611.955	87.12
612.163	79.12
612.371	87.12
612.579	94.12
612.787	89.12
612.995	93.12
613.203	87.12
613.411	85.12
613.618	93.12
613.826	86.12
614.034	93.12
614.242	103.12
614.449	97.12
614.657	80.12
614.865	88.12
615.072	107.12
615.28	89.12
615.488	79.12
615.695	78.12
615.903	80.12
616.111	85.12
616.318	93.12
616.526	105.12
616.733	84.12
616.941	82.12
617.148	90.12
617.356	93.12
617.563	77.12
617.771	88.12
617.978	97.12
618.185	95.12
618.393	100.12
618.6	87.12
618.807	88.12
619.015	83.12
619.222	86.12
619.429	80.12
619.637	88.12
619.844	88.12
620.051	79.12
620.258	86.12
620.466	79.12
620.673	90.12
620.88	92.12
621.087	81.12
621.294	87.12
621.501	93.12
621.708	95.12
621.915	82.12
622.122	95.12
622.329	89.12
622.536	98.12
622.743	100.12
622.95	93.12
623.157	78.12
623.364	83.12
623.571	82.12
623.778	91.12
623.985	88.12
624.192	71.12
624.399	82.12
624.606	103.12
624.812	97.12
625.019	84.12
625.226	85.12
625.433	99.12
625.639	95.12
625.846	86.12
626.053	81.12
626.259	71.12
626.466	83.12
626.673	89.12
626.879	86.12
627.086	100.12
627.293	102.12
627.499	89.12
627.706	80.12
627.912	90.12
628.119	83.12
628.325	91.12
628.532	89.12
628.738	82.12
628.945	80.12
629.151	100.12
629.357	90.12
629.564	95.12
629.77	101.12
629.976	75.12
630.183	82.12
630.389	75.12
630.595	77.12
630.802	97.12
631.008	70.12
631.214	87.12
631.42	85.12
631.627	94.12
631.833	95.12
632.039	79.12
632.245	77.12
632.451	74.12
632.657	75.12
632.863	88.12
633.069	77.12
633.275	89.12
633.481	85.12
633.688	75.12
633.893	82.12
634.099	83.12
634.305	75.12
634.511	97.12
634.717	93.12
634.923	73.12
635.129	87.12
635.335	70.12
635.541	97.12
635.747	83.12
635.952	97.12
636.158	88.12
636.364	105.12
636.57	82.12
636.775	97.12
636.981	85.12
637.187	85.12
637.392	76.12
637.598	80.12
637.804	81.12
638.009	78.12
638.215	90.12
638.421	107.12
638.626	85.12
638.832	85.12
639.037	90.12
639.243	90.12
639.448	98.12
639.654	98.12
639.859	96.12
640.065	70.12
640.27	77.12
640.475	80.12
640.681	82.12
640.886	79.12
641.091	79.12
641.297	106.12
641.502	84.12
641.707	81.12
641.913	96.12
642.118	94.12
642.323	79.12
642.528	98.12
642.733	77.12
642.939	89.12
643.144	80.12
643.349	82.12
643.554	89.12
643.759	84.12
643.964	79.12
644.169	90.12
644.374	83.12
644.579	85.12
644.784	85.12
644.989	99.12
645.194	77.12
645.399	90.12
645.604	93.12
645.809	87.12
646.014	101.12
646.219	81.12
646.423	82.12
646.628	94.12
646.833	91.12
647.038	81.12
647.243	88.12
647.447	84.12
647.652	88.12
647.857	82.12
648.062	96.12
648.266	78.12
648.471	73.12
648.676	81.12
648.88	72.12
649.085	86.12
649.289	76.12
649.494	89.12
649.698	83.12
649.903	86.12
650.107	69.12
650.312	84.12
650.516	73.12
650.721	79.12
650.925	86.12
651.13	78.12
651.334	80.12
651.539	90.12
651.743	78.12
651.947	86.12
652.152	84.12
652.356	88.12
652.56	84.12
652.764	76.12
652.969	75.12
653.173	82.12
653.377	89.12
653.581	71.12
653.785	82.12
653.99	85.12
654.194	86.12
654.398	87.12
654.602	85.12
654.806	76.12
655.01	86.12
655.214	81.12
655.418	89.12
655.622	82.12
655.826	78.12
656.03	81.12
656.234	89.12
656.438	88.12
656.642	85.12
656.846	85.12
657.049	86.12
657.253	85.12
657.457	79.12
657.661	85.12
657.865	93.12
658.068	88.12
658.272	85.12
658.476	75.12
658.68	66.12
658.883	101.12
659.087	67.12
659.291	84.12
659.494	89.12
659.698	83.12
659.901	74.12
660.105	81.12
660.309	85.12
660.512	82.12
660.716	73.12
660.919	68.12
661.123	81.12
661.326	88.12
661.53	83.12
661.733	88.12
661.936	96.12
662.14	87.12
662.343	84.12
662.546	72.12
662.75	75.12
662.953	87.12
663.156	92.12
663.36	84.12
663.563	75.12
663.766	82.12
663.969	87.12
664.173	81.12
664.376	101.12
664.579	76.12
664.782	90.12
664.985	82.12
665.188	89.12
665.391	86.12
665.594	82.12
665.797	74.12
666	78.12
666.203	78.12
666.406	84.12
666.609	96.12
666.812	79.12
667.015	93.12
667.218	82.12
667.421	86.12
667.624	96.12
667.827	85.12
668.03	89.12
668.232	89.12
668.435	67.12
668.638	79.12
668.841	81.12
669.043	83.12
669.246	85.12
669.449	87.12
669.651	78.12
669.854	93.12
670.057	77.12
670.259	85.12
670.462	86.12
670.665	88.12
670.867	86.12
671.07	93.12
671.272	77.12
671.475	87.12
671.677	87.12
671.88	90.12
672.082	90.12
672.284	83.12
672.487	87.12
672.689	87.12
672.892	74.12
