Data from Uncirc_2003_H10_HRD10591_00078.txt Node
Date: Wed Jan 03 10:36:03 EST 2024
User: Yrep
Spectrometer: HR+D1059
Trigger mode: 1
Integration Time (sec): 1.000000E-1
Scans to average: 1
Electric dark correction enabled: true
Nonlinearity correction enabled: false
Boxcar width: 0
XAxis mode: Wavelengths
Number of Pixels in Spectrum: 2048
>>>>>Begin Spectral Data<<<<<
223.165	-25.56
223.4	-25.56
223.635	-25.56
223.869	-18.56
224.104	-21.56
224.338	-23.56
224.573	-13.56
224.808	-15.56
225.042	-12.56
225.277	2.44
225.511	8.44
225.746	13.44
225.98	1.44
226.215	19.44
226.449	11.44
226.683	15.44
226.918	26.44
227.152	32.44
227.387	36.44
227.621	32.44
227.856	54.44
228.09	52.44
228.324	55.44
228.559	56.44
228.793	63.44
229.027	67.44
229.262	73.44
229.496	72.44
229.73	77.44
229.964	70.44
230.199	68.44
230.433	74.44
230.667	78.44
230.901	84.44
231.136	80.44
231.37	79.44
231.604	89.44
231.838	77.44
232.072	77.44
232.306	86.44
232.541	88.44
232.775	70.44
233.009	78.44
233.243	91.44
233.477	84.44
233.711	74.44
233.945	76.44
234.179	97.44
234.413	79.44
234.647	78.44
234.881	84.44
235.115	83.44
235.349	82.44
235.583	77.44
235.817	100.44
236.051	82.44
236.285	72.44
236.519	89.44
236.753	83.44
236.987	74.44
237.221	73.44
237.455	81.44
237.689	81.44
237.922	72.44
238.156	86.44
238.39	68.44
238.624	91.44
238.858	90.44
239.091	68.44
239.325	91.44
239.559	87.44
239.793	89.44
240.027	98.44
240.26	87.44
240.494	86.44
240.728	94.44
240.961	93.44
241.195	79.44
241.429	76.44
241.662	82.44
241.896	65.44
242.13	77.44
242.363	81.44
242.597	95.44
242.83	84.44
243.064	87.44
243.298	81.44
243.531	78.44
243.765	71.44
243.998	71.44
244.232	92.44
244.465	78.44
244.699	68.44
244.932	69.44
245.166	72.44
245.399	80.44
245.633	88.44
245.866	92.44
246.099	84.44
246.333	90.44
246.566	98.44
246.8	69.44
247.033	75.44
247.266	70.44
247.5	72.44
247.733	75.44
247.966	92.44
248.2	74.44
248.433	88.44
248.666	79.44
248.899	92.44
249.133	69.44
249.366	82.44
249.599	103.44
249.832	99.44
250.066	84.44
250.299	95.44
250.532	80.44
250.765	74.44
250.998	72.44
251.231	81.44
251.465	84.44
251.698	82.44
251.931	84.44
252.164	79.44
252.397	79.44
252.63	87.44
252.863	75.44
253.096	63.44
253.329	75.44
253.562	80.44
253.795	78.44
254.028	74.44
254.261	82.44
254.494	76.44
254.727	70.44
254.96	80.44
255.193	81.44
255.426	95.44
255.659	84.44
255.892	81.44
256.124	83.44
256.357	90.44
256.59	86.44
256.823	68.44
257.056	78.44
257.289	74.44
257.521	89.44
257.754	81.44
257.987	77.44
258.22	81.44
258.452	78.44
258.685	102.44
258.918	76.44
259.151	72.44
259.383	89.44
259.616	86.44
259.849	82.44
260.081	94.44
260.314	91.44
260.547	84.44
260.779	83.44
261.012	98.44
261.244	98.44
261.477	86.44
261.71	83.44
261.942	102.44
262.175	119.44
262.407	84.44
262.64	92.44
262.872	96.44
263.105	91.44
263.337	75.44
263.57	92.44
263.802	86.44
264.035	74.44
264.267	94.44
264.499	87.44
264.732	96.44
264.964	82.44
265.197	81.44
265.429	76.44
265.661	87.44
265.894	93.44
266.126	85.44
266.358	77.44
266.591	89.44
266.823	73.44
267.055	86.44
267.287	90.44
267.52	95.44
267.752	91.44
267.984	81.44
268.216	78.44
268.448	92.44
268.681	100.44
268.913	71.44
269.145	74.44
269.377	88.44
269.609	92.44
269.841	82.44
270.073	81.44
270.306	81.44
270.538	93.44
270.77	78.44
271.002	68.44
271.234	90.44
271.466	69.44
271.698	87.44
271.93	72.44
272.162	89.44
272.394	90.44
272.626	79.44
272.858	91.44
273.09	88.44
273.322	83.44
273.553	82.44
273.785	92.44
274.017	83.44
274.249	95.44
274.481	84.44
274.713	86.44
274.945	85.44
275.176	83.44
275.408	98.44
275.64	89.44
275.872	90.44
276.104	84.44
276.335	74.44
276.567	91.44
276.799	101.44
277.031	78.44
277.262	97.44
277.494	87.44
277.726	98.44
277.957	83.44
278.189	85.44
278.421	83.44
278.652	92.44
278.884	80.44
279.115	89.44
279.347	76.44
279.579	99.44
279.81	82.44
280.042	87.44
280.273	96.44
280.505	84.44
280.736	76.44
280.968	92.44
281.199	99.44
281.431	82.44
281.662	85.44
281.894	93.44
282.125	87.44
282.356	110.44
282.588	121.44
282.819	115.44
283.051	85.44
283.282	96.44
283.513	80.44
283.745	85.44
283.976	93.44
284.207	85.44
284.439	76.44
284.67	85.44
284.901	97.44
285.132	106.44
285.364	71.44
285.595	79.44
285.826	81.44
286.057	90.44
286.288	76.44
286.52	95.44
286.751	90.44
286.982	92.44
287.213	90.44
287.444	91.44
287.675	94.44
287.906	72.44
288.138	102.44
288.369	86.44
288.6	93.44
288.831	97.44
289.062	90.44
289.293	86.44
289.524	99.44
289.755	96.44
289.986	96.44
290.217	93.44
290.448	95.44
290.679	76.44
290.91	85.44
291.141	87.44
291.371	83.44
291.602	86.44
291.833	83.44
292.064	86.44
292.295	82.44
292.526	80.44
292.757	86.44
292.987	83.44
293.218	88.44
293.449	93.44
293.68	100.44
293.91	86.44
294.141	96.44
294.372	87.44
294.603	73.44
294.833	84.44
295.064	89.44
295.295	69.44
295.525	81.44
295.756	99.44
295.987	118.44
296.217	143.44
296.448	126.44
296.679	88.44
296.909	96.44
297.14	96.44
297.37	88.44
297.601	79.44
297.831	88.44
298.062	90.44
298.292	95.44
298.523	84.44
298.753	85.44
298.984	114.44
299.214	89.44
299.445	89.44
299.675	111.44
299.905	96.44
300.136	80.44
300.366	105.44
300.597	102.44
300.827	93.44
301.057	101.44
301.288	107.44
301.518	88.44
301.748	97.44
301.979	111.44
302.209	83.44
302.439	78.44
302.669	102.44
302.9	98.44
303.13	92.44
303.36	88.44
303.59	103.44
303.82	110.44
304.051	90.44
304.281	87.44
304.511	91.44
304.741	90.44
304.971	90.44
305.201	92.44
305.431	90.44
305.661	90.44
305.891	107.44
306.121	92.44
306.352	98.44
306.582	101.44
306.812	100.44
307.042	100.44
307.272	87.44
307.502	94.44
307.731	99.44
307.961	103.44
308.191	94.44
308.421	82.44
308.651	90.44
308.881	90.44
309.111	83.44
309.341	88.44
309.571	102.44
309.8	81.44
310.03	89.44
310.26	101.44
310.49	88.44
310.72	94.44
310.949	101.44
311.179	86.44
311.409	74.44
311.639	82.44
311.868	90.44
312.098	89.44
312.328	96.44
312.557	91.44
312.787	99.44
313.017	81.44
313.246	92.44
313.476	98.44
313.706	105.44
313.935	85.44
314.165	103.44
314.394	96.44
314.624	103.44
314.853	94.44
315.083	97.44
315.312	91.44
315.542	102.44
315.771	100.44
316.001	104.44
316.23	100.44
316.46	100.44
316.689	81.44
316.919	81.44
317.148	103.44
317.377	98.44
317.607	89.44
317.836	92.44
318.065	96.44
318.295	92.44
318.524	106.44
318.753	89.44
318.983	106.44
319.212	97.44
319.441	98.44
319.67	105.44
319.9	92.44
320.129	100.44
320.358	92.44
320.587	90.44
320.816	93.44
321.046	84.44
321.275	103.44
321.504	95.44
321.733	107.44
321.962	93.44
322.191	116.44
322.42	107.44
322.649	114.44
322.878	104.44
323.108	114.44
323.337	120.44
323.566	140.44
323.795	148.44
324.024	219.44
324.253	420.44
324.482	912.44
324.71	1840.44
324.939	2481.44
325.168	892.44
325.397	257.44
325.626	155.44
325.855	144.44
326.084	127.44
326.313	136.44
326.542	171.44
326.77	234.44
326.999	486.44
327.228	1003.44
327.457	1846.44
327.686	1450.44
327.914	400.44
328.143	179.44
328.372	146.44
328.6	118.44
328.829	112.44
329.058	125.44
329.287	132.44
329.515	116.44
329.744	104.44
329.972	104.44
330.201	106.44
330.43	105.44
330.658	124.44
330.887	137.44
331.115	126.44
331.344	108.44
331.572	105.44
331.801	102.44
332.03	106.44
332.258	92.44
332.486	97.44
332.715	86.44
332.943	94.44
333.172	92.44
333.4	100.44
333.629	110.44
333.857	106.44
334.085	116.44
334.314	99.44
334.542	90.44
334.771	96.44
334.999	90.44
335.227	92.44
335.455	88.44
335.684	101.44
335.912	110.44
336.14	110.44
336.369	86.44
336.597	93.44
336.825	95.44
337.053	83.44
337.281	90.44
337.51	98.44
337.738	108.44
337.966	99.44
338.194	97.44
338.422	77.44
338.65	89.44
338.878	103.44
339.106	91.44
339.334	85.44
339.562	91.44
339.79	103.44
340.018	92.44
340.246	107.44
340.474	107.44
340.702	87.44
340.93	105.44
341.158	92.44
341.386	109.44
341.614	96.44
341.842	101.44
342.07	90.44
342.298	104.44
342.526	83.44
342.754	83.44
342.981	97.44
343.209	90.44
343.437	107.44
343.665	95.44
343.893	83.44
344.12	92.44
344.348	85.44
344.576	88.44
344.804	98.44
345.031	89.44
345.259	104.44
345.487	95.44
345.714	88.44
345.942	86.44
346.17	83.44
346.397	72.44
346.625	91.44
346.853	96.44
347.08	96.44
347.308	102.44
347.535	92.44
347.763	101.44
347.99	109.44
348.218	102.44
348.445	97.44
348.673	91.44
348.9	99.44
349.128	94.44
349.355	98.44
349.583	97.44
349.81	105.44
350.037	107.44
350.265	106.44
350.492	106.44
350.72	111.44
350.947	106.44
351.174	102.44
351.402	106.44
351.629	98.44
351.856	96.44
352.083	98.44
352.311	112.44
352.538	111.44
352.765	102.44
352.992	105.44
353.22	101.44
353.447	107.44
353.674	109.44
353.901	84.44
354.128	102.44
354.355	103.44
354.583	92.44
354.81	121.44
355.037	100.44
355.264	98.44
355.491	102.44
355.718	95.44
355.945	95.44
356.172	97.44
356.399	100.44
356.626	88.44
356.853	103.44
357.08	106.44
357.307	96.44
357.534	93.44
357.761	105.44
357.988	99.44
358.215	97.44
358.441	83.44
358.668	86.44
358.895	85.44
359.122	87.44
359.349	99.44
359.576	110.44
359.802	89.44
360.029	121.44
360.256	87.44
360.483	105.44
360.709	94.44
360.936	84.44
361.163	96.44
361.39	99.44
361.616	105.44
361.843	85.44
362.07	104.44
362.296	88.44
362.523	95.44
362.749	83.44
362.976	85.44
363.203	96.44
363.429	86.44
363.656	96.44
363.882	107.44
364.109	91.44
364.335	78.44
364.562	85.44
364.788	102.44
365.015	100.44
365.241	109.44
365.468	112.44
365.694	104.44
365.92	93.44
366.147	100.44
366.373	81.44
366.599	90.44
366.826	96.44
367.052	82.44
367.278	93.44
367.505	91.44
367.731	85.44
367.957	90.44
368.184	97.44
368.41	92.44
368.636	106.44
368.862	120.44
369.089	123.44
369.315	100.44
369.541	99.44
369.767	88.44
369.993	94.44
370.219	83.44
370.445	87.44
370.672	78.44
370.898	99.44
371.124	92.44
371.35	85.44
371.576	90.44
371.802	92.44
372.028	71.44
372.254	82.44
372.48	100.44
372.706	91.44
372.932	86.44
373.158	88.44
373.384	88.44
373.61	97.44
373.835	101.44
374.061	86.44
374.287	86.44
374.513	90.44
374.739	90.44
374.965	92.44
375.191	107.44
375.416	95.44
375.642	82.44
375.868	90.44
376.094	83.44
376.319	98.44
376.545	88.44
376.771	90.44
376.997	97.44
377.222	99.44
377.448	86.44
377.674	86.44
377.899	98.44
378.125	91.44
378.35	106.44
378.576	89.44
378.802	93.44
379.027	100.44
379.253	92.44
379.478	84.44
379.704	86.44
379.929	90.44
380.155	84.44
380.38	90.44
380.606	91.44
380.831	88.44
381.057	100.44
381.282	96.44
381.507	83.44
381.733	91.44
381.958	102.44
382.184	81.44
382.409	86.44
382.634	100.44
382.86	91.44
383.085	96.44
383.31	98.44
383.535	96.44
383.761	87.44
383.986	108.44
384.211	100.44
384.436	104.44
384.662	103.44
384.887	114.44
385.112	97.44
385.337	110.44
385.562	102.44
385.787	112.44
386.013	107.44
386.238	113.44
386.463	104.44
386.688	106.44
386.913	116.44
387.138	104.44
387.363	91.44
387.588	100.44
387.813	85.44
388.038	97.44
388.263	100.44
388.488	125.44
388.713	88.44
388.938	99.44
389.163	90.44
389.387	102.44
389.612	109.44
389.837	81.44
390.062	92.44
390.287	91.44
390.512	93.44
390.736	91.44
390.961	94.44
391.186	79.44
391.411	104.44
391.636	93.44
391.86	96.44
392.085	96.44
392.31	82.44
392.534	85.44
392.759	79.44
392.984	100.44
393.208	88.44
393.433	87.44
393.658	96.44
393.882	86.44
394.107	90.44
394.331	79.44
394.556	83.44
394.78	75.44
395.005	91.44
395.229	82.44
395.454	83.44
395.678	82.44
395.903	82.44
396.127	89.44
396.352	100.44
396.576	80.44
396.801	91.44
397.025	92.44
397.249	92.44
397.474	95.44
397.698	89.44
397.922	83.44
398.147	92.44
398.371	84.44
398.595	82.44
398.82	84.44
399.044	90.44
399.268	74.44
399.492	83.44
399.717	79.44
399.941	83.44
400.165	96.44
400.389	96.44
400.613	95.44
400.837	94.44
401.062	78.44
401.286	83.44
401.51	93.44
401.734	87.44
401.958	92.44
402.182	114.44
402.406	149.44
402.63	122.44
402.854	92.44
403.078	85.44
403.302	83.44
403.526	85.44
403.75	76.44
403.974	88.44
404.198	97.44
404.422	98.44
404.645	87.44
404.869	94.44
405.093	104.44
405.317	99.44
405.541	87.44
405.765	92.44
405.988	127.44
406.212	168.44
406.436	243.44
406.66	154.44
406.883	87.44
407.107	93.44
407.331	103.44
407.555	89.44
407.778	101.44
408.002	87.44
408.226	83.44
408.449	81.44
408.673	87.44
408.896	90.44
409.12	98.44
409.344	97.44
409.567	89.44
409.791	97.44
410.014	92.44
410.238	86.44
410.461	92.44
410.685	89.44
410.908	101.44
411.132	103.44
411.355	97.44
411.578	94.44
411.802	78.44
412.025	91.44
412.249	91.44
412.472	95.44
412.695	95.44
412.919	77.44
413.142	89.44
413.365	82.44
413.589	98.44
413.812	78.44
414.035	89.44
414.258	106.44
414.482	104.44
414.705	89.44
414.928	94.44
415.151	69.44
415.374	108.44
415.597	91.44
415.821	101.44
416.044	89.44
416.267	100.44
416.49	86.44
416.713	87.44
416.936	75.44
417.159	88.44
417.382	79.44
417.605	98.44
417.828	92.44
418.051	92.44
418.274	91.44
418.497	83.44
418.72	84.44
418.943	88.44
419.166	93.44
419.389	86.44
419.611	96.44
419.834	82.44
420.057	94.44
420.28	96.44
420.503	89.44
420.726	87.44
420.948	93.44
421.171	85.44
421.394	97.44
421.617	92.44
421.839	93.44
422.062	95.44
422.285	106.44
422.507	105.44
422.73	104.44
422.953	100.44
423.175	106.44
423.398	96.44
423.621	95.44
423.843	88.44
424.066	91.44
424.288	92.44
424.511	98.44
424.733	86.44
424.956	96.44
425.178	101.44
425.401	95.44
425.623	107.44
425.846	102.44
426.068	105.44
426.291	102.44
426.513	110.44
426.735	98.44
426.958	106.44
427.18	98.44
427.402	127.44
427.625	169.44
427.847	128.44
428.069	107.44
428.292	88.44
428.514	91.44
428.736	74.44
428.958	77.44
429.181	77.44
429.403	89.44
429.625	91.44
429.847	96.44
430.069	102.44
430.292	70.44
430.514	81.44
430.736	85.44
430.958	80.44
431.18	85.44
431.402	85.44
431.624	89.44
431.846	99.44
432.068	80.44
432.29	85.44
432.512	105.44
432.734	87.44
432.956	89.44
433.178	104.44
433.4	97.44
433.622	97.44
433.844	87.44
434.066	88.44
434.287	85.44
434.509	91.44
434.731	93.44
434.953	98.44
435.175	105.44
435.397	98.44
435.618	94.44
435.84	103.44
436.062	115.44
436.284	110.44
436.505	97.44
436.727	92.44
436.949	113.44
437.17	89.44
437.392	74.44
437.614	87.44
437.835	100.44
438.057	101.44
438.278	101.44
438.5	107.44
438.721	109.44
438.943	106.44
439.165	83.44
439.386	80.44
439.608	72.44
439.829	95.44
440.05	121.44
440.272	131.44
440.493	99.44
440.715	93.44
440.936	93.44
441.158	80.44
441.379	91.44
441.6	94.44
441.822	81.44
442.043	86.44
442.264	99.44
442.486	99.44
442.707	100.44
442.928	93.44
443.149	124.44
443.371	140.44
443.592	110.44
443.813	100.44
444.034	106.44
444.255	91.44
444.476	81.44
444.698	86.44
444.919	79.44
445.14	128.44
445.361	112.44
445.582	109.44
445.803	131.44
446.024	130.44
446.245	132.44
446.466	113.44
446.687	89.44
446.908	100.44
447.129	99.44
447.35	94.44
447.571	87.44
447.792	84.44
448.013	90.44
448.234	102.44
448.455	96.44
448.675	131.44
448.896	104.44
449.117	107.44
449.338	106.44
449.559	136.44
449.779	120.44
450	105.44
450.221	91.44
450.442	74.44
450.662	107.44
450.883	110.44
451.104	119.44
451.324	99.44
451.545	71.44
451.766	83.44
451.986	94.44
452.207	96.44
452.428	95.44
452.648	114.44
452.869	111.44
453.089	113.44
453.31	119.44
453.53	90.44
453.751	80.44
453.971	93.44
454.192	100.44
454.412	83.44
454.633	91.44
454.853	78.44
455.073	89.44
455.294	78.44
455.514	103.44
455.734	107.44
455.955	89.44
456.175	79.44
456.395	94.44
456.616	84.44
456.836	73.44
457.056	86.44
457.276	80.44
457.497	87.44
457.717	82.44
457.937	83.44
458.157	96.44
458.377	83.44
458.598	101.44
458.818	141.44
459.038	149.44
459.258	110.44
459.478	90.44
459.698	75.44
459.918	90.44
460.138	96.44
460.358	88.44
460.578	80.44
460.798	94.44
461.018	85.44
461.238	97.44
461.458	86.44
461.678	87.44
461.898	75.44
462.118	83.44
462.338	85.44
462.558	81.44
462.777	94.44
462.997	83.44
463.217	79.44
463.437	92.44
463.657	74.44
463.876	88.44
464.096	88.44
464.316	87.44
464.536	90.44
464.755	82.44
464.975	117.44
465.195	170.44
465.414	158.44
465.634	108.44
465.854	90.44
466.073	104.44
466.293	81.44
466.512	99.44
466.732	90.44
466.951	104.44
467.171	89.44
467.391	98.44
467.61	106.44
467.829	108.44
468.049	83.44
468.268	96.44
468.488	76.44
468.707	84.44
468.927	90.44
469.146	96.44
469.365	83.44
469.585	81.44
469.804	93.44
470.023	92.44
470.243	90.44
470.462	95.44
470.681	95.44
470.901	102.44
471.12	83.44
471.339	97.44
471.558	72.44
471.777	83.44
471.997	92.44
472.216	103.44
472.435	108.44
472.654	82.44
472.873	91.44
473.092	92.44
473.311	92.44
473.53	103.44
473.749	82.44
473.968	103.44
474.187	98.44
474.406	86.44
474.625	97.44
474.844	90.44
475.063	96.44
475.282	92.44
475.501	92.44
475.72	100.44
475.939	78.44
476.158	88.44
476.377	86.44
476.596	82.44
476.814	98.44
477.033	112.44
477.252	85.44
477.471	84.44
477.69	70.44
477.908	73.44
478.127	95.44
478.346	88.44
478.564	90.44
478.783	102.44
479.002	85.44
479.22	80.44
479.439	93.44
479.658	104.44
479.876	76.44
480.095	87.44
480.313	96.44
480.532	91.44
480.751	90.44
480.969	89.44
481.188	102.44
481.406	112.44
481.624	83.44
481.843	82.44
482.061	94.44
482.28	87.44
482.498	99.44
482.717	78.44
482.935	96.44
483.153	94.44
483.372	92.44
483.59	88.44
483.808	102.44
484.027	106.44
484.245	84.44
484.463	80.44
484.681	92.44
484.9	97.44
485.118	99.44
485.336	102.44
485.554	94.44
485.772	100.44
485.99	107.44
486.209	113.44
486.427	109.44
486.645	86.44
486.863	108.44
487.081	103.44
487.299	87.44
487.517	97.44
487.735	95.44
487.953	90.44
488.171	102.44
488.389	96.44
488.607	107.44
488.825	86.44
489.043	105.44
489.261	90.44
489.479	85.44
489.696	91.44
489.914	96.44
490.132	96.44
490.35	108.44
490.568	100.44
490.786	82.44
491.003	98.44
491.221	111.44
491.439	100.44
491.657	91.44
491.874	88.44
492.092	90.44
492.31	99.44
492.527	99.44
492.745	94.44
492.963	97.44
493.18	93.44
493.398	100.44
493.615	91.44
493.833	96.44
494.05	82.44
494.268	85.44
494.485	97.44
494.703	92.44
494.92	90.44
495.138	84.44
495.355	97.44
495.573	104.44
495.79	91.44
496.008	106.44
496.225	96.44
496.442	90.44
496.66	91.44
496.877	95.44
497.094	101.44
497.312	95.44
497.529	99.44
497.746	98.44
497.963	89.44
498.181	102.44
498.398	86.44
498.615	124.44
498.832	100.44
499.049	92.44
499.267	91.44
499.484	84.44
499.701	90.44
499.918	79.44
500.135	83.44
500.352	98.44
500.569	76.44
500.786	70.44
501.003	91.44
501.22	89.44
501.437	89.44
501.654	102.44
501.871	113.44
502.088	102.44
502.305	97.44
502.522	92.44
502.739	84.44
502.956	97.44
503.172	105.44
503.389	88.44
503.606	92.44
503.823	104.44
504.04	95.44
504.256	103.44
504.473	88.44
504.69	94.44
504.907	80.44
505.123	85.44
505.34	95.44
505.557	80.44
505.773	92.44
505.99	89.44
506.207	80.44
506.423	83.44
506.64	80.44
506.856	96.44
507.073	77.44
507.289	107.44
507.506	97.44
507.722	97.44
507.939	113.44
508.155	92.44
508.372	94.44
508.588	103.44
508.805	109.44
509.021	100.44
509.238	112.44
509.454	100.44
509.67	105.44
509.887	103.44
510.103	132.44
510.319	215.44
510.536	814.44
510.752	2580.44
510.968	729.44
511.184	172.44
511.401	118.44
511.617	107.44
511.833	99.44
512.049	99.44
512.265	98.44
512.481	89.44
512.698	90.44
512.914	106.44
513.13	87.44
513.346	93.44
513.562	101.44
513.778	113.44
513.994	101.44
514.21	88.44
514.426	120.44
514.642	135.44
514.858	138.44
515.074	171.44
515.29	472.44
515.506	1513.44
515.721	566.44
515.937	148.44
516.153	105.44
516.369	98.44
516.585	96.44
516.801	104.44
517.016	96.44
517.232	96.44
517.448	98.44
517.664	82.44
517.879	111.44
518.095	105.44
518.311	87.44
518.527	94.44
518.742	90.44
518.958	91.44
519.173	91.44
519.389	99.44
519.605	92.44
519.82	97.44
520.036	102.44
520.251	129.44
520.467	112.44
520.682	106.44
520.898	112.44
521.113	116.44
521.329	129.44
521.544	202.44
521.76	560.44
521.975	2503.44
522.19	1533.44
522.406	325.44
522.621	135.44
522.836	117.44
523.052	105.44
523.267	103.44
523.482	105.44
523.698	106.44
523.913	118.44
524.128	110.44
524.343	102.44
524.559	98.44
524.774	97.44
524.989	92.44
525.204	101.44
525.419	93.44
525.634	83.44
525.849	99.44
526.064	100.44
526.28	87.44
526.495	74.44
526.71	89.44
526.925	102.44
527.14	88.44
527.355	88.44
527.57	83.44
527.785	86.44
527.999	89.44
528.214	99.44
528.429	105.44
528.644	98.44
528.859	94.44
529.074	87.44
529.289	113.44
529.503	188.44
529.718	106.44
529.933	82.44
530.148	90.44
530.363	100.44
530.577	86.44
530.792	94.44
531.007	93.44
531.221	85.44
531.436	90.44
531.651	89.44
531.865	91.44
532.08	96.44
532.295	94.44
532.509	103.44
532.724	96.44
532.938	96.44
533.153	84.44
533.367	99.44
533.582	87.44
533.796	105.44
534.011	90.44
534.225	102.44
534.44	88.44
534.654	106.44
534.868	91.44
535.083	92.44
535.297	112.44
535.511	99.44
535.726	105.44
535.94	96.44
536.154	102.44
536.369	102.44
536.583	88.44
536.797	100.44
537.011	95.44
537.225	93.44
537.44	97.44
537.654	86.44
537.868	103.44
538.082	91.44
538.296	94.44
538.51	96.44
538.724	85.44
538.938	97.44
539.153	72.44
539.367	95.44
539.581	97.44
539.795	96.44
540.009	95.44
540.222	85.44
540.436	94.44
540.65	96.44
540.864	93.44
541.078	107.44
541.292	101.44
541.506	106.44
541.72	86.44
541.934	101.44
542.147	92.44
542.361	99.44
542.575	94.44
542.789	95.44
543.002	97.44
543.216	102.44
543.43	95.44
543.644	111.44
543.857	99.44
544.071	100.44
544.285	100.44
544.498	97.44
544.712	83.44
544.925	86.44
545.139	94.44
545.352	88.44
545.566	78.44
545.779	69.44
545.993	87.44
546.206	85.44
546.42	94.44
546.633	90.44
546.847	95.44
547.06	90.44
547.274	104.44
547.487	89.44
547.7	84.44
547.914	99.44
548.127	89.44
548.34	88.44
548.554	99.44
548.767	88.44
548.98	85.44
549.193	98.44
549.407	85.44
549.62	83.44
549.833	99.44
550.046	85.44
550.259	83.44
550.473	94.44
550.686	94.44
550.899	84.44
551.112	92.44
551.325	102.44
551.538	86.44
551.751	87.44
551.964	87.44
552.177	106.44
552.39	84.44
552.603	80.44
552.816	83.44
553.029	104.44
553.242	92.44
553.455	109.44
553.667	100.44
553.88	120.44
554.093	95.44
554.306	97.44
554.519	90.44
554.732	89.44
554.944	90.44
555.157	87.44
555.37	91.44
555.583	95.44
555.795	98.44
556.008	77.44
556.221	102.44
556.433	91.44
556.646	87.44
556.859	105.44
557.071	89.44
557.284	84.44
557.496	96.44
557.709	82.44
557.921	90.44
558.134	88.44
558.346	102.44
558.559	107.44
558.771	90.44
558.984	98.44
559.196	88.44
559.409	91.44
559.621	98.44
559.833	89.44
560.046	80.44
560.258	91.44
560.47	106.44
560.683	91.44
560.895	79.44
561.107	97.44
561.32	90.44
561.532	98.44
561.744	94.44
561.956	86.44
562.168	89.44
562.381	96.44
562.593	90.44
562.805	95.44
563.017	93.44
563.229	86.44
563.441	87.44
563.653	90.44
563.865	91.44
564.077	89.44
564.289	103.44
564.501	95.44
564.713	80.44
564.925	90.44
565.137	101.44
565.349	102.44
565.561	101.44
565.773	85.44
565.985	84.44
566.197	93.44
566.408	91.44
566.62	96.44
566.832	83.44
567.044	83.44
567.255	92.44
567.467	83.44
567.679	97.44
567.891	94.44
568.102	100.44
568.314	95.44
568.526	88.44
568.737	90.44
568.949	92.44
569.161	98.44
569.372	89.44
569.584	95.44
569.795	78.44
570.007	126.44
570.218	267.44
570.43	154.44
570.641	96.44
570.853	84.44
571.064	88.44
571.276	97.44
571.487	83.44
571.698	78.44
571.91	89.44
572.121	81.44
572.333	107.44
572.544	87.44
572.755	96.44
572.966	87.44
573.178	94.44
573.389	88.44
573.6	96.44
573.811	100.44
574.023	89.44
574.234	84.44
574.445	67.44
574.656	85.44
574.867	81.44
575.078	83.44
575.289	85.44
575.501	82.44
575.712	86.44
575.923	96.44
576.134	89.44
576.345	91.44
576.556	91.44
576.767	95.44
576.978	94.44
577.188	95.44
577.399	90.44
577.61	107.44
577.821	104.44
578.032	133.44
578.243	288.44
578.454	823.44
578.665	225.44
578.875	99.44
579.086	91.44
579.297	74.44
579.508	94.44
579.718	92.44
579.929	80.44
580.14	87.44
580.35	92.44
580.561	92.44
580.772	92.44
580.982	85.44
581.193	81.44
581.403	97.44
581.614	91.44
581.825	108.44
582.035	79.44
582.246	97.44
582.456	94.44
582.667	83.44
582.877	86.44
583.087	86.44
583.298	84.44
583.508	96.44
583.719	90.44
583.929	84.44
584.139	87.44
584.35	84.44
584.56	91.44
584.77	86.44
584.981	80.44
585.191	92.44
585.401	84.44
585.611	87.44
585.821	111.44
586.032	96.44
586.242	95.44
586.452	95.44
586.662	100.44
586.872	89.44
587.082	86.44
587.292	81.44
587.502	90.44
587.713	68.44
587.923	95.44
588.133	91.44
588.343	89.44
588.553	97.44
588.762	82.44
588.972	91.44
589.182	96.44
589.392	100.44
589.602	81.44
589.812	68.44
590.022	97.44
590.232	74.44
590.441	98.44
590.651	87.44
590.861	82.44
591.071	99.44
591.281	78.44
591.49	72.44
591.7	92.44
591.91	95.44
592.119	102.44
592.329	98.44
592.539	94.44
592.748	99.44
592.958	106.44
593.167	79.44
593.377	84.44
593.587	99.44
593.796	103.44
594.006	80.44
594.215	102.44
594.424	91.44
594.634	81.44
594.843	98.44
595.053	83.44
595.262	91.44
595.472	73.44
595.681	79.44
595.89	76.44
596.1	100.44
596.309	78.44
596.518	92.44
596.727	84.44
596.937	75.44
597.146	83.44
597.355	72.44
597.564	81.44
597.774	101.44
597.983	81.44
598.192	93.44
598.401	86.44
598.61	86.44
598.819	103.44
599.028	86.44
599.237	81.44
599.446	94.44
599.655	90.44
599.864	87.44
600.073	81.44
600.282	101.44
600.491	85.44
600.7	97.44
600.909	83.44
601.118	91.44
601.327	95.44
601.536	93.44
601.745	84.44
601.953	91.44
602.162	94.44
602.371	97.44
602.58	84.44
602.789	98.44
602.997	98.44
603.206	98.44
603.415	96.44
603.623	81.44
603.832	91.44
604.041	84.44
604.249	81.44
604.458	86.44
604.666	99.44
604.875	82.44
605.084	85.44
605.292	97.44
605.501	89.44
605.709	85.44
605.918	75.44
606.126	80.44
606.334	97.44
606.543	94.44
606.751	97.44
606.96	84.44
607.168	88.44
607.376	95.44
607.585	87.44
607.793	90.44
608.001	90.44
608.21	92.44
608.418	98.44
608.626	89.44
608.834	88.44
609.043	100.44
609.251	87.44
609.459	80.44
609.667	89.44
609.875	80.44
610.083	83.44
610.291	84.44
610.499	85.44
610.707	86.44
610.916	90.44
611.124	84.44
611.332	86.44
611.54	98.44
611.748	97.44
611.955	85.44
612.163	82.44
612.371	87.44
612.579	89.44
612.787	89.44
612.995	92.44
613.203	72.44
613.411	81.44
613.618	93.44
613.826	79.44
614.034	79.44
614.242	88.44
614.449	89.44
614.657	89.44
614.865	93.44
615.072	81.44
615.28	102.44
615.488	90.44
615.695	86.44
615.903	103.44
616.111	116.44
616.318	103.44
616.526	96.44
616.733	86.44
616.941	88.44
617.148	82.44
617.356	80.44
617.563	90.44
617.771	89.44
617.978	82.44
618.185	84.44
618.393	87.44
618.6	85.44
618.807	92.44
619.015	82.44
619.222	95.44
619.429	87.44
619.637	78.44
619.844	88.44
620.051	88.44
620.258	83.44
620.466	84.44
620.673	77.44
620.88	90.44
621.087	100.44
621.294	82.44
621.501	73.44
621.708	84.44
621.915	81.44
622.122	84.44
622.329	87.44
622.536	85.44
622.743	94.44
622.95	80.44
623.157	98.44
623.364	80.44
623.571	92.44
623.778	88.44
623.985	91.44
624.192	96.44
624.399	89.44
624.606	87.44
624.812	91.44
625.019	88.44
625.226	88.44
625.433	86.44
625.639	87.44
625.846	91.44
626.053	91.44
626.259	74.44
626.466	83.44
626.673	94.44
626.879	101.44
627.086	85.44
627.293	87.44
627.499	83.44
627.706	78.44
627.912	103.44
628.119	90.44
628.325	75.44
628.532	85.44
628.738	88.44
628.945	80.44
629.151	91.44
629.357	90.44
629.564	92.44
629.77	88.44
629.976	83.44
630.183	74.44
630.389	92.44
630.595	87.44
630.802	71.44
631.008	102.44
631.214	85.44
631.42	88.44
631.627	100.44
631.833	99.44
632.039	92.44
632.245	75.44
632.451	82.44
632.657	84.44
632.863	87.44
633.069	86.44
633.275	91.44
633.481	78.44
633.688	85.44
633.893	93.44
634.099	76.44
634.305	91.44
634.511	91.44
634.717	73.44
634.923	81.44
635.129	94.44
635.335	89.44
635.541	88.44
635.747	89.44
635.952	77.44
636.158	83.44
636.364	105.44
636.57	81.44
636.775	77.44
636.981	94.44
637.187	98.44
637.392	96.44
637.598	88.44
637.804	82.44
638.009	78.44
638.215	90.44
638.421	91.44
638.626	84.44
638.832	95.44
639.037	88.44
639.243	92.44
639.448	88.44
639.654	84.44
639.859	83.44
640.065	68.44
640.27	76.44
640.475	75.44
640.681	91.44
640.886	84.44
641.091	94.44
641.297	99.44
641.502	76.44
641.707	88.44
641.913	95.44
642.118	84.44
642.323	82.44
642.528	86.44
642.733	82.44
642.939	68.44
643.144	76.44
643.349	84.44
643.554	89.44
643.759	86.44
643.964	88.44
644.169	86.44
644.374	85.44
644.579	89.44
644.784	83.44
644.989	94.44
645.194	93.44
645.399	95.44
645.604	82.44
645.809	91.44
646.014	87.44
646.219	87.44
646.423	92.44
646.628	82.44
646.833	82.44
647.038	84.44
647.243	83.44
647.447	87.44
647.652	85.44
647.857	89.44
648.062	85.44
648.266	91.44
648.471	98.44
648.676	91.44
648.88	88.44
649.085	81.44
649.289	82.44
649.494	102.44
649.698	135.44
649.903	81.44
650.107	106.44
650.312	92.44
650.516	87.44
650.721	88.44
650.925	77.44
651.13	74.44
651.334	80.44
651.539	94.44
651.743	94.44
651.947	71.44
652.152	79.44
652.356	66.44
652.56	95.44
652.764	91.44
652.969	72.44
653.173	88.44
653.377	80.44
653.581	84.44
653.785	87.44
653.99	81.44
654.194	89.44
654.398	84.44
654.602	79.44
654.806	97.44
655.01	122.44
655.214	82.44
655.418	92.44
655.622	81.44
655.826	81.44
656.03	78.44
656.234	88.44
656.438	98.44
656.642	98.44
656.846	86.44
657.049	80.44
657.253	76.44
657.457	82.44
657.661	90.44
657.865	76.44
658.068	68.44
658.272	79.44
658.476	75.44
658.68	83.44
658.883	81.44
659.087	73.44
659.291	93.44
659.494	69.44
659.698	80.44
659.901	72.44
660.105	79.44
660.309	91.44
660.512	73.44
660.716	83.44
660.919	88.44
661.123	94.44
661.326	79.44
661.53	80.44
661.733	94.44
661.936	87.44
662.14	88.44
662.343	86.44
662.546	78.44
662.75	89.44
662.953	82.44
663.156	78.44
663.36	79.44
663.563	81.44
663.766	79.44
663.969	90.44
664.173	82.44
664.376	92.44
664.579	92.44
664.782	71.44
664.985	71.44
665.188	85.44
665.391	83.44
665.594	85.44
665.797	70.44
666	80.44
666.203	77.44
666.406	83.44
666.609	76.44
666.812	72.44
667.015	88.44
667.218	93.44
667.421	81.44
667.624	82.44
667.827	87.44
668.03	86.44
668.232	78.44
668.435	76.44
668.638	79.44
668.841	81.44
669.043	82.44
669.246	75.44
669.449	78.44
669.651	79.44
669.854	84.44
670.057	91.44
670.259	81.44
670.462	71.44
670.665	71.44
670.867	81.44
671.07	82.44
671.272	83.44
671.475	93.44
671.677	87.44
671.88	69.44
672.082	78.44
672.284	81.44
672.487	79.44
672.689	79.44
672.892	82.44
