Data from Uncirc_2003_H10_HRD10591_00054.txt Node
Date: Wed Jan 03 10:35:58 EST 2024
User: Yrep
Spectrometer: HR+D1059
Trigger mode: 1
Integration Time (sec): 1.000000E-1
Scans to average: 1
Electric dark correction enabled: true
Nonlinearity correction enabled: false
Boxcar width: 0
XAxis mode: Wavelengths
Number of Pixels in Spectrum: 2048
>>>>>Begin Spectral Data<<<<<
223.165	-15.94
223.4	-15.94
223.635	-15.94
223.869	-12.94
224.104	-15.94
224.338	-13.94
224.573	-20.94
224.808	-13.94
225.042	-9.94
225.277	-5.94
225.511	-2.94
225.746	2.06
225.98	3.06
226.215	18.06
226.449	7.06
226.683	18.06
226.918	34.06
227.152	30.06
227.387	24.06
227.621	36.06
227.856	40.06
228.09	45.06
228.324	46.06
228.559	48.06
228.793	51.06
229.027	55.06
229.262	69.06
229.496	77.06
229.73	80.06
229.964	67.06
230.199	71.06
230.433	81.06
230.667	66.06
230.901	61.06
231.136	73.06
231.37	70.06
231.604	76.06
231.838	79.06
232.072	79.06
232.306	84.06
232.541	87.06
232.775	75.06
233.009	65.06
233.243	74.06
233.477	83.06
233.711	67.06
233.945	81.06
234.179	78.06
234.413	79.06
234.647	76.06
234.881	77.06
235.115	82.06
235.349	72.06
235.583	78.06
235.817	68.06
236.051	71.06
236.285	69.06
236.519	72.06
236.753	73.06
236.987	76.06
237.221	87.06
237.455	82.06
237.689	70.06
237.922	80.06
238.156	56.06
238.39	82.06
238.624	67.06
238.858	80.06
239.091	72.06
239.325	72.06
239.559	81.06
239.793	84.06
240.027	81.06
240.26	82.06
240.494	75.06
240.728	82.06
240.961	76.06
241.195	82.06
241.429	71.06
241.662	74.06
241.896	68.06
242.13	73.06
242.363	76.06
242.597	61.06
242.83	93.06
243.064	80.06
243.298	79.06
243.531	71.06
243.765	75.06
243.998	75.06
244.232	70.06
244.465	76.06
244.699	78.06
244.932	76.06
245.166	70.06
245.399	66.06
245.633	77.06
245.866	76.06
246.099	59.06
246.333	77.06
246.566	65.06
246.8	67.06
247.033	66.06
247.266	73.06
247.5	80.06
247.733	63.06
247.966	70.06
248.2	77.06
248.433	76.06
248.666	77.06
248.899	82.06
249.133	72.06
249.366	95.06
249.599	101.06
249.832	80.06
250.066	79.06
250.299	91.06
250.532	87.06
250.765	66.06
250.998	71.06
251.231	76.06
251.465	88.06
251.698	70.06
251.931	76.06
252.164	83.06
252.397	77.06
252.63	94.06
252.863	95.06
253.096	67.06
253.329	95.06
253.562	88.06
253.795	73.06
254.028	69.06
254.261	72.06
254.494	72.06
254.727	77.06
254.96	80.06
255.193	62.06
255.426	76.06
255.659	80.06
255.892	81.06
256.124	77.06
256.357	82.06
256.59	69.06
256.823	67.06
257.056	78.06
257.289	81.06
257.521	65.06
257.754	78.06
257.987	69.06
258.22	78.06
258.452	87.06
258.685	83.06
258.918	68.06
259.151	76.06
259.383	82.06
259.616	75.06
259.849	88.06
260.081	81.06
260.314	70.06
260.547	78.06
260.779	87.06
261.012	83.06
261.244	81.06
261.477	82.06
261.71	102.06
261.942	96.06
262.175	110.06
262.407	77.06
262.64	79.06
262.872	85.06
263.105	80.06
263.337	84.06
263.57	70.06
263.802	75.06
264.035	72.06
264.267	88.06
264.499	90.06
264.732	77.06
264.964	75.06
265.197	59.06
265.429	82.06
265.661	101.06
265.894	81.06
266.126	92.06
266.358	79.06
266.591	73.06
266.823	74.06
267.055	78.06
267.287	80.06
267.52	69.06
267.752	80.06
267.984	84.06
268.216	73.06
268.448	75.06
268.681	86.06
268.913	84.06
269.145	80.06
269.377	62.06
269.609	70.06
269.841	82.06
270.073	72.06
270.306	84.06
270.538	78.06
270.77	88.06
271.002	72.06
271.234	73.06
271.466	66.06
271.698	82.06
271.93	85.06
272.162	80.06
272.394	83.06
272.626	83.06
272.858	81.06
273.09	80.06
273.322	95.06
273.553	86.06
273.785	78.06
274.017	83.06
274.249	91.06
274.481	81.06
274.713	87.06
274.945	87.06
275.176	70.06
275.408	72.06
275.64	84.06
275.872	82.06
276.104	80.06
276.335	86.06
276.567	91.06
276.799	99.06
277.031	94.06
277.262	81.06
277.494	97.06
277.726	82.06
277.957	84.06
278.189	84.06
278.421	78.06
278.652	68.06
278.884	86.06
279.115	86.06
279.347	86.06
279.579	74.06
279.81	81.06
280.042	88.06
280.273	86.06
280.505	88.06
280.736	82.06
280.968	82.06
281.199	77.06
281.431	81.06
281.662	81.06
281.894	76.06
282.125	92.06
282.356	115.06
282.588	141.06
282.819	108.06
283.051	97.06
283.282	91.06
283.513	76.06
283.745	91.06
283.976	75.06
284.207	82.06
284.439	82.06
284.67	90.06
284.901	62.06
285.132	74.06
285.364	67.06
285.595	87.06
285.826	84.06
286.057	86.06
286.288	97.06
286.52	80.06
286.751	90.06
286.982	82.06
287.213	86.06
287.444	84.06
287.675	83.06
287.906	86.06
288.138	90.06
288.369	90.06
288.6	77.06
288.831	81.06
289.062	80.06
289.293	88.06
289.524	93.06
289.755	85.06
289.986	82.06
290.217	79.06
290.448	79.06
290.679	79.06
290.91	90.06
291.141	91.06
291.371	80.06
291.602	81.06
291.833	87.06
292.064	91.06
292.295	80.06
292.526	89.06
292.757	75.06
292.987	88.06
293.218	68.06
293.449	79.06
293.68	83.06
293.91	82.06
294.141	98.06
294.372	91.06
294.603	88.06
294.833	73.06
295.064	76.06
295.295	80.06
295.525	95.06
295.756	95.06
295.987	115.06
296.217	136.06
296.448	121.06
296.679	91.06
296.909	94.06
297.14	86.06
297.37	92.06
297.601	94.06
297.831	96.06
298.062	83.06
298.292	84.06
298.523	91.06
298.753	77.06
298.984	70.06
299.214	89.06
299.445	88.06
299.675	87.06
299.905	72.06
300.136	84.06
300.366	93.06
300.597	98.06
300.827	86.06
301.057	99.06
301.288	96.06
301.518	84.06
301.748	103.06
301.979	93.06
302.209	87.06
302.439	96.06
302.669	83.06
302.9	85.06
303.13	85.06
303.36	99.06
303.59	93.06
303.82	111.06
304.051	83.06
304.281	88.06
304.511	93.06
304.741	80.06
304.971	83.06
305.201	92.06
305.431	84.06
305.661	78.06
305.891	87.06
306.121	82.06
306.352	102.06
306.582	109.06
306.812	92.06
307.042	78.06
307.272	93.06
307.502	98.06
307.731	87.06
307.961	82.06
308.191	87.06
308.421	90.06
308.651	82.06
308.881	82.06
309.111	93.06
309.341	83.06
309.571	112.06
309.8	94.06
310.03	107.06
310.26	93.06
310.49	105.06
310.72	96.06
310.949	97.06
311.179	87.06
311.409	91.06
311.639	93.06
311.868	85.06
312.098	91.06
312.328	90.06
312.557	107.06
312.787	103.06
313.017	95.06
313.246	94.06
313.476	97.06
313.706	92.06
313.935	94.06
314.165	95.06
314.394	92.06
314.624	92.06
314.853	74.06
315.083	90.06
315.312	95.06
315.542	90.06
315.771	91.06
316.001	81.06
316.23	82.06
316.46	99.06
316.689	102.06
316.919	79.06
317.148	95.06
317.377	84.06
317.607	85.06
317.836	101.06
318.065	84.06
318.295	83.06
318.524	79.06
318.753	87.06
318.983	76.06
319.212	92.06
319.441	88.06
319.67	98.06
319.9	98.06
320.129	77.06
320.358	84.06
320.587	95.06
320.816	93.06
321.046	94.06
321.275	92.06
321.504	88.06
321.733	90.06
321.962	88.06
322.191	87.06
322.42	104.06
322.649	111.06
322.878	103.06
323.108	106.06
323.337	112.06
323.566	120.06
323.795	141.06
324.024	208.06
324.253	419.06
324.482	884.06
324.71	1869.06
324.939	2494.06
325.168	893.06
325.397	264.06
325.626	161.06
325.855	139.06
326.084	126.06
326.313	135.06
326.542	149.06
326.77	244.06
326.999	495.06
327.228	1037.06
327.457	1907.06
327.686	1511.06
327.914	406.06
328.143	192.06
328.372	134.06
328.6	111.06
328.829	113.06
329.058	115.06
329.287	122.06
329.515	100.06
329.744	91.06
329.972	84.06
330.201	89.06
330.43	111.06
330.658	123.06
330.887	135.06
331.115	120.06
331.344	87.06
331.572	106.06
331.801	104.06
332.03	94.06
332.258	103.06
332.486	95.06
332.715	96.06
332.943	96.06
333.172	92.06
333.4	87.06
333.629	102.06
333.857	111.06
334.085	108.06
334.314	91.06
334.542	88.06
334.771	94.06
334.999	96.06
335.227	80.06
335.455	84.06
335.684	84.06
335.912	97.06
336.14	93.06
336.369	85.06
336.597	98.06
336.825	85.06
337.053	89.06
337.281	84.06
337.51	97.06
337.738	95.06
337.966	109.06
338.194	101.06
338.422	87.06
338.65	91.06
338.878	85.06
339.106	91.06
339.334	73.06
339.562	83.06
339.79	74.06
340.018	97.06
340.246	81.06
340.474	88.06
340.702	87.06
340.93	106.06
341.158	85.06
341.386	83.06
341.614	98.06
341.842	88.06
342.07	88.06
342.298	82.06
342.526	74.06
342.754	91.06
342.981	98.06
343.209	85.06
343.437	95.06
343.665	90.06
343.893	85.06
344.12	78.06
344.348	90.06
344.576	92.06
344.804	79.06
345.031	98.06
345.259	95.06
345.487	83.06
345.714	99.06
345.942	95.06
346.17	99.06
346.397	76.06
346.625	95.06
346.853	94.06
347.08	74.06
347.308	88.06
347.535	90.06
347.763	96.06
347.99	102.06
348.218	91.06
348.445	92.06
348.673	95.06
348.9	93.06
349.128	88.06
349.355	81.06
349.583	94.06
349.81	102.06
350.037	92.06
350.265	82.06
350.492	88.06
350.72	95.06
350.947	81.06
351.174	101.06
351.402	120.06
351.629	99.06
351.856	97.06
352.083	95.06
352.311	96.06
352.538	109.06
352.765	107.06
352.992	106.06
353.22	120.06
353.447	104.06
353.674	91.06
353.901	93.06
354.128	101.06
354.355	97.06
354.583	102.06
354.81	91.06
355.037	94.06
355.264	99.06
355.491	100.06
355.718	83.06
355.945	92.06
356.172	103.06
356.399	98.06
356.626	86.06
356.853	104.06
357.08	83.06
357.307	79.06
357.534	90.06
357.761	96.06
357.988	96.06
358.215	102.06
358.441	83.06
358.668	85.06
358.895	98.06
359.122	84.06
359.349	92.06
359.576	99.06
359.802	77.06
360.029	108.06
360.256	104.06
360.483	102.06
360.709	87.06
360.936	91.06
361.163	86.06
361.39	66.06
361.616	84.06
361.843	77.06
362.07	87.06
362.296	84.06
362.523	84.06
362.749	96.06
362.976	87.06
363.203	83.06
363.429	104.06
363.656	83.06
363.882	79.06
364.109	75.06
364.335	88.06
364.562	84.06
364.788	73.06
365.015	83.06
365.241	84.06
365.468	105.06
365.694	108.06
365.92	96.06
366.147	89.06
366.373	89.06
366.599	80.06
366.826	82.06
367.052	91.06
367.278	85.06
367.505	85.06
367.731	82.06
367.957	78.06
368.184	97.06
368.41	84.06
368.636	99.06
368.862	117.06
369.089	91.06
369.315	93.06
369.541	83.06
369.767	85.06
369.993	78.06
370.219	98.06
370.445	78.06
370.672	83.06
370.898	94.06
371.124	94.06
371.35	87.06
371.576	68.06
371.802	78.06
372.028	92.06
372.254	78.06
372.48	75.06
372.706	84.06
372.932	94.06
373.158	76.06
373.384	81.06
373.61	88.06
373.835	76.06
374.061	77.06
374.287	74.06
374.513	81.06
374.739	84.06
374.965	87.06
375.191	86.06
375.416	92.06
375.642	91.06
375.868	92.06
376.094	87.06
376.319	103.06
376.545	77.06
376.771	88.06
376.997	74.06
377.222	74.06
377.448	72.06
377.674	87.06
377.899	83.06
378.125	86.06
378.35	90.06
378.576	89.06
378.802	102.06
379.027	80.06
379.253	90.06
379.478	92.06
379.704	83.06
379.929	98.06
380.155	99.06
380.38	91.06
380.606	94.06
380.831	83.06
381.057	90.06
381.282	93.06
381.507	91.06
381.733	108.06
381.958	100.06
382.184	99.06
382.409	111.06
382.634	105.06
382.86	100.06
383.085	96.06
383.31	89.06
383.535	107.06
383.761	107.06
383.986	100.06
384.211	88.06
384.436	101.06
384.662	101.06
384.887	91.06
385.112	91.06
385.337	103.06
385.562	103.06
385.787	98.06
386.013	109.06
386.238	101.06
386.463	99.06
386.688	112.06
386.913	110.06
387.138	113.06
387.363	107.06
387.588	99.06
387.813	101.06
388.038	95.06
388.263	102.06
388.488	109.06
388.713	101.06
388.938	101.06
389.163	104.06
389.387	84.06
389.612	82.06
389.837	80.06
390.062	82.06
390.287	84.06
390.512	94.06
390.736	92.06
390.961	78.06
391.186	103.06
391.411	85.06
391.636	83.06
391.86	87.06
392.085	93.06
392.31	70.06
392.534	92.06
392.759	100.06
392.984	87.06
393.208	73.06
393.433	76.06
393.658	88.06
393.882	76.06
394.107	70.06
394.331	86.06
394.556	93.06
394.78	89.06
395.005	72.06
395.229	91.06
395.454	85.06
395.678	76.06
395.903	84.06
396.127	82.06
396.352	83.06
396.576	81.06
396.801	95.06
397.025	107.06
397.249	90.06
397.474	94.06
397.698	67.06
397.922	80.06
398.147	66.06
398.371	79.06
398.595	80.06
398.82	70.06
399.044	80.06
399.268	84.06
399.492	91.06
399.717	95.06
399.941	101.06
400.165	95.06
400.389	100.06
400.613	77.06
400.837	80.06
401.062	95.06
401.286	92.06
401.51	70.06
401.734	74.06
401.958	85.06
402.182	135.06
402.406	151.06
402.63	120.06
402.854	90.06
403.078	94.06
403.302	96.06
403.526	84.06
403.75	85.06
403.974	88.06
404.198	89.06
404.422	100.06
404.645	83.06
404.869	79.06
405.093	80.06
405.317	92.06
405.541	92.06
405.765	96.06
405.988	116.06
406.212	178.06
406.436	233.06
406.66	147.06
406.883	99.06
407.107	90.06
407.331	95.06
407.555	85.06
407.778	102.06
408.002	98.06
408.226	98.06
408.449	72.06
408.673	87.06
408.896	94.06
409.12	86.06
409.344	91.06
409.567	72.06
409.791	88.06
410.014	101.06
410.238	91.06
410.461	86.06
410.685	83.06
410.908	80.06
411.132	109.06
411.355	100.06
411.578	90.06
411.802	89.06
412.025	83.06
412.249	88.06
412.472	88.06
412.695	84.06
412.919	98.06
413.142	82.06
413.365	91.06
413.589	79.06
413.812	86.06
414.035	85.06
414.258	87.06
414.482	93.06
414.705	100.06
414.928	95.06
415.151	88.06
415.374	92.06
415.597	73.06
415.821	90.06
416.044	78.06
416.267	83.06
416.49	96.06
416.713	86.06
416.936	87.06
417.159	83.06
417.382	101.06
417.605	83.06
417.828	94.06
418.051	78.06
418.274	93.06
418.497	72.06
418.72	85.06
418.943	97.06
419.166	91.06
419.389	88.06
419.611	84.06
419.834	83.06
420.057	100.06
420.28	90.06
420.503	92.06
420.726	82.06
420.948	75.06
421.171	78.06
421.394	89.06
421.617	94.06
421.839	83.06
422.062	76.06
422.285	72.06
422.507	90.06
422.73	108.06
422.953	87.06
423.175	96.06
423.398	101.06
423.621	91.06
423.843	97.06
424.066	91.06
424.288	88.06
424.511	70.06
424.733	81.06
424.956	110.06
425.178	113.06
425.401	90.06
425.623	98.06
425.846	107.06
426.068	87.06
426.291	88.06
426.513	72.06
426.735	91.06
426.958	94.06
427.18	110.06
427.402	147.06
427.625	166.06
427.847	122.06
428.069	89.06
428.292	100.06
428.514	90.06
428.736	85.06
428.958	76.06
429.181	85.06
429.403	83.06
429.625	87.06
429.847	103.06
430.069	90.06
430.292	86.06
430.514	85.06
430.736	86.06
430.958	83.06
431.18	93.06
431.402	76.06
431.624	92.06
431.846	67.06
432.068	80.06
432.29	75.06
432.512	86.06
432.734	87.06
432.956	94.06
433.178	106.06
433.4	100.06
433.622	91.06
433.844	81.06
434.066	86.06
434.287	92.06
434.509	81.06
434.731	62.06
434.953	90.06
435.175	90.06
435.397	85.06
435.618	108.06
435.84	100.06
436.062	113.06
436.284	112.06
436.505	103.06
436.727	90.06
436.949	105.06
437.17	78.06
437.392	86.06
437.614	80.06
437.835	107.06
438.057	113.06
438.278	116.06
438.5	83.06
438.721	118.06
438.943	91.06
439.165	87.06
439.386	79.06
439.608	85.06
439.829	103.06
440.05	119.06
440.272	142.06
440.493	99.06
440.715	67.06
440.936	95.06
441.158	90.06
441.379	92.06
441.6	82.06
441.822	98.06
442.043	99.06
442.264	106.06
442.486	94.06
442.707	84.06
442.928	103.06
443.149	116.06
443.371	136.06
443.592	111.06
443.813	98.06
444.034	100.06
444.255	81.06
444.476	87.06
444.698	97.06
444.919	78.06
445.14	127.06
445.361	131.06
445.582	103.06
445.803	127.06
446.024	126.06
446.245	135.06
446.466	106.06
446.687	85.06
446.908	81.06
447.129	101.06
447.35	96.06
447.571	84.06
447.792	89.06
448.013	99.06
448.234	106.06
448.455	103.06
448.675	116.06
448.896	128.06
449.117	94.06
449.338	103.06
449.559	144.06
449.779	128.06
450	99.06
450.221	90.06
450.442	86.06
450.662	94.06
450.883	94.06
451.104	109.06
451.324	95.06
451.545	81.06
451.766	77.06
451.986	85.06
452.207	79.06
452.428	88.06
452.648	91.06
452.869	103.06
453.089	114.06
453.31	104.06
453.53	90.06
453.751	87.06
453.971	91.06
454.192	111.06
454.412	78.06
454.633	95.06
454.853	82.06
455.073	84.06
455.294	98.06
455.514	91.06
455.734	88.06
455.955	83.06
456.175	93.06
456.395	86.06
456.616	87.06
456.836	75.06
457.056	88.06
457.276	94.06
457.497	74.06
457.717	85.06
457.937	87.06
458.157	79.06
458.377	96.06
458.598	103.06
458.818	149.06
459.038	150.06
459.258	107.06
459.478	79.06
459.698	82.06
459.918	75.06
460.138	60.06
460.358	86.06
460.578	81.06
460.798	97.06
461.018	91.06
461.238	82.06
461.458	81.06
461.678	74.06
461.898	68.06
462.118	79.06
462.338	95.06
462.558	88.06
462.777	92.06
462.997	76.06
463.217	79.06
463.437	78.06
463.657	85.06
463.876	87.06
464.096	84.06
464.316	90.06
464.536	85.06
464.755	95.06
464.975	115.06
465.195	143.06
465.414	143.06
465.634	101.06
465.854	85.06
466.073	94.06
466.293	86.06
466.512	83.06
466.732	92.06
466.951	78.06
467.171	71.06
467.391	83.06
467.61	91.06
467.829	108.06
468.049	97.06
468.268	80.06
468.488	92.06
468.707	107.06
468.927	78.06
469.146	76.06
469.365	80.06
469.585	88.06
469.804	99.06
470.023	106.06
470.243	82.06
470.462	87.06
470.681	106.06
470.901	99.06
471.12	72.06
471.339	79.06
471.558	90.06
471.777	85.06
471.997	78.06
472.216	91.06
472.435	84.06
472.654	76.06
472.873	68.06
473.092	85.06
473.311	87.06
473.53	80.06
473.749	97.06
473.968	103.06
474.187	105.06
474.406	103.06
474.625	86.06
474.844	82.06
475.063	82.06
475.282	84.06
475.501	89.06
475.72	100.06
475.939	81.06
476.158	99.06
476.377	86.06
476.596	82.06
476.814	82.06
477.033	92.06
477.252	74.06
477.471	72.06
477.69	101.06
477.908	90.06
478.127	92.06
478.346	94.06
478.564	89.06
478.783	88.06
479.002	89.06
479.22	85.06
479.439	117.06
479.658	116.06
479.876	92.06
480.095	92.06
480.313	90.06
480.532	84.06
480.751	95.06
480.969	86.06
481.188	109.06
481.406	104.06
481.624	100.06
481.843	92.06
482.061	99.06
482.28	76.06
482.498	97.06
482.717	75.06
482.935	89.06
483.153	74.06
483.372	81.06
483.59	96.06
483.808	89.06
484.027	106.06
484.245	88.06
484.463	92.06
484.681	101.06
484.9	98.06
485.118	90.06
485.336	115.06
485.554	95.06
485.772	97.06
485.99	94.06
486.209	97.06
486.427	104.06
486.645	99.06
486.863	113.06
487.081	97.06
487.299	94.06
487.517	117.06
487.735	91.06
487.953	87.06
488.171	92.06
488.389	101.06
488.607	92.06
488.825	109.06
489.043	99.06
489.261	86.06
489.479	106.06
489.696	75.06
489.914	78.06
490.132	91.06
490.35	92.06
490.568	86.06
490.786	83.06
491.003	98.06
491.221	85.06
491.439	87.06
491.657	85.06
491.874	80.06
492.092	74.06
492.31	87.06
492.527	85.06
492.745	87.06
492.963	92.06
493.18	89.06
493.398	88.06
493.615	97.06
493.833	84.06
494.05	81.06
494.268	81.06
494.485	82.06
494.703	77.06
494.92	92.06
495.138	95.06
495.355	97.06
495.573	103.06
495.79	81.06
496.008	78.06
496.225	87.06
496.442	78.06
496.66	81.06
496.877	83.06
497.094	102.06
497.312	76.06
497.529	87.06
497.746	87.06
497.963	92.06
498.181	86.06
498.398	106.06
498.615	103.06
498.832	108.06
499.049	79.06
499.267	87.06
499.484	81.06
499.701	95.06
499.918	78.06
500.135	94.06
500.352	96.06
500.569	88.06
500.786	74.06
501.003	91.06
501.22	99.06
501.437	85.06
501.654	92.06
501.871	102.06
502.088	93.06
502.305	84.06
502.522	83.06
502.739	86.06
502.956	79.06
503.172	68.06
503.389	91.06
503.606	112.06
503.823	91.06
504.04	91.06
504.256	80.06
504.473	87.06
504.69	92.06
504.907	92.06
505.123	83.06
505.34	81.06
505.557	104.06
505.773	92.06
505.99	81.06
506.207	84.06
506.423	88.06
506.64	83.06
506.856	83.06
507.073	78.06
507.289	98.06
507.506	98.06
507.722	101.06
507.939	109.06
508.155	112.06
508.372	94.06
508.588	89.06
508.805	114.06
509.021	102.06
509.238	88.06
509.454	99.06
509.67	79.06
509.887	121.06
510.103	130.06
510.319	203.06
510.536	788.06
510.752	2509.06
510.968	691.06
511.184	153.06
511.401	115.06
511.617	93.06
511.833	90.06
512.049	98.06
512.265	78.06
512.481	92.06
512.698	83.06
512.914	92.06
513.13	78.06
513.346	93.06
513.562	98.06
513.778	95.06
513.994	104.06
514.21	94.06
514.426	109.06
514.642	121.06
514.858	117.06
515.074	148.06
515.29	440.06
515.506	1522.06
515.721	548.06
515.937	144.06
516.153	108.06
516.369	88.06
516.585	87.06
516.801	71.06
517.016	101.06
517.232	99.06
517.448	77.06
517.664	97.06
517.879	91.06
518.095	82.06
518.311	80.06
518.527	94.06
518.742	82.06
518.958	98.06
519.173	109.06
519.389	99.06
519.605	83.06
519.82	102.06
520.036	104.06
520.251	106.06
520.467	100.06
520.682	106.06
520.898	82.06
521.113	109.06
521.329	128.06
521.544	203.06
521.76	559.06
521.975	2401.06
522.19	1461.06
522.406	314.06
522.621	122.06
522.836	84.06
523.052	94.06
523.267	99.06
523.482	103.06
523.698	99.06
523.913	115.06
524.128	100.06
524.343	83.06
524.559	107.06
524.774	92.06
524.989	108.06
525.204	110.06
525.419	103.06
525.634	92.06
525.849	83.06
526.064	85.06
526.28	94.06
526.495	83.06
526.71	84.06
526.925	74.06
527.14	71.06
527.355	85.06
527.57	91.06
527.785	93.06
527.999	75.06
528.214	88.06
528.429	91.06
528.644	95.06
528.859	98.06
529.074	85.06
529.289	142.06
529.503	186.06
529.718	105.06
529.933	79.06
530.148	92.06
530.363	93.06
530.577	93.06
530.792	76.06
531.007	77.06
531.221	87.06
531.436	84.06
531.651	82.06
531.865	88.06
532.08	94.06
532.295	96.06
532.509	90.06
532.724	93.06
532.938	95.06
533.153	77.06
533.367	77.06
533.582	92.06
533.796	94.06
534.011	88.06
534.225	94.06
534.44	104.06
534.654	93.06
534.868	80.06
535.083	84.06
535.297	77.06
535.511	98.06
535.726	98.06
535.94	86.06
536.154	83.06
536.369	88.06
536.583	79.06
536.797	94.06
537.011	69.06
537.225	78.06
537.44	84.06
537.654	93.06
537.868	97.06
538.082	93.06
538.296	81.06
538.51	89.06
538.724	72.06
538.938	80.06
539.153	88.06
539.367	101.06
539.581	98.06
539.795	94.06
540.009	79.06
540.222	90.06
540.436	76.06
540.65	88.06
540.864	81.06
541.078	93.06
541.292	85.06
541.506	87.06
541.72	75.06
541.934	85.06
542.147	75.06
542.361	82.06
542.575	76.06
542.789	78.06
543.002	82.06
543.216	87.06
543.43	95.06
543.644	91.06
543.857	88.06
544.071	87.06
544.285	95.06
544.498	83.06
544.712	92.06
544.925	84.06
545.139	95.06
545.352	85.06
545.566	80.06
545.779	80.06
545.993	96.06
546.206	80.06
546.42	90.06
546.633	86.06
546.847	104.06
547.06	88.06
547.274	84.06
547.487	81.06
547.7	76.06
547.914	79.06
548.127	69.06
548.34	78.06
548.554	80.06
548.767	78.06
548.98	93.06
549.193	89.06
549.407	64.06
549.62	80.06
549.833	71.06
550.046	87.06
550.259	96.06
550.473	87.06
550.686	72.06
550.899	84.06
551.112	86.06
551.325	84.06
551.538	85.06
551.751	90.06
551.964	90.06
552.177	87.06
552.39	70.06
552.603	82.06
552.816	78.06
553.029	75.06
553.242	86.06
553.455	97.06
553.667	108.06
553.88	98.06
554.093	81.06
554.306	83.06
554.519	83.06
554.732	93.06
554.944	110.06
555.157	87.06
555.37	77.06
555.583	86.06
555.795	96.06
556.008	90.06
556.221	87.06
556.433	90.06
556.646	90.06
556.859	90.06
557.071	92.06
557.284	110.06
557.496	87.06
557.709	91.06
557.921	90.06
558.134	83.06
558.346	80.06
558.559	90.06
558.771	88.06
558.984	94.06
559.196	79.06
559.409	79.06
559.621	98.06
559.833	98.06
560.046	88.06
560.258	90.06
560.47	78.06
560.683	93.06
560.895	86.06
561.107	95.06
561.32	95.06
561.532	86.06
561.744	90.06
561.956	83.06
562.168	81.06
562.381	81.06
562.593	82.06
562.805	84.06
563.017	92.06
563.229	86.06
563.441	90.06
563.653	82.06
563.865	112.06
564.077	78.06
564.289	84.06
564.501	93.06
564.713	78.06
564.925	88.06
565.137	101.06
565.349	92.06
565.561	88.06
565.773	93.06
565.985	94.06
566.197	86.06
566.408	77.06
566.62	94.06
566.832	78.06
567.044	80.06
567.255	78.06
567.467	80.06
567.679	84.06
567.891	79.06
568.102	84.06
568.314	75.06
568.526	98.06
568.737	75.06
568.949	90.06
569.161	75.06
569.372	77.06
569.584	76.06
569.795	110.06
570.007	96.06
570.218	265.06
570.43	146.06
570.641	81.06
570.853	88.06
571.064	91.06
571.276	86.06
571.487	85.06
571.698	79.06
571.91	74.06
572.121	69.06
572.333	81.06
572.544	86.06
572.755	86.06
572.966	82.06
573.178	84.06
573.389	91.06
573.6	90.06
573.811	79.06
574.023	84.06
574.234	98.06
574.445	95.06
574.656	75.06
574.867	85.06
575.078	82.06
575.289	95.06
575.501	82.06
575.712	89.06
575.923	99.06
576.134	78.06
576.345	78.06
576.556	98.06
576.767	92.06
576.978	79.06
577.188	92.06
577.399	99.06
577.61	82.06
577.821	98.06
578.032	106.06
578.243	295.06
578.454	825.06
578.665	215.06
578.875	109.06
579.086	92.06
579.297	81.06
579.508	87.06
579.718	88.06
579.929	83.06
580.14	82.06
580.35	69.06
580.561	87.06
580.772	91.06
580.982	87.06
581.193	92.06
581.403	66.06
581.614	78.06
581.825	91.06
582.035	80.06
582.246	86.06
582.456	83.06
582.667	74.06
582.877	72.06
583.087	83.06
583.298	82.06
583.508	93.06
583.719	95.06
583.929	94.06
584.139	78.06
584.35	77.06
584.56	92.06
584.77	93.06
584.981	90.06
585.191	90.06
585.401	86.06
585.611	88.06
585.821	83.06
586.032	72.06
586.242	76.06
586.452	90.06
586.662	80.06
586.872	90.06
587.082	76.06
587.292	93.06
587.502	87.06
587.713	96.06
587.923	88.06
588.133	83.06
588.343	91.06
588.553	76.06
588.762	93.06
588.972	91.06
589.182	83.06
589.392	81.06
589.602	82.06
589.812	93.06
590.022	81.06
590.232	92.06
590.441	92.06
590.651	80.06
590.861	90.06
591.071	80.06
591.281	74.06
591.49	83.06
591.7	76.06
591.91	76.06
592.119	82.06
592.329	88.06
592.539	93.06
592.748	100.06
592.958	80.06
593.167	82.06
593.377	84.06
593.587	88.06
593.796	67.06
594.006	83.06
594.215	81.06
594.424	86.06
594.634	94.06
594.843	74.06
595.053	83.06
595.262	73.06
595.472	67.06
595.681	79.06
595.89	81.06
596.1	79.06
596.309	88.06
596.518	96.06
596.727	83.06
596.937	79.06
597.146	81.06
597.355	73.06
597.564	69.06
597.774	93.06
597.983	83.06
598.192	74.06
598.401	93.06
598.61	99.06
598.819	88.06
599.028	86.06
599.237	94.06
599.446	83.06
599.655	91.06
599.864	92.06
600.073	89.06
600.282	84.06
600.491	87.06
600.7	71.06
600.909	77.06
601.118	86.06
601.327	94.06
601.536	94.06
601.745	86.06
601.953	87.06
602.162	90.06
602.371	85.06
602.58	91.06
602.789	87.06
602.997	84.06
603.206	76.06
603.415	86.06
603.623	70.06
603.832	66.06
604.041	85.06
604.249	86.06
604.458	83.06
604.666	78.06
604.875	83.06
605.084	95.06
605.292	87.06
605.501	96.06
605.709	81.06
605.918	85.06
606.126	85.06
606.334	99.06
606.543	67.06
606.751	91.06
606.96	95.06
607.168	87.06
607.376	74.06
607.585	88.06
607.793	80.06
608.001	99.06
608.21	78.06
608.418	68.06
608.626	83.06
608.834	86.06
609.043	86.06
609.251	98.06
609.459	96.06
609.667	72.06
609.875	78.06
610.083	62.06
610.291	74.06
610.499	86.06
610.707	86.06
610.916	89.06
611.124	92.06
611.332	74.06
611.54	72.06
611.748	86.06
611.955	79.06
612.163	80.06
612.371	89.06
612.579	70.06
612.787	87.06
612.995	91.06
613.203	93.06
613.411	85.06
613.618	88.06
613.826	74.06
614.034	91.06
614.242	86.06
614.449	83.06
614.657	85.06
614.865	80.06
615.072	91.06
615.28	97.06
615.488	85.06
615.695	93.06
615.903	98.06
616.111	96.06
616.318	88.06
616.526	98.06
616.733	73.06
616.941	90.06
617.148	95.06
617.356	75.06
617.563	77.06
617.771	91.06
617.978	88.06
618.185	82.06
618.393	82.06
618.6	75.06
618.807	88.06
619.015	83.06
619.222	63.06
619.429	77.06
619.637	78.06
619.844	60.06
620.051	73.06
620.258	74.06
620.466	86.06
620.673	78.06
620.88	93.06
621.087	76.06
621.294	82.06
621.501	87.06
621.708	82.06
621.915	79.06
622.122	88.06
622.329	96.06
622.536	82.06
622.743	76.06
622.95	82.06
623.157	74.06
623.364	86.06
623.571	85.06
623.778	79.06
623.985	69.06
624.192	77.06
624.399	84.06
624.606	68.06
624.812	82.06
625.019	69.06
625.226	88.06
625.433	82.06
625.639	82.06
625.846	81.06
626.053	87.06
626.259	76.06
626.466	75.06
626.673	81.06
626.879	86.06
627.086	76.06
627.293	76.06
627.499	91.06
627.706	82.06
627.912	82.06
628.119	86.06
628.325	74.06
628.532	97.06
628.738	80.06
628.945	74.06
629.151	67.06
629.357	84.06
629.564	87.06
629.77	72.06
629.976	76.06
630.183	77.06
630.389	85.06
630.595	73.06
630.802	99.06
631.008	98.06
631.214	80.06
631.42	101.06
631.627	93.06
631.833	78.06
632.039	93.06
632.245	78.06
632.451	79.06
632.657	81.06
632.863	75.06
633.069	78.06
633.275	87.06
633.481	85.06
633.688	79.06
633.893	90.06
634.099	83.06
634.305	84.06
634.511	95.06
634.717	82.06
634.923	86.06
635.129	83.06
635.335	79.06
635.541	79.06
635.747	92.06
635.952	82.06
636.158	78.06
636.364	77.06
636.57	86.06
636.775	86.06
636.981	65.06
637.187	68.06
637.392	67.06
637.598	88.06
637.804	94.06
638.009	87.06
638.215	74.06
638.421	88.06
638.626	78.06
638.832	81.06
639.037	79.06
639.243	83.06
639.448	83.06
639.654	93.06
639.859	74.06
640.065	85.06
640.27	78.06
640.475	85.06
640.681	74.06
640.886	83.06
641.091	86.06
641.297	89.06
641.502	83.06
641.707	92.06
641.913	83.06
642.118	87.06
642.323	66.06
642.528	68.06
642.733	72.06
642.939	88.06
643.144	78.06
643.349	76.06
643.554	88.06
643.759	88.06
643.964	64.06
644.169	99.06
644.374	72.06
644.579	78.06
644.784	88.06
644.989	76.06
645.194	80.06
645.399	84.06
645.604	81.06
645.809	90.06
646.014	91.06
646.219	85.06
646.423	78.06
646.628	87.06
646.833	74.06
647.038	79.06
647.243	90.06
647.447	94.06
647.652	77.06
647.857	90.06
648.062	81.06
648.266	76.06
648.471	89.06
648.676	95.06
648.88	79.06
649.085	93.06
649.289	95.06
649.494	101.06
649.698	118.06
649.903	120.06
650.107	81.06
650.312	88.06
650.516	74.06
650.721	73.06
650.925	89.06
651.13	71.06
651.334	85.06
651.539	80.06
651.743	79.06
651.947	84.06
652.152	96.06
652.356	93.06
652.56	101.06
652.764	80.06
652.969	90.06
653.173	73.06
653.377	85.06
653.581	74.06
653.785	73.06
653.99	82.06
654.194	85.06
654.398	88.06
654.602	82.06
654.806	73.06
655.01	106.06
655.214	90.06
655.418	79.06
655.622	80.06
655.826	88.06
656.03	83.06
656.234	88.06
656.438	83.06
656.642	90.06
656.846	81.06
657.049	86.06
657.253	92.06
657.457	96.06
657.661	82.06
657.865	82.06
658.068	70.06
658.272	85.06
658.476	87.06
658.68	92.06
658.883	83.06
659.087	63.06
659.291	78.06
659.494	80.06
659.698	85.06
659.901	79.06
660.105	91.06
660.309	81.06
660.512	88.06
660.716	67.06
660.919	79.06
661.123	106.06
661.326	69.06
661.53	78.06
661.733	82.06
661.936	83.06
662.14	82.06
662.343	83.06
662.546	89.06
662.75	82.06
662.953	85.06
663.156	77.06
663.36	85.06
663.563	82.06
663.766	80.06
663.969	65.06
664.173	81.06
664.376	72.06
664.579	71.06
664.782	83.06
664.985	78.06
665.188	69.06
665.391	80.06
665.594	84.06
665.797	81.06
666	85.06
666.203	76.06
666.406	67.06
666.609	79.06
666.812	82.06
667.015	68.06
667.218	73.06
667.421	72.06
667.624	79.06
667.827	72.06
668.03	81.06
668.232	78.06
668.435	92.06
668.638	90.06
668.841	91.06
669.043	76.06
669.246	68.06
669.449	65.06
669.651	84.06
669.854	77.06
670.057	77.06
670.259	63.06
670.462	88.06
670.665	72.06
670.867	66.06
671.07	72.06
671.272	82.06
671.475	84.06
671.677	87.06
671.88	66.06
672.082	82.06
672.284	91.06
672.487	76.06
672.689	72.06
672.892	82.06
