Data from Uncirc_2003_H10_HRD10591_00025.txt Node
Date: Wed Jan 03 10:35:52 EST 2024
User: Yrep
Spectrometer: HR+D1059
Trigger mode: 1
Integration Time (sec): 1.000000E-1
Scans to average: 1
Electric dark correction enabled: true
Nonlinearity correction enabled: false
Boxcar width: 0
XAxis mode: Wavelengths
Number of Pixels in Spectrum: 2048
>>>>>Begin Spectral Data<<<<<
223.165	-18.88
223.4	-18.88
223.635	-18.88
223.869	-17.88
224.104	-17.88
224.338	-17.88
224.573	-8.88
224.808	-17.88
225.042	-5.88
225.277	-13.88
225.511	9.12
225.746	5.12
225.98	6.12
226.215	8.12
226.449	10.12
226.683	19.12
226.918	29.12
227.152	32.12
227.387	26.12
227.621	33.12
227.856	39.12
228.09	49.12
228.324	59.12
228.559	48.12
228.793	47.12
229.027	54.12
229.262	61.12
229.496	68.12
229.73	72.12
229.964	78.12
230.199	62.12
230.433	67.12
230.667	65.12
230.901	74.12
231.136	62.12
231.37	74.12
231.604	78.12
231.838	77.12
232.072	84.12
232.306	70.12
232.541	66.12
232.775	77.12
233.009	80.12
233.243	72.12
233.477	79.12
233.711	83.12
233.945	67.12
234.179	77.12
234.413	85.12
234.647	99.12
234.881	78.12
235.115	52.12
235.349	77.12
235.583	66.12
235.817	73.12
236.051	71.12
236.285	79.12
236.519	78.12
236.753	67.12
236.987	73.12
237.221	78.12
237.455	68.12
237.689	69.12
237.922	68.12
238.156	85.12
238.39	67.12
238.624	69.12
238.858	65.12
239.091	87.12
239.325	74.12
239.559	73.12
239.793	85.12
240.027	90.12
240.26	82.12
240.494	73.12
240.728	82.12
240.961	76.12
241.195	77.12
241.429	62.12
241.662	79.12
241.896	73.12
242.13	66.12
242.363	83.12
242.597	85.12
242.83	79.12
243.064	69.12
243.298	71.12
243.531	69.12
243.765	78.12
243.998	53.12
244.232	94.12
244.465	88.12
244.699	61.12
244.932	61.12
245.166	82.12
245.399	70.12
245.633	78.12
245.866	72.12
246.099	77.12
246.333	89.12
246.566	70.12
246.8	65.12
247.033	75.12
247.266	63.12
247.5	89.12
247.733	74.12
247.966	73.12
248.2	77.12
248.433	64.12
248.666	97.12
248.899	83.12
249.133	81.12
249.366	76.12
249.599	82.12
249.832	82.12
250.066	75.12
250.299	51.12
250.532	70.12
250.765	71.12
250.998	70.12
251.231	81.12
251.465	85.12
251.698	72.12
251.931	79.12
252.164	66.12
252.397	78.12
252.63	79.12
252.863	79.12
253.096	80.12
253.329	81.12
253.562	63.12
253.795	71.12
254.028	78.12
254.261	82.12
254.494	80.12
254.727	65.12
254.96	77.12
255.193	65.12
255.426	66.12
255.659	70.12
255.892	74.12
256.124	65.12
256.357	70.12
256.59	73.12
256.823	75.12
257.056	75.12
257.289	82.12
257.521	74.12
257.754	70.12
257.987	68.12
258.22	76.12
258.452	73.12
258.685	66.12
258.918	81.12
259.151	75.12
259.383	81.12
259.616	81.12
259.849	83.12
260.081	89.12
260.314	79.12
260.547	87.12
260.779	77.12
261.012	69.12
261.244	90.12
261.477	80.12
261.71	68.12
261.942	98.12
262.175	100.12
262.407	81.12
262.64	81.12
262.872	78.12
263.105	74.12
263.337	87.12
263.57	79.12
263.802	76.12
264.035	80.12
264.267	74.12
264.499	78.12
264.732	77.12
264.964	71.12
265.197	87.12
265.429	79.12
265.661	85.12
265.894	86.12
266.126	81.12
266.358	88.12
266.591	71.12
266.823	85.12
267.055	90.12
267.287	84.12
267.52	77.12
267.752	75.12
267.984	77.12
268.216	75.12
268.448	95.12
268.681	89.12
268.913	87.12
269.145	59.12
269.377	74.12
269.609	73.12
269.841	84.12
270.073	77.12
270.306	85.12
270.538	91.12
270.77	81.12
271.002	74.12
271.234	86.12
271.466	89.12
271.698	71.12
271.93	66.12
272.162	75.12
272.394	78.12
272.626	77.12
272.858	83.12
273.09	74.12
273.322	94.12
273.553	83.12
273.785	84.12
274.017	77.12
274.249	97.12
274.481	74.12
274.713	71.12
274.945	75.12
275.176	92.12
275.408	75.12
275.64	94.12
275.872	78.12
276.104	76.12
276.335	103.12
276.567	94.12
276.799	102.12
277.031	91.12
277.262	87.12
277.494	77.12
277.726	57.12
277.957	86.12
278.189	85.12
278.421	76.12
278.652	94.12
278.884	85.12
279.115	96.12
279.347	77.12
279.579	83.12
279.81	73.12
280.042	65.12
280.273	90.12
280.505	84.12
280.736	87.12
280.968	78.12
281.199	81.12
281.431	73.12
281.662	59.12
281.894	61.12
282.125	90.12
282.356	110.12
282.588	131.12
282.819	116.12
283.051	91.12
283.282	97.12
283.513	91.12
283.745	81.12
283.976	79.12
284.207	78.12
284.439	69.12
284.67	79.12
284.901	80.12
285.132	69.12
285.364	87.12
285.595	72.12
285.826	78.12
286.057	82.12
286.288	70.12
286.52	85.12
286.751	73.12
286.982	78.12
287.213	83.12
287.444	85.12
287.675	89.12
287.906	87.12
288.138	91.12
288.369	92.12
288.6	87.12
288.831	83.12
289.062	90.12
289.293	71.12
289.524	89.12
289.755	68.12
289.986	74.12
290.217	98.12
290.448	79.12
290.679	82.12
290.91	87.12
291.141	85.12
291.371	79.12
291.602	78.12
291.833	78.12
292.064	98.12
292.295	81.12
292.526	89.12
292.757	76.12
292.987	69.12
293.218	93.12
293.449	84.12
293.68	86.12
293.91	83.12
294.141	74.12
294.372	95.12
294.603	88.12
294.833	88.12
295.064	87.12
295.295	96.12
295.525	87.12
295.756	86.12
295.987	111.12
296.217	130.12
296.448	86.12
296.679	83.12
296.909	75.12
297.14	77.12
297.37	97.12
297.601	78.12
297.831	83.12
298.062	98.12
298.292	94.12
298.523	85.12
298.753	72.12
298.984	87.12
299.214	93.12
299.445	87.12
299.675	94.12
299.905	87.12
300.136	100.12
300.366	83.12
300.597	79.12
300.827	83.12
301.057	84.12
301.288	101.12
301.518	84.12
301.748	93.12
301.979	104.12
302.209	79.12
302.439	86.12
302.669	83.12
302.9	86.12
303.13	81.12
303.36	92.12
303.59	101.12
303.82	91.12
304.051	100.12
304.281	87.12
304.511	93.12
304.741	78.12
304.971	75.12
305.201	82.12
305.431	85.12
305.661	91.12
305.891	108.12
306.121	82.12
306.352	97.12
306.582	102.12
306.812	103.12
307.042	82.12
307.272	86.12
307.502	91.12
307.731	82.12
307.961	86.12
308.191	92.12
308.421	86.12
308.651	106.12
308.881	92.12
309.111	90.12
309.341	82.12
309.571	95.12
309.8	91.12
310.03	95.12
310.26	93.12
310.49	84.12
310.72	92.12
310.949	98.12
311.179	90.12
311.409	90.12
311.639	82.12
311.868	77.12
312.098	94.12
312.328	95.12
312.557	83.12
312.787	97.12
313.017	101.12
313.246	89.12
313.476	83.12
313.706	97.12
313.935	74.12
314.165	90.12
314.394	83.12
314.624	97.12
314.853	87.12
315.083	88.12
315.312	91.12
315.542	91.12
315.771	96.12
316.001	83.12
316.23	85.12
316.46	83.12
316.689	87.12
316.919	90.12
317.148	105.12
317.377	97.12
317.607	90.12
317.836	94.12
318.065	91.12
318.295	85.12
318.524	89.12
318.753	89.12
318.983	88.12
319.212	103.12
319.441	95.12
319.67	92.12
319.9	87.12
320.129	77.12
320.358	79.12
320.587	97.12
320.816	87.12
321.046	97.12
321.275	98.12
321.504	85.12
321.733	99.12
321.962	99.12
322.191	106.12
322.42	97.12
322.649	108.12
322.878	113.12
323.108	105.12
323.337	102.12
323.566	122.12
323.795	148.12
324.024	213.12
324.253	390.12
324.482	878.12
324.71	1769.12
324.939	2323.12
325.168	833.12
325.397	240.12
325.626	149.12
325.855	116.12
326.084	116.12
326.313	134.12
326.542	165.12
326.77	215.12
326.999	465.12
327.228	971.12
327.457	1790.12
327.686	1435.12
327.914	378.12
328.143	180.12
328.372	132.12
328.6	110.12
328.829	119.12
329.058	121.12
329.287	115.12
329.515	100.12
329.744	95.12
329.972	87.12
330.201	100.12
330.43	99.12
330.658	106.12
330.887	118.12
331.115	114.12
331.344	96.12
331.572	93.12
331.801	108.12
332.03	97.12
332.258	84.12
332.486	82.12
332.715	96.12
332.943	87.12
333.172	95.12
333.4	87.12
333.629	84.12
333.857	97.12
334.085	93.12
334.314	93.12
334.542	97.12
334.771	98.12
334.999	93.12
335.227	86.12
335.455	97.12
335.684	100.12
335.912	104.12
336.14	92.12
336.369	85.12
336.597	90.12
336.825	94.12
337.053	88.12
337.281	77.12
337.51	87.12
337.738	81.12
337.966	98.12
338.194	73.12
338.422	86.12
338.65	90.12
338.878	87.12
339.106	78.12
339.334	90.12
339.562	89.12
339.79	92.12
340.018	97.12
340.246	82.12
340.474	84.12
340.702	80.12
340.93	90.12
341.158	93.12
341.386	91.12
341.614	84.12
341.842	83.12
342.07	86.12
342.298	93.12
342.526	82.12
342.754	81.12
342.981	77.12
343.209	85.12
343.437	91.12
343.665	95.12
343.893	90.12
344.12	96.12
344.348	83.12
344.576	98.12
344.804	89.12
345.031	80.12
345.259	89.12
345.487	77.12
345.714	96.12
345.942	86.12
346.17	87.12
346.397	67.12
346.625	96.12
346.853	91.12
347.08	106.12
347.308	86.12
347.535	86.12
347.763	110.12
347.99	94.12
348.218	102.12
348.445	87.12
348.673	81.12
348.9	86.12
349.128	85.12
349.355	87.12
349.583	94.12
349.81	92.12
350.037	88.12
350.265	90.12
350.492	86.12
350.72	91.12
350.947	95.12
351.174	119.12
351.402	100.12
351.629	108.12
351.856	109.12
352.083	102.12
352.311	106.12
352.538	97.12
352.765	100.12
352.992	110.12
353.22	100.12
353.447	94.12
353.674	100.12
353.901	90.12
354.128	93.12
354.355	97.12
354.583	102.12
354.81	95.12
355.037	92.12
355.264	86.12
355.491	88.12
355.718	69.12
355.945	91.12
356.172	85.12
356.399	93.12
356.626	85.12
356.853	100.12
357.08	93.12
357.307	84.12
357.534	83.12
357.761	95.12
357.988	98.12
358.215	96.12
358.441	99.12
358.668	89.12
358.895	91.12
359.122	83.12
359.349	88.12
359.576	93.12
359.802	96.12
360.029	86.12
360.256	100.12
360.483	86.12
360.709	79.12
360.936	100.12
361.163	88.12
361.39	91.12
361.616	86.12
361.843	83.12
362.07	89.12
362.296	99.12
362.523	83.12
362.749	89.12
362.976	89.12
363.203	93.12
363.429	92.12
363.656	94.12
363.882	86.12
364.109	87.12
364.335	92.12
364.562	81.12
364.788	75.12
365.015	83.12
365.241	103.12
365.468	105.12
365.694	106.12
365.92	101.12
366.147	89.12
366.373	95.12
366.599	91.12
366.826	88.12
367.052	79.12
367.278	84.12
367.505	84.12
367.731	85.12
367.957	87.12
368.184	98.12
368.41	82.12
368.636	107.12
368.862	118.12
369.089	106.12
369.315	99.12
369.541	88.12
369.767	86.12
369.993	69.12
370.219	89.12
370.445	77.12
370.672	74.12
370.898	75.12
371.124	95.12
371.35	95.12
371.576	77.12
371.802	87.12
372.028	85.12
372.254	85.12
372.48	79.12
372.706	88.12
372.932	79.12
373.158	91.12
373.384	91.12
373.61	91.12
373.835	86.12
374.061	85.12
374.287	86.12
374.513	91.12
374.739	78.12
374.965	82.12
375.191	92.12
375.416	90.12
375.642	87.12
375.868	76.12
376.094	86.12
376.319	73.12
376.545	83.12
376.771	83.12
376.997	94.12
377.222	85.12
377.448	87.12
377.674	83.12
377.899	85.12
378.125	79.12
378.35	90.12
378.576	82.12
378.802	78.12
379.027	86.12
379.253	90.12
379.478	83.12
379.704	84.12
379.929	87.12
380.155	89.12
380.38	87.12
380.606	87.12
380.831	85.12
381.057	94.12
381.282	89.12
381.507	90.12
381.733	105.12
381.958	106.12
382.184	91.12
382.409	101.12
382.634	95.12
382.86	94.12
383.085	102.12
383.31	104.12
383.535	95.12
383.761	90.12
383.986	104.12
384.211	109.12
384.436	96.12
384.662	103.12
384.887	106.12
385.112	105.12
385.337	105.12
385.562	104.12
385.787	96.12
386.013	123.12
386.238	92.12
386.463	99.12
386.688	93.12
386.913	100.12
387.138	96.12
387.363	93.12
387.588	101.12
387.813	98.12
388.038	97.12
388.263	117.12
388.488	117.12
388.713	104.12
388.938	95.12
389.163	86.12
389.387	81.12
389.612	87.12
389.837	85.12
390.062	101.12
390.287	82.12
390.512	78.12
390.736	90.12
390.961	87.12
391.186	86.12
391.411	89.12
391.636	95.12
391.86	87.12
392.085	82.12
392.31	79.12
392.534	94.12
392.759	74.12
392.984	94.12
393.208	74.12
393.433	87.12
393.658	77.12
393.882	83.12
394.107	88.12
394.331	91.12
394.556	93.12
394.78	83.12
395.005	85.12
395.229	90.12
395.454	81.12
395.678	93.12
395.903	90.12
396.127	101.12
396.352	78.12
396.576	85.12
396.801	88.12
397.025	91.12
397.249	87.12
397.474	86.12
397.698	96.12
397.922	87.12
398.147	93.12
398.371	82.12
398.595	81.12
398.82	75.12
399.044	87.12
399.268	86.12
399.492	83.12
399.717	83.12
399.941	95.12
400.165	86.12
400.389	87.12
400.613	77.12
400.837	71.12
401.062	89.12
401.286	74.12
401.51	97.12
401.734	103.12
401.958	100.12
402.182	118.12
402.406	146.12
402.63	114.12
402.854	94.12
403.078	71.12
403.302	85.12
403.526	75.12
403.75	85.12
403.974	65.12
404.198	79.12
404.422	85.12
404.645	80.12
404.869	93.12
405.093	93.12
405.317	107.12
405.541	94.12
405.765	92.12
405.988	101.12
406.212	166.12
406.436	215.12
406.66	134.12
406.883	99.12
407.107	89.12
407.331	82.12
407.555	80.12
407.778	95.12
408.002	83.12
408.226	78.12
408.449	93.12
408.673	75.12
408.896	83.12
409.12	93.12
409.344	87.12
409.567	90.12
409.791	91.12
410.014	106.12
410.238	83.12
410.461	86.12
410.685	82.12
410.908	84.12
411.132	87.12
411.355	83.12
411.578	84.12
411.802	86.12
412.025	86.12
412.249	86.12
412.472	73.12
412.695	77.12
412.919	76.12
413.142	85.12
413.365	75.12
413.589	82.12
413.812	77.12
414.035	83.12
414.258	86.12
414.482	81.12
414.705	79.12
414.928	86.12
415.151	94.12
415.374	85.12
415.597	83.12
415.821	85.12
416.044	90.12
416.267	86.12
416.49	86.12
416.713	85.12
416.936	86.12
417.159	79.12
417.382	91.12
417.605	80.12
417.828	86.12
418.051	83.12
418.274	87.12
418.497	95.12
418.72	87.12
418.943	92.12
419.166	75.12
419.389	83.12
419.611	80.12
419.834	78.12
420.057	87.12
420.28	88.12
420.503	85.12
420.726	85.12
420.948	90.12
421.171	79.12
421.394	76.12
421.617	78.12
421.839	82.12
422.062	88.12
422.285	83.12
422.507	97.12
422.73	90.12
422.953	86.12
423.175	80.12
423.398	74.12
423.621	91.12
423.843	86.12
424.066	71.12
424.288	95.12
424.511	69.12
424.733	91.12
424.956	99.12
425.178	92.12
425.401	94.12
425.623	98.12
425.846	74.12
426.068	84.12
426.291	85.12
426.513	71.12
426.735	78.12
426.958	100.12
427.18	88.12
427.402	127.12
427.625	147.12
427.847	105.12
428.069	100.12
428.292	87.12
428.514	67.12
428.736	72.12
428.958	82.12
429.181	91.12
429.403	81.12
429.625	75.12
429.847	89.12
430.069	95.12
430.292	90.12
430.514	84.12
430.736	73.12
430.958	78.12
431.18	85.12
431.402	75.12
431.624	68.12
431.846	87.12
432.068	87.12
432.29	69.12
432.512	84.12
432.734	78.12
432.956	83.12
433.178	101.12
433.4	91.12
433.622	85.12
433.844	79.12
434.066	87.12
434.287	81.12
434.509	93.12
434.731	79.12
434.953	94.12
435.175	92.12
435.397	80.12
435.618	86.12
435.84	119.12
436.062	115.12
436.284	96.12
436.505	91.12
436.727	88.12
436.949	85.12
437.17	91.12
437.392	75.12
437.614	80.12
437.835	104.12
438.057	110.12
438.278	95.12
438.5	84.12
438.721	102.12
438.943	102.12
439.165	79.12
439.386	76.12
439.608	91.12
439.829	108.12
440.05	118.12
440.272	129.12
440.493	90.12
440.715	105.12
440.936	76.12
441.158	81.12
441.379	77.12
441.6	88.12
441.822	93.12
442.043	89.12
442.264	97.12
442.486	83.12
442.707	87.12
442.928	110.12
443.149	107.12
443.371	116.12
443.592	97.12
443.813	109.12
444.034	105.12
444.255	73.12
444.476	82.12
444.698	98.12
444.919	79.12
445.14	121.12
445.361	122.12
445.582	106.12
445.803	130.12
446.024	137.12
446.245	121.12
446.466	108.12
446.687	73.12
446.908	89.12
447.129	92.12
447.35	77.12
447.571	89.12
447.792	94.12
448.013	86.12
448.234	113.12
448.455	95.12
448.675	109.12
448.896	101.12
449.117	102.12
449.338	109.12
449.559	114.12
449.779	117.12
450	97.12
450.221	84.12
450.442	74.12
450.662	95.12
450.883	95.12
451.104	111.12
451.324	89.12
451.545	81.12
451.766	85.12
451.986	94.12
452.207	85.12
452.428	105.12
452.648	114.12
452.869	97.12
453.089	106.12
453.31	118.12
453.53	103.12
453.751	101.12
453.971	101.12
454.192	97.12
454.412	89.12
454.633	81.12
454.853	73.12
455.073	89.12
455.294	84.12
455.514	83.12
455.734	83.12
455.955	86.12
456.175	84.12
456.395	88.12
456.616	66.12
456.836	79.12
457.056	83.12
457.276	85.12
457.497	86.12
457.717	74.12
457.937	71.12
458.157	80.12
458.377	88.12
458.598	106.12
458.818	133.12
459.038	153.12
459.258	99.12
459.478	97.12
459.698	95.12
459.918	80.12
460.138	83.12
460.358	72.12
460.578	90.12
460.798	83.12
461.018	86.12
461.238	84.12
461.458	84.12
461.678	76.12
461.898	74.12
462.118	79.12
462.338	78.12
462.558	83.12
462.777	83.12
462.997	82.12
463.217	97.12
463.437	81.12
463.657	87.12
463.876	82.12
464.096	92.12
464.316	90.12
464.536	94.12
464.755	95.12
464.975	106.12
465.195	150.12
465.414	134.12
465.634	85.12
465.854	76.12
466.073	93.12
466.293	86.12
466.512	87.12
466.732	85.12
466.951	87.12
467.171	92.12
467.391	86.12
467.61	113.12
467.829	96.12
468.049	77.12
468.268	88.12
468.488	90.12
468.707	81.12
468.927	74.12
469.146	81.12
469.365	94.12
469.585	95.12
469.804	95.12
470.023	87.12
470.243	93.12
470.462	93.12
470.681	104.12
470.901	84.12
471.12	98.12
471.339	81.12
471.558	82.12
471.777	87.12
471.997	89.12
472.216	80.12
472.435	90.12
472.654	81.12
472.873	84.12
473.092	98.12
473.311	76.12
473.53	92.12
473.749	97.12
473.968	73.12
474.187	97.12
474.406	91.12
474.625	87.12
474.844	81.12
475.063	81.12
475.282	85.12
475.501	84.12
475.72	85.12
475.939	77.12
476.158	85.12
476.377	85.12
476.596	86.12
476.814	96.12
477.033	90.12
477.252	84.12
477.471	93.12
477.69	85.12
477.908	80.12
478.127	91.12
478.346	84.12
478.564	77.12
478.783	84.12
479.002	104.12
479.22	83.12
479.439	98.12
479.658	91.12
479.876	100.12
480.095	104.12
480.313	87.12
480.532	89.12
480.751	91.12
480.969	83.12
481.188	101.12
481.406	96.12
481.624	81.12
481.843	86.12
482.061	88.12
482.28	83.12
482.498	95.12
482.717	91.12
482.935	81.12
483.153	91.12
483.372	91.12
483.59	88.12
483.808	94.12
484.027	94.12
484.245	95.12
484.463	89.12
484.681	103.12
484.9	86.12
485.118	84.12
485.336	84.12
485.554	81.12
485.772	104.12
485.99	97.12
486.209	91.12
486.427	93.12
486.645	87.12
486.863	98.12
487.081	95.12
487.299	91.12
487.517	93.12
487.735	94.12
487.953	86.12
488.171	89.12
488.389	106.12
488.607	91.12
488.825	87.12
489.043	93.12
489.261	91.12
489.479	92.12
489.696	93.12
489.914	101.12
490.132	88.12
490.35	80.12
490.568	77.12
490.786	80.12
491.003	81.12
491.221	92.12
491.439	90.12
491.657	100.12
491.874	101.12
492.092	70.12
492.31	86.12
492.527	83.12
492.745	86.12
492.963	80.12
493.18	77.12
493.398	70.12
493.615	84.12
493.833	89.12
494.05	100.12
494.268	83.12
494.485	85.12
494.703	83.12
494.92	91.12
495.138	85.12
495.355	99.12
495.573	79.12
495.79	101.12
496.008	81.12
496.225	97.12
496.442	90.12
496.66	89.12
496.877	84.12
497.094	83.12
497.312	92.12
497.529	100.12
497.746	101.12
497.963	77.12
498.181	89.12
498.398	91.12
498.615	113.12
498.832	87.12
499.049	100.12
499.267	100.12
499.484	77.12
499.701	83.12
499.918	87.12
500.135	80.12
500.352	90.12
500.569	85.12
500.786	85.12
501.003	93.12
501.22	73.12
501.437	76.12
501.654	87.12
501.871	97.12
502.088	101.12
502.305	78.12
502.522	76.12
502.739	76.12
502.956	90.12
503.172	98.12
503.389	90.12
503.606	87.12
503.823	85.12
504.04	97.12
504.256	88.12
504.473	95.12
504.69	82.12
504.907	84.12
505.123	105.12
505.34	86.12
505.557	85.12
505.773	76.12
505.99	80.12
506.207	97.12
506.423	77.12
506.64	87.12
506.856	102.12
507.073	88.12
507.289	91.12
507.506	80.12
507.722	101.12
507.939	103.12
508.155	89.12
508.372	94.12
508.588	86.12
508.805	72.12
509.021	90.12
509.238	104.12
509.454	101.12
509.67	109.12
509.887	112.12
510.103	134.12
510.319	213.12
510.536	790.12
510.752	2443.12
510.968	690.12
511.184	150.12
511.401	108.12
511.617	79.12
511.833	93.12
512.049	77.12
512.265	95.12
512.481	87.12
512.698	88.12
512.914	94.12
513.13	81.12
513.346	85.12
513.562	94.12
513.778	92.12
513.994	93.12
514.21	94.12
514.426	103.12
514.642	105.12
514.858	108.12
515.074	159.12
515.29	431.12
515.506	1457.12
515.721	534.12
515.937	160.12
516.153	99.12
516.369	80.12
516.585	96.12
516.801	87.12
517.016	90.12
517.232	83.12
517.448	82.12
517.664	84.12
517.879	83.12
518.095	82.12
518.311	100.12
518.527	95.12
518.742	86.12
518.958	87.12
519.173	87.12
519.389	103.12
519.605	96.12
519.82	83.12
520.036	97.12
520.251	107.12
520.467	103.12
520.682	100.12
520.898	104.12
521.113	93.12
521.329	126.12
521.544	197.12
521.76	551.12
521.975	2378.12
522.19	1429.12
522.406	297.12
522.621	112.12
522.836	94.12
523.052	89.12
523.267	86.12
523.482	79.12
523.698	95.12
523.913	125.12
524.128	121.12
524.343	90.12
524.559	93.12
524.774	93.12
524.989	94.12
525.204	109.12
525.419	99.12
525.634	88.12
525.849	96.12
526.064	80.12
526.28	104.12
526.495	86.12
526.71	94.12
526.925	94.12
527.14	81.12
527.355	85.12
527.57	90.12
527.785	76.12
527.999	88.12
528.214	71.12
528.429	88.12
528.644	82.12
528.859	79.12
529.074	91.12
529.289	104.12
529.503	164.12
529.718	108.12
529.933	101.12
530.148	86.12
530.363	80.12
530.577	94.12
530.792	85.12
531.007	97.12
531.221	86.12
531.436	90.12
531.651	81.12
531.865	90.12
532.08	95.12
532.295	104.12
532.509	94.12
532.724	85.12
532.938	91.12
533.153	78.12
533.367	87.12
533.582	93.12
533.796	102.12
534.011	82.12
534.225	71.12
534.44	90.12
534.654	84.12
534.868	85.12
535.083	85.12
535.297	91.12
535.511	100.12
535.726	95.12
535.94	99.12
536.154	84.12
536.369	83.12
536.583	70.12
536.797	84.12
537.011	94.12
537.225	96.12
537.44	85.12
537.654	87.12
537.868	84.12
538.082	93.12
538.296	85.12
538.51	82.12
538.724	87.12
538.938	87.12
539.153	83.12
539.367	105.12
539.581	95.12
539.795	72.12
540.009	84.12
540.222	93.12
540.436	81.12
540.65	99.12
540.864	84.12
541.078	89.12
541.292	92.12
541.506	84.12
541.72	72.12
541.934	92.12
542.147	83.12
542.361	78.12
542.575	82.12
542.789	83.12
543.002	87.12
543.216	78.12
543.43	87.12
543.644	96.12
543.857	80.12
544.071	103.12
544.285	86.12
544.498	93.12
544.712	95.12
544.925	82.12
545.139	87.12
545.352	77.12
545.566	75.12
545.779	81.12
545.993	91.12
546.206	92.12
546.42	95.12
546.633	93.12
546.847	97.12
547.06	94.12
547.274	67.12
547.487	104.12
547.7	89.12
547.914	81.12
548.127	78.12
548.34	76.12
548.554	86.12
548.767	97.12
548.98	101.12
549.193	81.12
549.407	81.12
549.62	86.12
549.833	87.12
550.046	71.12
550.259	85.12
550.473	87.12
550.686	82.12
550.899	99.12
551.112	91.12
551.325	92.12
551.538	86.12
551.751	80.12
551.964	86.12
552.177	81.12
552.39	93.12
552.603	74.12
552.816	83.12
553.029	90.12
553.242	79.12
553.455	87.12
553.667	102.12
553.88	90.12
554.093	100.12
554.306	87.12
554.519	83.12
554.732	93.12
554.944	96.12
555.157	89.12
555.37	89.12
555.583	103.12
555.795	86.12
556.008	91.12
556.221	85.12
556.433	77.12
556.646	93.12
556.859	99.12
557.071	104.12
557.284	102.12
557.496	84.12
557.709	73.12
557.921	90.12
558.134	99.12
558.346	87.12
558.559	92.12
558.771	85.12
558.984	81.12
559.196	94.12
559.409	78.12
559.621	82.12
559.833	89.12
560.046	82.12
560.258	91.12
560.47	87.12
560.683	81.12
560.895	72.12
561.107	82.12
561.32	75.12
561.532	73.12
561.744	93.12
561.956	77.12
562.168	90.12
562.381	82.12
562.593	88.12
562.805	89.12
563.017	73.12
563.229	74.12
563.441	81.12
563.653	87.12
563.865	88.12
564.077	88.12
564.289	79.12
564.501	92.12
564.713	89.12
564.925	96.12
565.137	79.12
565.349	91.12
565.561	88.12
565.773	73.12
565.985	80.12
566.197	75.12
566.408	84.12
566.62	95.12
566.832	84.12
567.044	83.12
567.255	81.12
567.467	90.12
567.679	79.12
567.891	74.12
568.102	84.12
568.314	75.12
568.526	88.12
568.737	91.12
568.949	81.12
569.161	86.12
569.372	87.12
569.584	92.12
569.795	95.12
570.007	123.12
570.218	237.12
570.43	128.12
570.641	87.12
570.853	84.12
571.064	92.12
571.276	89.12
571.487	89.12
571.698	85.12
571.91	83.12
572.121	77.12
572.333	81.12
572.544	73.12
572.755	91.12
572.966	85.12
573.178	77.12
573.389	84.12
573.6	93.12
573.811	90.12
574.023	71.12
574.234	85.12
574.445	91.12
574.656	97.12
574.867	91.12
575.078	80.12
575.289	90.12
575.501	78.12
575.712	93.12
575.923	85.12
576.134	83.12
576.345	76.12
576.556	79.12
576.767	85.12
576.978	86.12
577.188	76.12
577.399	89.12
577.61	89.12
577.821	92.12
578.032	105.12
578.243	283.12
578.454	816.12
578.665	229.12
578.875	92.12
579.086	90.12
579.297	93.12
579.508	83.12
579.718	82.12
579.929	81.12
580.14	89.12
580.35	85.12
580.561	86.12
580.772	88.12
580.982	86.12
581.193	88.12
581.403	87.12
581.614	85.12
581.825	79.12
582.035	86.12
582.246	89.12
582.456	91.12
582.667	87.12
582.877	86.12
583.087	90.12
583.298	91.12
583.508	79.12
583.719	81.12
583.929	84.12
584.139	84.12
584.35	82.12
584.56	78.12
584.77	95.12
584.981	85.12
585.191	79.12
585.401	86.12
585.611	74.12
585.821	86.12
586.032	80.12
586.242	86.12
586.452	85.12
586.662	81.12
586.872	77.12
587.082	81.12
587.292	79.12
587.502	80.12
587.713	80.12
587.923	94.12
588.133	94.12
588.343	81.12
588.553	85.12
588.762	76.12
588.972	99.12
589.182	98.12
589.392	76.12
589.602	73.12
589.812	82.12
590.022	92.12
590.232	70.12
590.441	82.12
590.651	95.12
590.861	76.12
591.071	95.12
591.281	85.12
591.49	75.12
591.7	79.12
591.91	91.12
592.119	82.12
592.329	86.12
592.539	73.12
592.748	88.12
592.958	80.12
593.167	74.12
593.377	79.12
593.587	86.12
593.796	94.12
594.006	74.12
594.215	78.12
594.424	82.12
594.634	95.12
594.843	76.12
595.053	94.12
595.262	76.12
595.472	87.12
595.681	92.12
595.89	78.12
596.1	90.12
596.309	85.12
596.518	77.12
596.727	71.12
596.937	80.12
597.146	95.12
597.355	98.12
597.564	76.12
597.774	93.12
597.983	89.12
598.192	73.12
598.401	70.12
598.61	107.12
598.819	95.12
599.028	78.12
599.237	92.12
599.446	87.12
599.655	83.12
599.864	94.12
600.073	91.12
600.282	85.12
600.491	92.12
600.7	82.12
600.909	100.12
601.118	98.12
601.327	84.12
601.536	79.12
601.745	89.12
601.953	99.12
602.162	87.12
602.371	97.12
602.58	94.12
602.789	85.12
602.997	81.12
603.206	92.12
603.415	91.12
603.623	76.12
603.832	83.12
604.041	100.12
604.249	76.12
604.458	93.12
604.666	91.12
604.875	79.12
605.084	76.12
605.292	84.12
605.501	88.12
605.709	98.12
605.918	93.12
606.126	93.12
606.334	84.12
606.543	97.12
606.751	72.12
606.96	84.12
607.168	75.12
607.376	83.12
607.585	77.12
607.793	93.12
608.001	86.12
608.21	71.12
608.418	76.12
608.626	78.12
608.834	86.12
609.043	79.12
609.251	71.12
609.459	78.12
609.667	78.12
609.875	82.12
610.083	83.12
610.291	80.12
610.499	93.12
610.707	78.12
610.916	87.12
611.124	86.12
611.332	86.12
611.54	82.12
611.748	64.12
611.955	63.12
612.163	85.12
612.371	76.12
612.579	81.12
612.787	80.12
612.995	91.12
613.203	74.12
613.411	83.12
613.618	85.12
613.826	93.12
614.034	89.12
614.242	81.12
614.449	80.12
614.657	98.12
614.865	80.12
615.072	77.12
615.28	82.12
615.488	91.12
615.695	75.12
615.903	92.12
616.111	90.12
616.318	93.12
616.526	89.12
616.733	86.12
616.941	81.12
617.148	99.12
617.356	82.12
617.563	73.12
617.771	74.12
617.978	90.12
618.185	87.12
618.393	68.12
618.6	95.12
618.807	91.12
619.015	84.12
619.222	94.12
619.429	86.12
619.637	86.12
619.844	79.12
620.051	83.12
620.258	71.12
620.466	80.12
620.673	82.12
620.88	85.12
621.087	78.12
621.294	83.12
621.501	82.12
621.708	69.12
621.915	79.12
622.122	85.12
622.329	90.12
622.536	76.12
622.743	73.12
622.95	86.12
623.157	81.12
623.364	87.12
623.571	86.12
623.778	70.12
623.985	87.12
624.192	87.12
624.399	87.12
624.606	74.12
624.812	92.12
625.019	93.12
625.226	76.12
625.433	82.12
625.639	81.12
625.846	83.12
626.053	77.12
626.259	69.12
626.466	94.12
626.673	78.12
626.879	91.12
627.086	82.12
627.293	88.12
627.499	93.12
627.706	71.12
627.912	82.12
628.119	78.12
628.325	79.12
628.532	71.12
628.738	90.12
628.945	87.12
629.151	86.12
629.357	86.12
629.564	78.12
629.77	82.12
629.976	90.12
630.183	80.12
630.389	87.12
630.595	85.12
630.802	93.12
631.008	77.12
631.214	85.12
631.42	90.12
631.627	85.12
631.833	67.12
632.039	87.12
632.245	80.12
632.451	88.12
632.657	70.12
632.863	69.12
633.069	84.12
633.275	80.12
633.481	71.12
633.688	86.12
633.893	83.12
634.099	83.12
634.305	74.12
634.511	80.12
634.717	80.12
634.923	90.12
635.129	92.12
635.335	91.12
635.541	73.12
635.747	71.12
635.952	84.12
636.158	92.12
636.364	84.12
636.57	75.12
636.775	87.12
636.981	69.12
637.187	82.12
637.392	82.12
637.598	76.12
637.804	75.12
638.009	74.12
638.215	88.12
638.421	87.12
638.626	98.12
638.832	82.12
639.037	60.12
639.243	78.12
639.448	83.12
639.654	86.12
639.859	72.12
640.065	86.12
640.27	83.12
640.475	87.12
640.681	80.12
640.886	83.12
641.091	75.12
641.297	97.12
641.502	79.12
641.707	86.12
641.913	81.12
642.118	77.12
642.323	78.12
642.528	97.12
642.733	84.12
642.939	79.12
643.144	81.12
643.349	75.12
643.554	80.12
643.759	86.12
643.964	84.12
644.169	71.12
644.374	87.12
644.579	75.12
644.784	91.12
644.989	78.12
645.194	74.12
645.399	78.12
645.604	85.12
645.809	91.12
646.014	70.12
646.219	75.12
646.423	88.12
646.628	73.12
646.833	74.12
647.038	78.12
647.243	75.12
647.447	95.12
647.652	81.12
647.857	61.12
648.062	84.12
648.266	85.12
648.471	75.12
648.676	76.12
648.88	99.12
649.085	77.12
649.289	90.12
649.494	103.12
649.698	120.12
649.903	92.12
650.107	99.12
650.312	80.12
650.516	81.12
650.721	93.12
650.925	92.12
651.13	84.12
651.334	87.12
651.539	62.12
651.743	94.12
651.947	68.12
652.152	78.12
652.356	70.12
652.56	84.12
652.764	80.12
652.969	78.12
653.173	81.12
653.377	70.12
653.581	84.12
653.785	77.12
653.99	90.12
654.194	98.12
654.398	85.12
654.602	94.12
654.806	83.12
655.01	92.12
655.214	88.12
655.418	77.12
655.622	87.12
655.826	87.12
656.03	90.12
656.234	90.12
656.438	82.12
656.642	101.12
656.846	96.12
657.049	90.12
657.253	85.12
657.457	82.12
657.661	73.12
657.865	87.12
658.068	73.12
658.272	73.12
658.476	62.12
658.68	78.12
658.883	76.12
659.087	76.12
659.291	81.12
659.494	77.12
659.698	83.12
659.901	75.12
660.105	80.12
660.309	79.12
660.512	82.12
660.716	80.12
660.919	84.12
661.123	84.12
661.326	85.12
661.53	82.12
661.733	66.12
661.936	68.12
662.14	73.12
662.343	71.12
662.546	78.12
662.75	74.12
662.953	88.12
663.156	83.12
663.36	79.12
663.563	76.12
663.766	66.12
663.969	79.12
664.173	75.12
664.376	60.12
664.579	76.12
664.782	84.12
664.985	91.12
665.188	85.12
665.391	74.12
665.594	71.12
665.797	65.12
666	65.12
666.203	90.12
666.406	76.12
666.609	83.12
666.812	85.12
667.015	74.12
667.218	72.12
667.421	65.12
667.624	83.12
667.827	91.12
668.03	87.12
668.232	79.12
668.435	60.12
668.638	70.12
668.841	75.12
669.043	70.12
669.246	73.12
669.449	74.12
669.651	78.12
669.854	77.12
670.057	78.12
670.259	79.12
670.462	71.12
670.665	78.12
670.867	73.12
671.07	77.12
671.272	75.12
671.475	80.12
671.677	82.12
671.88	71.12
672.082	63.12
672.284	78.12
672.487	75.12
672.689	76.12
672.892	75.12
