Data from Uncirc_2003_H10_HRD10591_00058.txt Node
Date: Wed Jan 03 10:35:59 EST 2024
User: Yrep
Spectrometer: HR+D1059
Trigger mode: 1
Integration Time (sec): 1.000000E-1
Scans to average: 1
Electric dark correction enabled: true
Nonlinearity correction enabled: false
Boxcar width: 0
XAxis mode: Wavelengths
Number of Pixels in Spectrum: 2048
>>>>>Begin Spectral Data<<<<<
223.165	-3.12
223.4	-3.12
223.635	-3.12
223.869	-10.12
224.104	-8.12
224.338	-9.12
224.573	-21.12
224.808	-33.12
225.042	-8.12
225.277	-10.12
225.511	3.88
225.746	14.88
225.98	14.88
226.215	9.88
226.449	14.88
226.683	-1.12
226.918	21.88
227.152	23.88
227.387	26.88
227.621	41.88
227.856	54.88
228.09	52.88
228.324	59.88
228.559	58.88
228.793	53.88
229.027	69.88
229.262	67.88
229.496	74.88
229.73	91.88
229.964	101.88
230.199	74.88
230.433	83.88
230.667	90.88
230.901	78.88
231.136	79.88
231.37	69.88
231.604	77.88
231.838	88.88
232.072	87.88
232.306	81.88
232.541	98.88
232.775	91.88
233.009	83.88
233.243	87.88
233.477	87.88
233.711	90.88
233.945	79.88
234.179	82.88
234.413	80.88
234.647	75.88
234.881	82.88
235.115	68.88
235.349	75.88
235.583	91.88
235.817	77.88
236.051	89.88
236.285	80.88
236.519	83.88
236.753	93.88
236.987	84.88
237.221	99.88
237.455	93.88
237.689	81.88
237.922	87.88
238.156	68.88
238.39	77.88
238.624	82.88
238.858	74.88
239.091	76.88
239.325	70.88
239.559	87.88
239.793	81.88
240.027	90.88
240.26	74.88
240.494	93.88
240.728	85.88
240.961	72.88
241.195	97.88
241.429	90.88
241.662	84.88
241.896	82.88
242.13	71.88
242.363	91.88
242.597	99.88
242.83	97.88
243.064	72.88
243.298	82.88
243.531	77.88
243.765	78.88
243.998	77.88
244.232	98.88
244.465	100.88
244.699	84.88
244.932	83.88
245.166	74.88
245.399	76.88
245.633	92.88
245.866	87.88
246.099	73.88
246.333	78.88
246.566	88.88
246.8	92.88
247.033	78.88
247.266	83.88
247.5	81.88
247.733	84.88
247.966	86.88
248.2	78.88
248.433	89.88
248.666	85.88
248.899	89.88
249.133	83.88
249.366	94.88
249.599	87.88
249.832	102.88
250.066	94.88
250.299	89.88
250.532	90.88
250.765	102.88
250.998	85.88
251.231	94.88
251.465	100.88
251.698	88.88
251.931	83.88
252.164	73.88
252.397	87.88
252.63	83.88
252.863	75.88
253.096	79.88
253.329	89.88
253.562	82.88
253.795	69.88
254.028	81.88
254.261	88.88
254.494	81.88
254.727	93.88
254.96	81.88
255.193	83.88
255.426	75.88
255.659	89.88
255.892	86.88
256.124	86.88
256.357	83.88
256.59	84.88
256.823	81.88
257.056	89.88
257.289	73.88
257.521	84.88
257.754	83.88
257.987	83.88
258.22	82.88
258.452	84.88
258.685	74.88
258.918	86.88
259.151	77.88
259.383	77.88
259.616	87.88
259.849	85.88
260.081	84.88
260.314	85.88
260.547	81.88
260.779	94.88
261.012	81.88
261.244	90.88
261.477	97.88
261.71	104.88
261.942	121.88
262.175	114.88
262.407	93.88
262.64	89.88
262.872	88.88
263.105	92.88
263.337	88.88
263.57	84.88
263.802	73.88
264.035	92.88
264.267	92.88
264.499	79.88
264.732	88.88
264.964	86.88
265.197	72.88
265.429	92.88
265.661	99.88
265.894	94.88
266.126	88.88
266.358	82.88
266.591	68.88
266.823	66.88
267.055	70.88
267.287	89.88
267.52	105.88
267.752	89.88
267.984	77.88
268.216	79.88
268.448	98.88
268.681	77.88
268.913	94.88
269.145	98.88
269.377	85.88
269.609	86.88
269.841	78.88
270.073	77.88
270.306	83.88
270.538	89.88
270.77	82.88
271.002	87.88
271.234	85.88
271.466	86.88
271.698	87.88
271.93	71.88
272.162	103.88
272.394	81.88
272.626	78.88
272.858	99.88
273.09	87.88
273.322	86.88
273.553	88.88
273.785	95.88
274.017	101.88
274.249	79.88
274.481	81.88
274.713	87.88
274.945	87.88
275.176	76.88
275.408	88.88
275.64	98.88
275.872	82.88
276.104	84.88
276.335	94.88
276.567	83.88
276.799	116.88
277.031	117.88
277.262	88.88
277.494	97.88
277.726	93.88
277.957	104.88
278.189	103.88
278.421	92.88
278.652	94.88
278.884	91.88
279.115	92.88
279.347	93.88
279.579	98.88
279.81	90.88
280.042	95.88
280.273	99.88
280.505	95.88
280.736	90.88
280.968	93.88
281.199	89.88
281.431	81.88
281.662	90.88
281.894	97.88
282.125	105.88
282.356	101.88
282.588	152.88
282.819	107.88
283.051	85.88
283.282	85.88
283.513	100.88
283.745	89.88
283.976	93.88
284.207	98.88
284.439	102.88
284.67	102.88
284.901	92.88
285.132	84.88
285.364	95.88
285.595	94.88
285.826	83.88
286.057	79.88
286.288	99.88
286.52	98.88
286.751	86.88
286.982	101.88
287.213	83.88
287.444	93.88
287.675	97.88
287.906	105.88
288.138	85.88
288.369	103.88
288.6	94.88
288.831	98.88
289.062	87.88
289.293	94.88
289.524	94.88
289.755	94.88
289.986	92.88
290.217	87.88
290.448	96.88
290.679	103.88
290.91	102.88
291.141	98.88
291.371	98.88
291.602	104.88
291.833	78.88
292.064	89.88
292.295	103.88
292.526	84.88
292.757	93.88
292.987	96.88
293.218	101.88
293.449	101.88
293.68	86.88
293.91	95.88
294.141	83.88
294.372	90.88
294.603	76.88
294.833	95.88
295.064	90.88
295.295	74.88
295.525	83.88
295.756	114.88
295.987	110.88
296.217	138.88
296.448	115.88
296.679	96.88
296.909	89.88
297.14	94.88
297.37	83.88
297.601	82.88
297.831	99.88
298.062	104.88
298.292	94.88
298.523	95.88
298.753	97.88
298.984	96.88
299.214	84.88
299.445	95.88
299.675	101.88
299.905	94.88
300.136	90.88
300.366	98.88
300.597	73.88
300.827	109.88
301.057	101.88
301.288	115.88
301.518	87.88
301.748	97.88
301.979	101.88
302.209	96.88
302.439	95.88
302.669	93.88
302.9	94.88
303.13	98.88
303.36	92.88
303.59	102.88
303.82	108.88
304.051	108.88
304.281	86.88
304.511	96.88
304.741	103.88
304.971	83.88
305.201	96.88
305.431	90.88
305.661	85.88
305.891	106.88
306.121	108.88
306.352	107.88
306.582	106.88
306.812	100.88
307.042	83.88
307.272	106.88
307.502	111.88
307.731	95.88
307.961	102.88
308.191	94.88
308.421	99.88
308.651	90.88
308.881	88.88
309.111	108.88
309.341	94.88
309.571	119.88
309.8	99.88
310.03	98.88
310.26	94.88
310.49	92.88
310.72	103.88
310.949	99.88
311.179	100.88
311.409	104.88
311.639	102.88
311.868	97.88
312.098	97.88
312.328	98.88
312.557	103.88
312.787	102.88
313.017	109.88
313.246	84.88
313.476	89.88
313.706	96.88
313.935	84.88
314.165	103.88
314.394	103.88
314.624	89.88
314.853	103.88
315.083	95.88
315.312	91.88
315.542	100.88
315.771	105.88
316.001	87.88
316.23	102.88
316.46	96.88
316.689	91.88
316.919	96.88
317.148	99.88
317.377	100.88
317.607	97.88
317.836	109.88
318.065	102.88
318.295	88.88
318.524	98.88
318.753	100.88
318.983	94.88
319.212	100.88
319.441	105.88
319.67	113.88
319.9	97.88
320.129	98.88
320.358	101.88
320.587	105.88
320.816	99.88
321.046	110.88
321.275	96.88
321.504	95.88
321.733	90.88
321.962	107.88
322.191	104.88
322.42	106.88
322.649	106.88
322.878	122.88
323.108	117.88
323.337	122.88
323.566	141.88
323.795	158.88
324.024	223.88
324.253	427.88
324.482	905.88
324.71	1865.88
324.939	2419.88
325.168	883.88
325.397	263.88
325.626	149.88
325.855	141.88
326.084	132.88
326.313	143.88
326.542	163.88
326.77	254.88
326.999	493.88
327.228	1037.88
327.457	1845.88
327.686	1481.88
327.914	401.88
328.143	204.88
328.372	141.88
328.6	114.88
328.829	113.88
329.058	113.88
329.287	116.88
329.515	119.88
329.744	95.88
329.972	96.88
330.201	94.88
330.43	106.88
330.658	119.88
330.887	145.88
331.115	130.88
331.344	101.88
331.572	97.88
331.801	107.88
332.03	116.88
332.258	97.88
332.486	86.88
332.715	95.88
332.943	104.88
333.172	93.88
333.4	92.88
333.629	103.88
333.857	108.88
334.085	113.88
334.314	91.88
334.542	99.88
334.771	95.88
334.999	101.88
335.227	102.88
335.455	98.88
335.684	110.88
335.912	89.88
336.14	102.88
336.369	109.88
336.597	102.88
336.825	92.88
337.053	109.88
337.281	99.88
337.51	109.88
337.738	107.88
337.966	101.88
338.194	99.88
338.422	95.88
338.65	93.88
338.878	90.88
339.106	86.88
339.334	86.88
339.562	92.88
339.79	98.88
340.018	94.88
340.246	95.88
340.474	87.88
340.702	103.88
340.93	90.88
341.158	98.88
341.386	87.88
341.614	87.88
341.842	95.88
342.07	106.88
342.298	91.88
342.526	118.88
342.754	106.88
342.981	105.88
343.209	98.88
343.437	102.88
343.665	87.88
343.893	90.88
344.12	88.88
344.348	88.88
344.576	85.88
344.804	107.88
345.031	87.88
345.259	93.88
345.487	104.88
345.714	95.88
345.942	99.88
346.17	99.88
346.397	86.88
346.625	100.88
346.853	71.88
347.08	103.88
347.308	93.88
347.535	125.88
347.763	103.88
347.99	103.88
348.218	93.88
348.445	100.88
348.673	115.88
348.9	85.88
349.128	86.88
349.355	89.88
349.583	92.88
349.81	97.88
350.037	90.88
350.265	86.88
350.492	90.88
350.72	94.88
350.947	102.88
351.174	110.88
351.402	107.88
351.629	119.88
351.856	99.88
352.083	105.88
352.311	104.88
352.538	117.88
352.765	114.88
352.992	126.88
353.22	117.88
353.447	105.88
353.674	107.88
353.901	103.88
354.128	103.88
354.355	91.88
354.583	98.88
354.81	103.88
355.037	107.88
355.264	90.88
355.491	100.88
355.718	97.88
355.945	118.88
356.172	99.88
356.399	107.88
356.626	102.88
356.853	114.88
357.08	97.88
357.307	97.88
357.534	102.88
357.761	108.88
357.988	102.88
358.215	99.88
358.441	106.88
358.668	110.88
358.895	103.88
359.122	102.88
359.349	82.88
359.576	90.88
359.802	100.88
360.029	108.88
360.256	108.88
360.483	98.88
360.709	93.88
360.936	104.88
361.163	93.88
361.39	95.88
361.616	97.88
361.843	107.88
362.07	102.88
362.296	90.88
362.523	97.88
362.749	103.88
362.976	87.88
363.203	92.88
363.429	96.88
363.656	101.88
363.882	85.88
364.109	83.88
364.335	83.88
364.562	105.88
364.788	97.88
365.015	82.88
365.241	101.88
365.468	105.88
365.694	109.88
365.92	91.88
366.147	97.88
366.373	95.88
366.599	108.88
366.826	91.88
367.052	107.88
367.278	98.88
367.505	87.88
367.731	99.88
367.957	110.88
368.184	87.88
368.41	82.88
368.636	122.88
368.862	112.88
369.089	106.88
369.315	101.88
369.541	94.88
369.767	79.88
369.993	97.88
370.219	87.88
370.445	77.88
370.672	86.88
370.898	90.88
371.124	95.88
371.35	86.88
371.576	104.88
371.802	92.88
372.028	98.88
372.254	89.88
372.48	100.88
372.706	102.88
372.932	90.88
373.158	82.88
373.384	90.88
373.61	91.88
373.835	97.88
374.061	89.88
374.287	90.88
374.513	101.88
374.739	93.88
374.965	94.88
375.191	94.88
375.416	91.88
375.642	99.88
375.868	100.88
376.094	89.88
376.319	105.88
376.545	89.88
376.771	104.88
376.997	102.88
377.222	99.88
377.448	104.88
377.674	81.88
377.899	94.88
378.125	118.88
378.35	98.88
378.576	87.88
378.802	102.88
379.027	101.88
379.253	95.88
379.478	101.88
379.704	95.88
379.929	99.88
380.155	82.88
380.38	87.88
380.606	96.88
380.831	107.88
381.057	112.88
381.282	97.88
381.507	98.88
381.733	107.88
381.958	95.88
382.184	102.88
382.409	104.88
382.634	100.88
382.86	108.88
383.085	92.88
383.31	98.88
383.535	114.88
383.761	118.88
383.986	98.88
384.211	102.88
384.436	122.88
384.662	94.88
384.887	109.88
385.112	95.88
385.337	105.88
385.562	115.88
385.787	109.88
386.013	93.88
386.238	107.88
386.463	110.88
386.688	105.88
386.913	113.88
387.138	101.88
387.363	110.88
387.588	87.88
387.813	91.88
388.038	124.88
388.263	121.88
388.488	110.88
388.713	105.88
388.938	116.88
389.163	99.88
389.387	118.88
389.612	94.88
389.837	94.88
390.062	105.88
390.287	104.88
390.512	102.88
390.736	104.88
390.961	103.88
391.186	104.88
391.411	98.88
391.636	102.88
391.86	94.88
392.085	92.88
392.31	94.88
392.534	89.88
392.759	87.88
392.984	82.88
393.208	86.88
393.433	99.88
393.658	91.88
393.882	99.88
394.107	92.88
394.331	93.88
394.556	92.88
394.78	102.88
395.005	116.88
395.229	105.88
395.454	70.88
395.678	87.88
395.903	83.88
396.127	103.88
396.352	98.88
396.576	92.88
396.801	77.88
397.025	103.88
397.249	91.88
397.474	89.88
397.698	92.88
397.922	103.88
398.147	94.88
398.371	84.88
398.595	99.88
398.82	96.88
399.044	95.88
399.268	83.88
399.492	80.88
399.717	93.88
399.941	95.88
400.165	91.88
400.389	105.88
400.613	90.88
400.837	88.88
401.062	83.88
401.286	87.88
401.51	77.88
401.734	86.88
401.958	105.88
402.182	122.88
402.406	150.88
402.63	118.88
402.854	105.88
403.078	90.88
403.302	101.88
403.526	83.88
403.75	102.88
403.974	91.88
404.198	95.88
404.422	99.88
404.645	108.88
404.869	95.88
405.093	94.88
405.317	87.88
405.541	93.88
405.765	105.88
405.988	124.88
406.212	193.88
406.436	222.88
406.66	153.88
406.883	103.88
407.107	99.88
407.331	85.88
407.555	111.88
407.778	102.88
408.002	94.88
408.226	95.88
408.449	105.88
408.673	89.88
408.896	93.88
409.12	108.88
409.344	111.88
409.567	81.88
409.791	87.88
410.014	92.88
410.238	100.88
410.461	92.88
410.685	99.88
410.908	102.88
411.132	112.88
411.355	85.88
411.578	94.88
411.802	86.88
412.025	89.88
412.249	81.88
412.472	100.88
412.695	89.88
412.919	103.88
413.142	85.88
413.365	89.88
413.589	95.88
413.812	83.88
414.035	83.88
414.258	92.88
414.482	103.88
414.705	97.88
414.928	95.88
415.151	87.88
415.374	104.88
415.597	102.88
415.821	87.88
416.044	97.88
416.267	95.88
416.49	103.88
416.713	91.88
416.936	98.88
417.159	79.88
417.382	93.88
417.605	109.88
417.828	85.88
418.051	92.88
418.274	110.88
418.497	94.88
418.72	89.88
418.943	90.88
419.166	95.88
419.389	101.88
419.611	98.88
419.834	90.88
420.057	92.88
420.28	97.88
420.503	83.88
420.726	88.88
420.948	86.88
421.171	99.88
421.394	93.88
421.617	101.88
421.839	94.88
422.062	96.88
422.285	91.88
422.507	102.88
422.73	109.88
422.953	89.88
423.175	70.88
423.398	89.88
423.621	85.88
423.843	99.88
424.066	82.88
424.288	94.88
424.511	99.88
424.733	102.88
424.956	109.88
425.178	102.88
425.401	98.88
425.623	114.88
425.846	95.88
426.068	103.88
426.291	110.88
426.513	115.88
426.735	98.88
426.958	97.88
427.18	111.88
427.402	148.88
427.625	164.88
427.847	137.88
428.069	103.88
428.292	88.88
428.514	90.88
428.736	86.88
428.958	90.88
429.181	95.88
429.403	87.88
429.625	97.88
429.847	102.88
430.069	96.88
430.292	113.88
430.514	86.88
430.736	75.88
430.958	81.88
431.18	83.88
431.402	81.88
431.624	87.88
431.846	84.88
432.068	82.88
432.29	90.88
432.512	107.88
432.734	102.88
432.956	91.88
433.178	111.88
433.4	99.88
433.622	89.88
433.844	95.88
434.066	91.88
434.287	88.88
434.509	97.88
434.731	86.88
434.953	94.88
435.175	87.88
435.397	94.88
435.618	101.88
435.84	91.88
436.062	116.88
436.284	120.88
436.505	95.88
436.727	103.88
436.949	105.88
437.17	102.88
437.392	87.88
437.614	99.88
437.835	95.88
438.057	121.88
438.278	128.88
438.5	107.88
438.721	133.88
438.943	98.88
439.165	104.88
439.386	97.88
439.608	91.88
439.829	107.88
440.05	127.88
440.272	130.88
440.493	89.88
440.715	77.88
440.936	74.88
441.158	91.88
441.379	98.88
441.6	95.88
441.822	93.88
442.043	68.88
442.264	103.88
442.486	102.88
442.707	88.88
442.928	110.88
443.149	127.88
443.371	124.88
443.592	113.88
443.813	117.88
444.034	108.88
444.255	87.88
444.476	84.88
444.698	90.88
444.919	89.88
445.14	132.88
445.361	132.88
445.582	122.88
445.803	141.88
446.024	144.88
446.245	132.88
446.466	124.88
446.687	88.88
446.908	87.88
447.129	89.88
447.35	94.88
447.571	89.88
447.792	105.88
448.013	103.88
448.234	100.88
448.455	103.88
448.675	109.88
448.896	125.88
449.117	112.88
449.338	103.88
449.559	127.88
449.779	139.88
450	96.88
450.221	91.88
450.442	97.88
450.662	94.88
450.883	126.88
451.104	112.88
451.324	107.88
451.545	91.88
451.766	78.88
451.986	100.88
452.207	96.88
452.428	115.88
452.648	110.88
452.869	121.88
453.089	109.88
453.31	132.88
453.53	98.88
453.751	82.88
453.971	90.88
454.192	109.88
454.412	95.88
454.633	107.88
454.853	101.88
455.073	90.88
455.294	88.88
455.514	112.88
455.734	85.88
455.955	88.88
456.175	76.88
456.395	99.88
456.616	89.88
456.836	76.88
457.056	99.88
457.276	98.88
457.497	97.88
457.717	93.88
457.937	81.88
458.157	72.88
458.377	119.88
458.598	117.88
458.818	126.88
459.038	159.88
459.258	137.88
459.478	105.88
459.698	86.88
459.918	96.88
460.138	84.88
460.358	78.88
460.578	85.88
460.798	89.88
461.018	92.88
461.238	98.88
461.458	97.88
461.678	82.88
461.898	88.88
462.118	91.88
462.338	89.88
462.558	98.88
462.777	95.88
462.997	94.88
463.217	92.88
463.437	86.88
463.657	93.88
463.876	99.88
464.096	86.88
464.316	91.88
464.536	87.88
464.755	82.88
464.975	113.88
465.195	162.88
465.414	158.88
465.634	105.88
465.854	83.88
466.073	101.88
466.293	93.88
466.512	83.88
466.732	95.88
466.951	90.88
467.171	93.88
467.391	97.88
467.61	105.88
467.829	115.88
468.049	94.88
468.268	87.88
468.488	89.88
468.707	80.88
468.927	87.88
469.146	109.88
469.365	83.88
469.585	95.88
469.804	94.88
470.023	110.88
470.243	98.88
470.462	119.88
470.681	114.88
470.901	103.88
471.12	84.88
471.339	107.88
471.558	91.88
471.777	95.88
471.997	100.88
472.216	98.88
472.435	81.88
472.654	100.88
472.873	93.88
473.092	101.88
473.311	90.88
473.53	88.88
473.749	92.88
473.968	89.88
474.187	102.88
474.406	100.88
474.625	94.88
474.844	83.88
475.063	93.88
475.282	92.88
475.501	77.88
475.72	95.88
475.939	93.88
476.158	81.88
476.377	93.88
476.596	82.88
476.814	91.88
477.033	93.88
477.252	85.88
477.471	83.88
477.69	91.88
477.908	101.88
478.127	76.88
478.346	95.88
478.564	104.88
478.783	109.88
479.002	97.88
479.22	117.88
479.439	105.88
479.658	120.88
479.876	105.88
480.095	96.88
480.313	102.88
480.532	102.88
480.751	99.88
480.969	95.88
481.188	109.88
481.406	101.88
481.624	95.88
481.843	92.88
482.061	94.88
482.28	82.88
482.498	89.88
482.717	90.88
482.935	96.88
483.153	87.88
483.372	87.88
483.59	95.88
483.808	80.88
484.027	78.88
484.245	105.88
484.463	95.88
484.681	104.88
484.9	115.88
485.118	93.88
485.336	93.88
485.554	103.88
485.772	117.88
485.99	96.88
486.209	106.88
486.427	93.88
486.645	116.88
486.863	114.88
487.081	118.88
487.299	98.88
487.517	99.88
487.735	104.88
487.953	98.88
488.171	108.88
488.389	104.88
488.607	105.88
488.825	87.88
489.043	92.88
489.261	97.88
489.479	99.88
489.696	102.88
489.914	91.88
490.132	75.88
490.35	101.88
490.568	92.88
490.786	106.88
491.003	100.88
491.221	103.88
491.439	84.88
491.657	92.88
491.874	91.88
492.092	97.88
492.31	89.88
492.527	96.88
492.745	77.88
492.963	107.88
493.18	100.88
493.398	97.88
493.615	110.88
493.833	102.88
494.05	98.88
494.268	100.88
494.485	103.88
494.703	85.88
494.92	80.88
495.138	93.88
495.355	108.88
495.573	105.88
495.79	99.88
496.008	108.88
496.225	101.88
496.442	89.88
496.66	113.88
496.877	101.88
497.094	103.88
497.312	96.88
497.529	84.88
497.746	94.88
497.963	84.88
498.181	109.88
498.398	98.88
498.615	107.88
498.832	102.88
499.049	105.88
499.267	88.88
499.484	88.88
499.701	93.88
499.918	99.88
500.135	91.88
500.352	94.88
500.569	90.88
500.786	88.88
501.003	105.88
501.22	99.88
501.437	90.88
501.654	85.88
501.871	105.88
502.088	94.88
502.305	86.88
502.522	98.88
502.739	94.88
502.956	102.88
503.172	94.88
503.389	101.88
503.606	108.88
503.823	93.88
504.04	106.88
504.256	109.88
504.473	98.88
504.69	97.88
504.907	106.88
505.123	105.88
505.34	110.88
505.557	100.88
505.773	97.88
505.99	96.88
506.207	91.88
506.423	79.88
506.64	81.88
506.856	83.88
507.073	94.88
507.289	97.88
507.506	101.88
507.722	105.88
507.939	117.88
508.155	98.88
508.372	99.88
508.588	95.88
508.805	94.88
509.021	101.88
509.238	95.88
509.454	98.88
509.67	110.88
509.887	105.88
510.103	135.88
510.319	225.88
510.536	812.88
510.752	2511.88
510.968	709.88
511.184	164.88
511.401	107.88
511.617	105.88
511.833	90.88
512.049	90.88
512.265	86.88
512.481	85.88
512.698	87.88
512.914	84.88
513.13	100.88
513.346	104.88
513.562	107.88
513.778	109.88
513.994	94.88
514.21	111.88
514.426	126.88
514.642	129.88
514.858	134.88
515.074	161.88
515.29	462.88
515.506	1559.88
515.721	563.88
515.937	152.88
516.153	122.88
516.369	98.88
516.585	102.88
516.801	98.88
517.016	100.88
517.232	98.88
517.448	111.88
517.664	108.88
517.879	108.88
518.095	94.88
518.311	106.88
518.527	99.88
518.742	88.88
518.958	101.88
519.173	94.88
519.389	101.88
519.605	87.88
519.82	112.88
520.036	101.88
520.251	134.88
520.467	111.88
520.682	118.88
520.898	122.88
521.113	126.88
521.329	140.88
521.544	217.88
521.76	559.88
521.975	2485.88
522.19	1532.88
522.406	321.88
522.621	118.88
522.836	103.88
523.052	98.88
523.267	111.88
523.482	95.88
523.698	116.88
523.913	110.88
524.128	110.88
524.343	102.88
524.559	108.88
524.774	97.88
524.989	104.88
525.204	112.88
525.419	100.88
525.634	97.88
525.849	91.88
526.064	81.88
526.28	96.88
526.495	99.88
526.71	89.88
526.925	89.88
527.14	86.88
527.355	84.88
527.57	101.88
527.785	116.88
527.999	94.88
528.214	91.88
528.429	99.88
528.644	92.88
528.859	101.88
529.074	102.88
529.289	127.88
529.503	180.88
529.718	104.88
529.933	106.88
530.148	100.88
530.363	106.88
530.577	83.88
530.792	91.88
531.007	104.88
531.221	94.88
531.436	93.88
531.651	100.88
531.865	99.88
532.08	100.88
532.295	91.88
532.509	98.88
532.724	77.88
532.938	101.88
533.153	114.88
533.367	102.88
533.582	98.88
533.796	91.88
534.011	99.88
534.225	90.88
534.44	81.88
534.654	93.88
534.868	83.88
535.083	103.88
535.297	102.88
535.511	106.88
535.726	116.88
535.94	104.88
536.154	110.88
536.369	99.88
536.583	101.88
536.797	99.88
537.011	102.88
537.225	94.88
537.44	96.88
537.654	98.88
537.868	98.88
538.082	110.88
538.296	90.88
538.51	92.88
538.724	82.88
538.938	102.88
539.153	102.88
539.367	107.88
539.581	96.88
539.795	98.88
540.009	86.88
540.222	80.88
540.436	114.88
540.65	104.88
540.864	97.88
541.078	91.88
541.292	93.88
541.506	86.88
541.72	98.88
541.934	93.88
542.147	94.88
542.361	110.88
542.575	98.88
542.789	99.88
543.002	89.88
543.216	97.88
543.43	101.88
543.644	94.88
543.857	84.88
544.071	110.88
544.285	104.88
544.498	101.88
544.712	99.88
544.925	79.88
545.139	95.88
545.352	110.88
545.566	93.88
545.779	95.88
545.993	95.88
546.206	102.88
546.42	103.88
546.633	100.88
546.847	115.88
547.06	90.88
547.274	94.88
547.487	86.88
547.7	92.88
547.914	86.88
548.127	101.88
548.34	105.88
548.554	104.88
548.767	106.88
548.98	109.88
549.193	90.88
549.407	98.88
549.62	98.88
549.833	105.88
550.046	101.88
550.259	89.88
550.473	91.88
550.686	79.88
550.899	99.88
551.112	91.88
551.325	103.88
551.538	85.88
551.751	90.88
551.964	78.88
552.177	93.88
552.39	99.88
552.603	99.88
552.816	118.88
553.029	97.88
553.242	102.88
553.455	90.88
553.667	97.88
553.88	109.88
554.093	91.88
554.306	99.88
554.519	92.88
554.732	96.88
554.944	93.88
555.157	87.88
555.37	88.88
555.583	104.88
555.795	101.88
556.008	94.88
556.221	83.88
556.433	93.88
556.646	94.88
556.859	94.88
557.071	90.88
557.284	98.88
557.496	103.88
557.709	93.88
557.921	107.88
558.134	99.88
558.346	95.88
558.559	114.88
558.771	95.88
558.984	103.88
559.196	85.88
559.409	85.88
559.621	88.88
559.833	105.88
560.046	97.88
560.258	92.88
560.47	90.88
560.683	101.88
560.895	91.88
561.107	90.88
561.32	96.88
561.532	104.88
561.744	101.88
561.956	111.88
562.168	98.88
562.381	105.88
562.593	101.88
562.805	101.88
563.017	99.88
563.229	86.88
563.441	93.88
563.653	82.88
563.865	83.88
564.077	102.88
564.289	83.88
564.501	91.88
564.713	93.88
564.925	99.88
565.137	109.88
565.349	104.88
565.561	98.88
565.773	89.88
565.985	90.88
566.197	83.88
566.408	103.88
566.62	82.88
566.832	85.88
567.044	102.88
567.255	107.88
567.467	94.88
567.679	87.88
567.891	101.88
568.102	94.88
568.314	92.88
568.526	104.88
568.737	87.88
568.949	94.88
569.161	97.88
569.372	83.88
569.584	94.88
569.795	95.88
570.007	112.88
570.218	250.88
570.43	145.88
570.641	93.88
570.853	106.88
571.064	91.88
571.276	93.88
571.487	89.88
571.698	96.88
571.91	89.88
572.121	92.88
572.333	90.88
572.544	95.88
572.755	79.88
572.966	103.88
573.178	88.88
573.389	113.88
573.6	98.88
573.811	85.88
574.023	88.88
574.234	90.88
574.445	87.88
574.656	93.88
574.867	95.88
575.078	85.88
575.289	89.88
575.501	91.88
575.712	88.88
575.923	110.88
576.134	92.88
576.345	88.88
576.556	85.88
576.767	109.88
576.978	92.88
577.188	100.88
577.399	101.88
577.61	88.88
577.821	129.88
578.032	121.88
578.243	279.88
578.454	819.88
578.665	230.88
578.875	110.88
579.086	82.88
579.297	102.88
579.508	96.88
579.718	79.88
579.929	80.88
580.14	87.88
580.35	89.88
580.561	105.88
580.772	89.88
580.982	86.88
581.193	98.88
581.403	92.88
581.614	91.88
581.825	98.88
582.035	83.88
582.246	101.88
582.456	87.88
582.667	88.88
582.877	103.88
583.087	89.88
583.298	98.88
583.508	103.88
583.719	92.88
583.929	90.88
584.139	77.88
584.35	86.88
584.56	92.88
584.77	103.88
584.981	103.88
585.191	90.88
585.401	87.88
585.611	100.88
585.821	107.88
586.032	98.88
586.242	86.88
586.452	89.88
586.662	87.88
586.872	93.88
587.082	108.88
587.292	94.88
587.502	89.88
587.713	84.88
587.923	93.88
588.133	108.88
588.343	85.88
588.553	89.88
588.762	90.88
588.972	101.88
589.182	89.88
589.392	82.88
589.602	90.88
589.812	92.88
590.022	92.88
590.232	95.88
590.441	99.88
590.651	94.88
590.861	94.88
591.071	102.88
591.281	97.88
591.49	94.88
591.7	105.88
591.91	95.88
592.119	89.88
592.329	114.88
592.539	101.88
592.748	97.88
592.958	95.88
593.167	91.88
593.377	97.88
593.587	91.88
593.796	86.88
594.006	98.88
594.215	93.88
594.424	99.88
594.634	103.88
594.843	88.88
595.053	109.88
595.262	95.88
595.472	95.88
595.681	92.88
595.89	95.88
596.1	99.88
596.309	91.88
596.518	90.88
596.727	92.88
596.937	89.88
597.146	82.88
597.355	99.88
597.564	93.88
597.774	106.88
597.983	90.88
598.192	92.88
598.401	88.88
598.61	92.88
598.819	85.88
599.028	86.88
599.237	94.88
599.446	87.88
599.655	90.88
599.864	103.88
600.073	95.88
600.282	95.88
600.491	101.88
600.7	90.88
600.909	85.88
601.118	101.88
601.327	92.88
601.536	99.88
601.745	109.88
601.953	97.88
602.162	105.88
602.371	94.88
602.58	101.88
602.789	89.88
602.997	87.88
603.206	98.88
603.415	91.88
603.623	94.88
603.832	85.88
604.041	87.88
604.249	96.88
604.458	92.88
604.666	91.88
604.875	100.88
605.084	105.88
605.292	81.88
605.501	97.88
605.709	91.88
605.918	86.88
606.126	86.88
606.334	94.88
606.543	89.88
606.751	94.88
606.96	82.88
607.168	102.88
607.376	81.88
607.585	88.88
607.793	93.88
608.001	93.88
608.21	87.88
608.418	88.88
608.626	101.88
608.834	99.88
609.043	86.88
609.251	105.88
609.459	95.88
609.667	96.88
609.875	81.88
610.083	92.88
610.291	100.88
610.499	106.88
610.707	91.88
610.916	92.88
611.124	91.88
611.332	97.88
611.54	88.88
611.748	91.88
611.955	80.88
612.163	83.88
612.371	102.88
612.579	100.88
612.787	97.88
612.995	99.88
613.203	100.88
613.411	107.88
613.618	88.88
613.826	89.88
614.034	119.88
614.242	92.88
614.449	103.88
614.657	104.88
614.865	102.88
615.072	78.88
615.28	86.88
615.488	92.88
615.695	104.88
615.903	93.88
616.111	108.88
616.318	110.88
616.526	101.88
616.733	103.88
616.941	89.88
617.148	91.88
617.356	89.88
617.563	103.88
617.771	91.88
617.978	95.88
618.185	93.88
618.393	101.88
618.6	113.88
618.807	75.88
619.015	86.88
619.222	94.88
619.429	90.88
619.637	91.88
619.844	85.88
620.051	92.88
620.258	94.88
620.466	100.88
620.673	88.88
620.88	83.88
621.087	87.88
621.294	79.88
621.501	90.88
621.708	83.88
621.915	96.88
622.122	82.88
622.329	93.88
622.536	72.88
622.743	93.88
622.95	97.88
623.157	90.88
623.364	90.88
623.571	89.88
623.778	100.88
623.985	91.88
624.192	113.88
624.399	95.88
624.606	82.88
624.812	87.88
625.019	84.88
625.226	79.88
625.433	88.88
625.639	86.88
625.846	93.88
626.053	90.88
626.259	83.88
626.466	91.88
626.673	90.88
626.879	92.88
627.086	102.88
627.293	79.88
627.499	91.88
627.706	101.88
627.912	94.88
628.119	85.88
628.325	97.88
628.532	86.88
628.738	89.88
628.945	100.88
629.151	94.88
629.357	90.88
629.564	90.88
629.77	100.88
629.976	93.88
630.183	85.88
630.389	98.88
630.595	91.88
630.802	88.88
631.008	87.88
631.214	94.88
631.42	91.88
631.627	84.88
631.833	89.88
632.039	91.88
632.245	77.88
632.451	92.88
632.657	85.88
632.863	90.88
633.069	85.88
633.275	91.88
633.481	90.88
633.688	89.88
633.893	95.88
634.099	101.88
634.305	81.88
634.511	84.88
634.717	97.88
634.923	79.88
635.129	89.88
635.335	89.88
635.541	78.88
635.747	92.88
635.952	87.88
636.158	98.88
636.364	85.88
636.57	86.88
636.775	100.88
636.981	86.88
637.187	96.88
637.392	88.88
637.598	79.88
637.804	85.88
638.009	98.88
638.215	88.88
638.421	78.88
638.626	95.88
638.832	90.88
639.037	82.88
639.243	92.88
639.448	87.88
639.654	95.88
639.859	94.88
640.065	86.88
640.27	94.88
640.475	90.88
640.681	89.88
640.886	85.88
641.091	92.88
641.297	92.88
641.502	78.88
641.707	94.88
641.913	85.88
642.118	92.88
642.323	99.88
642.528	94.88
642.733	93.88
642.939	98.88
643.144	87.88
643.349	78.88
643.554	94.88
643.759	99.88
643.964	88.88
644.169	99.88
644.374	91.88
644.579	102.88
644.784	93.88
644.989	95.88
645.194	101.88
645.399	97.88
645.604	102.88
645.809	88.88
646.014	90.88
646.219	83.88
646.423	83.88
646.628	86.88
646.833	89.88
647.038	95.88
647.243	90.88
647.447	79.88
647.652	87.88
647.857	90.88
648.062	99.88
648.266	91.88
648.471	99.88
648.676	103.88
648.88	99.88
649.085	90.88
649.289	94.88
649.494	94.88
649.698	138.88
649.903	107.88
650.107	103.88
650.312	89.88
650.516	87.88
650.721	87.88
650.925	71.88
651.13	87.88
651.334	69.88
651.539	93.88
651.743	89.88
651.947	103.88
652.152	95.88
652.356	82.88
652.56	78.88
652.764	85.88
652.969	80.88
653.173	90.88
653.377	89.88
653.581	89.88
653.785	82.88
653.99	66.88
654.194	80.88
654.398	90.88
654.602	82.88
654.806	95.88
655.01	102.88
655.214	88.88
655.418	82.88
655.622	72.88
655.826	93.88
656.03	85.88
656.234	92.88
656.438	95.88
656.642	110.88
656.846	89.88
657.049	81.88
657.253	84.88
657.457	97.88
657.661	86.88
657.865	81.88
658.068	78.88
658.272	87.88
658.476	75.88
658.68	94.88
658.883	76.88
659.087	84.88
659.291	96.88
659.494	90.88
659.698	79.88
659.901	83.88
660.105	84.88
660.309	84.88
660.512	74.88
660.716	85.88
660.919	81.88
661.123	98.88
661.326	76.88
661.53	77.88
661.733	91.88
661.936	88.88
662.14	96.88
662.343	81.88
662.546	91.88
662.75	90.88
662.953	90.88
663.156	83.88
663.36	95.88
663.563	95.88
663.766	85.88
663.969	83.88
664.173	88.88
664.376	90.88
664.579	80.88
664.782	101.88
664.985	83.88
665.188	79.88
665.391	83.88
665.594	99.88
665.797	73.88
666	77.88
666.203	80.88
666.406	87.88
666.609	93.88
666.812	85.88
667.015	90.88
667.218	91.88
667.421	95.88
667.624	79.88
667.827	87.88
668.03	85.88
668.232	86.88
668.435	90.88
668.638	93.88
668.841	84.88
669.043	91.88
669.246	90.88
669.449	80.88
669.651	103.88
669.854	91.88
670.057	72.88
670.259	88.88
670.462	88.88
670.665	85.88
670.867	85.88
671.07	92.88
671.272	95.88
671.475	87.88
671.677	83.88
671.88	81.88
672.082	91.88
672.284	83.88
672.487	88.88
672.689	86.88
672.892	97.88
