Data from Uncirc_2003_H10_HRD10591_00100.txt Node
Date: Wed Jan 03 10:36:07 EST 2024
User: Yrep
Spectrometer: HR+D1059
Trigger mode: 1
Integration Time (sec): 1.000000E-1
Scans to average: 1
Electric dark correction enabled: true
Nonlinearity correction enabled: false
Boxcar width: 0
XAxis mode: Wavelengths
Number of Pixels in Spectrum: 2048
>>>>>Begin Spectral Data<<<<<
223.165	-17.25
223.4	-17.25
223.635	-17.25
223.869	-19.25
224.104	-21.25
224.338	-14.25
224.573	-25.25
224.808	-1.25
225.042	-14.25
225.277	-16.25
225.511	22.75
225.746	2.75
225.98	5.75
226.215	5.75
226.449	19.75
226.683	17.75
226.918	21.75
227.152	32.75
227.387	42.75
227.621	28.75
227.856	45.75
228.09	41.75
228.324	41.75
228.559	35.75
228.793	49.75
229.027	66.75
229.262	61.75
229.496	70.75
229.73	94.75
229.964	84.75
230.199	70.75
230.433	77.75
230.667	72.75
230.901	74.75
231.136	66.75
231.37	79.75
231.604	84.75
231.838	75.75
232.072	80.75
232.306	77.75
232.541	77.75
232.775	73.75
233.009	79.75
233.243	95.75
233.477	78.75
233.711	88.75
233.945	84.75
234.179	72.75
234.413	77.75
234.647	76.75
234.881	71.75
235.115	75.75
235.349	77.75
235.583	70.75
235.817	72.75
236.051	75.75
236.285	79.75
236.519	78.75
236.753	70.75
236.987	75.75
237.221	70.75
237.455	78.75
237.689	78.75
237.922	70.75
238.156	67.75
238.39	62.75
238.624	76.75
238.858	74.75
239.091	73.75
239.325	72.75
239.559	78.75
239.793	69.75
240.027	59.75
240.26	75.75
240.494	82.75
240.728	70.75
240.961	66.75
241.195	86.75
241.429	70.75
241.662	48.75
241.896	77.75
242.13	74.75
242.363	86.75
242.597	78.75
242.83	79.75
243.064	77.75
243.298	72.75
243.531	61.75
243.765	66.75
243.998	90.75
244.232	64.75
244.465	72.75
244.699	77.75
244.932	83.75
245.166	77.75
245.399	64.75
245.633	79.75
245.866	83.75
246.099	75.75
246.333	81.75
246.566	76.75
246.8	79.75
247.033	79.75
247.266	75.75
247.5	64.75
247.733	68.75
247.966	69.75
248.2	75.75
248.433	78.75
248.666	89.75
248.899	76.75
249.133	85.75
249.366	91.75
249.599	90.75
249.832	74.75
250.066	82.75
250.299	84.75
250.532	86.75
250.765	80.75
250.998	77.75
251.231	84.75
251.465	80.75
251.698	77.75
251.931	71.75
252.164	79.75
252.397	71.75
252.63	83.75
252.863	83.75
253.096	74.75
253.329	70.75
253.562	77.75
253.795	80.75
254.028	92.75
254.261	88.75
254.494	74.75
254.727	67.75
254.96	76.75
255.193	102.75
255.426	80.75
255.659	81.75
255.892	75.75
256.124	93.75
256.357	72.75
256.59	83.75
256.823	77.75
257.056	68.75
257.289	92.75
257.521	79.75
257.754	78.75
257.987	74.75
258.22	90.75
258.452	78.75
258.685	79.75
258.918	80.75
259.151	74.75
259.383	79.75
259.616	70.75
259.849	81.75
260.081	72.75
260.314	76.75
260.547	76.75
260.779	90.75
261.012	86.75
261.244	76.75
261.477	77.75
261.71	88.75
261.942	102.75
262.175	94.75
262.407	91.75
262.64	78.75
262.872	82.75
263.105	86.75
263.337	95.75
263.57	79.75
263.802	88.75
264.035	72.75
264.267	79.75
264.499	84.75
264.732	95.75
264.964	74.75
265.197	80.75
265.429	80.75
265.661	84.75
265.894	78.75
266.126	78.75
266.358	85.75
266.591	86.75
266.823	78.75
267.055	85.75
267.287	86.75
267.52	88.75
267.752	76.75
267.984	92.75
268.216	81.75
268.448	70.75
268.681	87.75
268.913	81.75
269.145	82.75
269.377	88.75
269.609	87.75
269.841	86.75
270.073	79.75
270.306	86.75
270.538	87.75
270.77	79.75
271.002	84.75
271.234	75.75
271.466	71.75
271.698	78.75
271.93	79.75
272.162	86.75
272.394	78.75
272.626	63.75
272.858	98.75
273.09	79.75
273.322	71.75
273.553	77.75
273.785	77.75
274.017	88.75
274.249	81.75
274.481	83.75
274.713	84.75
274.945	73.75
275.176	88.75
275.408	84.75
275.64	80.75
275.872	66.75
276.104	84.75
276.335	94.75
276.567	95.75
276.799	96.75
277.031	88.75
277.262	88.75
277.494	79.75
277.726	81.75
277.957	84.75
278.189	88.75
278.421	71.75
278.652	73.75
278.884	87.75
279.115	70.75
279.347	74.75
279.579	76.75
279.81	71.75
280.042	94.75
280.273	86.75
280.505	72.75
280.736	83.75
280.968	86.75
281.199	66.75
281.431	84.75
281.662	103.75
281.894	91.75
282.125	94.75
282.356	111.75
282.588	147.75
282.819	105.75
283.051	74.75
283.282	88.75
283.513	81.75
283.745	88.75
283.976	94.75
284.207	77.75
284.439	76.75
284.67	79.75
284.901	90.75
285.132	64.75
285.364	59.75
285.595	81.75
285.826	82.75
286.057	80.75
286.288	83.75
286.52	89.75
286.751	83.75
286.982	84.75
287.213	78.75
287.444	83.75
287.675	85.75
287.906	78.75
288.138	82.75
288.369	71.75
288.6	93.75
288.831	83.75
289.062	88.75
289.293	85.75
289.524	86.75
289.755	86.75
289.986	94.75
290.217	82.75
290.448	84.75
290.679	91.75
290.91	78.75
291.141	73.75
291.371	100.75
291.602	82.75
291.833	90.75
292.064	76.75
292.295	90.75
292.526	92.75
292.757	86.75
292.987	94.75
293.218	89.75
293.449	93.75
293.68	86.75
293.91	98.75
294.141	95.75
294.372	79.75
294.603	85.75
294.833	82.75
295.064	85.75
295.295	92.75
295.525	83.75
295.756	93.75
295.987	108.75
296.217	122.75
296.448	127.75
296.679	84.75
296.909	84.75
297.14	92.75
297.37	97.75
297.601	85.75
297.831	82.75
298.062	82.75
298.292	92.75
298.523	65.75
298.753	98.75
298.984	81.75
299.214	74.75
299.445	88.75
299.675	90.75
299.905	95.75
300.136	93.75
300.366	90.75
300.597	99.75
300.827	99.75
301.057	102.75
301.288	96.75
301.518	103.75
301.748	81.75
301.979	92.75
302.209	83.75
302.439	87.75
302.669	78.75
302.9	90.75
303.13	82.75
303.36	97.75
303.59	104.75
303.82	116.75
304.051	87.75
304.281	80.75
304.511	88.75
304.741	88.75
304.971	96.75
305.201	104.75
305.431	100.75
305.661	84.75
305.891	72.75
306.121	92.75
306.352	100.75
306.582	100.75
306.812	93.75
307.042	90.75
307.272	61.75
307.502	87.75
307.731	78.75
307.961	94.75
308.191	85.75
308.421	83.75
308.651	81.75
308.881	99.75
309.111	88.75
309.341	100.75
309.571	101.75
309.8	81.75
310.03	100.75
310.26	83.75
310.49	77.75
310.72	93.75
310.949	103.75
311.179	92.75
311.409	84.75
311.639	93.75
311.868	97.75
312.098	100.75
312.328	76.75
312.557	108.75
312.787	102.75
313.017	95.75
313.246	76.75
313.476	95.75
313.706	88.75
313.935	94.75
314.165	88.75
314.394	105.75
314.624	98.75
314.853	99.75
315.083	92.75
315.312	87.75
315.542	99.75
315.771	86.75
316.001	84.75
316.23	76.75
316.46	88.75
316.689	79.75
316.919	83.75
317.148	99.75
317.377	92.75
317.607	99.75
317.836	93.75
318.065	77.75
318.295	93.75
318.524	93.75
318.753	95.75
318.983	105.75
319.212	86.75
319.441	113.75
319.67	99.75
319.9	92.75
320.129	80.75
320.358	86.75
320.587	86.75
320.816	88.75
321.046	95.75
321.275	106.75
321.504	101.75
321.733	105.75
321.962	103.75
322.191	109.75
322.42	93.75
322.649	98.75
322.878	112.75
323.108	116.75
323.337	115.75
323.566	135.75
323.795	154.75
324.024	204.75
324.253	434.75
324.482	904.75
324.71	1893.75
324.939	2516.75
325.168	891.75
325.397	268.75
325.626	141.75
325.855	138.75
326.084	119.75
326.313	146.75
326.542	168.75
326.77	251.75
326.999	484.75
327.228	1051.75
327.457	1878.75
327.686	1510.75
327.914	396.75
328.143	204.75
328.372	138.75
328.6	115.75
328.829	117.75
329.058	114.75
329.287	114.75
329.515	108.75
329.744	99.75
329.972	95.75
330.201	99.75
330.43	106.75
330.658	108.75
330.887	135.75
331.115	108.75
331.344	102.75
331.572	95.75
331.801	100.75
332.03	93.75
332.258	100.75
332.486	96.75
332.715	105.75
332.943	77.75
333.172	93.75
333.4	94.75
333.629	82.75
333.857	102.75
334.085	99.75
334.314	94.75
334.542	95.75
334.771	93.75
334.999	84.75
335.227	85.75
335.455	102.75
335.684	88.75
335.912	113.75
336.14	95.75
336.369	86.75
336.597	103.75
336.825	106.75
337.053	93.75
337.281	86.75
337.51	83.75
337.738	95.75
337.966	99.75
338.194	105.75
338.422	82.75
338.65	90.75
338.878	87.75
339.106	83.75
339.334	92.75
339.562	105.75
339.79	88.75
340.018	91.75
340.246	97.75
340.474	83.75
340.702	82.75
340.93	85.75
341.158	77.75
341.386	82.75
341.614	90.75
341.842	93.75
342.07	98.75
342.298	93.75
342.526	85.75
342.754	93.75
342.981	93.75
343.209	96.75
343.437	84.75
343.665	80.75
343.893	99.75
344.12	96.75
344.348	81.75
344.576	94.75
344.804	108.75
345.031	97.75
345.259	91.75
345.487	72.75
345.714	95.75
345.942	82.75
346.17	84.75
346.397	82.75
346.625	95.75
346.853	96.75
347.08	101.75
347.308	85.75
347.535	83.75
347.763	99.75
347.99	92.75
348.218	88.75
348.445	98.75
348.673	103.75
348.9	96.75
349.128	96.75
349.355	92.75
349.583	85.75
349.81	89.75
350.037	88.75
350.265	88.75
350.492	85.75
350.72	91.75
350.947	101.75
351.174	109.75
351.402	106.75
351.629	92.75
351.856	106.75
352.083	84.75
352.311	107.75
352.538	115.75
352.765	114.75
352.992	116.75
353.22	107.75
353.447	101.75
353.674	88.75
353.901	105.75
354.128	98.75
354.355	88.75
354.583	89.75
354.81	93.75
355.037	95.75
355.264	98.75
355.491	99.75
355.718	86.75
355.945	89.75
356.172	89.75
356.399	95.75
356.626	99.75
356.853	79.75
357.08	91.75
357.307	79.75
357.534	94.75
357.761	87.75
357.988	87.75
358.215	92.75
358.441	75.75
358.668	92.75
358.895	90.75
359.122	94.75
359.349	87.75
359.576	79.75
359.802	102.75
360.029	99.75
360.256	113.75
360.483	103.75
360.709	80.75
360.936	95.75
361.163	96.75
361.39	93.75
361.616	102.75
361.843	89.75
362.07	98.75
362.296	77.75
362.523	94.75
362.749	88.75
362.976	92.75
363.203	90.75
363.429	83.75
363.656	100.75
363.882	76.75
364.109	95.75
364.335	90.75
364.562	96.75
364.788	89.75
365.015	87.75
365.241	100.75
365.468	109.75
365.694	98.75
365.92	93.75
366.147	85.75
366.373	92.75
366.599	78.75
366.826	83.75
367.052	91.75
367.278	71.75
367.505	82.75
367.731	79.75
367.957	94.75
368.184	99.75
368.41	87.75
368.636	111.75
368.862	112.75
369.089	109.75
369.315	99.75
369.541	90.75
369.767	82.75
369.993	69.75
370.219	86.75
370.445	86.75
370.672	85.75
370.898	84.75
371.124	93.75
371.35	58.75
371.576	77.75
371.802	78.75
372.028	92.75
372.254	88.75
372.48	82.75
372.706	68.75
372.932	87.75
373.158	82.75
373.384	88.75
373.61	88.75
373.835	91.75
374.061	100.75
374.287	90.75
374.513	83.75
374.739	86.75
374.965	109.75
375.191	83.75
375.416	81.75
375.642	102.75
375.868	85.75
376.094	96.75
376.319	100.75
376.545	99.75
376.771	92.75
376.997	86.75
377.222	83.75
377.448	92.75
377.674	78.75
377.899	83.75
378.125	91.75
378.35	91.75
378.576	89.75
378.802	100.75
379.027	83.75
379.253	82.75
379.478	97.75
379.704	81.75
379.929	83.75
380.155	87.75
380.38	86.75
380.606	77.75
380.831	102.75
381.057	88.75
381.282	94.75
381.507	92.75
381.733	102.75
381.958	95.75
382.184	100.75
382.409	100.75
382.634	86.75
382.86	75.75
383.085	101.75
383.31	94.75
383.535	96.75
383.761	80.75
383.986	92.75
384.211	80.75
384.436	107.75
384.662	84.75
384.887	97.75
385.112	103.75
385.337	92.75
385.562	97.75
385.787	102.75
386.013	112.75
386.238	120.75
386.463	102.75
386.688	104.75
386.913	101.75
387.138	105.75
387.363	91.75
387.588	85.75
387.813	100.75
388.038	83.75
388.263	97.75
388.488	108.75
388.713	94.75
388.938	88.75
389.163	93.75
389.387	98.75
389.612	88.75
389.837	84.75
390.062	100.75
390.287	81.75
390.512	79.75
390.736	86.75
390.961	79.75
391.186	87.75
391.411	91.75
391.636	102.75
391.86	91.75
392.085	90.75
392.31	76.75
392.534	90.75
392.759	104.75
392.984	82.75
393.208	91.75
393.433	86.75
393.658	88.75
393.882	85.75
394.107	88.75
394.331	83.75
394.556	82.75
394.78	92.75
395.005	86.75
395.229	79.75
395.454	85.75
395.678	91.75
395.903	93.75
396.127	77.75
396.352	74.75
396.576	80.75
396.801	96.75
397.025	81.75
397.249	88.75
397.474	106.75
397.698	88.75
397.922	85.75
398.147	85.75
398.371	85.75
398.595	75.75
398.82	90.75
399.044	83.75
399.268	85.75
399.492	72.75
399.717	83.75
399.941	89.75
400.165	96.75
400.389	77.75
400.613	74.75
400.837	84.75
401.062	71.75
401.286	96.75
401.51	99.75
401.734	87.75
401.958	105.75
402.182	115.75
402.406	149.75
402.63	114.75
402.854	99.75
403.078	86.75
403.302	92.75
403.526	94.75
403.75	82.75
403.974	88.75
404.198	71.75
404.422	92.75
404.645	75.75
404.869	89.75
405.093	84.75
405.317	96.75
405.541	91.75
405.765	83.75
405.988	104.75
406.212	167.75
406.436	218.75
406.66	131.75
406.883	98.75
407.107	103.75
407.331	94.75
407.555	106.75
407.778	89.75
408.002	92.75
408.226	73.75
408.449	86.75
408.673	82.75
408.896	92.75
409.12	92.75
409.344	82.75
409.567	85.75
409.791	90.75
410.014	98.75
410.238	87.75
410.461	85.75
410.685	84.75
410.908	93.75
411.132	106.75
411.355	93.75
411.578	79.75
411.802	104.75
412.025	95.75
412.249	85.75
412.472	86.75
412.695	81.75
412.919	103.75
413.142	95.75
413.365	90.75
413.589	80.75
413.812	93.75
414.035	97.75
414.258	86.75
414.482	98.75
414.705	82.75
414.928	86.75
415.151	94.75
415.374	104.75
415.597	90.75
415.821	74.75
416.044	95.75
416.267	96.75
416.49	85.75
416.713	81.75
416.936	74.75
417.159	100.75
417.382	100.75
417.605	82.75
417.828	95.75
418.051	77.75
418.274	91.75
418.497	72.75
418.72	83.75
418.943	88.75
419.166	77.75
419.389	98.75
419.611	90.75
419.834	89.75
420.057	95.75
420.28	81.75
420.503	84.75
420.726	80.75
420.948	89.75
421.171	87.75
421.394	84.75
421.617	102.75
421.839	80.75
422.062	80.75
422.285	88.75
422.507	103.75
422.73	102.75
422.953	87.75
423.175	89.75
423.398	83.75
423.621	87.75
423.843	80.75
424.066	87.75
424.288	88.75
424.511	95.75
424.733	82.75
424.956	87.75
425.178	94.75
425.401	87.75
425.623	83.75
425.846	76.75
426.068	88.75
426.291	102.75
426.513	96.75
426.735	84.75
426.958	74.75
427.18	94.75
427.402	128.75
427.625	172.75
427.847	128.75
428.069	99.75
428.292	90.75
428.514	90.75
428.736	82.75
428.958	81.75
429.181	102.75
429.403	79.75
429.625	73.75
429.847	87.75
430.069	101.75
430.292	95.75
430.514	76.75
430.736	78.75
430.958	69.75
431.18	74.75
431.402	64.75
431.624	80.75
431.846	80.75
432.068	75.75
432.29	84.75
432.512	87.75
432.734	88.75
432.956	84.75
433.178	94.75
433.4	94.75
433.622	103.75
433.844	83.75
434.066	88.75
434.287	89.75
434.509	89.75
434.731	84.75
434.953	79.75
435.175	75.75
435.397	82.75
435.618	94.75
435.84	113.75
436.062	110.75
436.284	93.75
436.505	107.75
436.727	89.75
436.949	96.75
437.17	68.75
437.392	83.75
437.614	97.75
437.835	93.75
438.057	107.75
438.278	111.75
438.5	106.75
438.721	108.75
438.943	99.75
439.165	77.75
439.386	80.75
439.608	90.75
439.829	93.75
440.05	122.75
440.272	129.75
440.493	93.75
440.715	86.75
440.936	99.75
441.158	91.75
441.379	70.75
441.6	85.75
441.822	96.75
442.043	94.75
442.264	107.75
442.486	93.75
442.707	91.75
442.928	93.75
443.149	137.75
443.371	125.75
443.592	113.75
443.813	103.75
444.034	104.75
444.255	85.75
444.476	87.75
444.698	84.75
444.919	88.75
445.14	104.75
445.361	112.75
445.582	110.75
445.803	131.75
446.024	142.75
446.245	126.75
446.466	112.75
446.687	87.75
446.908	84.75
447.129	79.75
447.35	88.75
447.571	84.75
447.792	91.75
448.013	108.75
448.234	97.75
448.455	95.75
448.675	119.75
448.896	120.75
449.117	108.75
449.338	103.75
449.559	118.75
449.779	123.75
450	85.75
450.221	90.75
450.442	75.75
450.662	92.75
450.883	108.75
451.104	96.75
451.324	99.75
451.545	86.75
451.766	80.75
451.986	85.75
452.207	90.75
452.428	84.75
452.648	88.75
452.869	96.75
453.089	112.75
453.31	109.75
453.53	96.75
453.751	84.75
453.971	119.75
454.192	108.75
454.412	86.75
454.633	85.75
454.853	76.75
455.073	71.75
455.294	87.75
455.514	90.75
455.734	96.75
455.955	86.75
456.175	79.75
456.395	89.75
456.616	81.75
456.836	84.75
457.056	91.75
457.276	92.75
457.497	84.75
457.717	89.75
457.937	62.75
458.157	84.75
458.377	89.75
458.598	104.75
458.818	144.75
459.038	141.75
459.258	110.75
459.478	88.75
459.698	100.75
459.918	74.75
460.138	82.75
460.358	96.75
460.578	88.75
460.798	81.75
461.018	87.75
461.238	84.75
461.458	80.75
461.678	79.75
461.898	74.75
462.118	85.75
462.338	82.75
462.558	79.75
462.777	84.75
462.997	85.75
463.217	75.75
463.437	88.75
463.657	98.75
463.876	87.75
464.096	92.75
464.316	85.75
464.536	80.75
464.755	99.75
464.975	100.75
465.195	156.75
465.414	153.75
465.634	110.75
465.854	78.75
466.073	90.75
466.293	72.75
466.512	80.75
466.732	82.75
466.951	82.75
467.171	85.75
467.391	92.75
467.61	96.75
467.829	87.75
468.049	83.75
468.268	99.75
468.488	78.75
468.707	86.75
468.927	87.75
469.146	84.75
469.365	99.75
469.585	84.75
469.804	87.75
470.023	99.75
470.243	91.75
470.462	93.75
470.681	102.75
470.901	84.75
471.12	88.75
471.339	85.75
471.558	95.75
471.777	87.75
471.997	88.75
472.216	90.75
472.435	100.75
472.654	82.75
472.873	84.75
473.092	88.75
473.311	87.75
473.53	88.75
473.749	85.75
473.968	75.75
474.187	99.75
474.406	86.75
474.625	87.75
474.844	77.75
475.063	81.75
475.282	83.75
475.501	72.75
475.72	92.75
475.939	84.75
476.158	83.75
476.377	93.75
476.596	74.75
476.814	82.75
477.033	103.75
477.252	84.75
477.471	86.75
477.69	79.75
477.908	95.75
478.127	83.75
478.346	96.75
478.564	85.75
478.783	101.75
479.002	86.75
479.22	83.75
479.439	99.75
479.658	97.75
479.876	85.75
480.095	78.75
480.313	90.75
480.532	98.75
480.751	91.75
480.969	94.75
481.188	117.75
481.406	105.75
481.624	85.75
481.843	95.75
482.061	69.75
482.28	103.75
482.498	90.75
482.717	98.75
482.935	92.75
483.153	83.75
483.372	90.75
483.59	68.75
483.808	85.75
484.027	76.75
484.245	78.75
484.463	87.75
484.681	93.75
484.9	87.75
485.118	105.75
485.336	80.75
485.554	99.75
485.772	83.75
485.99	95.75
486.209	91.75
486.427	99.75
486.645	98.75
486.863	100.75
487.081	96.75
487.299	91.75
487.517	89.75
487.735	99.75
487.953	88.75
488.171	82.75
488.389	86.75
488.607	95.75
488.825	99.75
489.043	103.75
489.261	93.75
489.479	76.75
489.696	84.75
489.914	91.75
490.132	88.75
490.35	92.75
490.568	68.75
490.786	70.75
491.003	88.75
491.221	88.75
491.439	98.75
491.657	78.75
491.874	90.75
492.092	100.75
492.31	93.75
492.527	91.75
492.745	98.75
492.963	87.75
493.18	86.75
493.398	85.75
493.615	94.75
493.833	77.75
494.05	87.75
494.268	95.75
494.485	95.75
494.703	78.75
494.92	90.75
495.138	92.75
495.355	94.75
495.573	91.75
495.79	90.75
496.008	96.75
496.225	95.75
496.442	69.75
496.66	96.75
496.877	85.75
497.094	88.75
497.312	84.75
497.529	91.75
497.746	98.75
497.963	99.75
498.181	91.75
498.398	87.75
498.615	117.75
498.832	103.75
499.049	87.75
499.267	85.75
499.484	85.75
499.701	74.75
499.918	77.75
500.135	87.75
500.352	86.75
500.569	81.75
500.786	86.75
501.003	93.75
501.22	92.75
501.437	82.75
501.654	85.75
501.871	98.75
502.088	87.75
502.305	94.75
502.522	82.75
502.739	88.75
502.956	85.75
503.172	88.75
503.389	108.75
503.606	103.75
503.823	99.75
504.04	87.75
504.256	95.75
504.473	90.75
504.69	77.75
504.907	96.75
505.123	94.75
505.34	91.75
505.557	91.75
505.773	83.75
505.99	93.75
506.207	82.75
506.423	95.75
506.64	92.75
506.856	89.75
507.073	83.75
507.289	90.75
507.506	100.75
507.722	110.75
507.939	101.75
508.155	83.75
508.372	95.75
508.588	91.75
508.805	93.75
509.021	97.75
509.238	95.75
509.454	104.75
509.67	89.75
509.887	94.75
510.103	131.75
510.319	222.75
510.536	815.75
510.752	2663.75
510.968	722.75
511.184	160.75
511.401	118.75
511.617	103.75
511.833	79.75
512.049	90.75
512.265	86.75
512.481	93.75
512.698	81.75
512.914	95.75
513.13	101.75
513.346	101.75
513.562	82.75
513.778	82.75
513.994	100.75
514.21	87.75
514.426	107.75
514.642	141.75
514.858	127.75
515.074	170.75
515.29	476.75
515.506	1585.75
515.721	583.75
515.937	162.75
516.153	102.75
516.369	100.75
516.585	94.75
516.801	90.75
517.016	96.75
517.232	77.75
517.448	119.75
517.664	88.75
517.879	83.75
518.095	92.75
518.311	83.75
518.527	97.75
518.742	82.75
518.958	75.75
519.173	95.75
519.389	88.75
519.605	100.75
519.82	101.75
520.036	95.75
520.251	114.75
520.467	104.75
520.682	101.75
520.898	115.75
521.113	110.75
521.329	132.75
521.544	207.75
521.76	585.75
521.975	2582.75
522.19	1556.75
522.406	324.75
522.621	124.75
522.836	111.75
523.052	92.75
523.267	108.75
523.482	97.75
523.698	102.75
523.913	109.75
524.128	102.75
524.343	91.75
524.559	68.75
524.774	80.75
524.989	98.75
525.204	94.75
525.419	79.75
525.634	87.75
525.849	74.75
526.064	86.75
526.28	75.75
526.495	77.75
526.71	83.75
526.925	89.75
527.14	87.75
527.355	88.75
527.57	79.75
527.785	77.75
527.999	89.75
528.214	77.75
528.429	95.75
528.644	96.75
528.859	94.75
529.074	86.75
529.289	136.75
529.503	166.75
529.718	100.75
529.933	96.75
530.148	83.75
530.363	96.75
530.577	84.75
530.792	72.75
531.007	87.75
531.221	93.75
531.436	74.75
531.651	83.75
531.865	84.75
532.08	77.75
532.295	84.75
532.509	78.75
532.724	92.75
532.938	91.75
533.153	101.75
533.367	92.75
533.582	98.75
533.796	83.75
534.011	83.75
534.225	92.75
534.44	94.75
534.654	96.75
534.868	75.75
535.083	91.75
535.297	92.75
535.511	97.75
535.726	103.75
535.94	90.75
536.154	88.75
536.369	84.75
536.583	87.75
536.797	92.75
537.011	88.75
537.225	87.75
537.44	72.75
537.654	86.75
537.868	85.75
538.082	80.75
538.296	94.75
538.51	87.75
538.724	89.75
538.938	87.75
539.153	102.75
539.367	104.75
539.581	92.75
539.795	91.75
540.009	82.75
540.222	82.75
540.436	94.75
540.65	87.75
540.864	70.75
541.078	85.75
541.292	86.75
541.506	86.75
541.72	80.75
541.934	74.75
542.147	92.75
542.361	98.75
542.575	84.75
542.789	93.75
543.002	99.75
543.216	84.75
543.43	82.75
543.644	83.75
543.857	88.75
544.071	71.75
544.285	84.75
544.498	92.75
544.712	87.75
544.925	93.75
545.139	88.75
545.352	74.75
545.566	74.75
545.779	70.75
545.993	86.75
546.206	79.75
546.42	109.75
546.633	94.75
546.847	91.75
547.06	92.75
547.274	84.75
547.487	83.75
547.7	90.75
547.914	75.75
548.127	92.75
548.34	87.75
548.554	87.75
548.767	82.75
548.98	100.75
549.193	96.75
549.407	83.75
549.62	72.75
549.833	89.75
550.046	94.75
550.259	88.75
550.473	81.75
550.686	78.75
550.899	82.75
551.112	82.75
551.325	89.75
551.538	95.75
551.751	90.75
551.964	82.75
552.177	94.75
552.39	81.75
552.603	83.75
552.816	88.75
553.029	83.75
553.242	74.75
553.455	89.75
553.667	108.75
553.88	95.75
554.093	93.75
554.306	94.75
554.519	78.75
554.732	89.75
554.944	94.75
555.157	87.75
555.37	87.75
555.583	84.75
555.795	85.75
556.008	84.75
556.221	74.75
556.433	89.75
556.646	91.75
556.859	92.75
557.071	88.75
557.284	87.75
557.496	85.75
557.709	91.75
557.921	83.75
558.134	78.75
558.346	79.75
558.559	84.75
558.771	80.75
558.984	90.75
559.196	75.75
559.409	89.75
559.621	80.75
559.833	80.75
560.046	86.75
560.258	82.75
560.47	90.75
560.683	90.75
560.895	91.75
561.107	87.75
561.32	76.75
561.532	106.75
561.744	93.75
561.956	87.75
562.168	101.75
562.381	82.75
562.593	82.75
562.805	87.75
563.017	88.75
563.229	89.75
563.441	83.75
563.653	95.75
563.865	83.75
564.077	90.75
564.289	82.75
564.501	95.75
564.713	86.75
564.925	77.75
565.137	98.75
565.349	89.75
565.561	76.75
565.773	90.75
565.985	73.75
566.197	79.75
566.408	84.75
566.62	87.75
566.832	82.75
567.044	66.75
567.255	90.75
567.467	76.75
567.679	88.75
567.891	77.75
568.102	82.75
568.314	90.75
568.526	81.75
568.737	88.75
568.949	89.75
569.161	88.75
569.372	80.75
569.584	74.75
569.795	84.75
570.007	112.75
570.218	285.75
570.43	128.75
570.641	94.75
570.853	84.75
571.064	84.75
571.276	89.75
571.487	90.75
571.698	82.75
571.91	81.75
572.121	80.75
572.333	78.75
572.544	75.75
572.755	95.75
572.966	94.75
573.178	77.75
573.389	98.75
573.6	82.75
573.811	92.75
574.023	81.75
574.234	93.75
574.445	94.75
574.656	76.75
574.867	83.75
575.078	82.75
575.289	80.75
575.501	102.75
575.712	87.75
575.923	72.75
576.134	91.75
576.345	82.75
576.556	87.75
576.767	95.75
576.978	92.75
577.188	90.75
577.399	79.75
577.61	93.75
577.821	105.75
578.032	117.75
578.243	284.75
578.454	850.75
578.665	224.75
578.875	98.75
579.086	96.75
579.297	94.75
579.508	91.75
579.718	84.75
579.929	85.75
580.14	77.75
580.35	80.75
580.561	76.75
580.772	75.75
580.982	73.75
581.193	86.75
581.403	81.75
581.614	82.75
581.825	70.75
582.035	83.75
582.246	86.75
582.456	87.75
582.667	75.75
582.877	76.75
583.087	102.75
583.298	78.75
583.508	72.75
583.719	86.75
583.929	91.75
584.139	88.75
584.35	98.75
584.56	89.75
584.77	80.75
584.981	66.75
585.191	93.75
585.401	77.75
585.611	72.75
585.821	75.75
586.032	99.75
586.242	87.75
586.452	86.75
586.662	76.75
586.872	92.75
587.082	87.75
587.292	71.75
587.502	86.75
587.713	84.75
587.923	86.75
588.133	80.75
588.343	74.75
588.553	78.75
588.762	83.75
588.972	71.75
589.182	82.75
589.392	90.75
589.602	98.75
589.812	90.75
590.022	105.75
590.232	76.75
590.441	81.75
590.651	94.75
590.861	87.75
591.071	82.75
591.281	90.75
591.49	74.75
591.7	76.75
591.91	83.75
592.119	92.75
592.329	85.75
592.539	77.75
592.748	92.75
592.958	88.75
593.167	96.75
593.377	86.75
593.587	87.75
593.796	83.75
594.006	86.75
594.215	92.75
594.424	86.75
594.634	73.75
594.843	88.75
595.053	82.75
595.262	92.75
595.472	85.75
595.681	67.75
595.89	91.75
596.1	88.75
596.309	84.75
596.518	79.75
596.727	83.75
596.937	74.75
597.146	83.75
597.355	83.75
597.564	77.75
597.774	84.75
597.983	95.75
598.192	86.75
598.401	81.75
598.61	92.75
598.819	93.75
599.028	79.75
599.237	85.75
599.446	81.75
599.655	67.75
599.864	85.75
600.073	90.75
600.282	78.75
600.491	77.75
600.7	75.75
600.909	75.75
601.118	85.75
601.327	85.75
601.536	77.75
601.745	83.75
601.953	85.75
602.162	78.75
602.371	83.75
602.58	86.75
602.789	84.75
602.997	70.75
603.206	89.75
603.415	74.75
603.623	72.75
603.832	86.75
604.041	82.75
604.249	74.75
604.458	77.75
604.666	82.75
604.875	77.75
605.084	73.75
605.292	81.75
605.501	85.75
605.709	84.75
605.918	80.75
606.126	84.75
606.334	88.75
606.543	88.75
606.751	80.75
606.96	89.75
607.168	87.75
607.376	81.75
607.585	71.75
607.793	83.75
608.001	86.75
608.21	95.75
608.418	89.75
608.626	75.75
608.834	77.75
609.043	93.75
609.251	86.75
609.459	81.75
609.667	94.75
609.875	75.75
610.083	85.75
610.291	71.75
610.499	92.75
610.707	94.75
610.916	93.75
611.124	80.75
611.332	91.75
611.54	87.75
611.748	80.75
611.955	91.75
612.163	96.75
612.371	87.75
612.579	77.75
612.787	76.75
612.995	87.75
613.203	100.75
613.411	83.75
613.618	82.75
613.826	90.75
614.034	75.75
614.242	78.75
614.449	78.75
614.657	85.75
614.865	65.75
615.072	93.75
615.28	83.75
615.488	77.75
615.695	90.75
615.903	85.75
616.111	91.75
616.318	104.75
616.526	102.75
616.733	96.75
616.941	95.75
617.148	96.75
617.356	89.75
617.563	88.75
617.771	85.75
617.978	86.75
618.185	93.75
618.393	89.75
618.6	80.75
618.807	80.75
619.015	83.75
619.222	90.75
619.429	91.75
619.637	88.75
619.844	88.75
620.051	78.75
620.258	85.75
620.466	105.75
620.673	77.75
620.88	91.75
621.087	80.75
621.294	77.75
621.501	88.75
621.708	79.75
621.915	77.75
622.122	89.75
622.329	87.75
622.536	87.75
622.743	73.75
622.95	74.75
623.157	70.75
623.364	80.75
623.571	80.75
623.778	87.75
623.985	101.75
624.192	66.75
624.399	96.75
624.606	95.75
624.812	83.75
625.019	70.75
625.226	68.75
625.433	80.75
625.639	68.75
625.846	72.75
626.053	63.75
626.259	87.75
626.466	95.75
626.673	81.75
626.879	78.75
627.086	87.75
627.293	71.75
627.499	67.75
627.706	81.75
627.912	71.75
628.119	84.75
628.325	80.75
628.532	87.75
628.738	56.75
628.945	76.75
629.151	89.75
629.357	84.75
629.564	84.75
629.77	84.75
629.976	65.75
630.183	67.75
630.389	82.75
630.595	83.75
630.802	82.75
631.008	89.75
631.214	75.75
631.42	73.75
631.627	98.75
631.833	76.75
632.039	73.75
632.245	83.75
632.451	76.75
632.657	83.75
632.863	75.75
633.069	75.75
633.275	80.75
633.481	70.75
633.688	82.75
633.893	72.75
634.099	85.75
634.305	84.75
634.511	72.75
634.717	83.75
634.923	76.75
635.129	71.75
635.335	82.75
635.541	69.75
635.747	79.75
635.952	81.75
636.158	92.75
636.364	91.75
636.57	75.75
636.775	75.75
636.981	83.75
637.187	88.75
637.392	79.75
637.598	79.75
637.804	78.75
638.009	79.75
638.215	95.75
638.421	87.75
638.626	74.75
638.832	67.75
639.037	92.75
639.243	77.75
639.448	72.75
639.654	78.75
639.859	86.75
640.065	74.75
640.27	82.75
640.475	75.75
640.681	58.75
640.886	72.75
641.091	66.75
641.297	88.75
641.502	71.75
641.707	76.75
641.913	79.75
642.118	86.75
642.323	88.75
642.528	74.75
642.733	87.75
642.939	80.75
643.144	86.75
643.349	81.75
643.554	96.75
643.759	85.75
643.964	77.75
644.169	96.75
644.374	91.75
644.579	93.75
644.784	79.75
644.989	91.75
645.194	80.75
645.399	78.75
645.604	79.75
645.809	97.75
646.014	85.75
646.219	67.75
646.423	95.75
646.628	86.75
646.833	77.75
647.038	89.75
647.243	90.75
647.447	88.75
647.652	87.75
647.857	71.75
648.062	82.75
648.266	89.75
648.471	85.75
648.676	86.75
648.88	89.75
649.085	69.75
649.289	92.75
649.494	106.75
649.698	145.75
649.903	112.75
650.107	82.75
650.312	83.75
650.516	78.75
650.721	82.75
650.925	96.75
651.13	82.75
651.334	76.75
651.539	79.75
651.743	65.75
651.947	72.75
652.152	86.75
652.356	71.75
652.56	76.75
652.764	83.75
652.969	76.75
653.173	83.75
653.377	75.75
653.581	68.75
653.785	89.75
653.99	78.75
654.194	90.75
654.398	78.75
654.602	86.75
654.806	91.75
655.01	97.75
655.214	86.75
655.418	74.75
655.622	80.75
655.826	97.75
656.03	72.75
656.234	86.75
656.438	71.75
656.642	80.75
656.846	93.75
657.049	78.75
657.253	79.75
657.457	78.75
657.661	80.75
657.865	80.75
658.068	84.75
658.272	77.75
658.476	79.75
658.68	75.75
658.883	79.75
659.087	85.75
659.291	83.75
659.494	61.75
659.698	64.75
659.901	79.75
660.105	85.75
660.309	74.75
660.512	71.75
660.716	72.75
660.919	74.75
661.123	79.75
661.326	79.75
661.53	88.75
661.733	83.75
661.936	77.75
662.14	80.75
662.343	81.75
662.546	84.75
662.75	87.75
662.953	86.75
663.156	70.75
663.36	76.75
663.563	80.75
663.766	87.75
663.969	81.75
664.173	76.75
664.376	90.75
664.579	84.75
664.782	74.75
664.985	94.75
665.188	74.75
665.391	85.75
665.594	71.75
665.797	68.75
666	68.75
666.203	74.75
666.406	61.75
666.609	79.75
666.812	102.75
667.015	76.75
667.218	86.75
667.421	62.75
667.624	82.75
667.827	77.75
668.03	79.75
668.232	71.75
668.435	77.75
668.638	78.75
668.841	94.75
669.043	86.75
669.246	80.75
669.449	78.75
669.651	78.75
669.854	88.75
670.057	75.75
670.259	86.75
670.462	75.75
670.665	61.75
670.867	84.75
671.07	72.75
671.272	79.75
671.475	82.75
671.677	79.75
671.88	93.75
672.082	78.75
672.284	85.75
672.487	70.75
672.689	66.75
672.892	88.75
