Data from Cut_Leaves_50_2_HRD10591_00003.txt Node
Date: Wed Dec 03 14:20:03 EST 2025
User: Yrep
Spectrometer: HR+D1059
Trigger mode: 1
Integration Time (sec): 1.000000E-1
Scans to average: 1
Electric dark correction enabled: true
Nonlinearity correction enabled: false
Boxcar width: 0
XAxis mode: Wavelengths
Number of Pixels in Spectrum: 2048
>>>>>Begin Spectral Data<<<<<
223.165	-14.31
223.4	-14.31
223.635	-14.31
223.869	-19.31
224.104	-30.31
224.338	-20.31
224.573	-17.31
224.808	-19.31
225.042	3.69
225.277	-2.31
225.511	-2.31
225.746	1.69
225.98	27.69
226.215	13.69
226.449	11.69
226.683	19.69
226.918	19.69
227.152	27.69
227.387	35.69
227.621	50.69
227.856	58.69
228.09	52.69
228.324	47.69
228.559	58.69
228.793	65.69
229.027	74.69
229.262	66.69
229.496	61.69
229.73	56.69
229.964	77.69
230.199	73.69
230.433	91.69
230.667	82.69
230.901	83.69
231.136	75.69
231.37	76.69
231.604	68.69
231.838	82.69
232.072	96.69
232.306	80.69
232.541	85.69
232.775	84.69
233.009	78.69
233.243	89.69
233.477	80.69
233.711	93.69
233.945	83.69
234.179	76.69
234.413	91.69
234.647	89.69
234.881	85.69
235.115	77.69
235.349	81.69
235.583	89.69
235.817	82.69
236.051	91.69
236.285	85.69
236.519	75.69
236.753	78.69
236.987	82.69
237.221	81.69
237.455	75.69
237.689	67.69
237.922	64.69
238.156	79.69
238.39	79.69
238.624	68.69
238.858	78.69
239.091	65.69
239.325	77.69
239.559	81.69
239.793	90.69
240.027	77.69
240.26	83.69
240.494	99.69
240.728	79.69
240.961	77.69
241.195	77.69
241.429	65.69
241.662	78.69
241.896	75.69
242.13	85.69
242.363	70.69
242.597	81.69
242.83	69.69
243.064	71.69
243.298	61.69
243.531	66.69
243.765	87.69
243.998	94.69
244.232	85.69
244.465	84.69
244.699	70.69
244.932	84.69
245.166	80.69
245.399	78.69
245.633	79.69
245.866	76.69
246.099	94.69
246.333	72.69
246.566	73.69
246.8	74.69
247.033	67.69
247.266	73.69
247.5	87.69
247.733	79.69
247.966	87.69
248.2	78.69
248.433	79.69
248.666	75.69
248.899	65.69
249.133	82.69
249.366	75.69
249.599	80.69
249.832	85.69
250.066	86.69
250.299	76.69
250.532	79.69
250.765	75.69
250.998	85.69
251.231	80.69
251.465	85.69
251.698	78.69
251.931	77.69
252.164	68.69
252.397	81.69
252.63	76.69
252.863	65.69
253.096	75.69
253.329	81.69
253.562	87.69
253.795	76.69
254.028	69.69
254.261	84.69
254.494	72.69
254.727	79.69
254.96	85.69
255.193	72.69
255.426	77.69
255.659	76.69
255.892	89.69
256.124	78.69
256.357	94.69
256.59	92.69
256.823	95.69
257.056	84.69
257.289	86.69
257.521	82.69
257.754	68.69
257.987	87.69
258.22	101.69
258.452	75.69
258.685	81.69
258.918	90.69
259.151	85.69
259.383	73.69
259.616	87.69
259.849	81.69
260.081	87.69
260.314	83.69
260.547	73.69
260.779	79.69
261.012	81.69
261.244	86.69
261.477	79.69
261.71	85.69
261.942	85.69
262.175	92.69
262.407	83.69
262.64	80.69
262.872	95.69
263.105	89.69
263.337	87.69
263.57	87.69
263.802	86.69
264.035	69.69
264.267	74.69
264.499	90.69
264.732	83.69
264.964	87.69
265.197	87.69
265.429	82.69
265.661	77.69
265.894	93.69
266.126	91.69
266.358	80.69
266.591	97.69
266.823	88.69
267.055	87.69
267.287	71.69
267.52	77.69
267.752	81.69
267.984	81.69
268.216	83.69
268.448	76.69
268.681	87.69
268.913	89.69
269.145	89.69
269.377	86.69
269.609	89.69
269.841	74.69
270.073	87.69
270.306	81.69
270.538	82.69
270.77	80.69
271.002	82.69
271.234	92.69
271.466	73.69
271.698	83.69
271.93	85.69
272.162	85.69
272.394	98.69
272.626	93.69
272.858	82.69
273.09	95.69
273.322	90.69
273.553	78.69
273.785	96.69
274.017	83.69
274.249	71.69
274.481	71.69
274.713	87.69
274.945	93.69
275.176	87.69
275.408	76.69
275.64	81.69
275.872	80.69
276.104	76.69
276.335	79.69
276.567	87.69
276.799	90.69
277.031	86.69
277.262	93.69
277.494	89.69
277.726	78.69
277.957	83.69
278.189	91.69
278.421	95.69
278.652	76.69
278.884	86.69
279.115	85.69
279.347	75.69
279.579	87.69
279.81	88.69
280.042	86.69
280.273	86.69
280.505	91.69
280.736	93.69
280.968	96.69
281.199	85.69
281.431	81.69
281.662	95.69
281.894	82.69
282.125	101.69
282.356	91.69
282.588	77.69
282.819	76.69
283.051	86.69
283.282	89.69
283.513	97.69
283.745	91.69
283.976	93.69
284.207	72.69
284.439	82.69
284.67	93.69
284.901	87.69
285.132	86.69
285.364	74.69
285.595	83.69
285.826	82.69
286.057	85.69
286.288	90.69
286.52	89.69
286.751	80.69
286.982	89.69
287.213	95.69
287.444	90.69
287.675	108.69
287.906	89.69
288.138	85.69
288.369	82.69
288.6	87.69
288.831	95.69
289.062	90.69
289.293	84.69
289.524	84.69
289.755	100.69
289.986	90.69
290.217	80.69
290.448	94.69
290.679	80.69
290.91	74.69
291.141	82.69
291.371	97.69
291.602	73.69
291.833	84.69
292.064	80.69
292.295	78.69
292.526	84.69
292.757	91.69
292.987	97.69
293.218	91.69
293.449	89.69
293.68	82.69
293.91	76.69
294.141	78.69
294.372	82.69
294.603	84.69
294.833	89.69
295.064	91.69
295.295	88.69
295.525	77.69
295.756	107.69
295.987	100.69
296.217	101.69
296.448	86.69
296.679	82.69
296.909	82.69
297.14	78.69
297.37	95.69
297.601	79.69
297.831	87.69
298.062	78.69
298.292	90.69
298.523	97.69
298.753	87.69
298.984	91.69
299.214	82.69
299.445	80.69
299.675	89.69
299.905	102.69
300.136	76.69
300.366	85.69
300.597	91.69
300.827	78.69
301.057	85.69
301.288	84.69
301.518	80.69
301.748	96.69
301.979	87.69
302.209	83.69
302.439	98.69
302.669	79.69
302.9	86.69
303.13	96.69
303.36	82.69
303.59	93.69
303.82	83.69
304.051	86.69
304.281	80.69
304.511	94.69
304.741	85.69
304.971	78.69
305.201	92.69
305.431	85.69
305.661	78.69
305.891	91.69
306.121	95.69
306.352	85.69
306.582	82.69
306.812	89.69
307.042	88.69
307.272	75.69
307.502	98.69
307.731	97.69
307.961	86.69
308.191	94.69
308.421	93.69
308.651	94.69
308.881	99.69
309.111	91.69
309.341	95.69
309.571	99.69
309.8	87.69
310.03	82.69
310.26	91.69
310.49	78.69
310.72	85.69
310.949	87.69
311.179	84.69
311.409	77.69
311.639	70.69
311.868	87.69
312.098	89.69
312.328	87.69
312.557	89.69
312.787	85.69
313.017	97.69
313.246	87.69
313.476	99.69
313.706	92.69
313.935	94.69
314.165	62.69
314.394	86.69
314.624	87.69
314.853	98.69
315.083	89.69
315.312	91.69
315.542	94.69
315.771	84.69
316.001	89.69
316.23	84.69
316.46	81.69
316.689	110.69
316.919	82.69
317.148	93.69
317.377	89.69
317.607	95.69
317.836	70.69
318.065	77.69
318.295	89.69
318.524	85.69
318.753	93.69
318.983	88.69
319.212	96.69
319.441	87.69
319.67	79.69
319.9	83.69
320.129	96.69
320.358	94.69
320.587	98.69
320.816	90.69
321.046	92.69
321.275	94.69
321.504	97.69
321.733	70.69
321.962	105.69
322.191	78.69
322.42	98.69
322.649	85.69
322.878	95.69
323.108	89.69
323.337	91.69
323.566	101.69
323.795	91.69
324.024	84.69
324.253	85.69
324.482	83.69
324.71	84.69
324.939	76.69
325.168	78.69
325.397	79.69
325.626	97.69
325.855	87.69
326.084	93.69
326.313	91.69
326.542	95.69
326.77	77.69
326.999	75.69
327.228	94.69
327.457	86.69
327.686	85.69
327.914	81.69
328.143	85.69
328.372	78.69
328.6	91.69
328.829	67.69
329.058	85.69
329.287	81.69
329.515	82.69
329.744	92.69
329.972	102.69
330.201	82.69
330.43	81.69
330.658	84.69
330.887	88.69
331.115	85.69
331.344	84.69
331.572	97.69
331.801	93.69
332.03	85.69
332.258	77.69
332.486	81.69
332.715	94.69
332.943	97.69
333.172	80.69
333.4	94.69
333.629	90.69
333.857	99.69
334.085	103.69
334.314	77.69
334.542	94.69
334.771	102.69
334.999	91.69
335.227	83.69
335.455	84.69
335.684	85.69
335.912	90.69
336.14	94.69
336.369	78.69
336.597	100.69
336.825	86.69
337.053	89.69
337.281	87.69
337.51	78.69
337.738	89.69
337.966	80.69
338.194	91.69
338.422	101.69
338.65	81.69
338.878	80.69
339.106	87.69
339.334	99.69
339.562	84.69
339.79	82.69
340.018	98.69
340.246	82.69
340.474	81.69
340.702	86.69
340.93	83.69
341.158	77.69
341.386	84.69
341.614	101.69
341.842	84.69
342.07	95.69
342.298	90.69
342.526	83.69
342.754	89.69
342.981	90.69
343.209	80.69
343.437	98.69
343.665	88.69
343.893	79.69
344.12	91.69
344.348	94.69
344.576	81.69
344.804	73.69
345.031	80.69
345.259	90.69
345.487	88.69
345.714	83.69
345.942	78.69
346.17	81.69
346.397	93.69
346.625	91.69
346.853	79.69
347.08	85.69
347.308	83.69
347.535	94.69
347.763	89.69
347.99	98.69
348.218	98.69
348.445	81.69
348.673	85.69
348.9	75.69
349.128	75.69
349.355	90.69
349.583	75.69
349.81	79.69
350.037	85.69
350.265	82.69
350.492	86.69
350.72	83.69
350.947	78.69
351.174	74.69
351.402	106.69
351.629	87.69
351.856	85.69
352.083	97.69
352.311	86.69
352.538	78.69
352.765	79.69
352.992	90.69
353.22	93.69
353.447	98.69
353.674	83.69
353.901	91.69
354.128	93.69
354.355	73.69
354.583	82.69
354.81	82.69
355.037	77.69
355.264	84.69
355.491	89.69
355.718	82.69
355.945	92.69
356.172	97.69
356.399	82.69
356.626	87.69
356.853	102.69
357.08	95.69
357.307	84.69
357.534	83.69
357.761	76.69
357.988	74.69
358.215	94.69
358.441	85.69
358.668	77.69
358.895	77.69
359.122	86.69
359.349	79.69
359.576	81.69
359.802	91.69
360.029	69.69
360.256	103.69
360.483	95.69
360.709	99.69
360.936	94.69
361.163	78.69
361.39	82.69
361.616	87.69
361.843	79.69
362.07	72.69
362.296	99.69
362.523	88.69
362.749	84.69
362.976	98.69
363.203	75.69
363.429	82.69
363.656	86.69
363.882	84.69
364.109	72.69
364.335	90.69
364.562	86.69
364.788	89.69
365.015	86.69
365.241	79.69
365.468	85.69
365.694	83.69
365.92	82.69
366.147	74.69
366.373	80.69
366.599	101.69
366.826	86.69
367.052	92.69
367.278	79.69
367.505	89.69
367.731	93.69
367.957	94.69
368.184	78.69
368.41	95.69
368.636	87.69
368.862	91.69
369.089	97.69
369.315	83.69
369.541	76.69
369.767	99.69
369.993	80.69
370.219	86.69
370.445	82.69
370.672	101.69
370.898	81.69
371.124	82.69
371.35	96.69
371.576	85.69
371.802	86.69
372.028	99.69
372.254	77.69
372.48	81.69
372.706	89.69
372.932	76.69
373.158	85.69
373.384	92.69
373.61	87.69
373.835	86.69
374.061	86.69
374.287	87.69
374.513	85.69
374.739	85.69
374.965	102.69
375.191	87.69
375.416	89.69
375.642	99.69
375.868	83.69
376.094	83.69
376.319	92.69
376.545	86.69
376.771	85.69
376.997	93.69
377.222	87.69
377.448	94.69
377.674	93.69
377.899	87.69
378.125	87.69
378.35	95.69
378.576	93.69
378.802	89.69
379.027	95.69
379.253	84.69
379.478	83.69
379.704	95.69
379.929	83.69
380.155	82.69
380.38	84.69
380.606	89.69
380.831	99.69
381.057	90.69
381.282	83.69
381.507	81.69
381.733	88.69
381.958	79.69
382.184	79.69
382.409	79.69
382.634	77.69
382.86	85.69
383.085	87.69
383.31	87.69
383.535	83.69
383.761	86.69
383.986	76.69
384.211	91.69
384.436	78.69
384.662	94.69
384.887	99.69
385.112	92.69
385.337	80.69
385.562	85.69
385.787	91.69
386.013	70.69
386.238	80.69
386.463	90.69
386.688	93.69
386.913	94.69
387.138	91.69
387.363	90.69
387.588	96.69
387.813	83.69
388.038	79.69
388.263	92.69
388.488	91.69
388.713	65.69
388.938	69.69
389.163	86.69
389.387	90.69
389.612	94.69
389.837	66.69
390.062	100.69
390.287	93.69
390.512	62.69
390.736	78.69
390.961	87.69
391.186	81.69
391.411	79.69
391.636	91.69
391.86	75.69
392.085	77.69
392.31	83.69
392.534	88.69
392.759	85.69
392.984	78.69
393.208	82.69
393.433	94.69
393.658	86.69
393.882	94.69
394.107	91.69
394.331	86.69
394.556	105.69
394.78	82.69
395.005	79.69
395.229	89.69
395.454	91.69
395.678	94.69
395.903	91.69
396.127	90.69
396.352	81.69
396.576	96.69
396.801	97.69
397.025	91.69
397.249	86.69
397.474	79.69
397.698	97.69
397.922	92.69
398.147	84.69
398.371	81.69
398.595	93.69
398.82	93.69
399.044	81.69
399.268	91.69
399.492	83.69
399.717	94.69
399.941	85.69
400.165	79.69
400.389	81.69
400.613	80.69
400.837	95.69
401.062	94.69
401.286	85.69
401.51	91.69
401.734	80.69
401.958	91.69
402.182	73.69
402.406	76.69
402.63	86.69
402.854	80.69
403.078	89.69
403.302	93.69
403.526	86.69
403.75	96.69
403.974	86.69
404.198	97.69
404.422	95.69
404.645	92.69
404.869	99.69
405.093	96.69
405.317	73.69
405.541	85.69
405.765	86.69
405.988	87.69
406.212	80.69
406.436	83.69
406.66	85.69
406.883	80.69
407.107	76.69
407.331	95.69
407.555	73.69
407.778	83.69
408.002	82.69
408.226	94.69
408.449	80.69
408.673	84.69
408.896	81.69
409.12	91.69
409.344	85.69
409.567	89.69
409.791	77.69
410.014	78.69
410.238	85.69
410.461	78.69
410.685	90.69
410.908	89.69
411.132	82.69
411.355	80.69
411.578	83.69
411.802	75.69
412.025	77.69
412.249	86.69
412.472	85.69
412.695	84.69
412.919	84.69
413.142	76.69
413.365	82.69
413.589	85.69
413.812	80.69
414.035	89.69
414.258	95.69
414.482	100.69
414.705	82.69
414.928	97.69
415.151	91.69
415.374	71.69
415.597	83.69
415.821	68.69
416.044	79.69
416.267	93.69
416.49	80.69
416.713	87.69
416.936	77.69
417.159	102.69
417.382	90.69
417.605	81.69
417.828	91.69
418.051	78.69
418.274	93.69
418.497	96.69
418.72	79.69
418.943	79.69
419.166	90.69
419.389	77.69
419.611	96.69
419.834	94.69
420.057	81.69
420.28	89.69
420.503	101.69
420.726	90.69
420.948	96.69
421.171	83.69
421.394	88.69
421.617	88.69
421.839	92.69
422.062	85.69
422.285	92.69
422.507	103.69
422.73	114.69
422.953	107.69
423.175	83.69
423.398	83.69
423.621	86.69
423.843	86.69
424.066	76.69
424.288	82.69
424.511	83.69
424.733	86.69
424.956	89.69
425.178	86.69
425.401	89.69
425.623	82.69
425.846	93.69
426.068	82.69
426.291	93.69
426.513	84.69
426.735	85.69
426.958	83.69
427.18	86.69
427.402	84.69
427.625	92.69
427.847	84.69
428.069	78.69
428.292	79.69
428.514	93.69
428.736	83.69
428.958	94.69
429.181	91.69
429.403	81.69
429.625	93.69
429.847	85.69
430.069	93.69
430.292	89.69
430.514	86.69
430.736	84.69
430.958	83.69
431.18	69.69
431.402	89.69
431.624	82.69
431.846	74.69
432.068	91.69
432.29	90.69
432.512	95.69
432.734	91.69
432.956	82.69
433.178	74.69
433.4	97.69
433.622	89.69
433.844	89.69
434.066	81.69
434.287	91.69
434.509	96.69
434.731	75.69
434.953	71.69
435.175	82.69
435.397	87.69
435.618	91.69
435.84	89.69
436.062	83.69
436.284	72.69
436.505	80.69
436.727	80.69
436.949	81.69
437.17	81.69
437.392	80.69
437.614	80.69
437.835	77.69
438.057	75.69
438.278	84.69
438.5	78.69
438.721	84.69
438.943	84.69
439.165	73.69
439.386	93.69
439.608	85.69
439.829	95.69
440.05	97.69
440.272	84.69
440.493	83.69
440.715	78.69
440.936	76.69
441.158	86.69
441.379	90.69
441.6	95.69
441.822	90.69
442.043	91.69
442.264	89.69
442.486	91.69
442.707	77.69
442.928	79.69
443.149	76.69
443.371	78.69
443.592	89.69
443.813	91.69
444.034	78.69
444.255	79.69
444.476	81.69
444.698	83.69
444.919	89.69
445.14	138.69
445.361	124.69
445.582	82.69
445.803	87.69
446.024	83.69
446.245	76.69
446.466	93.69
446.687	93.69
446.908	75.69
447.129	90.69
447.35	101.69
447.571	89.69
447.792	77.69
448.013	84.69
448.234	86.69
448.455	79.69
448.675	99.69
448.896	85.69
449.117	91.69
449.338	97.69
449.559	82.69
449.779	81.69
450	80.69
450.221	79.69
450.442	92.69
450.662	75.69
450.883	89.69
451.104	94.69
451.324	96.69
451.545	82.69
451.766	91.69
451.986	96.69
452.207	90.69
452.428	85.69
452.648	81.69
452.869	71.69
453.089	81.69
453.31	79.69
453.53	94.69
453.751	77.69
453.971	85.69
454.192	106.69
454.412	100.69
454.633	78.69
454.853	81.69
455.073	96.69
455.294	98.69
455.514	76.69
455.734	87.69
455.955	81.69
456.175	86.69
456.395	73.69
456.616	81.69
456.836	75.69
457.056	95.69
457.276	78.69
457.497	96.69
457.717	82.69
457.937	90.69
458.157	81.69
458.377	82.69
458.598	81.69
458.818	78.69
459.038	81.69
459.258	96.69
459.478	85.69
459.698	100.69
459.918	96.69
460.138	81.69
460.358	82.69
460.578	102.69
460.798	73.69
461.018	81.69
461.238	99.69
461.458	86.69
461.678	93.69
461.898	75.69
462.118	77.69
462.338	88.69
462.558	77.69
462.777	92.69
462.997	95.69
463.217	79.69
463.437	78.69
463.657	98.69
463.876	83.69
464.096	86.69
464.316	85.69
464.536	89.69
464.755	95.69
464.975	92.69
465.195	94.69
465.414	90.69
465.634	77.69
465.854	71.69
466.073	92.69
466.293	83.69
466.512	82.69
466.732	77.69
466.951	87.69
467.171	82.69
467.391	79.69
467.61	94.69
467.829	70.69
468.049	98.69
468.268	82.69
468.488	82.69
468.707	91.69
468.927	75.69
469.146	89.69
469.365	88.69
469.585	91.69
469.804	68.69
470.023	75.69
470.243	81.69
470.462	77.69
470.681	92.69
470.901	82.69
471.12	87.69
471.339	91.69
471.558	93.69
471.777	88.69
471.997	79.69
472.216	76.69
472.435	82.69
472.654	87.69
472.873	82.69
473.092	87.69
473.311	90.69
473.53	93.69
473.749	89.69
473.968	95.69
474.187	80.69
474.406	76.69
474.625	97.69
474.844	86.69
475.063	85.69
475.282	100.69
475.501	79.69
475.72	84.69
475.939	83.69
476.158	84.69
476.377	78.69
476.596	89.69
476.814	75.69
477.033	101.69
477.252	89.69
477.471	81.69
477.69	81.69
477.908	82.69
478.127	91.69
478.346	79.69
478.564	83.69
478.783	80.69
479.002	80.69
479.22	78.69
479.439	85.69
479.658	90.69
479.876	93.69
480.095	80.69
480.313	104.69
480.532	81.69
480.751	96.69
480.969	76.69
481.188	75.69
481.406	95.69
481.624	81.69
481.843	82.69
482.061	89.69
482.28	81.69
482.498	89.69
482.717	90.69
482.935	81.69
483.153	81.69
483.372	94.69
483.59	80.69
483.808	86.69
484.027	87.69
484.245	85.69
484.463	73.69
484.681	104.69
484.9	79.69
485.118	81.69
485.336	88.69
485.554	96.69
485.772	83.69
485.99	81.69
486.209	94.69
486.427	90.69
486.645	95.69
486.863	91.69
487.081	76.69
487.299	69.69
487.517	81.69
487.735	76.69
487.953	86.69
488.171	86.69
488.389	78.69
488.607	99.69
488.825	76.69
489.043	86.69
489.261	91.69
489.479	94.69
489.696	84.69
489.914	93.69
490.132	89.69
490.35	92.69
490.568	85.69
490.786	67.69
491.003	85.69
491.221	87.69
491.439	83.69
491.657	93.69
491.874	74.69
492.092	91.69
492.31	107.69
492.527	88.69
492.745	86.69
492.963	76.69
493.18	92.69
493.398	92.69
493.615	85.69
493.833	79.69
494.05	81.69
494.268	95.69
494.485	85.69
494.703	77.69
494.92	93.69
495.138	91.69
495.355	79.69
495.573	81.69
495.79	77.69
496.008	83.69
496.225	82.69
496.442	76.69
496.66	99.69
496.877	95.69
497.094	95.69
497.312	96.69
497.529	75.69
497.746	86.69
497.963	69.69
498.181	102.69
498.398	91.69
498.615	76.69
498.832	79.69
499.049	100.69
499.267	77.69
499.484	85.69
499.701	83.69
499.918	90.69
500.135	74.69
500.352	90.69
500.569	98.69
500.786	84.69
501.003	89.69
501.22	75.69
501.437	87.69
501.654	77.69
501.871	77.69
502.088	84.69
502.305	73.69
502.522	63.69
502.739	75.69
502.956	84.69
503.172	82.69
503.389	98.69
503.606	100.69
503.823	91.69
504.04	76.69
504.256	66.69
504.473	73.69
504.69	83.69
504.907	93.69
505.123	79.69
505.34	86.69
505.557	91.69
505.773	80.69
505.99	91.69
506.207	85.69
506.423	101.69
506.64	87.69
506.856	100.69
507.073	94.69
507.289	85.69
507.506	89.69
507.722	105.69
507.939	85.69
508.155	83.69
508.372	73.69
508.588	89.69
508.805	82.69
509.021	79.69
509.238	84.69
509.454	93.69
509.67	91.69
509.887	85.69
510.103	76.69
510.319	87.69
510.536	79.69
510.752	92.69
510.968	93.69
511.184	94.69
511.401	79.69
511.617	82.69
511.833	89.69
512.049	73.69
512.265	84.69
512.481	90.69
512.698	79.69
512.914	88.69
513.13	87.69
513.346	73.69
513.562	82.69
513.778	88.69
513.994	76.69
514.21	83.69
514.426	74.69
514.642	93.69
514.858	74.69
515.074	83.69
515.29	74.69
515.506	95.69
515.721	83.69
515.937	89.69
516.153	75.69
516.369	82.69
516.585	89.69
516.801	99.69
517.016	74.69
517.232	78.69
517.448	82.69
517.664	81.69
517.879	79.69
518.095	92.69
518.311	95.69
518.527	89.69
518.742	93.69
518.958	88.69
519.173	95.69
519.389	98.69
519.605	85.69
519.82	93.69
520.036	83.69
520.251	77.69
520.467	83.69
520.682	68.69
520.898	84.69
521.113	89.69
521.329	70.69
521.544	71.69
521.76	77.69
521.975	91.69
522.19	82.69
522.406	84.69
522.621	86.69
522.836	83.69
523.052	98.69
523.267	77.69
523.482	93.69
523.698	74.69
523.913	79.69
524.128	80.69
524.343	88.69
524.559	83.69
524.774	89.69
524.989	106.69
525.204	79.69
525.419	90.69
525.634	86.69
525.849	86.69
526.064	94.69
526.28	94.69
526.495	91.69
526.71	84.69
526.925	76.69
527.14	93.69
527.355	86.69
527.57	93.69
527.785	78.69
527.999	86.69
528.214	93.69
528.429	85.69
528.644	102.69
528.859	83.69
529.074	73.69
529.289	82.69
529.503	70.69
529.718	89.69
529.933	96.69
530.148	93.69
530.363	78.69
530.577	87.69
530.792	69.69
531.007	82.69
531.221	78.69
531.436	93.69
531.651	93.69
531.865	96.69
532.08	84.69
532.295	104.69
532.509	97.69
532.724	85.69
532.938	80.69
533.153	86.69
533.367	82.69
533.582	81.69
533.796	80.69
534.011	89.69
534.225	81.69
534.44	78.69
534.654	71.69
534.868	104.69
535.083	77.69
535.297	87.69
535.511	87.69
535.726	80.69
535.94	86.69
536.154	82.69
536.369	85.69
536.583	96.69
536.797	86.69
537.011	80.69
537.225	78.69
537.44	78.69
537.654	91.69
537.868	70.69
538.082	85.69
538.296	84.69
538.51	84.69
538.724	95.69
538.938	93.69
539.153	86.69
539.367	81.69
539.581	98.69
539.795	86.69
540.009	91.69
540.222	79.69
540.436	103.69
540.65	101.69
540.864	89.69
541.078	89.69
541.292	83.69
541.506	77.69
541.72	80.69
541.934	93.69
542.147	94.69
542.361	76.69
542.575	89.69
542.789	85.69
543.002	86.69
543.216	95.69
543.43	84.69
543.644	87.69
543.857	94.69
544.071	90.69
544.285	99.69
544.498	89.69
544.712	96.69
544.925	95.69
545.139	86.69
545.352	87.69
545.566	97.69
545.779	69.69
545.993	78.69
546.206	91.69
546.42	91.69
546.633	95.69
546.847	97.69
547.06	91.69
547.274	95.69
547.487	97.69
547.7	93.69
547.914	82.69
548.127	86.69
548.34	87.69
548.554	86.69
548.767	78.69
548.98	87.69
549.193	87.69
549.407	87.69
549.62	85.69
549.833	86.69
550.046	95.69
550.259	77.69
550.473	110.69
550.686	99.69
550.899	85.69
551.112	87.69
551.325	80.69
551.538	93.69
551.751	105.69
551.964	98.69
552.177	93.69
552.39	100.69
552.603	83.69
552.816	91.69
553.029	95.69
553.242	82.69
553.455	102.69
553.667	86.69
553.88	96.69
554.093	95.69
554.306	100.69
554.519	96.69
554.732	99.69
554.944	108.69
555.157	94.69
555.37	99.69
555.583	94.69
555.795	98.69
556.008	97.69
556.221	92.69
556.433	94.69
556.646	81.69
556.859	95.69
557.071	94.69
557.284	100.69
557.496	80.69
557.709	98.69
557.921	83.69
558.134	89.69
558.346	91.69
558.559	101.69
558.771	99.69
558.984	82.69
559.196	101.69
559.409	100.69
559.621	93.69
559.833	81.69
560.046	79.69
560.258	96.69
560.47	81.69
560.683	95.69
560.895	105.69
561.107	100.69
561.32	76.69
561.532	87.69
561.744	102.69
561.956	93.69
562.168	110.69
562.381	99.69
562.593	79.69
562.805	77.69
563.017	84.69
563.229	86.69
563.441	103.69
563.653	98.69
563.865	83.69
564.077	90.69
564.289	90.69
564.501	83.69
564.713	85.69
564.925	90.69
565.137	92.69
565.349	100.69
565.561	80.69
565.773	97.69
565.985	77.69
566.197	86.69
566.408	82.69
566.62	85.69
566.832	89.69
567.044	90.69
567.255	90.69
567.467	77.69
567.679	75.69
567.891	76.69
568.102	74.69
568.314	90.69
568.526	94.69
568.737	93.69
568.949	87.69
569.161	78.69
569.372	85.69
569.584	84.69
569.795	90.69
570.007	102.69
570.218	94.69
570.43	86.69
570.641	99.69
570.853	89.69
571.064	91.69
571.276	105.69
571.487	91.69
571.698	96.69
571.91	90.69
572.121	95.69
572.333	83.69
572.544	87.69
572.755	86.69
572.966	98.69
573.178	89.69
573.389	106.69
573.6	82.69
573.811	83.69
574.023	91.69
574.234	97.69
574.445	101.69
574.656	82.69
574.867	82.69
575.078	95.69
575.289	84.69
575.501	89.69
575.712	84.69
575.923	77.69
576.134	74.69
576.345	84.69
576.556	101.69
576.767	102.69
576.978	90.69
577.188	86.69
577.399	90.69
577.61	87.69
577.821	83.69
578.032	91.69
578.243	98.69
578.454	84.69
578.665	105.69
578.875	89.69
579.086	90.69
579.297	97.69
579.508	74.69
579.718	87.69
579.929	95.69
580.14	103.69
580.35	106.69
580.561	93.69
580.772	89.69
580.982	76.69
581.193	90.69
581.403	95.69
581.614	89.69
581.825	85.69
582.035	93.69
582.246	86.69
582.456	74.69
582.667	92.69
582.877	93.69
583.087	84.69
583.298	97.69
583.508	99.69
583.719	89.69
583.929	91.69
584.139	77.69
584.35	73.69
584.56	77.69
584.77	70.69
584.981	102.69
585.191	84.69
585.401	91.69
585.611	89.69
585.821	93.69
586.032	90.69
586.242	81.69
586.452	82.69
586.662	69.69
586.872	93.69
587.082	80.69
587.292	73.69
587.502	74.69
587.713	99.69
587.923	89.69
588.133	91.69
588.343	93.69
588.553	100.69
588.762	113.69
588.972	156.69
589.182	305.69
589.392	202.69
589.602	173.69
589.812	257.69
590.022	150.69
590.232	99.69
590.441	94.69
590.651	89.69
590.861	87.69
591.071	88.69
591.281	85.69
591.49	85.69
591.7	85.69
591.91	100.69
592.119	85.69
592.329	93.69
592.539	85.69
592.748	95.69
592.958	93.69
593.167	94.69
593.377	106.69
593.587	90.69
593.796	82.69
594.006	89.69
594.215	84.69
594.424	83.69
594.634	102.69
594.843	81.69
595.053	85.69
595.262	102.69
595.472	99.69
595.681	82.69
595.89	86.69
596.1	94.69
596.309	94.69
596.518	73.69
596.727	81.69
596.937	80.69
597.146	98.69
597.355	84.69
597.564	95.69
597.774	89.69
597.983	106.69
598.192	107.69
598.401	93.69
598.61	84.69
598.819	105.69
599.028	85.69
599.237	96.69
599.446	91.69
599.655	109.69
599.864	95.69
600.073	97.69
600.282	97.69
600.491	94.69
600.7	93.69
600.909	98.69
601.118	103.69
601.327	82.69
601.536	102.69
601.745	95.69
601.953	93.69
602.162	95.69
602.371	104.69
602.58	98.69
602.789	81.69
602.997	80.69
603.206	109.69
603.415	96.69
603.623	84.69
603.832	85.69
604.041	90.69
604.249	100.69
604.458	95.69
604.666	79.69
604.875	91.69
605.084	91.69
605.292	102.69
605.501	86.69
605.709	85.69
605.918	85.69
606.126	101.69
606.334	84.69
606.543	92.69
606.751	97.69
606.96	85.69
607.168	97.69
607.376	90.69
607.585	83.69
607.793	73.69
608.001	99.69
608.21	88.69
608.418	102.69
608.626	81.69
608.834	88.69
609.043	91.69
609.251	94.69
609.459	100.69
609.667	110.69
609.875	102.69
610.083	92.69
610.291	89.69
610.499	109.69
610.707	105.69
610.916	100.69
611.124	80.69
611.332	82.69
611.54	97.69
611.748	93.69
611.955	91.69
612.163	106.69
612.371	100.69
612.579	114.69
612.787	81.69
612.995	105.69
613.203	105.69
613.411	95.69
613.618	102.69
613.826	91.69
614.034	91.69
614.242	95.69
614.449	92.69
614.657	86.69
614.865	100.69
615.072	102.69
615.28	92.69
615.488	85.69
615.695	105.69
615.903	96.69
616.111	95.69
616.318	113.69
616.526	106.69
616.733	117.69
616.941	98.69
617.148	89.69
617.356	90.69
617.563	85.69
617.771	102.69
617.978	106.69
618.185	98.69
618.393	104.69
618.6	87.69
618.807	108.69
619.015	91.69
619.222	97.69
619.429	111.69
619.637	97.69
619.844	92.69
620.051	102.69
620.258	84.69
620.466	89.69
620.673	98.69
620.88	98.69
621.087	99.69
621.294	82.69
621.501	104.69
621.708	92.69
621.915	108.69
622.122	111.69
622.329	93.69
622.536	92.69
622.743	103.69
622.95	90.69
623.157	105.69
623.364	98.69
623.571	119.69
623.778	95.69
623.985	89.69
624.192	83.69
624.399	107.69
624.606	112.69
624.812	104.69
625.019	108.69
625.226	94.69
625.433	98.69
625.639	103.69
625.846	93.69
626.053	108.69
626.259	92.69
626.466	101.69
626.673	80.69
626.879	89.69
627.086	94.69
627.293	95.69
627.499	101.69
627.706	98.69
627.912	93.69
628.119	97.69
628.325	98.69
628.532	90.69
628.738	91.69
628.945	93.69
629.151	85.69
629.357	81.69
629.564	89.69
629.77	95.69
629.976	89.69
630.183	79.69
630.389	77.69
630.595	92.69
630.802	75.69
631.008	77.69
631.214	75.69
631.42	78.69
631.627	78.69
631.833	78.69
632.039	70.69
632.245	73.69
632.451	84.69
632.657	90.69
632.863	108.69
633.069	98.69
633.275	90.69
633.481	90.69
633.688	89.69
633.893	73.69
634.099	74.69
634.305	94.69
634.511	85.69
634.717	87.69
634.923	92.69
635.129	81.69
635.335	77.69
635.541	93.69
635.747	92.69
635.952	92.69
636.158	79.69
636.364	95.69
636.57	74.69
636.775	86.69
636.981	96.69
637.187	86.69
637.392	76.69
637.598	85.69
637.804	101.69
638.009	84.69
638.215	89.69
638.421	86.69
638.626	84.69
638.832	83.69
639.037	85.69
639.243	80.69
639.448	93.69
639.654	85.69
639.859	84.69
640.065	97.69
640.27	77.69
640.475	77.69
640.681	95.69
640.886	101.69
641.091	82.69
641.297	103.69
641.502	98.69
641.707	90.69
641.913	91.69
642.118	89.69
642.323	84.69
642.528	86.69
642.733	101.69
642.939	86.69
643.144	89.69
643.349	83.69
643.554	99.69
643.759	84.69
643.964	85.69
644.169	98.69
644.374	82.69
644.579	91.69
644.784	94.69
644.989	85.69
645.194	91.69
645.399	93.69
645.604	93.69
645.809	90.69
646.014	84.69
646.219	93.69
646.423	91.69
646.628	75.69
646.833	83.69
647.038	92.69
647.243	95.69
647.447	91.69
647.652	96.69
647.857	77.69
648.062	78.69
648.266	73.69
648.471	92.69
648.676	83.69
648.88	91.69
649.085	84.69
649.289	85.69
649.494	106.69
649.698	96.69
649.903	85.69
650.107	89.69
650.312	85.69
650.516	91.69
650.721	84.69
650.925	91.69
651.13	83.69
651.334	87.69
651.539	86.69
651.743	93.69
651.947	83.69
652.152	91.69
652.356	86.69
652.56	90.69
652.764	99.69
652.969	71.69
653.173	98.69
653.377	83.69
653.581	75.69
653.785	78.69
653.99	85.69
654.194	77.69
654.398	91.69
654.602	84.69
654.806	77.69
655.01	97.69
655.214	86.69
655.418	81.69
655.622	97.69
655.826	85.69
656.03	77.69
656.234	73.69
656.438	86.69
656.642	99.69
656.846	103.69
657.049	89.69
657.253	74.69
657.457	80.69
657.661	77.69
657.865	89.69
658.068	97.69
658.272	83.69
658.476	92.69
658.68	81.69
658.883	86.69
659.087	75.69
659.291	97.69
659.494	87.69
659.698	84.69
659.901	81.69
660.105	95.69
660.309	86.69
660.512	73.69
660.716	79.69
660.919	92.69
661.123	89.69
661.326	83.69
661.53	86.69
661.733	90.69
661.936	89.69
662.14	93.69
662.343	84.69
662.546	85.69
662.75	86.69
662.953	85.69
663.156	80.69
663.36	81.69
663.563	81.69
663.766	93.69
663.969	94.69
664.173	86.69
664.376	83.69
664.579	84.69
664.782	82.69
664.985	93.69
665.188	97.69
665.391	88.69
665.594	68.69
665.797	75.69
666	82.69
666.203	87.69
666.406	80.69
666.609	82.69
666.812	94.69
667.015	87.69
667.218	72.69
667.421	76.69
667.624	90.69
667.827	79.69
668.03	89.69
668.232	83.69
668.435	93.69
668.638	98.69
668.841	87.69
669.043	59.69
669.246	80.69
669.449	82.69
669.651	87.69
669.854	83.69
670.057	79.69
670.259	77.69
670.462	93.69
670.665	88.69
670.867	81.69
671.07	89.69
671.272	97.69
671.475	72.69
671.677	73.69
671.88	79.69
672.082	83.69
672.284	87.69
672.487	82.69
672.689	82.69
672.892	96.69
