Data from Cut_Leaves_50_2_HRD10591_00020.txt Node
Date: Wed Dec 03 14:20:11 EST 2025
User: Yrep
Spectrometer: HR+D1059
Trigger mode: 1
Integration Time (sec): 1.000000E-1
Scans to average: 1
Electric dark correction enabled: true
Nonlinearity correction enabled: false
Boxcar width: 0
XAxis mode: Wavelengths
Number of Pixels in Spectrum: 2048
>>>>>Begin Spectral Data<<<<<
223.165	-9.31
223.4	-9.31
223.635	-9.31
223.869	-8.31
224.104	-15.31
224.338	-16.31
224.573	-11.31
224.808	-10.31
225.042	-8.31
225.277	-4.31
225.511	-0.31
225.746	-1.31
225.98	-5.31
226.215	16.69
226.449	7.69
226.683	14.69
226.918	21.69
227.152	29.69
227.387	24.69
227.621	42.69
227.856	45.69
228.09	43.69
228.324	39.69
228.559	40.69
228.793	58.69
229.027	46.69
229.262	58.69
229.496	68.69
229.73	74.69
229.964	51.69
230.199	74.69
230.433	69.69
230.667	75.69
230.901	83.69
231.136	86.69
231.37	78.69
231.604	94.69
231.838	69.69
232.072	73.69
232.306	90.69
232.541	82.69
232.775	82.69
233.009	80.69
233.243	72.69
233.477	78.69
233.711	78.69
233.945	62.69
234.179	77.69
234.413	83.69
234.647	66.69
234.881	80.69
235.115	82.69
235.349	67.69
235.583	72.69
235.817	90.69
236.051	63.69
236.285	77.69
236.519	72.69
236.753	75.69
236.987	73.69
237.221	77.69
237.455	71.69
237.689	59.69
237.922	71.69
238.156	72.69
238.39	72.69
238.624	72.69
238.858	78.69
239.091	74.69
239.325	58.69
239.559	63.69
239.793	63.69
240.027	66.69
240.26	73.69
240.494	69.69
240.728	79.69
240.961	78.69
241.195	74.69
241.429	78.69
241.662	75.69
241.896	74.69
242.13	67.69
242.363	79.69
242.597	65.69
242.83	62.69
243.064	78.69
243.298	67.69
243.531	58.69
243.765	73.69
243.998	60.69
244.232	77.69
244.465	67.69
244.699	74.69
244.932	72.69
245.166	76.69
245.399	88.69
245.633	59.69
245.866	83.69
246.099	63.69
246.333	76.69
246.566	74.69
246.8	72.69
247.033	62.69
247.266	77.69
247.5	77.69
247.733	91.69
247.966	70.69
248.2	75.69
248.433	76.69
248.666	83.69
248.899	72.69
249.133	93.69
249.366	90.69
249.599	64.69
249.832	90.69
250.066	87.69
250.299	72.69
250.532	73.69
250.765	97.69
250.998	74.69
251.231	72.69
251.465	75.69
251.698	59.69
251.931	71.69
252.164	70.69
252.397	77.69
252.63	68.69
252.863	71.69
253.096	71.69
253.329	66.69
253.562	76.69
253.795	64.69
254.028	82.69
254.261	69.69
254.494	77.69
254.727	79.69
254.96	82.69
255.193	81.69
255.426	85.69
255.659	82.69
255.892	88.69
256.124	79.69
256.357	70.69
256.59	71.69
256.823	82.69
257.056	78.69
257.289	68.69
257.521	79.69
257.754	80.69
257.987	88.69
258.22	79.69
258.452	79.69
258.685	73.69
258.918	69.69
259.151	69.69
259.383	69.69
259.616	63.69
259.849	71.69
260.081	84.69
260.314	68.69
260.547	74.69
260.779	68.69
261.012	84.69
261.244	93.69
261.477	84.69
261.71	74.69
261.942	94.69
262.175	91.69
262.407	76.69
262.64	65.69
262.872	76.69
263.105	70.69
263.337	74.69
263.57	67.69
263.802	88.69
264.035	82.69
264.267	80.69
264.499	82.69
264.732	88.69
264.964	79.69
265.197	63.69
265.429	83.69
265.661	78.69
265.894	69.69
266.126	80.69
266.358	68.69
266.591	67.69
266.823	78.69
267.055	84.69
267.287	98.69
267.52	69.69
267.752	82.69
267.984	77.69
268.216	81.69
268.448	72.69
268.681	66.69
268.913	88.69
269.145	82.69
269.377	78.69
269.609	92.69
269.841	79.69
270.073	74.69
270.306	88.69
270.538	68.69
270.77	83.69
271.002	75.69
271.234	72.69
271.466	81.69
271.698	83.69
271.93	82.69
272.162	92.69
272.394	87.69
272.626	84.69
272.858	73.69
273.09	79.69
273.322	84.69
273.553	78.69
273.785	76.69
274.017	75.69
274.249	66.69
274.481	72.69
274.713	95.69
274.945	78.69
275.176	72.69
275.408	67.69
275.64	72.69
275.872	69.69
276.104	72.69
276.335	80.69
276.567	74.69
276.799	84.69
277.031	79.69
277.262	76.69
277.494	85.69
277.726	77.69
277.957	90.69
278.189	81.69
278.421	82.69
278.652	87.69
278.884	66.69
279.115	77.69
279.347	88.69
279.579	90.69
279.81	80.69
280.042	82.69
280.273	90.69
280.505	86.69
280.736	83.69
280.968	79.69
281.199	74.69
281.431	84.69
281.662	74.69
281.894	80.69
282.125	75.69
282.356	76.69
282.588	90.69
282.819	86.69
283.051	88.69
283.282	69.69
283.513	89.69
283.745	70.69
283.976	68.69
284.207	88.69
284.439	87.69
284.67	73.69
284.901	78.69
285.132	73.69
285.364	88.69
285.595	74.69
285.826	79.69
286.057	70.69
286.288	80.69
286.52	78.69
286.751	77.69
286.982	75.69
287.213	78.69
287.444	79.69
287.675	74.69
287.906	77.69
288.138	78.69
288.369	73.69
288.6	73.69
288.831	91.69
289.062	78.69
289.293	89.69
289.524	79.69
289.755	70.69
289.986	83.69
290.217	74.69
290.448	86.69
290.679	89.69
290.91	84.69
291.141	78.69
291.371	76.69
291.602	87.69
291.833	77.69
292.064	93.69
292.295	68.69
292.526	72.69
292.757	97.69
292.987	85.69
293.218	82.69
293.449	86.69
293.68	90.69
293.91	83.69
294.141	76.69
294.372	84.69
294.603	84.69
294.833	71.69
295.064	78.69
295.295	77.69
295.525	65.69
295.756	82.69
295.987	68.69
296.217	77.69
296.448	74.69
296.679	64.69
296.909	67.69
297.14	67.69
297.37	84.69
297.601	75.69
297.831	94.69
298.062	90.69
298.292	79.69
298.523	90.69
298.753	91.69
298.984	68.69
299.214	72.69
299.445	66.69
299.675	89.69
299.905	73.69
300.136	83.69
300.366	82.69
300.597	80.69
300.827	75.69
301.057	68.69
301.288	75.69
301.518	79.69
301.748	82.69
301.979	105.69
302.209	87.69
302.439	85.69
302.669	65.69
302.9	70.69
303.13	69.69
303.36	89.69
303.59	65.69
303.82	74.69
304.051	84.69
304.281	77.69
304.511	87.69
304.741	92.69
304.971	76.69
305.201	96.69
305.431	84.69
305.661	86.69
305.891	73.69
306.121	64.69
306.352	83.69
306.582	66.69
306.812	72.69
307.042	71.69
307.272	76.69
307.502	89.69
307.731	89.69
307.961	61.69
308.191	80.69
308.421	82.69
308.651	71.69
308.881	73.69
309.111	83.69
309.341	77.69
309.571	84.69
309.8	82.69
310.03	85.69
310.26	89.69
310.49	85.69
310.72	80.69
310.949	90.69
311.179	88.69
311.409	92.69
311.639	86.69
311.868	82.69
312.098	85.69
312.328	75.69
312.557	77.69
312.787	81.69
313.017	74.69
313.246	92.69
313.476	82.69
313.706	88.69
313.935	72.69
314.165	83.69
314.394	87.69
314.624	75.69
314.853	80.69
315.083	74.69
315.312	79.69
315.542	69.69
315.771	82.69
316.001	84.69
316.23	79.69
316.46	66.69
316.689	100.69
316.919	90.69
317.148	73.69
317.377	91.69
317.607	81.69
317.836	82.69
318.065	75.69
318.295	82.69
318.524	79.69
318.753	87.69
318.983	76.69
319.212	77.69
319.441	80.69
319.67	86.69
319.9	66.69
320.129	83.69
320.358	90.69
320.587	68.69
320.816	80.69
321.046	89.69
321.275	65.69
321.504	78.69
321.733	74.69
321.962	68.69
322.191	76.69
322.42	79.69
322.649	95.69
322.878	73.69
323.108	85.69
323.337	76.69
323.566	77.69
323.795	77.69
324.024	72.69
324.253	80.69
324.482	84.69
324.71	78.69
324.939	76.69
325.168	94.69
325.397	87.69
325.626	88.69
325.855	83.69
326.084	79.69
326.313	61.69
326.542	88.69
326.77	88.69
326.999	79.69
327.228	74.69
327.457	75.69
327.686	87.69
327.914	80.69
328.143	80.69
328.372	68.69
328.6	76.69
328.829	74.69
329.058	72.69
329.287	69.69
329.515	83.69
329.744	74.69
329.972	79.69
330.201	82.69
330.43	88.69
330.658	63.69
330.887	77.69
331.115	74.69
331.344	86.69
331.572	75.69
331.801	78.69
332.03	72.69
332.258	83.69
332.486	75.69
332.715	71.69
332.943	91.69
333.172	70.69
333.4	70.69
333.629	89.69
333.857	92.69
334.085	68.69
334.314	91.69
334.542	84.69
334.771	91.69
334.999	83.69
335.227	82.69
335.455	74.69
335.684	71.69
335.912	73.69
336.14	71.69
336.369	87.69
336.597	91.69
336.825	90.69
337.053	68.69
337.281	76.69
337.51	80.69
337.738	77.69
337.966	72.69
338.194	94.69
338.422	88.69
338.65	84.69
338.878	84.69
339.106	82.69
339.334	84.69
339.562	82.69
339.79	90.69
340.018	81.69
340.246	74.69
340.474	71.69
340.702	77.69
340.93	77.69
341.158	88.69
341.386	88.69
341.614	90.69
341.842	88.69
342.07	81.69
342.298	82.69
342.526	74.69
342.754	70.69
342.981	76.69
343.209	72.69
343.437	87.69
343.665	76.69
343.893	76.69
344.12	82.69
344.348	77.69
344.576	96.69
344.804	92.69
345.031	78.69
345.259	70.69
345.487	83.69
345.714	71.69
345.942	84.69
346.17	68.69
346.397	75.69
346.625	79.69
346.853	75.69
347.08	87.69
347.308	90.69
347.535	90.69
347.763	76.69
347.99	85.69
348.218	74.69
348.445	85.69
348.673	67.69
348.9	77.69
349.128	87.69
349.355	82.69
349.583	90.69
349.81	69.69
350.037	84.69
350.265	87.69
350.492	79.69
350.72	82.69
350.947	58.69
351.174	85.69
351.402	74.69
351.629	82.69
351.856	79.69
352.083	82.69
352.311	84.69
352.538	78.69
352.765	67.69
352.992	91.69
353.22	85.69
353.447	97.69
353.674	75.69
353.901	92.69
354.128	70.69
354.355	86.69
354.583	71.69
354.81	80.69
355.037	84.69
355.264	64.69
355.491	79.69
355.718	78.69
355.945	87.69
356.172	86.69
356.399	82.69
356.626	84.69
356.853	91.69
357.08	87.69
357.307	67.69
357.534	75.69
357.761	81.69
357.988	86.69
358.215	78.69
358.441	78.69
358.668	77.69
358.895	70.69
359.122	69.69
359.349	67.69
359.576	69.69
359.802	71.69
360.029	84.69
360.256	67.69
360.483	63.69
360.709	78.69
360.936	82.69
361.163	70.69
361.39	75.69
361.616	88.69
361.843	84.69
362.07	80.69
362.296	77.69
362.523	71.69
362.749	80.69
362.976	85.69
363.203	70.69
363.429	76.69
363.656	72.69
363.882	84.69
364.109	74.69
364.335	86.69
364.562	76.69
364.788	70.69
365.015	89.69
365.241	84.69
365.468	90.69
365.694	79.69
365.92	88.69
366.147	82.69
366.373	80.69
366.599	95.69
366.826	78.69
367.052	77.69
367.278	87.69
367.505	78.69
367.731	74.69
367.957	87.69
368.184	75.69
368.41	98.69
368.636	75.69
368.862	75.69
369.089	74.69
369.315	68.69
369.541	75.69
369.767	71.69
369.993	80.69
370.219	75.69
370.445	75.69
370.672	71.69
370.898	76.69
371.124	66.69
371.35	83.69
371.576	76.69
371.802	60.69
372.028	75.69
372.254	68.69
372.48	65.69
372.706	69.69
372.932	66.69
373.158	82.69
373.384	77.69
373.61	77.69
373.835	74.69
374.061	72.69
374.287	78.69
374.513	88.69
374.739	85.69
374.965	74.69
375.191	70.69
375.416	76.69
375.642	88.69
375.868	84.69
376.094	68.69
376.319	78.69
376.545	76.69
376.771	75.69
376.997	78.69
377.222	83.69
377.448	71.69
377.674	88.69
377.899	89.69
378.125	62.69
378.35	75.69
378.576	71.69
378.802	65.69
379.027	68.69
379.253	79.69
379.478	69.69
379.704	73.69
379.929	89.69
380.155	87.69
380.38	89.69
380.606	85.69
380.831	80.69
381.057	75.69
381.282	65.69
381.507	89.69
381.733	80.69
381.958	74.69
382.184	87.69
382.409	76.69
382.634	76.69
382.86	63.69
383.085	71.69
383.31	66.69
383.535	88.69
383.761	81.69
383.986	78.69
384.211	78.69
384.436	82.69
384.662	84.69
384.887	80.69
385.112	77.69
385.337	86.69
385.562	76.69
385.787	72.69
386.013	67.69
386.238	83.69
386.463	75.69
386.688	76.69
386.913	67.69
387.138	77.69
387.363	75.69
387.588	67.69
387.813	73.69
388.038	84.69
388.263	82.69
388.488	74.69
388.713	99.69
388.938	53.69
389.163	80.69
389.387	63.69
389.612	60.69
389.837	61.69
390.062	80.69
390.287	84.69
390.512	79.69
390.736	86.69
390.961	69.69
391.186	79.69
391.411	83.69
391.636	80.69
391.86	73.69
392.085	75.69
392.31	76.69
392.534	73.69
392.759	80.69
392.984	76.69
393.208	75.69
393.433	76.69
393.658	77.69
393.882	65.69
394.107	79.69
394.331	70.69
394.556	63.69
394.78	64.69
395.005	71.69
395.229	68.69
395.454	76.69
395.678	71.69
395.903	74.69
396.127	83.69
396.352	71.69
396.576	58.69
396.801	80.69
397.025	88.69
397.249	71.69
397.474	79.69
397.698	76.69
397.922	75.69
398.147	74.69
398.371	74.69
398.595	69.69
398.82	75.69
399.044	62.69
399.268	82.69
399.492	74.69
399.717	86.69
399.941	80.69
400.165	83.69
400.389	77.69
400.613	75.69
400.837	78.69
401.062	76.69
401.286	79.69
401.51	89.69
401.734	72.69
401.958	79.69
402.182	73.69
402.406	78.69
402.63	65.69
402.854	69.69
403.078	74.69
403.302	77.69
403.526	79.69
403.75	79.69
403.974	71.69
404.198	82.69
404.422	86.69
404.645	53.69
404.869	76.69
405.093	76.69
405.317	78.69
405.541	88.69
405.765	76.69
405.988	69.69
406.212	73.69
406.436	83.69
406.66	76.69
406.883	86.69
407.107	83.69
407.331	73.69
407.555	81.69
407.778	80.69
408.002	90.69
408.226	74.69
408.449	84.69
408.673	65.69
408.896	74.69
409.12	75.69
409.344	72.69
409.567	72.69
409.791	76.69
410.014	82.69
410.238	74.69
410.461	61.69
410.685	71.69
410.908	82.69
411.132	71.69
411.355	83.69
411.578	89.69
411.802	88.69
412.025	80.69
412.249	95.69
412.472	70.69
412.695	81.69
412.919	74.69
413.142	76.69
413.365	76.69
413.589	76.69
413.812	81.69
414.035	112.69
414.258	68.69
414.482	69.69
414.705	82.69
414.928	83.69
415.151	85.69
415.374	89.69
415.597	78.69
415.821	77.69
416.044	71.69
416.267	73.69
416.49	78.69
416.713	77.69
416.936	83.69
417.159	91.69
417.382	78.69
417.605	73.69
417.828	82.69
418.051	67.69
418.274	70.69
418.497	69.69
418.72	58.69
418.943	88.69
419.166	84.69
419.389	68.69
419.611	82.69
419.834	79.69
420.057	88.69
420.28	81.69
420.503	69.69
420.726	86.69
420.948	80.69
421.171	80.69
421.394	77.69
421.617	84.69
421.839	84.69
422.062	74.69
422.285	77.69
422.507	96.69
422.73	86.69
422.953	95.69
423.175	86.69
423.398	62.69
423.621	72.69
423.843	88.69
424.066	79.69
424.288	84.69
424.511	74.69
424.733	70.69
424.956	72.69
425.178	84.69
425.401	77.69
425.623	74.69
425.846	83.69
426.068	94.69
426.291	75.69
426.513	79.69
426.735	84.69
426.958	68.69
427.18	74.69
427.402	92.69
427.625	73.69
427.847	80.69
428.069	82.69
428.292	74.69
428.514	86.69
428.736	66.69
428.958	85.69
429.181	62.69
429.403	67.69
429.625	77.69
429.847	78.69
430.069	85.69
430.292	78.69
430.514	76.69
430.736	65.69
430.958	78.69
431.18	87.69
431.402	74.69
431.624	74.69
431.846	79.69
432.068	66.69
432.29	86.69
432.512	69.69
432.734	76.69
432.956	72.69
433.178	63.69
433.4	88.69
433.622	81.69
433.844	73.69
434.066	63.69
434.287	76.69
434.509	68.69
434.731	85.69
434.953	64.69
435.175	70.69
435.397	71.69
435.618	86.69
435.84	79.69
436.062	74.69
436.284	67.69
436.505	87.69
436.727	68.69
436.949	76.69
437.17	74.69
437.392	62.69
437.614	87.69
437.835	87.69
438.057	83.69
438.278	69.69
438.5	72.69
438.721	76.69
438.943	76.69
439.165	83.69
439.386	70.69
439.608	77.69
439.829	71.69
440.05	70.69
440.272	82.69
440.493	82.69
440.715	85.69
440.936	80.69
441.158	72.69
441.379	69.69
441.6	72.69
441.822	67.69
442.043	91.69
442.264	68.69
442.486	80.69
442.707	71.69
442.928	71.69
443.149	77.69
443.371	92.69
443.592	88.69
443.813	66.69
444.034	77.69
444.255	76.69
444.476	73.69
444.698	78.69
444.919	76.69
445.14	132.69
445.361	98.69
445.582	80.69
445.803	77.69
446.024	72.69
446.245	79.69
446.466	79.69
446.687	61.69
446.908	84.69
447.129	75.69
447.35	82.69
447.571	55.69
447.792	72.69
448.013	84.69
448.234	78.69
448.455	75.69
448.675	70.69
448.896	67.69
449.117	79.69
449.338	70.69
449.559	73.69
449.779	80.69
450	63.69
450.221	78.69
450.442	72.69
450.662	87.69
450.883	76.69
451.104	76.69
451.324	75.69
451.545	79.69
451.766	72.69
451.986	70.69
452.207	71.69
452.428	83.69
452.648	72.69
452.869	88.69
453.089	71.69
453.31	71.69
453.53	75.69
453.751	71.69
453.971	78.69
454.192	68.69
454.412	85.69
454.633	81.69
454.853	74.69
455.073	66.69
455.294	70.69
455.514	86.69
455.734	88.69
455.955	71.69
456.175	78.69
456.395	77.69
456.616	82.69
456.836	74.69
457.056	82.69
457.276	66.69
457.497	67.69
457.717	86.69
457.937	72.69
458.157	83.69
458.377	82.69
458.598	68.69
458.818	90.69
459.038	83.69
459.258	84.69
459.478	69.69
459.698	70.69
459.918	72.69
460.138	73.69
460.358	88.69
460.578	82.69
460.798	83.69
461.018	69.69
461.238	75.69
461.458	85.69
461.678	75.69
461.898	82.69
462.118	81.69
462.338	79.69
462.558	84.69
462.777	83.69
462.997	78.69
463.217	67.69
463.437	82.69
463.657	67.69
463.876	67.69
464.096	74.69
464.316	88.69
464.536	76.69
464.755	80.69
464.975	82.69
465.195	63.69
465.414	86.69
465.634	86.69
465.854	67.69
466.073	84.69
466.293	78.69
466.512	78.69
466.732	74.69
466.951	89.69
467.171	77.69
467.391	76.69
467.61	90.69
467.829	77.69
468.049	82.69
468.268	68.69
468.488	71.69
468.707	83.69
468.927	87.69
469.146	71.69
469.365	70.69
469.585	67.69
469.804	71.69
470.023	60.69
470.243	65.69
470.462	74.69
470.681	82.69
470.901	77.69
471.12	78.69
471.339	70.69
471.558	71.69
471.777	80.69
471.997	69.69
472.216	76.69
472.435	69.69
472.654	83.69
472.873	71.69
473.092	83.69
473.311	68.69
473.53	71.69
473.749	63.69
473.968	94.69
474.187	80.69
474.406	82.69
474.625	78.69
474.844	67.69
475.063	64.69
475.282	71.69
475.501	77.69
475.72	92.69
475.939	69.69
476.158	84.69
476.377	72.69
476.596	74.69
476.814	70.69
477.033	76.69
477.252	76.69
477.471	91.69
477.69	80.69
477.908	85.69
478.127	88.69
478.346	84.69
478.564	72.69
478.783	66.69
479.002	73.69
479.22	72.69
479.439	75.69
479.658	73.69
479.876	87.69
480.095	79.69
480.313	80.69
480.532	63.69
480.751	84.69
480.969	86.69
481.188	75.69
481.406	77.69
481.624	74.69
481.843	91.69
482.061	74.69
482.28	72.69
482.498	75.69
482.717	79.69
482.935	77.69
483.153	98.69
483.372	70.69
483.59	72.69
483.808	74.69
484.027	78.69
484.245	83.69
484.463	71.69
484.681	85.69
484.9	71.69
485.118	67.69
485.336	64.69
485.554	84.69
485.772	56.69
485.99	63.69
486.209	88.69
486.427	68.69
486.645	77.69
486.863	82.69
487.081	78.69
487.299	66.69
487.517	82.69
487.735	75.69
487.953	71.69
488.171	84.69
488.389	78.69
488.607	76.69
488.825	84.69
489.043	79.69
489.261	93.69
489.479	90.69
489.696	84.69
489.914	77.69
490.132	88.69
490.35	68.69
490.568	66.69
490.786	75.69
491.003	87.69
491.221	86.69
491.439	69.69
491.657	79.69
491.874	80.69
492.092	68.69
492.31	62.69
492.527	86.69
492.745	83.69
492.963	77.69
493.18	88.69
493.398	79.69
493.615	85.69
493.833	78.69
494.05	76.69
494.268	71.69
494.485	72.69
494.703	84.69
494.92	82.69
495.138	78.69
495.355	82.69
495.573	73.69
495.79	56.69
496.008	86.69
496.225	77.69
496.442	80.69
496.66	74.69
496.877	80.69
497.094	75.69
497.312	74.69
497.529	69.69
497.746	69.69
497.963	85.69
498.181	78.69
498.398	68.69
498.615	65.69
498.832	67.69
499.049	75.69
499.267	77.69
499.484	78.69
499.701	77.69
499.918	92.69
500.135	56.69
500.352	73.69
500.569	63.69
500.786	79.69
501.003	84.69
501.22	86.69
501.437	72.69
501.654	88.69
501.871	70.69
502.088	98.69
502.305	84.69
502.522	70.69
502.739	71.69
502.956	99.69
503.172	89.69
503.389	72.69
503.606	64.69
503.823	68.69
504.04	77.69
504.256	83.69
504.473	70.69
504.69	82.69
504.907	72.69
505.123	64.69
505.34	78.69
505.557	78.69
505.773	78.69
505.99	86.69
506.207	80.69
506.423	77.69
506.64	82.69
506.856	70.69
507.073	85.69
507.289	86.69
507.506	86.69
507.722	70.69
507.939	80.69
508.155	72.69
508.372	92.69
508.588	91.69
508.805	72.69
509.021	66.69
509.238	87.69
509.454	70.69
509.67	80.69
509.887	68.69
510.103	75.69
510.319	86.69
510.536	76.69
510.752	60.69
510.968	74.69
511.184	88.69
511.401	71.69
511.617	82.69
511.833	74.69
512.049	79.69
512.265	87.69
512.481	74.69
512.698	76.69
512.914	96.69
513.13	75.69
513.346	84.69
513.562	84.69
513.778	76.69
513.994	91.69
514.21	77.69
514.426	87.69
514.642	73.69
514.858	77.69
515.074	79.69
515.29	86.69
515.506	71.69
515.721	89.69
515.937	89.69
516.153	79.69
516.369	86.69
516.585	76.69
516.801	89.69
517.016	85.69
517.232	76.69
517.448	84.69
517.664	60.69
517.879	81.69
518.095	77.69
518.311	73.69
518.527	70.69
518.742	70.69
518.958	80.69
519.173	86.69
519.389	91.69
519.605	82.69
519.82	85.69
520.036	81.69
520.251	86.69
520.467	79.69
520.682	79.69
520.898	83.69
521.113	66.69
521.329	79.69
521.544	94.69
521.76	82.69
521.975	79.69
522.19	88.69
522.406	83.69
522.621	83.69
522.836	87.69
523.052	80.69
523.267	60.69
523.482	69.69
523.698	79.69
523.913	75.69
524.128	73.69
524.343	72.69
524.559	73.69
524.774	78.69
524.989	86.69
525.204	86.69
525.419	89.69
525.634	78.69
525.849	77.69
526.064	75.69
526.28	65.69
526.495	80.69
526.71	70.69
526.925	76.69
527.14	76.69
527.355	67.69
527.57	91.69
527.785	86.69
527.999	71.69
528.214	89.69
528.429	78.69
528.644	59.69
528.859	83.69
529.074	77.69
529.289	76.69
529.503	86.69
529.718	82.69
529.933	79.69
530.148	83.69
530.363	88.69
530.577	88.69
530.792	84.69
531.007	82.69
531.221	67.69
531.436	72.69
531.651	88.69
531.865	74.69
532.08	76.69
532.295	85.69
532.509	79.69
532.724	82.69
532.938	88.69
533.153	80.69
533.367	88.69
533.582	77.69
533.796	72.69
534.011	73.69
534.225	74.69
534.44	80.69
534.654	73.69
534.868	74.69
535.083	73.69
535.297	72.69
535.511	87.69
535.726	74.69
535.94	82.69
536.154	71.69
536.369	76.69
536.583	90.69
536.797	74.69
537.011	88.69
537.225	77.69
537.44	73.69
537.654	69.69
537.868	72.69
538.082	83.69
538.296	68.69
538.51	62.69
538.724	90.69
538.938	69.69
539.153	77.69
539.367	89.69
539.581	72.69
539.795	84.69
540.009	92.69
540.222	87.69
540.436	69.69
540.65	82.69
540.864	74.69
541.078	84.69
541.292	87.69
541.506	69.69
541.72	84.69
541.934	92.69
542.147	83.69
542.361	91.69
542.575	76.69
542.789	78.69
543.002	67.69
543.216	82.69
543.43	88.69
543.644	81.69
543.857	83.69
544.071	84.69
544.285	85.69
544.498	79.69
544.712	78.69
544.925	87.69
545.139	89.69
545.352	76.69
545.566	77.69
545.779	96.69
545.993	83.69
546.206	83.69
546.42	91.69
546.633	80.69
546.847	68.69
547.06	78.69
547.274	71.69
547.487	74.69
547.7	86.69
547.914	99.69
548.127	99.69
548.34	86.69
548.554	79.69
548.767	76.69
548.98	73.69
549.193	92.69
549.407	72.69
549.62	75.69
549.833	88.69
550.046	79.69
550.259	72.69
550.473	80.69
550.686	79.69
550.899	74.69
551.112	86.69
551.325	86.69
551.538	89.69
551.751	66.69
551.964	81.69
552.177	72.69
552.39	85.69
552.603	92.69
552.816	82.69
553.029	83.69
553.242	90.69
553.455	86.69
553.667	90.69
553.88	75.69
554.093	84.69
554.306	82.69
554.519	69.69
554.732	71.69
554.944	98.69
555.157	89.69
555.37	85.69
555.583	84.69
555.795	79.69
556.008	82.69
556.221	78.69
556.433	86.69
556.646	63.69
556.859	86.69
557.071	85.69
557.284	85.69
557.496	100.69
557.709	75.69
557.921	82.69
558.134	78.69
558.346	64.69
558.559	76.69
558.771	90.69
558.984	71.69
559.196	84.69
559.409	90.69
559.621	85.69
559.833	76.69
560.046	86.69
560.258	82.69
560.47	76.69
560.683	91.69
560.895	76.69
561.107	91.69
561.32	83.69
561.532	79.69
561.744	86.69
561.956	96.69
562.168	88.69
562.381	82.69
562.593	75.69
562.805	86.69
563.017	73.69
563.229	86.69
563.441	84.69
563.653	56.69
563.865	79.69
564.077	76.69
564.289	88.69
564.501	77.69
564.713	88.69
564.925	73.69
565.137	79.69
565.349	83.69
565.561	80.69
565.773	88.69
565.985	84.69
566.197	85.69
566.408	82.69
566.62	85.69
566.832	80.69
567.044	68.69
567.255	74.69
567.467	81.69
567.679	84.69
567.891	91.69
568.102	75.69
568.314	78.69
568.526	88.69
568.737	79.69
568.949	66.69
569.161	76.69
569.372	78.69
569.584	75.69
569.795	74.69
570.007	76.69
570.218	78.69
570.43	91.69
570.641	76.69
570.853	71.69
571.064	78.69
571.276	78.69
571.487	83.69
571.698	84.69
571.91	82.69
572.121	72.69
572.333	87.69
572.544	83.69
572.755	80.69
572.966	82.69
573.178	66.69
573.389	84.69
573.6	84.69
573.811	83.69
574.023	85.69
574.234	87.69
574.445	68.69
574.656	82.69
574.867	85.69
575.078	87.69
575.289	75.69
575.501	80.69
575.712	79.69
575.923	85.69
576.134	80.69
576.345	80.69
576.556	73.69
576.767	91.69
576.978	75.69
577.188	72.69
577.399	82.69
577.61	90.69
577.821	101.69
578.032	88.69
578.243	80.69
578.454	85.69
578.665	71.69
578.875	54.69
579.086	76.69
579.297	75.69
579.508	83.69
579.718	91.69
579.929	74.69
580.14	70.69
580.35	68.69
580.561	87.69
580.772	86.69
580.982	103.69
581.193	92.69
581.403	82.69
581.614	92.69
581.825	88.69
582.035	75.69
582.246	70.69
582.456	74.69
582.667	59.69
582.877	76.69
583.087	68.69
583.298	82.69
583.508	72.69
583.719	67.69
583.929	78.69
584.139	73.69
584.35	85.69
584.56	89.69
584.77	87.69
584.981	82.69
585.191	76.69
585.401	78.69
585.611	89.69
585.821	77.69
586.032	88.69
586.242	82.69
586.452	59.69
586.662	83.69
586.872	82.69
587.082	87.69
587.292	79.69
587.502	77.69
587.713	92.69
587.923	74.69
588.133	96.69
588.343	75.69
588.553	90.69
588.762	88.69
588.972	100.69
589.182	155.69
589.392	130.69
589.602	92.69
589.812	157.69
590.022	102.69
590.232	97.69
590.441	76.69
590.651	75.69
590.861	86.69
591.071	84.69
591.281	92.69
591.49	80.69
591.7	86.69
591.91	87.69
592.119	85.69
592.329	82.69
592.539	79.69
592.748	88.69
592.958	82.69
593.167	75.69
593.377	85.69
593.587	77.69
593.796	90.69
594.006	81.69
594.215	81.69
594.424	82.69
594.634	91.69
594.843	72.69
595.053	76.69
595.262	90.69
595.472	83.69
595.681	70.69
595.89	85.69
596.1	74.69
596.309	82.69
596.518	84.69
596.727	91.69
596.937	70.69
597.146	70.69
597.355	59.69
597.564	75.69
597.774	103.69
597.983	75.69
598.192	70.69
598.401	78.69
598.61	72.69
598.819	78.69
599.028	93.69
599.237	103.69
599.446	76.69
599.655	78.69
599.864	79.69
600.073	87.69
600.282	85.69
600.491	91.69
600.7	76.69
600.909	85.69
601.118	71.69
601.327	83.69
601.536	86.69
601.745	75.69
601.953	84.69
602.162	79.69
602.371	78.69
602.58	87.69
602.789	79.69
602.997	80.69
603.206	95.69
603.415	93.69
603.623	91.69
603.832	93.69
604.041	92.69
604.249	90.69
604.458	81.69
604.666	87.69
604.875	93.69
605.084	76.69
605.292	73.69
605.501	69.69
605.709	75.69
605.918	76.69
606.126	84.69
606.334	77.69
606.543	84.69
606.751	88.69
606.96	76.69
607.168	80.69
607.376	80.69
607.585	84.69
607.793	83.69
608.001	79.69
608.21	85.69
608.418	88.69
608.626	81.69
608.834	75.69
609.043	71.69
609.251	90.69
609.459	79.69
609.667	76.69
609.875	87.69
610.083	82.69
610.291	78.69
610.499	84.69
610.707	90.69
610.916	80.69
611.124	92.69
611.332	84.69
611.54	94.69
611.748	91.69
611.955	76.69
612.163	74.69
612.371	87.69
612.579	97.69
612.787	69.69
612.995	92.69
613.203	85.69
613.411	95.69
613.618	83.69
613.826	87.69
614.034	85.69
614.242	85.69
614.449	85.69
614.657	70.69
614.865	66.69
615.072	73.69
615.28	86.69
615.488	78.69
615.695	88.69
615.903	108.69
616.111	68.69
616.318	84.69
616.526	88.69
616.733	101.69
616.941	91.69
617.148	88.69
617.356	85.69
617.563	92.69
617.771	92.69
617.978	96.69
618.185	79.69
618.393	79.69
618.6	86.69
618.807	78.69
619.015	89.69
619.222	96.69
619.429	98.69
619.637	84.69
619.844	85.69
620.051	77.69
620.258	96.69
620.466	94.69
620.673	94.69
620.88	83.69
621.087	83.69
621.294	80.69
621.501	68.69
621.708	86.69
621.915	98.69
622.122	90.69
622.329	77.69
622.536	85.69
622.743	86.69
622.95	98.69
623.157	84.69
623.364	76.69
623.571	80.69
623.778	87.69
623.985	77.69
624.192	86.69
624.399	98.69
624.606	91.69
624.812	94.69
625.019	75.69
625.226	92.69
625.433	79.69
625.639	91.69
625.846	76.69
626.053	76.69
626.259	96.69
626.466	84.69
626.673	59.69
626.879	72.69
627.086	89.69
627.293	85.69
627.499	74.69
627.706	78.69
627.912	70.69
628.119	84.69
628.325	95.69
628.532	82.69
628.738	84.69
628.945	83.69
629.151	83.69
629.357	68.69
629.564	100.69
629.77	84.69
629.976	77.69
630.183	82.69
630.389	84.69
630.595	70.69
630.802	84.69
631.008	70.69
631.214	86.69
631.42	92.69
631.627	82.69
631.833	94.69
632.039	87.69
632.245	72.69
632.451	82.69
632.657	66.69
632.863	79.69
633.069	82.69
633.275	86.69
633.481	67.69
633.688	84.69
633.893	84.69
634.099	68.69
634.305	90.69
634.511	102.69
634.717	66.69
634.923	75.69
635.129	77.69
635.335	67.69
635.541	84.69
635.747	82.69
635.952	96.69
636.158	82.69
636.364	90.69
636.57	92.69
636.775	86.69
636.981	81.69
637.187	86.69
637.392	62.69
637.598	89.69
637.804	86.69
638.009	87.69
638.215	81.69
638.421	79.69
638.626	76.69
638.832	76.69
639.037	79.69
639.243	87.69
639.448	94.69
639.654	85.69
639.859	82.69
640.065	80.69
640.27	72.69
640.475	82.69
640.681	70.69
640.886	79.69
641.091	81.69
641.297	81.69
641.502	70.69
641.707	76.69
641.913	68.69
642.118	80.69
642.323	83.69
642.528	89.69
642.733	87.69
642.939	79.69
643.144	66.69
643.349	90.69
643.554	82.69
643.759	84.69
643.964	78.69
644.169	74.69
644.374	74.69
644.579	80.69
644.784	93.69
644.989	84.69
645.194	87.69
645.399	74.69
645.604	98.69
645.809	108.69
646.014	68.69
646.219	91.69
646.423	85.69
646.628	72.69
646.833	82.69
647.038	87.69
647.243	74.69
647.447	86.69
647.652	86.69
647.857	84.69
648.062	72.69
648.266	82.69
648.471	77.69
648.676	78.69
648.88	88.69
649.085	86.69
649.289	76.69
649.494	85.69
649.698	72.69
649.903	85.69
650.107	86.69
650.312	71.69
650.516	84.69
650.721	82.69
650.925	88.69
651.13	69.69
651.334	80.69
651.539	96.69
651.743	86.69
651.947	87.69
652.152	86.69
652.356	80.69
652.56	78.69
652.764	73.69
652.969	90.69
653.173	82.69
653.377	78.69
653.581	84.69
653.785	76.69
653.99	72.69
654.194	88.69
654.398	70.69
654.602	85.69
654.806	78.69
655.01	71.69
655.214	92.69
655.418	79.69
655.622	75.69
655.826	71.69
656.03	83.69
656.234	88.69
656.438	63.69
656.642	82.69
656.846	68.69
657.049	99.69
657.253	78.69
657.457	82.69
657.661	78.69
657.865	70.69
658.068	64.69
658.272	74.69
658.476	64.69
658.68	80.69
658.883	89.69
659.087	82.69
659.291	82.69
659.494	83.69
659.698	73.69
659.901	78.69
660.105	54.69
660.309	68.69
660.512	68.69
660.716	91.69
660.919	72.69
661.123	68.69
661.326	83.69
661.53	80.69
661.733	91.69
661.936	73.69
662.14	66.69
662.343	83.69
662.546	85.69
662.75	91.69
662.953	96.69
663.156	95.69
663.36	72.69
663.563	63.69
663.766	69.69
663.969	84.69
664.173	82.69
664.376	90.69
664.579	73.69
664.782	66.69
664.985	85.69
665.188	70.69
665.391	84.69
665.594	85.69
665.797	77.69
666	82.69
666.203	74.69
666.406	80.69
666.609	77.69
666.812	68.69
667.015	75.69
667.218	71.69
667.421	68.69
667.624	77.69
667.827	84.69
668.03	63.69
668.232	71.69
668.435	85.69
668.638	78.69
668.841	74.69
669.043	76.69
669.246	72.69
669.449	79.69
669.651	84.69
669.854	82.69
670.057	79.69
670.259	70.69
670.462	75.69
670.665	68.69
670.867	70.69
671.07	92.69
671.272	64.69
671.475	78.69
671.677	98.69
671.88	81.69
672.082	71.69
672.284	76.69
672.487	79.69
672.689	80.69
672.892	75.69
