Data from Propagules_25_3_HRD10591_00001.txt Node
Date: Thu Feb 19 11:03:05 EST 2026
User: Yrep
Spectrometer: HR+D1059
Trigger mode: 1
Integration Time (sec): 1.000000E-1
Scans to average: 1
Electric dark correction enabled: true
Nonlinearity correction enabled: false
Boxcar width: 0
XAxis mode: Wavelengths
Number of Pixels in Spectrum: 2048
>>>>>Begin Spectral Data<<<<<
223.165	-25.31
223.4	-25.31
223.635	-25.31
223.869	-27.31
224.104	-12.31
224.338	-16.31
224.573	-31.31
224.808	-1.31
225.042	-11.31
225.277	-12.31
225.511	-7.31
225.746	2.69
225.98	14.69
226.215	10.69
226.449	27.69
226.683	26.69
226.918	39.69
227.152	22.69
227.387	27.69
227.621	49.69
227.856	36.69
228.09	35.69
228.324	53.69
228.559	47.69
228.793	64.69
229.027	78.69
229.262	59.69
229.496	67.69
229.73	76.69
229.964	76.69
230.199	75.69
230.433	72.69
230.667	82.69
230.901	81.69
231.136	96.69
231.37	84.69
231.604	71.69
231.838	74.69
232.072	70.69
232.306	83.69
232.541	75.69
232.775	84.69
233.009	79.69
233.243	80.69
233.477	82.69
233.711	71.69
233.945	92.69
234.179	78.69
234.413	68.69
234.647	72.69
234.881	92.69
235.115	77.69
235.349	85.69
235.583	81.69
235.817	86.69
236.051	84.69
236.285	60.69
236.519	72.69
236.753	74.69
236.987	80.69
237.221	78.69
237.455	69.69
237.689	62.69
237.922	64.69
238.156	76.69
238.39	81.69
238.624	77.69
238.858	75.69
239.091	67.69
239.325	66.69
239.559	77.69
239.793	80.69
240.027	75.69
240.26	73.69
240.494	78.69
240.728	75.69
240.961	86.69
241.195	74.69
241.429	83.69
241.662	92.69
241.896	80.69
242.13	85.69
242.363	84.69
242.597	71.69
242.83	81.69
243.064	71.69
243.298	84.69
243.531	74.69
243.765	78.69
243.998	66.69
244.232	81.69
244.465	91.69
244.699	79.69
244.932	82.69
245.166	63.69
245.399	80.69
245.633	74.69
245.866	75.69
246.099	93.69
246.333	82.69
246.566	86.69
246.8	87.69
247.033	81.69
247.266	73.69
247.5	92.69
247.733	74.69
247.966	86.69
248.2	96.69
248.433	70.69
248.666	80.69
248.899	80.69
249.133	91.69
249.366	83.69
249.599	78.69
249.832	92.69
250.066	84.69
250.299	76.69
250.532	76.69
250.765	78.69
250.998	75.69
251.231	70.69
251.465	76.69
251.698	84.69
251.931	66.69
252.164	72.69
252.397	73.69
252.63	85.69
252.863	81.69
253.096	84.69
253.329	82.69
253.562	67.69
253.795	89.69
254.028	88.69
254.261	82.69
254.494	71.69
254.727	89.69
254.96	75.69
255.193	86.69
255.426	80.69
255.659	93.69
255.892	78.69
256.124	88.69
256.357	101.69
256.59	87.69
256.823	70.69
257.056	75.69
257.289	83.69
257.521	87.69
257.754	70.69
257.987	84.69
258.22	89.69
258.452	74.69
258.685	76.69
258.918	92.69
259.151	72.69
259.383	85.69
259.616	78.69
259.849	76.69
260.081	88.69
260.314	86.69
260.547	79.69
260.779	83.69
261.012	80.69
261.244	87.69
261.477	75.69
261.71	78.69
261.942	78.69
262.175	69.69
262.407	80.69
262.64	72.69
262.872	86.69
263.105	89.69
263.337	92.69
263.57	73.69
263.802	79.69
264.035	82.69
264.267	72.69
264.499	82.69
264.732	83.69
264.964	71.69
265.197	79.69
265.429	86.69
265.661	82.69
265.894	73.69
266.126	77.69
266.358	84.69
266.591	91.69
266.823	92.69
267.055	94.69
267.287	67.69
267.52	77.69
267.752	76.69
267.984	88.69
268.216	97.69
268.448	74.69
268.681	80.69
268.913	82.69
269.145	87.69
269.377	83.69
269.609	75.69
269.841	98.69
270.073	74.69
270.306	78.69
270.538	79.69
270.77	76.69
271.002	92.69
271.234	84.69
271.466	95.69
271.698	78.69
271.93	79.69
272.162	94.69
272.394	88.69
272.626	74.69
272.858	68.69
273.09	89.69
273.322	87.69
273.553	71.69
273.785	72.69
274.017	65.69
274.249	90.69
274.481	86.69
274.713	78.69
274.945	96.69
275.176	79.69
275.408	94.69
275.64	70.69
275.872	85.69
276.104	84.69
276.335	88.69
276.567	83.69
276.799	81.69
277.031	86.69
277.262	87.69
277.494	96.69
277.726	82.69
277.957	67.69
278.189	78.69
278.421	73.69
278.652	92.69
278.884	82.69
279.115	80.69
279.347	82.69
279.579	102.69
279.81	93.69
280.042	98.69
280.273	91.69
280.505	98.69
280.736	86.69
280.968	92.69
281.199	82.69
281.431	81.69
281.662	70.69
281.894	84.69
282.125	77.69
282.356	81.69
282.588	86.69
282.819	92.69
283.051	82.69
283.282	85.69
283.513	82.69
283.745	74.69
283.976	86.69
284.207	76.69
284.439	101.69
284.67	81.69
284.901	95.69
285.132	85.69
285.364	80.69
285.595	83.69
285.826	88.69
286.057	71.69
286.288	83.69
286.52	87.69
286.751	78.69
286.982	90.69
287.213	83.69
287.444	89.69
287.675	86.69
287.906	89.69
288.138	69.69
288.369	88.69
288.6	81.69
288.831	87.69
289.062	86.69
289.293	84.69
289.524	77.69
289.755	75.69
289.986	81.69
290.217	68.69
290.448	74.69
290.679	86.69
290.91	86.69
291.141	95.69
291.371	93.69
291.602	81.69
291.833	78.69
292.064	74.69
292.295	80.69
292.526	75.69
292.757	88.69
292.987	80.69
293.218	90.69
293.449	81.69
293.68	77.69
293.91	90.69
294.141	86.69
294.372	80.69
294.603	81.69
294.833	78.69
295.064	88.69
295.295	78.69
295.525	95.69
295.756	86.69
295.987	85.69
296.217	87.69
296.448	84.69
296.679	84.69
296.909	83.69
297.14	85.69
297.37	83.69
297.601	66.69
297.831	83.69
298.062	76.69
298.292	90.69
298.523	87.69
298.753	78.69
298.984	85.69
299.214	68.69
299.445	75.69
299.675	88.69
299.905	90.69
300.136	85.69
300.366	90.69
300.597	86.69
300.827	90.69
301.057	99.69
301.288	88.69
301.518	103.69
301.748	87.69
301.979	104.69
302.209	78.69
302.439	84.69
302.669	78.69
302.9	79.69
303.13	78.69
303.36	80.69
303.59	88.69
303.82	109.69
304.051	94.69
304.281	88.69
304.511	94.69
304.741	88.69
304.971	80.69
305.201	104.69
305.431	90.69
305.661	73.69
305.891	98.69
306.121	89.69
306.352	99.69
306.582	78.69
306.812	82.69
307.042	89.69
307.272	84.69
307.502	84.69
307.731	89.69
307.961	89.69
308.191	80.69
308.421	98.69
308.651	90.69
308.881	87.69
309.111	83.69
309.341	82.69
309.571	80.69
309.8	89.69
310.03	74.69
310.26	87.69
310.49	81.69
310.72	95.69
310.949	79.69
311.179	83.69
311.409	86.69
311.639	75.69
311.868	94.69
312.098	98.69
312.328	91.69
312.557	86.69
312.787	84.69
313.017	73.69
313.246	96.69
313.476	96.69
313.706	80.69
313.935	83.69
314.165	86.69
314.394	91.69
314.624	92.69
314.853	81.69
315.083	94.69
315.312	84.69
315.542	84.69
315.771	89.69
316.001	82.69
316.23	85.69
316.46	72.69
316.689	80.69
316.919	88.69
317.148	76.69
317.377	90.69
317.607	101.69
317.836	90.69
318.065	89.69
318.295	96.69
318.524	96.69
318.753	84.69
318.983	78.69
319.212	85.69
319.441	90.69
319.67	80.69
319.9	78.69
320.129	69.69
320.358	90.69
320.587	94.69
320.816	77.69
321.046	86.69
321.275	85.69
321.504	91.69
321.733	78.69
321.962	78.69
322.191	93.69
322.42	98.69
322.649	94.69
322.878	90.69
323.108	79.69
323.337	86.69
323.566	74.69
323.795	86.69
324.024	95.69
324.253	91.69
324.482	88.69
324.71	98.69
324.939	89.69
325.168	85.69
325.397	84.69
325.626	71.69
325.855	78.69
326.084	98.69
326.313	88.69
326.542	83.69
326.77	90.69
326.999	81.69
327.228	82.69
327.457	95.69
327.686	98.69
327.914	92.69
328.143	84.69
328.372	86.69
328.6	70.69
328.829	85.69
329.058	80.69
329.287	92.69
329.515	88.69
329.744	94.69
329.972	72.69
330.201	109.69
330.43	100.69
330.658	86.69
330.887	80.69
331.115	92.69
331.344	95.69
331.572	85.69
331.801	84.69
332.03	93.69
332.258	77.69
332.486	79.69
332.715	80.69
332.943	81.69
333.172	80.69
333.4	81.69
333.629	94.69
333.857	86.69
334.085	101.69
334.314	90.69
334.542	92.69
334.771	86.69
334.999	68.69
335.227	77.69
335.455	95.69
335.684	92.69
335.912	94.69
336.14	83.69
336.369	72.69
336.597	86.69
336.825	67.69
337.053	91.69
337.281	75.69
337.51	85.69
337.738	87.69
337.966	86.69
338.194	81.69
338.422	83.69
338.65	102.69
338.878	79.69
339.106	79.69
339.334	87.69
339.562	85.69
339.79	75.69
340.018	75.69
340.246	96.69
340.474	102.69
340.702	74.69
340.93	76.69
341.158	80.69
341.386	74.69
341.614	81.69
341.842	96.69
342.07	92.69
342.298	105.69
342.526	96.69
342.754	98.69
342.981	97.69
343.209	87.69
343.437	108.69
343.665	96.69
343.893	86.69
344.12	98.69
344.348	93.69
344.576	89.69
344.804	84.69
345.031	89.69
345.259	90.69
345.487	84.69
345.714	79.69
345.942	74.69
346.17	78.69
346.397	89.69
346.625	92.69
346.853	80.69
347.08	82.69
347.308	92.69
347.535	87.69
347.763	74.69
347.99	69.69
348.218	74.69
348.445	88.69
348.673	89.69
348.9	86.69
349.128	85.69
349.355	80.69
349.583	95.69
349.81	78.69
350.037	92.69
350.265	85.69
350.492	86.69
350.72	100.69
350.947	80.69
351.174	83.69
351.402	96.69
351.629	71.69
351.856	86.69
352.083	84.69
352.311	92.69
352.538	82.69
352.765	91.69
352.992	94.69
353.22	83.69
353.447	88.69
353.674	100.69
353.901	85.69
354.128	92.69
354.355	78.69
354.583	96.69
354.81	98.69
355.037	88.69
355.264	94.69
355.491	94.69
355.718	89.69
355.945	87.69
356.172	80.69
356.399	91.69
356.626	98.69
356.853	88.69
357.08	79.69
357.307	77.69
357.534	84.69
357.761	83.69
357.988	95.69
358.215	82.69
358.441	75.69
358.668	94.69
358.895	78.69
359.122	86.69
359.349	84.69
359.576	75.69
359.802	88.69
360.029	87.69
360.256	102.69
360.483	96.69
360.709	96.69
360.936	88.69
361.163	78.69
361.39	76.69
361.616	86.69
361.843	84.69
362.07	83.69
362.296	80.69
362.523	82.69
362.749	84.69
362.976	84.69
363.203	94.69
363.429	85.69
363.656	101.69
363.882	84.69
364.109	83.69
364.335	78.69
364.562	86.69
364.788	92.69
365.015	86.69
365.241	86.69
365.468	74.69
365.694	72.69
365.92	81.69
366.147	86.69
366.373	87.69
366.599	91.69
366.826	89.69
367.052	80.69
367.278	94.69
367.505	80.69
367.731	86.69
367.957	81.69
368.184	89.69
368.41	84.69
368.636	78.69
368.862	101.69
369.089	85.69
369.315	92.69
369.541	84.69
369.767	86.69
369.993	76.69
370.219	80.69
370.445	78.69
370.672	89.69
370.898	76.69
371.124	75.69
371.35	84.69
371.576	82.69
371.802	80.69
372.028	91.69
372.254	80.69
372.48	75.69
372.706	84.69
372.932	78.69
373.158	93.69
373.384	98.69
373.61	85.69
373.835	88.69
374.061	83.69
374.287	82.69
374.513	71.69
374.739	83.69
374.965	84.69
375.191	81.69
375.416	75.69
375.642	78.69
375.868	82.69
376.094	80.69
376.319	80.69
376.545	82.69
376.771	90.69
376.997	88.69
377.222	92.69
377.448	84.69
377.674	82.69
377.899	102.69
378.125	87.69
378.35	92.69
378.576	97.69
378.802	81.69
379.027	76.69
379.253	94.69
379.478	88.69
379.704	80.69
379.929	87.69
380.155	98.69
380.38	93.69
380.606	80.69
380.831	95.69
381.057	89.69
381.282	92.69
381.507	96.69
381.733	94.69
381.958	95.69
382.184	98.69
382.409	79.69
382.634	68.69
382.86	92.69
383.085	74.69
383.31	92.69
383.535	97.69
383.761	87.69
383.986	94.69
384.211	86.69
384.436	96.69
384.662	73.69
384.887	87.69
385.112	86.69
385.337	85.69
385.562	88.69
385.787	82.69
386.013	92.69
386.238	94.69
386.463	89.69
386.688	102.69
386.913	92.69
387.138	88.69
387.363	89.69
387.588	89.69
387.813	74.69
388.038	93.69
388.263	104.69
388.488	77.69
388.713	91.69
388.938	79.69
389.163	85.69
389.387	81.69
389.612	79.69
389.837	95.69
390.062	91.69
390.287	97.69
390.512	72.69
390.736	79.69
390.961	77.69
391.186	90.69
391.411	88.69
391.636	78.69
391.86	87.69
392.085	86.69
392.31	69.69
392.534	94.69
392.759	75.69
392.984	92.69
393.208	109.69
393.433	109.69
393.658	97.69
393.882	89.69
394.107	87.69
394.331	79.69
394.556	91.69
394.78	92.69
395.005	70.69
395.229	72.69
395.454	91.69
395.678	85.69
395.903	88.69
396.127	89.69
396.352	87.69
396.576	89.69
396.801	98.69
397.025	98.69
397.249	72.69
397.474	87.69
397.698	84.69
397.922	86.69
398.147	95.69
398.371	80.69
398.595	101.69
398.82	87.69
399.044	74.69
399.268	81.69
399.492	83.69
399.717	74.69
399.941	78.69
400.165	94.69
400.389	80.69
400.613	81.69
400.837	78.69
401.062	89.69
401.286	77.69
401.51	72.69
401.734	74.69
401.958	82.69
402.182	86.69
402.406	82.69
402.63	77.69
402.854	86.69
403.078	84.69
403.302	100.69
403.526	80.69
403.75	88.69
403.974	94.69
404.198	115.69
404.422	126.69
404.645	131.69
404.869	110.69
405.093	92.69
405.317	92.69
405.541	94.69
405.765	91.69
405.988	84.69
406.212	79.69
406.436	79.69
406.66	80.69
406.883	83.69
407.107	92.69
407.331	84.69
407.555	74.69
407.778	85.69
408.002	89.69
408.226	94.69
408.449	82.69
408.673	86.69
408.896	75.69
409.12	88.69
409.344	88.69
409.567	86.69
409.791	81.69
410.014	82.69
410.238	75.69
410.461	92.69
410.685	84.69
410.908	76.69
411.132	108.69
411.355	93.69
411.578	86.69
411.802	79.69
412.025	83.69
412.249	78.69
412.472	88.69
412.695	81.69
412.919	76.69
413.142	82.69
413.365	88.69
413.589	76.69
413.812	77.69
414.035	100.69
414.258	75.69
414.482	81.69
414.705	78.69
414.928	74.69
415.151	77.69
415.374	72.69
415.597	79.69
415.821	78.69
416.044	87.69
416.267	78.69
416.49	70.69
416.713	93.69
416.936	75.69
417.159	77.69
417.382	87.69
417.605	86.69
417.828	86.69
418.051	87.69
418.274	81.69
418.497	92.69
418.72	84.69
418.943	92.69
419.166	84.69
419.389	78.69
419.611	78.69
419.834	83.69
420.057	90.69
420.28	84.69
420.503	91.69
420.726	82.69
420.948	78.69
421.171	91.69
421.394	85.69
421.617	81.69
421.839	98.69
422.062	85.69
422.285	99.69
422.507	112.69
422.73	123.69
422.953	111.69
423.175	94.69
423.398	86.69
423.621	76.69
423.843	90.69
424.066	78.69
424.288	77.69
424.511	85.69
424.733	80.69
424.956	83.69
425.178	101.69
425.401	80.69
425.623	98.69
425.846	76.69
426.068	94.69
426.291	79.69
426.513	86.69
426.735	81.69
426.958	89.69
427.18	104.69
427.402	82.69
427.625	84.69
427.847	86.69
428.069	79.69
428.292	74.69
428.514	76.69
428.736	92.69
428.958	77.69
429.181	86.69
429.403	85.69
429.625	83.69
429.847	98.69
430.069	92.69
430.292	82.69
430.514	100.69
430.736	82.69
430.958	84.69
431.18	87.69
431.402	87.69
431.624	94.69
431.846	78.69
432.068	80.69
432.29	95.69
432.512	87.69
432.734	75.69
432.956	86.69
433.178	76.69
433.4	100.69
433.622	83.69
433.844	84.69
434.066	79.69
434.287	90.69
434.509	92.69
434.731	76.69
434.953	87.69
435.175	84.69
435.397	80.69
435.618	83.69
435.84	80.69
436.062	84.69
436.284	93.69
436.505	88.69
436.727	84.69
436.949	93.69
437.17	79.69
437.392	78.69
437.614	83.69
437.835	78.69
438.057	102.69
438.278	85.69
438.5	70.69
438.721	82.69
438.943	89.69
439.165	72.69
439.386	80.69
439.608	86.69
439.829	90.69
440.05	99.69
440.272	77.69
440.493	86.69
440.715	80.69
440.936	99.69
441.158	84.69
441.379	87.69
441.6	82.69
441.822	78.69
442.043	82.69
442.264	72.69
442.486	88.69
442.707	88.69
442.928	87.69
443.149	79.69
443.371	86.69
443.592	92.69
443.813	82.69
444.034	89.69
444.255	88.69
444.476	86.69
444.698	81.69
444.919	69.69
445.14	130.69
445.361	114.69
445.582	94.69
445.803	91.69
446.024	92.69
446.245	90.69
446.466	85.69
446.687	80.69
446.908	75.69
447.129	66.69
447.35	75.69
447.571	85.69
447.792	78.69
448.013	73.69
448.234	74.69
448.455	75.69
448.675	85.69
448.896	78.69
449.117	84.69
449.338	74.69
449.559	87.69
449.779	84.69
450	87.69
450.221	82.69
450.442	88.69
450.662	91.69
450.883	83.69
451.104	86.69
451.324	77.69
451.545	79.69
451.766	73.69
451.986	78.69
452.207	80.69
452.428	79.69
452.648	85.69
452.869	90.69
453.089	82.69
453.31	64.69
453.53	65.69
453.751	86.69
453.971	66.69
454.192	87.69
454.412	91.69
454.633	68.69
454.853	97.69
455.073	78.69
455.294	78.69
455.514	78.69
455.734	70.69
455.955	74.69
456.175	69.69
456.395	95.69
456.616	85.69
456.836	111.69
457.056	94.69
457.276	84.69
457.497	80.69
457.717	76.69
457.937	94.69
458.157	99.69
458.377	78.69
458.598	74.69
458.818	86.69
459.038	90.69
459.258	78.69
459.478	80.69
459.698	91.69
459.918	85.69
460.138	78.69
460.358	77.69
460.578	95.69
460.798	88.69
461.018	73.69
461.238	76.69
461.458	71.69
461.678	87.69
461.898	83.69
462.118	69.69
462.338	78.69
462.558	94.69
462.777	79.69
462.997	83.69
463.217	86.69
463.437	78.69
463.657	74.69
463.876	92.69
464.096	78.69
464.316	84.69
464.536	95.69
464.755	95.69
464.975	84.69
465.195	86.69
465.414	89.69
465.634	76.69
465.854	90.69
466.073	86.69
466.293	84.69
466.512	79.69
466.732	77.69
466.951	80.69
467.171	80.69
467.391	94.69
467.61	82.69
467.829	80.69
468.049	77.69
468.268	86.69
468.488	91.69
468.707	78.69
468.927	87.69
469.146	91.69
469.365	74.69
469.585	94.69
469.804	86.69
470.023	76.69
470.243	78.69
470.462	83.69
470.681	87.69
470.901	80.69
471.12	82.69
471.339	98.69
471.558	82.69
471.777	84.69
471.997	73.69
472.216	86.69
472.435	90.69
472.654	80.69
472.873	70.69
473.092	88.69
473.311	82.69
473.53	81.69
473.749	86.69
473.968	76.69
474.187	79.69
474.406	82.69
474.625	86.69
474.844	83.69
475.063	86.69
475.282	82.69
475.501	78.69
475.72	91.69
475.939	67.69
476.158	78.69
476.377	92.69
476.596	78.69
476.814	78.69
477.033	82.69
477.252	83.69
477.471	69.69
477.69	80.69
477.908	78.69
478.127	87.69
478.346	89.69
478.564	78.69
478.783	78.69
479.002	85.69
479.22	96.69
479.439	74.69
479.658	71.69
479.876	86.69
480.095	88.69
480.313	88.69
480.532	81.69
480.751	85.69
480.969	88.69
481.188	84.69
481.406	103.69
481.624	83.69
481.843	86.69
482.061	85.69
482.28	78.69
482.498	96.69
482.717	88.69
482.935	99.69
483.153	81.69
483.372	90.69
483.59	87.69
483.808	74.69
484.027	88.69
484.245	93.69
484.463	78.69
484.681	87.69
484.9	85.69
485.118	89.69
485.336	85.69
485.554	103.69
485.772	78.69
485.99	88.69
486.209	75.69
486.427	82.69
486.645	72.69
486.863	84.69
487.081	98.69
487.299	88.69
487.517	82.69
487.735	80.69
487.953	76.69
488.171	86.69
488.389	86.69
488.607	84.69
488.825	99.69
489.043	81.69
489.261	75.69
489.479	78.69
489.696	90.69
489.914	69.69
490.132	86.69
490.35	86.69
490.568	87.69
490.786	80.69
491.003	91.69
491.221	92.69
491.439	75.69
491.657	88.69
491.874	88.69
492.092	76.69
492.31	77.69
492.527	84.69
492.745	71.69
492.963	91.69
493.18	93.69
493.398	95.69
493.615	74.69
493.833	82.69
494.05	87.69
494.268	84.69
494.485	91.69
494.703	86.69
494.92	88.69
495.138	92.69
495.355	79.69
495.573	94.69
495.79	94.69
496.008	93.69
496.225	86.69
496.442	90.69
496.66	90.69
496.877	78.69
497.094	94.69
497.312	94.69
497.529	85.69
497.746	77.69
497.963	85.69
498.181	93.69
498.398	99.69
498.615	83.69
498.832	78.69
499.049	74.69
499.267	83.69
499.484	88.69
499.701	80.69
499.918	77.69
500.135	94.69
500.352	95.69
500.569	101.69
500.786	79.69
501.003	80.69
501.22	81.69
501.437	86.69
501.654	78.69
501.871	95.69
502.088	84.69
502.305	88.69
502.522	77.69
502.739	94.69
502.956	91.69
503.172	89.69
503.389	77.69
503.606	82.69
503.823	84.69
504.04	84.69
504.256	86.69
504.473	78.69
504.69	81.69
504.907	90.69
505.123	93.69
505.34	75.69
505.557	96.69
505.773	95.69
505.99	79.69
506.207	68.69
506.423	85.69
506.64	78.69
506.856	84.69
507.073	84.69
507.289	97.69
507.506	81.69
507.722	77.69
507.939	87.69
508.155	84.69
508.372	87.69
508.588	85.69
508.805	90.69
509.021	84.69
509.238	64.69
509.454	81.69
509.67	75.69
509.887	81.69
510.103	97.69
510.319	88.69
510.536	81.69
510.752	85.69
510.968	86.69
511.184	64.69
511.401	82.69
511.617	86.69
511.833	77.69
512.049	96.69
512.265	87.69
512.481	86.69
512.698	74.69
512.914	94.69
513.13	86.69
513.346	95.69
513.562	90.69
513.778	78.69
513.994	80.69
514.21	98.69
514.426	83.69
514.642	97.69
514.858	87.69
515.074	72.69
515.29	100.69
515.506	94.69
515.721	89.69
515.937	96.69
516.153	99.69
516.369	89.69
516.585	77.69
516.801	82.69
517.016	97.69
517.232	79.69
517.448	94.69
517.664	75.69
517.879	86.69
518.095	82.69
518.311	79.69
518.527	99.69
518.742	86.69
518.958	95.69
519.173	86.69
519.389	91.69
519.605	78.69
519.82	90.69
520.036	72.69
520.251	78.69
520.467	86.69
520.682	86.69
520.898	82.69
521.113	80.69
521.329	93.69
521.544	71.69
521.76	81.69
521.975	83.69
522.19	96.69
522.406	84.69
522.621	87.69
522.836	89.69
523.052	89.69
523.267	88.69
523.482	85.69
523.698	89.69
523.913	86.69
524.128	79.69
524.343	85.69
524.559	85.69
524.774	90.69
524.989	96.69
525.204	93.69
525.419	85.69
525.634	96.69
525.849	87.69
526.064	90.69
526.28	101.69
526.495	93.69
526.71	91.69
526.925	105.69
527.14	84.69
527.355	89.69
527.57	86.69
527.785	74.69
527.999	91.69
528.214	98.69
528.429	72.69
528.644	81.69
528.859	88.69
529.074	92.69
529.289	94.69
529.503	98.69
529.718	96.69
529.933	106.69
530.148	98.69
530.363	78.69
530.577	88.69
530.792	76.69
531.007	78.69
531.221	95.69
531.436	84.69
531.651	100.69
531.865	90.69
532.08	88.69
532.295	78.69
532.509	74.69
532.724	81.69
532.938	102.69
533.153	96.69
533.367	89.69
533.582	82.69
533.796	85.69
534.011	79.69
534.225	88.69
534.44	89.69
534.654	100.69
534.868	95.69
535.083	100.69
535.297	84.69
535.511	108.69
535.726	92.69
535.94	82.69
536.154	82.69
536.369	99.69
536.583	83.69
536.797	88.69
537.011	95.69
537.225	80.69
537.44	81.69
537.654	106.69
537.868	86.69
538.082	88.69
538.296	95.69
538.51	91.69
538.724	102.69
538.938	88.69
539.153	78.69
539.367	86.69
539.581	83.69
539.795	70.69
540.009	89.69
540.222	90.69
540.436	93.69
540.65	87.69
540.864	97.69
541.078	89.69
541.292	69.69
541.506	89.69
541.72	80.69
541.934	88.69
542.147	90.69
542.361	90.69
542.575	79.69
542.789	98.69
543.002	82.69
543.216	76.69
543.43	95.69
543.644	96.69
543.857	104.69
544.071	83.69
544.285	92.69
544.498	94.69
544.712	87.69
544.925	80.69
545.139	98.69
545.352	88.69
545.566	64.69
545.779	76.69
545.993	82.69
546.206	87.69
546.42	92.69
546.633	94.69
546.847	96.69
547.06	92.69
547.274	77.69
547.487	94.69
547.7	76.69
547.914	87.69
548.127	88.69
548.34	86.69
548.554	87.69
548.767	83.69
548.98	90.69
549.193	86.69
549.407	88.69
549.62	83.69
549.833	83.69
550.046	84.69
550.259	82.69
550.473	76.69
550.686	79.69
550.899	92.69
551.112	88.69
551.325	93.69
551.538	96.69
551.751	102.69
551.964	106.69
552.177	94.69
552.39	85.69
552.603	98.69
552.816	88.69
553.029	89.69
553.242	88.69
553.455	86.69
553.667	81.69
553.88	85.69
554.093	84.69
554.306	82.69
554.519	94.69
554.732	74.69
554.944	88.69
555.157	90.69
555.37	91.69
555.583	85.69
555.795	94.69
556.008	91.69
556.221	92.69
556.433	80.69
556.646	91.69
556.859	94.69
557.071	94.69
557.284	94.69
557.496	74.69
557.709	80.69
557.921	90.69
558.134	94.69
558.346	95.69
558.559	95.69
558.771	78.69
558.984	90.69
559.196	92.69
559.409	87.69
559.621	86.69
559.833	89.69
560.046	91.69
560.258	92.69
560.47	78.69
560.683	80.69
560.895	93.69
561.107	81.69
561.32	86.69
561.532	78.69
561.744	86.69
561.956	86.69
562.168	90.69
562.381	91.69
562.593	83.69
562.805	84.69
563.017	72.69
563.229	80.69
563.441	95.69
563.653	86.69
563.865	74.69
564.077	84.69
564.289	86.69
564.501	85.69
564.713	97.69
564.925	82.69
565.137	82.69
565.349	90.69
565.561	98.69
565.773	105.69
565.985	98.69
566.197	89.69
566.408	79.69
566.62	101.69
566.832	94.69
567.044	82.69
567.255	90.69
567.467	78.69
567.679	86.69
567.891	78.69
568.102	72.69
568.314	86.69
568.526	94.69
568.737	99.69
568.949	96.69
569.161	101.69
569.372	92.69
569.584	93.69
569.795	91.69
570.007	77.69
570.218	101.69
570.43	88.69
570.641	99.69
570.853	82.69
571.064	92.69
571.276	68.69
571.487	72.69
571.698	80.69
571.91	92.69
572.121	82.69
572.333	88.69
572.544	86.69
572.755	90.69
572.966	80.69
573.178	78.69
573.389	97.69
573.6	98.69
573.811	81.69
574.023	89.69
574.234	74.69
574.445	92.69
574.656	77.69
574.867	90.69
575.078	86.69
575.289	85.69
575.501	77.69
575.712	98.69
575.923	92.69
576.134	85.69
576.345	79.69
576.556	91.69
576.767	94.69
576.978	80.69
577.188	98.69
577.399	84.69
577.61	89.69
577.821	102.69
578.032	81.69
578.243	100.69
578.454	96.69
578.665	114.69
578.875	93.69
579.086	92.69
579.297	86.69
579.508	81.69
579.718	96.69
579.929	100.69
580.14	86.69
580.35	104.69
580.561	102.69
580.772	92.69
580.982	95.69
581.193	92.69
581.403	97.69
581.614	85.69
581.825	87.69
582.035	96.69
582.246	88.69
582.456	84.69
582.667	88.69
582.877	107.69
583.087	86.69
583.298	90.69
583.508	90.69
583.719	88.69
583.929	89.69
584.139	72.69
584.35	83.69
584.56	93.69
584.77	90.69
584.981	73.69
585.191	84.69
585.401	95.69
585.611	100.69
585.821	94.69
586.032	106.69
586.242	78.69
586.452	83.69
586.662	98.69
586.872	80.69
587.082	88.69
587.292	88.69
587.502	104.69
587.713	94.69
587.923	104.69
588.133	110.69
588.343	110.69
588.553	123.69
588.762	150.69
588.972	266.69
589.182	460.69
589.392	363.69
589.602	307.69
589.812	416.69
590.022	260.69
590.232	156.69
590.441	129.69
590.651	108.69
590.861	110.69
591.071	92.69
591.281	92.69
591.49	101.69
591.7	92.69
591.91	102.69
592.119	94.69
592.329	88.69
592.539	92.69
592.748	90.69
592.958	104.69
593.167	92.69
593.377	85.69
593.587	88.69
593.796	77.69
594.006	91.69
594.215	102.69
594.424	86.69
594.634	84.69
594.843	88.69
595.053	76.69
595.262	86.69
595.472	87.69
595.681	84.69
595.89	83.69
596.1	89.69
596.309	74.69
596.518	88.69
596.727	78.69
596.937	82.69
597.146	79.69
597.355	82.69
597.564	99.69
597.774	82.69
597.983	83.69
598.192	77.69
598.401	86.69
598.61	76.69
598.819	86.69
599.028	104.69
599.237	84.69
599.446	89.69
599.655	78.69
599.864	94.69
600.073	77.69
600.282	86.69
600.491	85.69
600.7	83.69
600.909	90.69
601.118	79.69
601.327	82.69
601.536	82.69
601.745	78.69
601.953	80.69
602.162	89.69
602.371	71.69
602.58	90.69
602.789	76.69
602.997	92.69
603.206	91.69
603.415	77.69
603.623	81.69
603.832	88.69
604.041	92.69
604.249	82.69
604.458	82.69
604.666	82.69
604.875	96.69
605.084	90.69
605.292	90.69
605.501	100.69
605.709	97.69
605.918	87.69
606.126	91.69
606.334	102.69
606.543	89.69
606.751	83.69
606.96	94.69
607.168	80.69
607.376	99.69
607.585	94.69
607.793	90.69
608.001	75.69
608.21	87.69
608.418	86.69
608.626	80.69
608.834	84.69
609.043	90.69
609.251	97.69
609.459	92.69
609.667	84.69
609.875	94.69
610.083	90.69
610.291	91.69
610.499	89.69
610.707	80.69
610.916	102.69
611.124	102.69
611.332	83.69
611.54	84.69
611.748	70.69
611.955	90.69
612.163	91.69
612.371	92.69
612.579	82.69
612.787	79.69
612.995	82.69
613.203	76.69
613.411	89.69
613.618	89.69
613.826	98.69
614.034	83.69
614.242	98.69
614.449	79.69
614.657	90.69
614.865	86.69
615.072	87.69
615.28	80.69
615.488	100.69
615.695	94.69
615.903	90.69
616.111	81.69
616.318	101.69
616.526	97.69
616.733	78.69
616.941	83.69
617.148	83.69
617.356	99.69
617.563	80.69
617.771	78.69
617.978	91.69
618.185	90.69
618.393	96.69
618.6	94.69
618.807	83.69
619.015	84.69
619.222	89.69
619.429	100.69
619.637	76.69
619.844	92.69
620.051	82.69
620.258	80.69
620.466	77.69
620.673	94.69
620.88	76.69
621.087	87.69
621.294	72.69
621.501	86.69
621.708	85.69
621.915	98.69
622.122	98.69
622.329	105.69
622.536	91.69
622.743	94.69
622.95	85.69
623.157	90.69
623.364	78.69
623.571	100.69
623.778	112.69
623.985	96.69
624.192	101.69
624.399	98.69
624.606	96.69
624.812	78.69
625.019	85.69
625.226	102.69
625.433	85.69
625.639	86.69
625.846	93.69
626.053	80.69
626.259	77.69
626.466	87.69
626.673	87.69
626.879	82.69
627.086	88.69
627.293	88.69
627.499	85.69
627.706	95.69
627.912	92.69
628.119	76.69
628.325	80.69
628.532	82.69
628.738	98.69
628.945	74.69
629.151	77.69
629.357	76.69
629.564	86.69
629.77	90.69
629.976	87.69
630.183	83.69
630.389	77.69
630.595	79.69
630.802	91.69
631.008	83.69
631.214	81.69
631.42	91.69
631.627	92.69
631.833	78.69
632.039	80.69
632.245	80.69
632.451	99.69
632.657	84.69
632.863	92.69
633.069	75.69
633.275	96.69
633.481	68.69
633.688	79.69
633.893	94.69
634.099	88.69
634.305	87.69
634.511	78.69
634.717	89.69
634.923	89.69
635.129	85.69
635.335	88.69
635.541	86.69
635.747	116.69
635.952	99.69
636.158	88.69
636.364	86.69
636.57	95.69
636.775	92.69
636.981	81.69
637.187	88.69
637.392	80.69
637.598	82.69
637.804	84.69
638.009	79.69
638.215	84.69
638.421	83.69
638.626	80.69
638.832	91.69
639.037	86.69
639.243	86.69
639.448	77.69
639.654	81.69
639.859	91.69
640.065	94.69
640.27	83.69
640.475	87.69
640.681	81.69
640.886	95.69
641.091	86.69
641.297	95.69
641.502	74.69
641.707	79.69
641.913	96.69
642.118	96.69
642.323	94.69
642.528	77.69
642.733	98.69
642.939	90.69
643.144	67.69
643.349	86.69
643.554	97.69
643.759	88.69
643.964	101.69
644.169	96.69
644.374	74.69
644.579	78.69
644.784	76.69
644.989	84.69
645.194	98.69
645.399	78.69
645.604	77.69
645.809	83.69
646.014	92.69
646.219	93.69
646.423	78.69
646.628	94.69
646.833	104.69
647.038	88.69
647.243	86.69
647.447	87.69
647.652	88.69
647.857	84.69
648.062	79.69
648.266	79.69
648.471	80.69
648.676	92.69
648.88	77.69
649.085	81.69
649.289	79.69
649.494	95.69
649.698	88.69
649.903	96.69
650.107	63.69
650.312	93.69
650.516	94.69
650.721	90.69
650.925	95.69
651.13	84.69
651.334	74.69
651.539	74.69
651.743	89.69
651.947	88.69
652.152	100.69
652.356	86.69
652.56	90.69
652.764	75.69
652.969	83.69
653.173	75.69
653.377	78.69
653.581	79.69
653.785	82.69
653.99	86.69
654.194	87.69
654.398	87.69
654.602	83.69
654.806	78.69
655.01	102.69
655.214	80.69
655.418	88.69
655.622	89.69
655.826	81.69
656.03	96.69
656.234	98.69
656.438	94.69
656.642	103.69
656.846	95.69
657.049	79.69
657.253	78.69
657.457	94.69
657.661	83.69
657.865	90.69
658.068	90.69
658.272	77.69
658.476	86.69
658.68	86.69
658.883	83.69
659.087	78.69
659.291	90.69
659.494	76.69
659.698	75.69
659.901	94.69
660.105	82.69
660.309	84.69
660.512	97.69
660.716	84.69
660.919	86.69
661.123	88.69
661.326	81.69
661.53	96.69
661.733	84.69
661.936	88.69
662.14	83.69
662.343	82.69
662.546	77.69
662.75	89.69
662.953	89.69
663.156	93.69
663.36	84.69
663.563	86.69
663.766	80.69
663.969	93.69
664.173	92.69
664.376	91.69
664.579	81.69
664.782	94.69
664.985	88.69
665.188	75.69
665.391	90.69
665.594	84.69
665.797	87.69
666	80.69
666.203	79.69
666.406	84.69
666.609	87.69
666.812	87.69
667.015	78.69
667.218	75.69
667.421	79.69
667.624	88.69
667.827	81.69
668.03	89.69
668.232	80.69
668.435	76.69
668.638	72.69
668.841	90.69
669.043	73.69
669.246	78.69
669.449	82.69
669.651	76.69
669.854	104.69
670.057	82.69
670.259	90.69
670.462	82.69
670.665	77.69
670.867	86.69
671.07	73.69
671.272	87.69
671.475	81.69
671.677	82.69
671.88	83.69
672.082	79.69
672.284	71.69
672.487	88.69
672.689	87.69
672.892	69.69
