Data from Propagules_25_3_HRD10591_00018.txt Node
Date: Thu Feb 19 11:03:10 EST 2026
User: Yrep
Spectrometer: HR+D1059
Trigger mode: 1
Integration Time (sec): 1.000000E-1
Scans to average: 1
Electric dark correction enabled: true
Nonlinearity correction enabled: false
Boxcar width: 0
XAxis mode: Wavelengths
Number of Pixels in Spectrum: 2048
>>>>>Begin Spectral Data<<<<<
223.165	-16
223.4	-16
223.635	-16
223.869	-19
224.104	-26
224.338	-8
224.573	-12
224.808	-13
225.042	-15
225.277	-1
225.511	-24
225.746	8
225.98	8
226.215	12
226.449	23
226.683	25
226.918	25
227.152	33
227.387	46
227.621	37
227.856	42
228.09	61
228.324	52
228.559	58
228.793	55
229.027	62
229.262	69
229.496	68
229.73	70
229.964	74
230.199	78
230.433	57
230.667	65
230.901	77
231.136	68
231.37	82
231.604	77
231.838	74
232.072	82
232.306	74
232.541	81
232.775	82
233.009	92
233.243	70
233.477	71
233.711	80
233.945	66
234.179	87
234.413	68
234.647	77
234.881	74
235.115	83
235.349	75
235.583	78
235.817	76
236.051	73
236.285	71
236.519	63
236.753	76
236.987	65
237.221	81
237.455	84
237.689	61
237.922	83
238.156	80
238.39	67
238.624	52
238.858	78
239.091	67
239.325	58
239.559	70
239.793	63
240.027	67
240.26	75
240.494	80
240.728	70
240.961	78
241.195	79
241.429	76
241.662	73
241.896	75
242.13	70
242.363	74
242.597	72
242.83	89
243.064	87
243.298	78
243.531	71
243.765	74
243.998	82
244.232	67
244.465	76
244.699	74
244.932	79
245.166	65
245.399	70
245.633	77
245.866	80
246.099	74
246.333	78
246.566	82
246.8	70
247.033	86
247.266	78
247.5	74
247.733	76
247.966	71
248.2	82
248.433	76
248.666	72
248.899	75
249.133	88
249.366	74
249.599	72
249.832	77
250.066	80
250.299	73
250.532	77
250.765	79
250.998	80
251.231	66
251.465	81
251.698	76
251.931	78
252.164	72
252.397	74
252.63	81
252.863	73
253.096	91
253.329	82
253.562	75
253.795	74
254.028	81
254.261	74
254.494	84
254.727	86
254.96	81
255.193	79
255.426	72
255.659	69
255.892	70
256.124	76
256.357	79
256.59	88
256.823	79
257.056	79
257.289	76
257.521	76
257.754	70
257.987	75
258.22	82
258.452	73
258.685	85
258.918	78
259.151	84
259.383	83
259.616	84
259.849	81
260.081	81
260.314	72
260.547	69
260.779	87
261.012	67
261.244	84
261.477	77
261.71	92
261.942	72
262.175	90
262.407	78
262.64	69
262.872	74
263.105	81
263.337	83
263.57	79
263.802	62
264.035	70
264.267	73
264.499	86
264.732	86
264.964	78
265.197	71
265.429	88
265.661	89
265.894	74
266.126	77
266.358	73
266.591	90
266.823	75
267.055	87
267.287	83
267.52	86
267.752	83
267.984	76
268.216	83
268.448	80
268.681	76
268.913	66
269.145	73
269.377	95
269.609	82
269.841	68
270.073	79
270.306	79
270.538	79
270.77	71
271.002	84
271.234	82
271.466	79
271.698	80
271.93	88
272.162	89
272.394	80
272.626	95
272.858	79
273.09	69
273.322	62
273.553	86
273.785	70
274.017	75
274.249	70
274.481	79
274.713	84
274.945	87
275.176	70
275.408	92
275.64	91
275.872	79
276.104	76
276.335	83
276.567	81
276.799	76
277.031	86
277.262	97
277.494	76
277.726	86
277.957	82
278.189	82
278.421	83
278.652	77
278.884	91
279.115	90
279.347	76
279.579	75
279.81	98
280.042	85
280.273	76
280.505	75
280.736	78
280.968	80
281.199	84
281.431	83
281.662	72
281.894	75
282.125	86
282.356	88
282.588	79
282.819	79
283.051	80
283.282	90
283.513	82
283.745	78
283.976	74
284.207	77
284.439	94
284.67	80
284.901	70
285.132	101
285.364	77
285.595	71
285.826	73
286.057	78
286.288	81
286.52	79
286.751	76
286.982	81
287.213	94
287.444	69
287.675	82
287.906	88
288.138	81
288.369	72
288.6	89
288.831	76
289.062	82
289.293	94
289.524	83
289.755	77
289.986	83
290.217	83
290.448	88
290.679	78
290.91	81
291.141	99
291.371	76
291.602	84
291.833	77
292.064	85
292.295	70
292.526	84
292.757	80
292.987	68
293.218	78
293.449	84
293.68	78
293.91	87
294.141	95
294.372	89
294.603	91
294.833	85
295.064	77
295.295	83
295.525	82
295.756	89
295.987	75
296.217	78
296.448	71
296.679	68
296.909	82
297.14	82
297.37	83
297.601	78
297.831	94
298.062	95
298.292	87
298.523	78
298.753	93
298.984	79
299.214	79
299.445	78
299.675	89
299.905	65
300.136	88
300.366	99
300.597	88
300.827	78
301.057	73
301.288	80
301.518	63
301.748	72
301.979	92
302.209	90
302.439	95
302.669	74
302.9	81
303.13	72
303.36	90
303.59	77
303.82	78
304.051	82
304.281	83
304.511	84
304.741	81
304.971	71
305.201	86
305.431	72
305.661	86
305.891	87
306.121	95
306.352	94
306.582	84
306.812	86
307.042	80
307.272	83
307.502	78
307.731	87
307.961	78
308.191	83
308.421	76
308.651	91
308.881	84
309.111	79
309.341	88
309.571	83
309.8	92
310.03	73
310.26	94
310.49	82
310.72	81
310.949	84
311.179	80
311.409	82
311.639	83
311.868	85
312.098	84
312.328	72
312.557	79
312.787	83
313.017	79
313.246	83
313.476	84
313.706	74
313.935	76
314.165	77
314.394	69
314.624	85
314.853	70
315.083	89
315.312	82
315.542	81
315.771	95
316.001	89
316.23	80
316.46	86
316.689	94
316.919	66
317.148	80
317.377	87
317.607	83
317.836	73
318.065	74
318.295	80
318.524	92
318.753	91
318.983	76
319.212	67
319.441	74
319.67	82
319.9	84
320.129	79
320.358	83
320.587	83
320.816	82
321.046	76
321.275	93
321.504	74
321.733	64
321.962	80
322.191	79
322.42	75
322.649	79
322.878	74
323.108	85
323.337	95
323.566	84
323.795	69
324.024	88
324.253	80
324.482	75
324.71	92
324.939	78
325.168	79
325.397	65
325.626	85
325.855	89
326.084	78
326.313	75
326.542	82
326.77	85
326.999	81
327.228	76
327.457	79
327.686	92
327.914	93
328.143	72
328.372	85
328.6	84
328.829	82
329.058	84
329.287	77
329.515	69
329.744	82
329.972	80
330.201	75
330.43	74
330.658	86
330.887	85
331.115	82
331.344	81
331.572	100
331.801	80
332.03	83
332.258	62
332.486	80
332.715	82
332.943	84
333.172	71
333.4	77
333.629	79
333.857	87
334.085	95
334.314	64
334.542	88
334.771	85
334.999	83
335.227	85
335.455	74
335.684	92
335.912	86
336.14	80
336.369	86
336.597	72
336.825	72
337.053	83
337.281	73
337.51	90
337.738	79
337.966	68
338.194	83
338.422	103
338.65	70
338.878	88
339.106	63
339.334	82
339.562	84
339.79	93
340.018	84
340.246	81
340.474	75
340.702	79
340.93	90
341.158	74
341.386	69
341.614	83
341.842	87
342.07	86
342.298	75
342.526	91
342.754	93
342.981	88
343.209	82
343.437	88
343.665	75
343.893	69
344.12	93
344.348	84
344.576	74
344.804	78
345.031	76
345.259	73
345.487	85
345.714	74
345.942	74
346.17	78
346.397	83
346.625	84
346.853	95
347.08	84
347.308	74
347.535	81
347.763	84
347.99	90
348.218	86
348.445	74
348.673	75
348.9	77
349.128	83
349.355	73
349.583	86
349.81	75
350.037	86
350.265	65
350.492	80
350.72	78
350.947	83
351.174	61
351.402	84
351.629	73
351.856	72
352.083	75
352.311	88
352.538	76
352.765	83
352.992	81
353.22	95
353.447	82
353.674	61
353.901	75
354.128	80
354.355	83
354.583	76
354.81	84
355.037	76
355.264	76
355.491	91
355.718	79
355.945	84
356.172	88
356.399	66
356.626	75
356.853	77
357.08	86
357.307	75
357.534	99
357.761	80
357.988	75
358.215	81
358.441	78
358.668	62
358.895	84
359.122	73
359.349	72
359.576	83
359.802	84
360.029	79
360.256	84
360.483	84
360.709	67
360.936	82
361.163	84
361.39	94
361.616	82
361.843	79
362.07	84
362.296	92
362.523	79
362.749	74
362.976	83
363.203	82
363.429	78
363.656	90
363.882	66
364.109	89
364.335	81
364.562	87
364.788	72
365.015	83
365.241	94
365.468	70
365.694	92
365.92	74
366.147	85
366.373	70
366.599	81
366.826	82
367.052	75
367.278	73
367.505	62
367.731	90
367.957	88
368.184	80
368.41	85
368.636	84
368.862	78
369.089	66
369.315	66
369.541	91
369.767	79
369.993	66
370.219	74
370.445	81
370.672	74
370.898	72
371.124	85
371.35	82
371.576	76
371.802	86
372.028	86
372.254	80
372.48	73
372.706	63
372.932	78
373.158	82
373.384	88
373.61	81
373.835	76
374.061	68
374.287	81
374.513	84
374.739	88
374.965	77
375.191	93
375.416	79
375.642	85
375.868	86
376.094	80
376.319	78
376.545	75
376.771	63
376.997	75
377.222	86
377.448	88
377.674	71
377.899	74
378.125	72
378.35	80
378.576	90
378.802	94
379.027	99
379.253	88
379.478	88
379.704	95
379.929	85
380.155	82
380.38	93
380.606	68
380.831	80
381.057	90
381.282	93
381.507	86
381.733	83
381.958	80
382.184	64
382.409	85
382.634	80
382.86	90
383.085	79
383.31	82
383.535	95
383.761	83
383.986	82
384.211	87
384.436	78
384.662	70
384.887	89
385.112	70
385.337	74
385.562	66
385.787	92
386.013	94
386.238	93
386.463	78
386.688	92
386.913	80
387.138	82
387.363	70
387.588	75
387.813	79
388.038	76
388.263	101
388.488	73
388.713	65
388.938	83
389.163	81
389.387	81
389.612	75
389.837	74
390.062	78
390.287	67
390.512	78
390.736	75
390.961	65
391.186	82
391.411	87
391.636	77
391.86	74
392.085	74
392.31	85
392.534	82
392.759	82
392.984	107
393.208	85
393.433	107
393.658	85
393.882	76
394.107	76
394.331	88
394.556	70
394.78	98
395.005	93
395.229	66
395.454	77
395.678	73
395.903	70
396.127	75
396.352	88
396.576	74
396.801	77
397.025	90
397.249	74
397.474	93
397.698	79
397.922	89
398.147	72
398.371	72
398.595	67
398.82	88
399.044	59
399.268	82
399.492	86
399.717	77
399.941	74
400.165	61
400.389	76
400.613	79
400.837	79
401.062	83
401.286	78
401.51	78
401.734	80
401.958	59
402.182	70
402.406	76
402.63	82
402.854	73
403.078	84
403.302	78
403.526	79
403.75	68
403.974	80
404.198	72
404.422	85
404.645	79
404.869	87
405.093	84
405.317	79
405.541	83
405.765	81
405.988	89
406.212	81
406.436	73
406.66	87
406.883	84
407.107	92
407.331	78
407.555	77
407.778	77
408.002	79
408.226	78
408.449	73
408.673	79
408.896	83
409.12	67
409.344	80
409.567	61
409.791	80
410.014	76
410.238	67
410.461	72
410.685	70
410.908	70
411.132	63
411.355	77
411.578	81
411.802	78
412.025	84
412.249	66
412.472	64
412.695	82
412.919	71
413.142	81
413.365	74
413.589	81
413.812	78
414.035	88
414.258	72
414.482	77
414.705	90
414.928	92
415.151	86
415.374	87
415.597	88
415.821	65
416.044	80
416.267	80
416.49	77
416.713	88
416.936	76
417.159	76
417.382	73
417.605	75
417.828	83
418.051	84
418.274	76
418.497	72
418.72	80
418.943	76
419.166	72
419.389	82
419.611	86
419.834	73
420.057	74
420.28	68
420.503	79
420.726	84
420.948	75
421.171	96
421.394	70
421.617	74
421.839	63
422.062	80
422.285	92
422.507	72
422.73	86
422.953	88
423.175	97
423.398	88
423.621	75
423.843	80
424.066	95
424.288	78
424.511	79
424.733	82
424.956	72
425.178	81
425.401	77
425.623	72
425.846	70
426.068	76
426.291	75
426.513	97
426.735	84
426.958	73
427.18	70
427.402	68
427.625	76
427.847	82
428.069	75
428.292	68
428.514	85
428.736	74
428.958	78
429.181	80
429.403	85
429.625	74
429.847	94
430.069	74
430.292	76
430.514	78
430.736	78
430.958	84
431.18	83
431.402	74
431.624	90
431.846	71
432.068	89
432.29	73
432.512	71
432.734	78
432.956	67
433.178	83
433.4	82
433.622	81
433.844	80
434.066	87
434.287	77
434.509	75
434.731	65
434.953	82
435.175	73
435.397	89
435.618	79
435.84	80
436.062	68
436.284	78
436.505	82
436.727	90
436.949	65
437.17	80
437.392	77
437.614	81
437.835	80
438.057	74
438.278	82
438.5	77
438.721	79
438.943	67
439.165	79
439.386	73
439.608	74
439.829	92
440.05	72
440.272	70
440.493	79
440.715	83
440.936	69
441.158	82
441.379	67
441.6	72
441.822	83
442.043	88
442.264	74
442.486	85
442.707	83
442.928	75
443.149	68
443.371	84
443.592	72
443.813	75
444.034	88
444.255	84
444.476	83
444.698	76
444.919	88
445.14	144
445.361	115
445.582	84
445.803	88
446.024	74
446.245	87
446.466	70
446.687	84
446.908	78
447.129	79
447.35	80
447.571	76
447.792	101
448.013	79
448.234	77
448.455	87
448.675	82
448.896	90
449.117	59
449.338	67
449.559	77
449.779	79
450	87
450.221	78
450.442	88
450.662	73
450.883	86
451.104	78
451.324	75
451.545	78
451.766	84
451.986	92
452.207	86
452.428	66
452.648	84
452.869	78
453.089	75
453.31	82
453.53	68
453.751	82
453.971	76
454.192	70
454.412	91
454.633	80
454.853	74
455.073	88
455.294	76
455.514	77
455.734	78
455.955	78
456.175	90
456.395	79
456.616	84
456.836	86
457.056	78
457.276	74
457.497	80
457.717	84
457.937	94
458.157	80
458.377	62
458.598	71
458.818	93
459.038	70
459.258	76
459.478	80
459.698	88
459.918	76
460.138	84
460.358	74
460.578	88
460.798	66
461.018	63
461.238	96
461.458	75
461.678	74
461.898	77
462.118	81
462.338	80
462.558	90
462.777	66
462.997	75
463.217	81
463.437	90
463.657	74
463.876	74
464.096	70
464.316	72
464.536	87
464.755	78
464.975	66
465.195	80
465.414	69
465.634	78
465.854	77
466.073	81
466.293	84
466.512	85
466.732	78
466.951	76
467.171	79
467.391	83
467.61	67
467.829	85
468.049	74
468.268	78
468.488	82
468.707	73
468.927	76
469.146	89
469.365	91
469.585	83
469.804	84
470.023	80
470.243	71
470.462	87
470.681	68
470.901	80
471.12	89
471.339	70
471.558	70
471.777	78
471.997	68
472.216	88
472.435	94
472.654	79
472.873	72
473.092	75
473.311	71
473.53	72
473.749	78
473.968	61
474.187	74
474.406	78
474.625	83
474.844	81
475.063	95
475.282	81
475.501	68
475.72	99
475.939	89
476.158	70
476.377	77
476.596	88
476.814	77
477.033	81
477.252	88
477.471	74
477.69	88
477.908	67
478.127	91
478.346	82
478.564	94
478.783	81
479.002	80
479.22	82
479.439	87
479.658	84
479.876	84
480.095	75
480.313	82
480.532	84
480.751	78
480.969	82
481.188	77
481.406	75
481.624	80
481.843	64
482.061	85
482.28	83
482.498	84
482.717	82
482.935	93
483.153	78
483.372	74
483.59	80
483.808	84
484.027	77
484.245	91
484.463	80
484.681	102
484.9	78
485.118	89
485.336	82
485.554	72
485.772	70
485.99	88
486.209	79
486.427	75
486.645	78
486.863	94
487.081	70
487.299	94
487.517	82
487.735	94
487.953	70
488.171	89
488.389	81
488.607	78
488.825	74
489.043	74
489.261	81
489.479	79
489.696	76
489.914	86
490.132	80
490.35	69
490.568	80
490.786	85
491.003	80
491.221	72
491.439	78
491.657	77
491.874	69
492.092	85
492.31	83
492.527	85
492.745	72
492.963	88
493.18	72
493.398	74
493.615	79
493.833	98
494.05	82
494.268	80
494.485	81
494.703	84
494.92	88
495.138	81
495.355	79
495.573	84
495.79	76
496.008	62
496.225	84
496.442	66
496.66	90
496.877	75
497.094	74
497.312	82
497.529	88
497.746	84
497.963	83
498.181	74
498.398	68
498.615	70
498.832	72
499.049	79
499.267	82
499.484	67
499.701	86
499.918	76
500.135	70
500.352	80
500.569	81
500.786	74
501.003	76
501.22	80
501.437	91
501.654	74
501.871	90
502.088	77
502.305	86
502.522	88
502.739	91
502.956	77
503.172	72
503.389	73
503.606	94
503.823	76
504.04	82
504.256	85
504.473	68
504.69	81
504.907	95
505.123	65
505.34	71
505.557	87
505.773	88
505.99	88
506.207	75
506.423	76
506.64	80
506.856	102
507.073	81
507.289	95
507.506	74
507.722	72
507.939	77
508.155	83
508.372	87
508.588	84
508.805	83
509.021	79
509.238	78
509.454	75
509.67	82
509.887	68
510.103	56
510.319	84
510.536	83
510.752	72
510.968	82
511.184	83
511.401	83
511.617	103
511.833	88
512.049	90
512.265	94
512.481	90
512.698	69
512.914	90
513.13	89
513.346	83
513.562	82
513.778	79
513.994	67
514.21	76
514.426	74
514.642	88
514.858	85
515.074	81
515.29	90
515.506	78
515.721	82
515.937	75
516.153	88
516.369	78
516.585	88
516.801	90
517.016	76
517.232	82
517.448	83
517.664	91
517.879	71
518.095	83
518.311	85
518.527	80
518.742	72
518.958	85
519.173	91
519.389	90
519.605	87
519.82	76
520.036	92
520.251	73
520.467	88
520.682	73
520.898	71
521.113	76
521.329	79
521.544	74
521.76	82
521.975	81
522.19	68
522.406	69
522.621	100
522.836	85
523.052	75
523.267	90
523.482	74
523.698	87
523.913	90
524.128	68
524.343	76
524.559	83
524.774	51
524.989	77
525.204	86
525.419	72
525.634	65
525.849	74
526.064	79
526.28	91
526.495	88
526.71	90
526.925	88
527.14	90
527.355	80
527.57	81
527.785	93
527.999	79
528.214	89
528.429	83
528.644	89
528.859	80
529.074	86
529.289	90
529.503	74
529.718	88
529.933	78
530.148	85
530.363	79
530.577	77
530.792	82
531.007	75
531.221	88
531.436	83
531.651	90
531.865	74
532.08	74
532.295	78
532.509	92
532.724	71
532.938	81
533.153	81
533.367	92
533.582	76
533.796	70
534.011	83
534.225	70
534.44	83
534.654	78
534.868	82
535.083	93
535.297	90
535.511	78
535.726	89
535.94	95
536.154	84
536.369	77
536.583	71
536.797	79
537.011	68
537.225	82
537.44	69
537.654	82
537.868	78
538.082	81
538.296	81
538.51	77
538.724	85
538.938	78
539.153	92
539.367	74
539.581	91
539.795	74
540.009	83
540.222	79
540.436	79
540.65	75
540.864	76
541.078	72
541.292	92
541.506	81
541.72	74
541.934	79
542.147	90
542.361	78
542.575	80
542.789	91
543.002	82
543.216	74
543.43	75
543.644	82
543.857	85
544.071	81
544.285	90
544.498	66
544.712	79
544.925	81
545.139	78
545.352	87
545.566	88
545.779	83
545.993	97
546.206	87
546.42	77
546.633	86
546.847	92
547.06	96
547.274	91
547.487	88
547.7	83
547.914	102
548.127	83
548.34	85
548.554	84
548.767	74
548.98	88
549.193	80
549.407	80
549.62	78
549.833	90
550.046	80
550.259	71
550.473	81
550.686	87
550.899	91
551.112	89
551.325	90
551.538	90
551.751	82
551.964	82
552.177	75
552.39	83
552.603	80
552.816	90
553.029	90
553.242	84
553.455	92
553.667	79
553.88	92
554.093	90
554.306	104
554.519	82
554.732	89
554.944	90
555.157	85
555.37	84
555.583	83
555.795	72
556.008	73
556.221	80
556.433	82
556.646	94
556.859	74
557.071	79
557.284	83
557.496	94
557.709	75
557.921	92
558.134	74
558.346	74
558.559	102
558.771	73
558.984	82
559.196	82
559.409	92
559.621	94
559.833	83
560.046	92
560.258	80
560.47	80
560.683	79
560.895	83
561.107	85
561.32	78
561.532	78
561.744	88
561.956	82
562.168	87
562.381	91
562.593	74
562.805	70
563.017	91
563.229	83
563.441	90
563.653	94
563.865	83
564.077	84
564.289	84
564.501	88
564.713	70
564.925	84
565.137	85
565.349	108
565.561	76
565.773	90
565.985	75
566.197	76
566.408	92
566.62	88
566.832	76
567.044	82
567.255	80
567.467	92
567.679	79
567.891	84
568.102	81
568.314	78
568.526	80
568.737	96
568.949	85
569.161	81
569.372	78
569.584	66
569.795	69
570.007	79
570.218	84
570.43	84
570.641	80
570.853	80
571.064	90
571.276	84
571.487	77
571.698	78
571.91	86
572.121	74
572.333	73
572.544	79
572.755	79
572.966	84
573.178	78
573.389	70
573.6	77
573.811	81
574.023	83
574.234	87
574.445	74
574.656	89
574.867	82
575.078	86
575.289	94
575.501	88
575.712	90
575.923	68
576.134	95
576.345	97
576.556	95
576.767	79
576.978	92
577.188	84
577.399	85
577.61	72
577.821	76
578.032	96
578.243	74
578.454	74
578.665	78
578.875	72
579.086	75
579.297	77
579.508	72
579.718	84
579.929	79
580.14	98
580.35	77
580.561	94
580.772	82
580.982	69
581.193	81
581.403	77
581.614	75
581.825	78
582.035	88
582.246	77
582.456	69
582.667	83
582.877	76
583.087	79
583.298	71
583.508	82
583.719	86
583.929	99
584.139	84
584.35	72
584.56	76
584.77	85
584.981	90
585.191	74
585.401	74
585.611	84
585.821	83
586.032	88
586.242	83
586.452	84
586.662	79
586.872	88
587.082	88
587.292	80
587.502	92
587.713	86
587.923	79
588.133	85
588.343	92
588.553	95
588.762	107
588.972	132
589.182	216
589.392	179
589.602	138
589.812	196
590.022	133
590.232	88
590.441	86
590.651	94
590.861	90
591.071	90
591.281	82
591.49	86
591.7	90
591.91	80
592.119	63
592.329	88
592.539	94
592.748	96
592.958	76
593.167	86
593.377	76
593.587	85
593.796	84
594.006	85
594.215	87
594.424	83
594.634	79
594.843	83
595.053	79
595.262	75
595.472	84
595.681	89
595.89	73
596.1	98
596.309	74
596.518	90
596.727	89
596.937	74
597.146	76
597.355	78
597.564	84
597.774	90
597.983	99
598.192	74
598.401	82
598.61	84
598.819	78
599.028	92
599.237	81
599.446	84
599.655	84
599.864	86
600.073	79
600.282	92
600.491	79
600.7	83
600.909	90
601.118	80
601.327	82
601.536	74
601.745	82
601.953	83
602.162	90
602.371	88
602.58	98
602.789	80
602.997	77
603.206	85
603.415	82
603.623	91
603.832	66
604.041	83
604.249	85
604.458	78
604.666	88
604.875	83
605.084	86
605.292	90
605.501	89
605.709	75
605.918	93
606.126	92
606.334	82
606.543	85
606.751	94
606.96	97
607.168	88
607.376	88
607.585	85
607.793	82
608.001	68
608.21	79
608.418	70
608.626	69
608.834	82
609.043	67
609.251	81
609.459	86
609.667	91
609.875	82
610.083	85
610.291	70
610.499	91
610.707	82
610.916	70
611.124	96
611.332	84
611.54	93
611.748	88
611.955	89
612.163	70
612.371	93
612.579	76
612.787	82
612.995	89
613.203	85
613.411	68
613.618	71
613.826	84
614.034	70
614.242	71
614.449	78
614.657	80
614.865	95
615.072	105
615.28	71
615.488	78
615.695	75
615.903	81
616.111	94
616.318	76
616.526	85
616.733	84
616.941	84
617.148	90
617.356	76
617.563	81
617.771	92
617.978	70
618.185	82
618.393	80
618.6	84
618.807	73
619.015	84
619.222	66
619.429	74
619.637	84
619.844	91
620.051	80
620.258	82
620.466	82
620.673	83
620.88	78
621.087	76
621.294	80
621.501	74
621.708	96
621.915	78
622.122	71
622.329	82
622.536	62
622.743	85
622.95	72
623.157	73
623.364	98
623.571	84
623.778	90
623.985	86
624.192	86
624.399	84
624.606	85
624.812	80
625.019	80
625.226	83
625.433	89
625.639	90
625.846	76
626.053	80
626.259	74
626.466	79
626.673	80
626.879	93
627.086	90
627.293	77
627.499	90
627.706	69
627.912	76
628.119	79
628.325	75
628.532	87
628.738	80
628.945	90
629.151	76
629.357	85
629.564	88
629.77	85
629.976	83
630.183	81
630.389	82
630.595	78
630.802	84
631.008	72
631.214	82
631.42	85
631.627	90
631.833	73
632.039	70
632.245	85
632.451	85
632.657	84
632.863	85
633.069	79
633.275	83
633.481	72
633.688	70
633.893	87
634.099	74
634.305	72
634.511	66
634.717	84
634.923	65
635.129	85
635.335	90
635.541	78
635.747	76
635.952	84
636.158	80
636.364	64
636.57	88
636.775	88
636.981	79
637.187	71
637.392	83
637.598	83
637.804	84
638.009	72
638.215	81
638.421	76
638.626	77
638.832	84
639.037	94
639.243	70
639.448	90
639.654	92
639.859	86
640.065	78
640.27	84
640.475	78
640.681	84
640.886	85
641.091	79
641.297	86
641.502	90
641.707	84
641.913	75
642.118	94
642.323	72
642.528	83
642.733	92
642.939	80
643.144	81
643.349	88
643.554	81
643.759	82
643.964	80
644.169	80
644.374	86
644.579	80
644.784	74
644.989	94
645.194	76
645.399	80
645.604	72
645.809	78
646.014	86
646.219	90
646.423	72
646.628	73
646.833	83
647.038	94
647.243	91
647.447	81
647.652	82
647.857	80
648.062	89
648.266	94
648.471	62
648.676	67
648.88	76
649.085	78
649.289	89
649.494	74
649.698	83
649.903	76
650.107	81
650.312	87
650.516	92
650.721	69
650.925	76
651.13	80
651.334	82
651.539	80
651.743	87
651.947	70
652.152	86
652.356	70
652.56	71
652.764	75
652.969	81
653.173	69
653.377	78
653.581	82
653.785	75
653.99	70
654.194	69
654.398	60
654.602	88
654.806	77
655.01	77
655.214	84
655.418	86
655.622	92
655.826	89
656.03	86
656.234	75
656.438	74
656.642	79
656.846	80
657.049	65
657.253	82
657.457	81
657.661	78
657.865	69
658.068	74
658.272	72
658.476	87
658.68	77
658.883	83
659.087	97
659.291	66
659.494	79
659.698	80
659.901	83
660.105	80
660.309	72
660.512	89
660.716	84
660.919	74
661.123	76
661.326	80
661.53	84
661.733	73
661.936	80
662.14	92
662.343	70
662.546	82
662.75	77
662.953	70
663.156	76
663.36	74
663.563	79
663.766	80
663.969	82
664.173	77
664.376	85
664.579	79
664.782	72
664.985	85
665.188	82
665.391	95
665.594	74
665.797	81
666	96
666.203	74
666.406	70
666.609	69
666.812	82
667.015	70
667.218	71
667.421	62
667.624	79
667.827	75
668.03	68
668.232	68
668.435	86
668.638	85
668.841	86
669.043	86
669.246	90
669.449	67
669.651	78
669.854	88
670.057	78
670.259	78
670.462	81
670.665	81
670.867	88
671.07	66
671.272	74
671.475	83
671.677	84
671.88	88
672.082	78
672.284	76
672.487	79
672.689	74
672.892	73
