Data from 2145_1_HRD10591_00009.txt Node
Date: Mon Jan 19 14:21:13 EST 2026
User: Yrep
Spectrometer: HR+D1059
Trigger mode: 1
Integration Time (sec): 1.000000E-1
Scans to average: 1
Electric dark correction enabled: true
Nonlinearity correction enabled: false
Boxcar width: 0
XAxis mode: Wavelengths
Number of Pixels in Spectrum: 2048
>>>>>Begin Spectral Data<<<<<
223.165	-12.69
223.4	-12.69
223.635	-12.69
223.869	-16.69
224.104	-21.69
224.338	-28.69
224.573	-12.69
224.808	-12.69
225.042	6.31
225.277	1.31
225.511	2.31
225.746	-1.69
225.98	13.31
226.215	19.31
226.449	-0.69
226.683	5.31
226.918	26.31
227.152	33.31
227.387	35.31
227.621	32.31
227.856	39.31
228.09	56.31
228.324	65.31
228.559	53.31
228.793	57.31
229.027	62.31
229.262	72.31
229.496	77.31
229.73	80.31
229.964	76.31
230.199	64.31
230.433	63.31
230.667	73.31
230.901	74.31
231.136	72.31
231.37	93.31
231.604	67.31
231.838	85.31
232.072	67.31
232.306	75.31
232.541	77.31
232.775	85.31
233.009	86.31
233.243	78.31
233.477	80.31
233.711	73.31
233.945	77.31
234.179	82.31
234.413	85.31
234.647	89.31
234.881	80.31
235.115	88.31
235.349	92.31
235.583	78.31
235.817	80.31
236.051	85.31
236.285	65.31
236.519	73.31
236.753	71.31
236.987	63.31
237.221	73.31
237.455	64.31
237.689	81.31
237.922	91.31
238.156	87.31
238.39	78.31
238.624	72.31
238.858	87.31
239.091	70.31
239.325	82.31
239.559	84.31
239.793	83.31
240.027	65.31
240.26	82.31
240.494	63.31
240.728	66.31
240.961	71.31
241.195	81.31
241.429	71.31
241.662	75.31
241.896	76.31
242.13	75.31
242.363	66.31
242.597	72.31
242.83	77.31
243.064	98.31
243.298	77.31
243.531	71.31
243.765	66.31
243.998	83.31
244.232	83.31
244.465	78.31
244.699	70.31
244.932	78.31
245.166	90.31
245.399	81.31
245.633	71.31
245.866	101.31
246.099	73.31
246.333	73.31
246.566	89.31
246.8	73.31
247.033	84.31
247.266	83.31
247.5	73.31
247.733	78.31
247.966	77.31
248.2	67.31
248.433	95.31
248.666	84.31
248.899	75.31
249.133	78.31
249.366	72.31
249.599	71.31
249.832	77.31
250.066	87.31
250.299	80.31
250.532	77.31
250.765	69.31
250.998	80.31
251.231	85.31
251.465	72.31
251.698	72.31
251.931	71.31
252.164	68.31
252.397	69.31
252.63	85.31
252.863	73.31
253.096	83.31
253.329	80.31
253.562	83.31
253.795	83.31
254.028	81.31
254.261	90.31
254.494	71.31
254.727	98.31
254.96	77.31
255.193	93.31
255.426	99.31
255.659	72.31
255.892	84.31
256.124	71.31
256.357	83.31
256.59	90.31
256.823	71.31
257.056	74.31
257.289	70.31
257.521	74.31
257.754	87.31
257.987	72.31
258.22	94.31
258.452	81.31
258.685	80.31
258.918	99.31
259.151	77.31
259.383	84.31
259.616	70.31
259.849	85.31
260.081	81.31
260.314	74.31
260.547	69.31
260.779	100.31
261.012	84.31
261.244	88.31
261.477	97.31
261.71	80.31
261.942	79.31
262.175	74.31
262.407	79.31
262.64	76.31
262.872	72.31
263.105	79.31
263.337	81.31
263.57	67.31
263.802	86.31
264.035	91.31
264.267	81.31
264.499	92.31
264.732	85.31
264.964	89.31
265.197	70.31
265.429	75.31
265.661	92.31
265.894	84.31
266.126	90.31
266.358	68.31
266.591	81.31
266.823	85.31
267.055	80.31
267.287	77.31
267.52	87.31
267.752	84.31
267.984	95.31
268.216	72.31
268.448	82.31
268.681	84.31
268.913	96.31
269.145	85.31
269.377	84.31
269.609	89.31
269.841	79.31
270.073	95.31
270.306	83.31
270.538	72.31
270.77	76.31
271.002	73.31
271.234	85.31
271.466	93.31
271.698	83.31
271.93	96.31
272.162	73.31
272.394	82.31
272.626	85.31
272.858	73.31
273.09	83.31
273.322	72.31
273.553	89.31
273.785	95.31
274.017	89.31
274.249	87.31
274.481	92.31
274.713	78.31
274.945	88.31
275.176	73.31
275.408	85.31
275.64	84.31
275.872	87.31
276.104	82.31
276.335	80.31
276.567	83.31
276.799	90.31
277.031	83.31
277.262	81.31
277.494	73.31
277.726	95.31
277.957	88.31
278.189	88.31
278.421	93.31
278.652	70.31
278.884	81.31
279.115	77.31
279.347	81.31
279.579	88.31
279.81	73.31
280.042	80.31
280.273	88.31
280.505	73.31
280.736	82.31
280.968	76.31
281.199	85.31
281.431	85.31
281.662	84.31
281.894	89.31
282.125	88.31
282.356	76.31
282.588	80.31
282.819	87.31
283.051	77.31
283.282	83.31
283.513	96.31
283.745	92.31
283.976	84.31
284.207	86.31
284.439	74.31
284.67	87.31
284.901	69.31
285.132	75.31
285.364	81.31
285.595	73.31
285.826	81.31
286.057	82.31
286.288	86.31
286.52	87.31
286.751	82.31
286.982	82.31
287.213	85.31
287.444	75.31
287.675	70.31
287.906	85.31
288.138	88.31
288.369	82.31
288.6	75.31
288.831	81.31
289.062	73.31
289.293	89.31
289.524	84.31
289.755	77.31
289.986	84.31
290.217	100.31
290.448	84.31
290.679	81.31
290.91	85.31
291.141	89.31
291.371	77.31
291.602	101.31
291.833	85.31
292.064	85.31
292.295	84.31
292.526	80.31
292.757	77.31
292.987	87.31
293.218	77.31
293.449	91.31
293.68	91.31
293.91	89.31
294.141	88.31
294.372	94.31
294.603	88.31
294.833	95.31
295.064	79.31
295.295	82.31
295.525	79.31
295.756	80.31
295.987	91.31
296.217	81.31
296.448	86.31
296.679	75.31
296.909	81.31
297.14	88.31
297.37	85.31
297.601	77.31
297.831	84.31
298.062	82.31
298.292	76.31
298.523	81.31
298.753	81.31
298.984	80.31
299.214	93.31
299.445	91.31
299.675	98.31
299.905	86.31
300.136	84.31
300.366	95.31
300.597	91.31
300.827	91.31
301.057	82.31
301.288	86.31
301.518	87.31
301.748	91.31
301.979	99.31
302.209	88.31
302.439	81.31
302.669	87.31
302.9	76.31
303.13	85.31
303.36	97.31
303.59	86.31
303.82	79.31
304.051	85.31
304.281	78.31
304.511	86.31
304.741	85.31
304.971	79.31
305.201	78.31
305.431	82.31
305.661	79.31
305.891	94.31
306.121	87.31
306.352	81.31
306.582	83.31
306.812	77.31
307.042	90.31
307.272	89.31
307.502	72.31
307.731	82.31
307.961	83.31
308.191	93.31
308.421	96.31
308.651	104.31
308.881	84.31
309.111	78.31
309.341	89.31
309.571	90.31
309.8	82.31
310.03	78.31
310.26	91.31
310.49	65.31
310.72	93.31
310.949	86.31
311.179	73.31
311.409	91.31
311.639	81.31
311.868	85.31
312.098	102.31
312.328	87.31
312.557	84.31
312.787	93.31
313.017	91.31
313.246	73.31
313.476	72.31
313.706	96.31
313.935	83.31
314.165	89.31
314.394	82.31
314.624	89.31
314.853	88.31
315.083	90.31
315.312	85.31
315.542	97.31
315.771	93.31
316.001	78.31
316.23	102.31
316.46	86.31
316.689	81.31
316.919	80.31
317.148	89.31
317.377	85.31
317.607	82.31
317.836	79.31
318.065	76.31
318.295	81.31
318.524	73.31
318.753	85.31
318.983	91.31
319.212	84.31
319.441	88.31
319.67	92.31
319.9	92.31
320.129	80.31
320.358	97.31
320.587	90.31
320.816	90.31
321.046	75.31
321.275	78.31
321.504	89.31
321.733	89.31
321.962	87.31
322.191	97.31
322.42	89.31
322.649	92.31
322.878	87.31
323.108	83.31
323.337	80.31
323.566	72.31
323.795	83.31
324.024	83.31
324.253	87.31
324.482	85.31
324.71	78.31
324.939	75.31
325.168	83.31
325.397	98.31
325.626	87.31
325.855	85.31
326.084	80.31
326.313	86.31
326.542	89.31
326.77	69.31
326.999	85.31
327.228	89.31
327.457	78.31
327.686	79.31
327.914	87.31
328.143	84.31
328.372	83.31
328.6	93.31
328.829	95.31
329.058	85.31
329.287	102.31
329.515	59.31
329.744	94.31
329.972	88.31
330.201	97.31
330.43	90.31
330.658	92.31
330.887	90.31
331.115	83.31
331.344	88.31
331.572	88.31
331.801	80.31
332.03	80.31
332.258	91.31
332.486	86.31
332.715	100.31
332.943	87.31
333.172	77.31
333.4	90.31
333.629	78.31
333.857	91.31
334.085	95.31
334.314	94.31
334.542	83.31
334.771	79.31
334.999	78.31
335.227	89.31
335.455	85.31
335.684	90.31
335.912	91.31
336.14	99.31
336.369	107.31
336.597	85.31
336.825	91.31
337.053	79.31
337.281	85.31
337.51	91.31
337.738	77.31
337.966	83.31
338.194	87.31
338.422	86.31
338.65	96.31
338.878	90.31
339.106	75.31
339.334	87.31
339.562	84.31
339.79	98.31
340.018	84.31
340.246	86.31
340.474	82.31
340.702	80.31
340.93	69.31
341.158	80.31
341.386	87.31
341.614	79.31
341.842	73.31
342.07	87.31
342.298	80.31
342.526	88.31
342.754	82.31
342.981	92.31
343.209	77.31
343.437	89.31
343.665	68.31
343.893	88.31
344.12	81.31
344.348	83.31
344.576	92.31
344.804	76.31
345.031	77.31
345.259	85.31
345.487	95.31
345.714	76.31
345.942	98.31
346.17	92.31
346.397	74.31
346.625	97.31
346.853	87.31
347.08	74.31
347.308	79.31
347.535	83.31
347.763	73.31
347.99	90.31
348.218	91.31
348.445	89.31
348.673	89.31
348.9	89.31
349.128	101.31
349.355	83.31
349.583	75.31
349.81	91.31
350.037	84.31
350.265	89.31
350.492	80.31
350.72	91.31
350.947	82.31
351.174	86.31
351.402	82.31
351.629	79.31
351.856	75.31
352.083	81.31
352.311	84.31
352.538	81.31
352.765	85.31
352.992	96.31
353.22	83.31
353.447	81.31
353.674	84.31
353.901	74.31
354.128	99.31
354.355	85.31
354.583	76.31
354.81	84.31
355.037	91.31
355.264	75.31
355.491	87.31
355.718	98.31
355.945	97.31
356.172	93.31
356.399	74.31
356.626	75.31
356.853	87.31
357.08	91.31
357.307	78.31
357.534	85.31
357.761	96.31
357.988	90.31
358.215	88.31
358.441	89.31
358.668	72.31
358.895	90.31
359.122	76.31
359.349	77.31
359.576	91.31
359.802	92.31
360.029	75.31
360.256	97.31
360.483	92.31
360.709	83.31
360.936	99.31
361.163	76.31
361.39	71.31
361.616	84.31
361.843	95.31
362.07	97.31
362.296	93.31
362.523	90.31
362.749	87.31
362.976	100.31
363.203	94.31
363.429	91.31
363.656	96.31
363.882	103.31
364.109	90.31
364.335	117.31
364.562	100.31
364.788	86.31
365.015	78.31
365.241	74.31
365.468	75.31
365.694	73.31
365.92	83.31
366.147	81.31
366.373	69.31
366.599	82.31
366.826	75.31
367.052	76.31
367.278	82.31
367.505	67.31
367.731	87.31
367.957	87.31
368.184	95.31
368.41	71.31
368.636	81.31
368.862	88.31
369.089	96.31
369.315	86.31
369.541	95.31
369.767	82.31
369.993	77.31
370.219	83.31
370.445	99.31
370.672	97.31
370.898	81.31
371.124	82.31
371.35	79.31
371.576	70.31
371.802	101.31
372.028	92.31
372.254	93.31
372.48	92.31
372.706	92.31
372.932	71.31
373.158	84.31
373.384	100.31
373.61	91.31
373.835	94.31
374.061	91.31
374.287	82.31
374.513	86.31
374.739	82.31
374.965	92.31
375.191	84.31
375.416	92.31
375.642	81.31
375.868	87.31
376.094	83.31
376.319	85.31
376.545	83.31
376.771	78.31
376.997	72.31
377.222	85.31
377.448	83.31
377.674	87.31
377.899	88.31
378.125	86.31
378.35	92.31
378.576	83.31
378.802	91.31
379.027	76.31
379.253	86.31
379.478	83.31
379.704	81.31
379.929	70.31
380.155	92.31
380.38	107.31
380.606	97.31
380.831	75.31
381.057	86.31
381.282	92.31
381.507	76.31
381.733	83.31
381.958	81.31
382.184	91.31
382.409	79.31
382.634	86.31
382.86	81.31
383.085	86.31
383.31	100.31
383.535	97.31
383.761	80.31
383.986	81.31
384.211	91.31
384.436	85.31
384.662	82.31
384.887	80.31
385.112	83.31
385.337	80.31
385.562	80.31
385.787	76.31
386.013	103.31
386.238	90.31
386.463	70.31
386.688	99.31
386.913	86.31
387.138	80.31
387.363	95.31
387.588	84.31
387.813	92.31
388.038	86.31
388.263	93.31
388.488	78.31
388.713	86.31
388.938	72.31
389.163	88.31
389.387	86.31
389.612	80.31
389.837	78.31
390.062	101.31
390.287	78.31
390.512	97.31
390.736	90.31
390.961	81.31
391.186	83.31
391.411	90.31
391.636	65.31
391.86	81.31
392.085	89.31
392.31	85.31
392.534	85.31
392.759	96.31
392.984	108.31
393.208	161.31
393.433	187.31
393.658	150.31
393.882	103.31
394.107	104.31
394.331	107.31
394.556	106.31
394.78	99.31
395.005	98.31
395.229	88.31
395.454	80.31
395.678	97.31
395.903	103.31
396.127	104.31
396.352	114.31
396.576	133.31
396.801	151.31
397.025	168.31
397.249	117.31
397.474	113.31
397.698	91.31
397.922	93.31
398.147	83.31
398.371	77.31
398.595	96.31
398.82	87.31
399.044	74.31
399.268	91.31
399.492	86.31
399.717	88.31
399.941	81.31
400.165	86.31
400.389	88.31
400.613	95.31
400.837	97.31
401.062	96.31
401.286	65.31
401.51	81.31
401.734	95.31
401.958	93.31
402.182	83.31
402.406	83.31
402.63	89.31
402.854	85.31
403.078	89.31
403.302	94.31
403.526	86.31
403.75	92.31
403.974	91.31
404.198	81.31
404.422	97.31
404.645	101.31
404.869	95.31
405.093	87.31
405.317	81.31
405.541	80.31
405.765	80.31
405.988	95.31
406.212	82.31
406.436	74.31
406.66	83.31
406.883	101.31
407.107	81.31
407.331	86.31
407.555	82.31
407.778	98.31
408.002	78.31
408.226	92.31
408.449	83.31
408.673	68.31
408.896	81.31
409.12	77.31
409.344	78.31
409.567	87.31
409.791	95.31
410.014	97.31
410.238	84.31
410.461	67.31
410.685	95.31
410.908	76.31
411.132	83.31
411.355	90.31
411.578	83.31
411.802	77.31
412.025	81.31
412.249	85.31
412.472	82.31
412.695	90.31
412.919	82.31
413.142	88.31
413.365	84.31
413.589	87.31
413.812	81.31
414.035	103.31
414.258	92.31
414.482	89.31
414.705	83.31
414.928	81.31
415.151	83.31
415.374	92.31
415.597	69.31
415.821	85.31
416.044	86.31
416.267	83.31
416.49	78.31
416.713	95.31
416.936	83.31
417.159	68.31
417.382	79.31
417.605	76.31
417.828	74.31
418.051	88.31
418.274	91.31
418.497	79.31
418.72	108.31
418.943	86.31
419.166	83.31
419.389	88.31
419.611	81.31
419.834	90.31
420.057	82.31
420.28	86.31
420.503	95.31
420.726	78.31
420.948	92.31
421.171	96.31
421.394	98.31
421.617	99.31
421.839	112.31
422.062	105.31
422.285	112.31
422.507	184.31
422.73	250.31
422.953	230.31
423.175	152.31
423.398	112.31
423.621	106.31
423.843	92.31
424.066	81.31
424.288	98.31
424.511	73.31
424.733	83.31
424.956	99.31
425.178	85.31
425.401	72.31
425.623	92.31
425.846	87.31
426.068	92.31
426.291	68.31
426.513	83.31
426.735	98.31
426.958	83.31
427.18	74.31
427.402	96.31
427.625	76.31
427.847	77.31
428.069	94.31
428.292	96.31
428.514	123.31
428.736	108.31
428.958	106.31
429.181	115.31
429.403	85.31
429.625	97.31
429.847	89.31
430.069	129.31
430.292	133.31
430.514	114.31
430.736	107.31
430.958	118.31
431.18	98.31
431.402	109.31
431.624	76.31
431.846	106.31
432.068	111.31
432.29	103.31
432.512	80.31
432.734	75.31
432.956	91.31
433.178	91.31
433.4	85.31
433.622	77.31
433.844	83.31
434.066	85.31
434.287	69.31
434.509	77.31
434.731	87.31
434.953	83.31
435.175	83.31
435.397	72.31
435.618	78.31
435.84	90.31
436.062	85.31
436.284	100.31
436.505	87.31
436.727	79.31
436.949	84.31
437.17	79.31
437.392	74.31
437.614	85.31
437.835	87.31
438.057	73.31
438.278	69.31
438.5	80.31
438.721	87.31
438.943	91.31
439.165	97.31
439.386	87.31
439.608	77.31
439.829	89.31
440.05	80.31
440.272	76.31
440.493	87.31
440.715	83.31
440.936	72.31
441.158	84.31
441.379	85.31
441.6	84.31
441.822	95.31
442.043	92.31
442.264	75.31
442.486	104.31
442.707	122.31
442.928	98.31
443.149	92.31
443.371	115.31
443.592	163.31
443.813	145.31
444.034	97.31
444.255	99.31
444.476	92.31
444.698	91.31
444.919	86.31
445.14	187.31
445.361	166.31
445.582	187.31
445.803	185.31
446.024	104.31
446.245	89.31
446.466	81.31
446.687	88.31
446.908	71.31
447.129	95.31
447.35	77.31
447.571	93.31
447.792	91.31
448.013	84.31
448.234	87.31
448.455	82.31
448.675	85.31
448.896	93.31
449.117	75.31
449.338	76.31
449.559	92.31
449.779	92.31
450	87.31
450.221	74.31
450.442	76.31
450.662	71.31
450.883	86.31
451.104	79.31
451.324	83.31
451.545	93.31
451.766	81.31
451.986	79.31
452.207	82.31
452.428	83.31
452.648	77.31
452.869	89.31
453.089	101.31
453.31	72.31
453.53	80.31
453.751	75.31
453.971	83.31
454.192	69.31
454.412	86.31
454.633	83.31
454.853	91.31
455.073	93.31
455.294	84.31
455.514	84.31
455.734	86.31
455.955	87.31
456.175	71.31
456.395	77.31
456.616	76.31
456.836	90.31
457.056	83.31
457.276	83.31
457.497	75.31
457.717	90.31
457.937	80.31
458.157	99.31
458.377	105.31
458.598	95.31
458.818	102.31
459.038	89.31
459.258	82.31
459.478	87.31
459.698	86.31
459.918	83.31
460.138	84.31
460.358	87.31
460.578	99.31
460.798	103.31
461.018	114.31
461.238	93.31
461.458	86.31
461.678	89.31
461.898	85.31
462.118	81.31
462.338	81.31
462.558	77.31
462.777	82.31
462.997	73.31
463.217	89.31
463.437	99.31
463.657	85.31
463.876	84.31
464.096	86.31
464.316	84.31
464.536	84.31
464.755	83.31
464.975	85.31
465.195	91.31
465.414	69.31
465.634	83.31
465.854	88.31
466.073	100.31
466.293	89.31
466.512	83.31
466.732	74.31
466.951	81.31
467.171	71.31
467.391	75.31
467.61	79.31
467.829	87.31
468.049	104.31
468.268	79.31
468.488	78.31
468.707	80.31
468.927	74.31
469.146	84.31
469.365	81.31
469.585	78.31
469.804	83.31
470.023	95.31
470.243	84.31
470.462	84.31
470.681	85.31
470.901	96.31
471.12	78.31
471.339	82.31
471.558	87.31
471.777	89.31
471.997	89.31
472.216	92.31
472.435	81.31
472.654	80.31
472.873	83.31
473.092	75.31
473.311	83.31
473.53	80.31
473.749	89.31
473.968	98.31
474.187	93.31
474.406	99.31
474.625	85.31
474.844	84.31
475.063	74.31
475.282	85.31
475.501	65.31
475.72	90.31
475.939	83.31
476.158	86.31
476.377	93.31
476.596	75.31
476.814	71.31
477.033	86.31
477.252	67.31
477.471	74.31
477.69	70.31
477.908	93.31
478.127	97.31
478.346	81.31
478.564	96.31
478.783	78.31
479.002	85.31
479.22	88.31
479.439	80.31
479.658	88.31
479.876	79.31
480.095	73.31
480.313	83.31
480.532	88.31
480.751	98.31
480.969	94.31
481.188	80.31
481.406	81.31
481.624	72.31
481.843	88.31
482.061	68.31
482.28	97.31
482.498	81.31
482.717	68.31
482.935	90.31
483.153	92.31
483.372	95.31
483.59	105.31
483.808	91.31
484.027	98.31
484.245	94.31
484.463	88.31
484.681	92.31
484.9	89.31
485.118	88.31
485.336	73.31
485.554	92.31
485.772	82.31
485.99	92.31
486.209	77.31
486.427	83.31
486.645	79.31
486.863	105.31
487.081	89.31
487.299	87.31
487.517	89.31
487.735	91.31
487.953	143.31
488.171	123.31
488.389	92.31
488.607	73.31
488.825	84.31
489.043	87.31
489.261	105.31
489.479	88.31
489.696	84.31
489.914	79.31
490.132	90.31
490.35	91.31
490.568	76.31
490.786	90.31
491.003	85.31
491.221	85.31
491.439	92.31
491.657	92.31
491.874	80.31
492.092	93.31
492.31	81.31
492.527	86.31
492.745	102.31
492.963	104.31
493.18	83.31
493.398	94.31
493.615	87.31
493.833	91.31
494.05	81.31
494.268	90.31
494.485	75.31
494.703	92.31
494.92	88.31
495.138	89.31
495.355	103.31
495.573	91.31
495.79	84.31
496.008	91.31
496.225	95.31
496.442	85.31
496.66	90.31
496.877	87.31
497.094	93.31
497.312	84.31
497.529	96.31
497.746	116.31
497.963	103.31
498.181	97.31
498.398	85.31
498.615	88.31
498.832	85.31
499.049	90.31
499.267	97.31
499.484	93.31
499.701	76.31
499.918	76.31
500.135	100.31
500.352	90.31
500.569	81.31
500.786	100.31
501.003	89.31
501.22	86.31
501.437	91.31
501.654	83.31
501.871	92.31
502.088	78.31
502.305	83.31
502.522	77.31
502.739	92.31
502.956	76.31
503.172	101.31
503.389	86.31
503.606	90.31
503.823	98.31
504.04	95.31
504.256	129.31
504.473	101.31
504.69	89.31
504.907	87.31
505.123	99.31
505.34	88.31
505.557	87.31
505.773	90.31
505.99	82.31
506.207	88.31
506.423	84.31
506.64	92.31
506.856	86.31
507.073	93.31
507.289	95.31
507.506	83.31
507.722	76.31
507.939	92.31
508.155	85.31
508.372	72.31
508.588	74.31
508.805	92.31
509.021	83.31
509.238	70.31
509.454	76.31
509.67	71.31
509.887	78.31
510.103	90.31
510.319	87.31
510.536	75.31
510.752	84.31
510.968	91.31
511.184	85.31
511.401	82.31
511.617	85.31
511.833	89.31
512.049	84.31
512.265	86.31
512.481	81.31
512.698	80.31
512.914	96.31
513.13	88.31
513.346	87.31
513.562	79.31
513.778	93.31
513.994	96.31
514.21	89.31
514.426	79.31
514.642	91.31
514.858	83.31
515.074	77.31
515.29	97.31
515.506	93.31
515.721	79.31
515.937	103.31
516.153	77.31
516.369	97.31
516.585	91.31
516.801	101.31
517.016	84.31
517.232	93.31
517.448	93.31
517.664	87.31
517.879	103.31
518.095	93.31
518.311	90.31
518.527	96.31
518.742	96.31
518.958	126.31
519.173	141.31
519.389	117.31
519.605	101.31
519.82	87.31
520.036	98.31
520.251	93.31
520.467	79.31
520.682	78.31
520.898	75.31
521.113	81.31
521.329	83.31
521.544	84.31
521.76	81.31
521.975	88.31
522.19	94.31
522.406	85.31
522.621	85.31
522.836	81.31
523.052	91.31
523.267	92.31
523.482	93.31
523.698	93.31
523.913	75.31
524.128	72.31
524.343	94.31
524.559	102.31
524.774	88.31
524.989	98.31
525.204	109.31
525.419	87.31
525.634	96.31
525.849	108.31
526.064	100.31
526.28	171.31
526.495	210.31
526.71	215.31
526.925	153.31
527.14	200.31
527.355	169.31
527.57	103.31
527.785	98.31
527.999	93.31
528.214	95.31
528.429	103.31
528.644	96.31
528.859	87.31
529.074	91.31
529.289	82.31
529.503	88.31
529.718	93.31
529.933	83.31
530.148	87.31
530.363	96.31
530.577	97.31
530.792	87.31
531.007	91.31
531.221	86.31
531.436	92.31
531.651	96.31
531.865	93.31
532.08	99.31
532.295	99.31
532.509	96.31
532.724	82.31
532.938	100.31
533.153	94.31
533.367	91.31
533.582	99.31
533.796	101.31
534.011	100.31
534.225	102.31
534.44	93.31
534.654	97.31
534.868	99.31
535.083	140.31
535.297	133.31
535.511	106.31
535.726	91.31
535.94	98.31
536.154	97.31
536.369	107.31
536.583	95.31
536.797	94.31
537.011	98.31
537.225	102.31
537.44	100.31
537.654	109.31
537.868	94.31
538.082	81.31
538.296	80.31
538.51	93.31
538.724	93.31
538.938	92.31
539.153	90.31
539.367	95.31
539.581	94.31
539.795	106.31
540.009	99.31
540.222	89.31
540.436	97.31
540.65	98.31
540.864	90.31
541.078	89.31
541.292	96.31
541.506	102.31
541.72	88.31
541.934	98.31
542.147	96.31
542.361	80.31
542.575	97.31
542.789	91.31
543.002	86.31
543.216	95.31
543.43	97.31
543.644	84.31
543.857	99.31
544.071	99.31
544.285	93.31
544.498	96.31
544.712	98.31
544.925	104.31
545.139	109.31
545.352	98.31
545.566	89.31
545.779	101.31
545.993	108.31
546.206	101.31
546.42	120.31
546.633	117.31
546.847	116.31
547.06	117.31
547.274	133.31
547.487	141.31
547.7	166.31
547.914	162.31
548.127	166.31
548.34	150.31
548.554	175.31
548.767	165.31
548.98	172.31
549.193	159.31
549.407	160.31
549.62	183.31
549.833	192.31
550.046	209.31
550.259	224.31
550.473	217.31
550.686	224.31
550.899	245.31
551.112	243.31
551.325	262.31
551.538	273.31
551.751	273.31
551.964	258.31
552.177	251.31
552.39	257.31
552.603	235.31
552.816	260.31
553.029	254.31
553.242	245.31
553.455	244.31
553.667	274.31
553.88	263.31
554.093	274.31
554.306	267.31
554.519	279.31
554.732	295.31
554.944	273.31
555.157	255.31
555.37	268.31
555.583	255.31
555.795	236.31
556.008	230.31
556.221	213.31
556.433	212.31
556.646	219.31
556.859	196.31
557.071	191.31
557.284	180.31
557.496	169.31
557.709	155.31
557.921	155.31
558.134	155.31
558.346	165.31
558.559	153.31
558.771	157.31
558.984	241.31
559.196	267.31
559.409	177.31
559.621	216.31
559.833	168.31
560.046	212.31
560.258	182.31
560.47	186.31
560.683	130.31
560.895	107.31
561.107	106.31
561.32	103.31
561.532	115.31
561.744	99.31
561.956	125.31
562.168	103.31
562.381	95.31
562.593	107.31
562.805	106.31
563.017	97.31
563.229	110.31
563.441	100.31
563.653	113.31
563.865	100.31
564.077	95.31
564.289	111.31
564.501	101.31
564.713	105.31
564.925	111.31
565.137	95.31
565.349	91.31
565.561	89.31
565.773	98.31
565.985	98.31
566.197	89.31
566.408	107.31
566.62	106.31
566.832	93.31
567.044	99.31
567.255	89.31
567.467	101.31
567.679	89.31
567.891	94.31
568.102	111.31
568.314	109.31
568.526	93.31
568.737	105.31
568.949	104.31
569.161	104.31
569.372	105.31
569.584	87.31
569.795	106.31
570.007	108.31
570.218	87.31
570.43	98.31
570.641	100.31
570.853	92.31
571.064	98.31
571.276	83.31
571.487	100.31
571.698	98.31
571.91	99.31
572.121	92.31
572.333	107.31
572.544	103.31
572.755	93.31
572.966	95.31
573.178	88.31
573.389	103.31
573.6	102.31
573.811	112.31
574.023	105.31
574.234	96.31
574.445	89.31
574.656	104.31
574.867	81.31
575.078	97.31
575.289	100.31
575.501	104.31
575.712	99.31
575.923	103.31
576.134	84.31
576.345	99.31
576.556	107.31
576.767	88.31
576.978	87.31
577.188	99.31
577.399	89.31
577.61	97.31
577.821	90.31
578.032	87.31
578.243	91.31
578.454	94.31
578.665	98.31
578.875	94.31
579.086	88.31
579.297	87.31
579.508	95.31
579.718	93.31
579.929	105.31
580.14	91.31
580.35	89.31
580.561	99.31
580.772	98.31
580.982	87.31
581.193	87.31
581.403	100.31
581.614	96.31
581.825	95.31
582.035	101.31
582.246	95.31
582.456	98.31
582.667	102.31
582.877	91.31
583.087	109.31
583.298	111.31
583.508	89.31
583.719	89.31
583.929	101.31
584.139	99.31
584.35	84.31
584.56	107.31
584.77	97.31
584.981	88.31
585.191	94.31
585.401	99.31
585.611	95.31
585.821	152.31
586.032	175.31
586.242	116.31
586.452	102.31
586.662	101.31
586.872	104.31
587.082	97.31
587.292	91.31
587.502	107.31
587.713	100.31
587.923	109.31
588.133	119.31
588.343	129.31
588.553	126.31
588.762	167.31
588.972	270.31
589.182	455.31
589.392	377.31
589.602	305.31
589.812	410.31
590.022	277.31
590.232	166.31
590.441	129.31
590.651	123.31
590.861	126.31
591.071	124.31
591.281	91.31
591.49	116.31
591.7	122.31
591.91	125.31
592.119	115.31
592.329	100.31
592.539	112.31
592.748	98.31
592.958	118.31
593.167	121.31
593.377	130.31
593.587	116.31
593.796	108.31
594.006	123.31
594.215	114.31
594.424	129.31
594.634	116.31
594.843	122.31
595.053	128.31
595.262	139.31
595.472	156.31
595.681	155.31
595.89	155.31
596.1	125.31
596.309	151.31
596.518	161.31
596.727	160.31
596.937	161.31
597.146	171.31
597.355	173.31
597.564	189.31
597.774	170.31
597.983	171.31
598.192	154.31
598.401	160.31
598.61	170.31
598.819	165.31
599.028	187.31
599.237	189.31
599.446	201.31
599.655	186.31
599.864	182.31
600.073	185.31
600.282	178.31
600.491	179.31
600.7	181.31
600.909	191.31
601.118	173.31
601.327	161.31
601.536	164.31
601.745	157.31
601.953	151.31
602.162	178.31
602.371	166.31
602.58	166.31
602.789	169.31
602.997	175.31
603.206	189.31
603.415	168.31
603.623	176.31
603.832	173.31
604.041	200.31
604.249	183.31
604.458	189.31
604.666	189.31
604.875	194.31
605.084	195.31
605.292	189.31
605.501	206.31
605.709	203.31
605.918	196.31
606.126	209.31
606.334	199.31
606.543	213.31
606.751	205.31
606.96	209.31
607.168	195.31
607.376	182.31
607.585	182.31
607.793	197.31
608.001	178.31
608.21	183.31
608.418	195.31
608.626	198.31
608.834	202.31
609.043	201.31
609.251	206.31
609.459	195.31
609.667	211.31
609.875	229.31
610.083	208.31
610.291	211.31
610.499	265.31
610.707	231.31
610.916	203.31
611.124	199.31
611.332	211.31
611.54	205.31
611.748	217.31
611.955	221.31
612.163	220.31
612.371	297.31
612.579	292.31
612.787	252.31
612.995	221.31
613.203	227.31
613.411	215.31
613.618	212.31
613.826	226.31
614.034	211.31
614.242	222.31
614.449	224.31
614.657	240.31
614.865	226.31
615.072	228.31
615.28	223.31
615.488	229.31
615.695	241.31
615.903	231.31
616.111	260.31
616.318	305.31
616.526	336.31
616.733	278.31
616.941	273.31
617.148	311.31
617.356	266.31
617.563	236.31
617.771	234.31
617.978	241.31
618.185	233.31
618.393	212.31
618.6	216.31
618.807	219.31
619.015	204.31
619.222	219.31
619.429	220.31
619.637	218.31
619.844	216.31
620.051	212.31
620.258	212.31
620.466	205.31
620.673	213.31
620.88	207.31
621.087	221.31
621.294	215.31
621.501	231.31
621.708	217.31
621.915	228.31
622.122	221.31
622.329	227.31
622.536	227.31
622.743	224.31
622.95	242.31
623.157	241.31
623.364	233.31
623.571	241.31
623.778	221.31
623.985	219.31
624.192	233.31
624.399	239.31
624.606	219.31
624.812	245.31
625.019	233.31
625.226	226.31
625.433	221.31
625.639	217.31
625.846	205.31
626.053	215.31
626.259	190.31
626.466	189.31
626.673	195.31
626.879	173.31
627.086	196.31
627.293	194.31
627.499	179.31
627.706	179.31
627.912	169.31
628.119	161.31
628.325	131.31
628.532	152.31
628.738	115.31
628.945	115.31
629.151	117.31
629.357	128.31
629.564	121.31
629.77	117.31
629.976	124.31
630.183	102.31
630.389	102.31
630.595	113.31
630.802	105.31
631.008	104.31
631.214	111.31
631.42	104.31
631.627	115.31
631.833	103.31
632.039	113.31
632.245	118.31
632.451	95.31
632.657	104.31
632.863	127.31
633.069	102.31
633.275	109.31
633.481	111.31
633.688	108.31
633.893	108.31
634.099	109.31
634.305	113.31
634.511	116.31
634.717	108.31
634.923	106.31
635.129	114.31
635.335	128.31
635.541	98.31
635.747	95.31
635.952	106.31
636.158	108.31
636.364	121.31
636.57	103.31
636.775	99.31
636.981	112.31
637.187	95.31
637.392	117.31
637.598	91.31
637.804	102.31
638.009	97.31
638.215	103.31
638.421	97.31
638.626	101.31
638.832	103.31
639.037	107.31
639.243	102.31
639.448	87.31
639.654	89.31
639.859	112.31
640.065	93.31
640.27	94.31
640.475	99.31
640.681	106.31
640.886	90.31
641.091	97.31
641.297	92.31
641.502	94.31
641.707	96.31
641.913	99.31
642.118	106.31
642.323	87.31
642.528	109.31
642.733	104.31
642.939	108.31
643.144	102.31
643.349	106.31
643.554	102.31
643.759	112.31
643.964	122.31
644.169	153.31
644.374	99.31
644.579	101.31
644.784	114.31
644.989	85.31
645.194	115.31
645.399	107.31
645.604	92.31
645.809	94.31
646.014	80.31
646.219	95.31
646.423	125.31
646.628	115.31
646.833	111.31
647.038	99.31
647.243	106.31
647.447	96.31
647.652	99.31
647.857	87.31
648.062	99.31
648.266	100.31
648.471	99.31
648.676	95.31
648.88	88.31
649.085	99.31
649.289	95.31
649.494	105.31
649.698	114.31
649.903	90.31
650.107	96.31
650.312	98.31
650.516	104.31
650.721	88.31
650.925	89.31
651.13	93.31
651.334	101.31
651.539	106.31
651.743	99.31
651.947	99.31
652.152	85.31
652.356	89.31
652.56	77.31
652.764	90.31
652.969	96.31
653.173	92.31
653.377	77.31
653.581	85.31
653.785	88.31
653.99	90.31
654.194	98.31
654.398	89.31
654.602	89.31
654.806	81.31
655.01	90.31
655.214	87.31
655.418	92.31
655.622	72.31
655.826	82.31
656.03	82.31
656.234	84.31
656.438	75.31
656.642	85.31
656.846	78.31
657.049	90.31
657.253	93.31
657.457	93.31
657.661	89.31
657.865	75.31
658.068	90.31
658.272	93.31
658.476	77.31
658.68	87.31
658.883	101.31
659.087	100.31
659.291	83.31
659.494	92.31
659.698	85.31
659.901	87.31
660.105	72.31
660.309	78.31
660.512	75.31
660.716	96.31
660.919	81.31
661.123	89.31
661.326	97.31
661.53	79.31
661.733	74.31
661.936	78.31
662.14	82.31
662.343	86.31
662.546	77.31
662.75	87.31
662.953	99.31
663.156	103.31
663.36	86.31
663.563	76.31
663.766	76.31
663.969	84.31
664.173	87.31
664.376	84.31
664.579	88.31
664.782	89.31
664.985	99.31
665.188	80.31
665.391	94.31
665.594	81.31
665.797	87.31
666	81.31
666.203	75.31
666.406	79.31
666.609	95.31
666.812	86.31
667.015	84.31
667.218	80.31
667.421	84.31
667.624	83.31
667.827	85.31
668.03	79.31
668.232	72.31
668.435	94.31
668.638	73.31
668.841	83.31
669.043	72.31
669.246	91.31
669.449	96.31
669.651	99.31
669.854	80.31
670.057	79.31
670.259	87.31
670.462	73.31
670.665	89.31
670.867	75.31
671.07	83.31
671.272	89.31
671.475	82.31
671.677	97.31
671.88	78.31
672.082	73.31
672.284	88.31
672.487	83.31
672.689	96.31
672.892	84.31
