Data from 2145_1_HRD10591_00002.txt Node
Date: Mon Jan 19 14:21:10 EST 2026
User: Yrep
Spectrometer: HR+D1059
Trigger mode: 1
Integration Time (sec): 1.000000E-1
Scans to average: 1
Electric dark correction enabled: true
Nonlinearity correction enabled: false
Boxcar width: 0
XAxis mode: Wavelengths
Number of Pixels in Spectrum: 2048
>>>>>Begin Spectral Data<<<<<
223.165	-22.88
223.4	-22.88
223.635	-22.88
223.869	-23.88
224.104	-22.88
224.338	-11.88
224.573	-14.88
224.808	-16.88
225.042	-16.88
225.277	-10.88
225.511	-4.88
225.746	1.12
225.98	18.12
226.215	27.12
226.449	6.12
226.683	28.12
226.918	27.12
227.152	38.12
227.387	44.12
227.621	35.12
227.856	39.12
228.09	43.12
228.324	40.12
228.559	64.12
228.793	43.12
229.027	53.12
229.262	57.12
229.496	63.12
229.73	63.12
229.964	67.12
230.199	73.12
230.433	59.12
230.667	88.12
230.901	87.12
231.136	78.12
231.37	75.12
231.604	105.12
231.838	86.12
232.072	67.12
232.306	87.12
232.541	73.12
232.775	79.12
233.009	81.12
233.243	82.12
233.477	77.12
233.711	92.12
233.945	88.12
234.179	90.12
234.413	79.12
234.647	78.12
234.881	70.12
235.115	72.12
235.349	69.12
235.583	67.12
235.817	74.12
236.051	57.12
236.285	75.12
236.519	83.12
236.753	75.12
236.987	76.12
237.221	83.12
237.455	69.12
237.689	71.12
237.922	78.12
238.156	77.12
238.39	69.12
238.624	68.12
238.858	81.12
239.091	67.12
239.325	71.12
239.559	72.12
239.793	75.12
240.027	79.12
240.26	83.12
240.494	73.12
240.728	78.12
240.961	63.12
241.195	91.12
241.429	80.12
241.662	79.12
241.896	71.12
242.13	84.12
242.363	78.12
242.597	75.12
242.83	77.12
243.064	85.12
243.298	90.12
243.531	76.12
243.765	82.12
243.998	79.12
244.232	76.12
244.465	79.12
244.699	68.12
244.932	67.12
245.166	76.12
245.399	73.12
245.633	83.12
245.866	79.12
246.099	93.12
246.333	80.12
246.566	71.12
246.8	77.12
247.033	88.12
247.266	85.12
247.5	77.12
247.733	79.12
247.966	77.12
248.2	78.12
248.433	90.12
248.666	71.12
248.899	89.12
249.133	83.12
249.366	81.12
249.599	81.12
249.832	73.12
250.066	76.12
250.299	92.12
250.532	84.12
250.765	67.12
250.998	79.12
251.231	73.12
251.465	63.12
251.698	77.12
251.931	87.12
252.164	86.12
252.397	78.12
252.63	80.12
252.863	76.12
253.096	72.12
253.329	85.12
253.562	81.12
253.795	78.12
254.028	81.12
254.261	76.12
254.494	79.12
254.727	83.12
254.96	83.12
255.193	84.12
255.426	90.12
255.659	64.12
255.892	85.12
256.124	84.12
256.357	85.12
256.59	94.12
256.823	77.12
257.056	73.12
257.289	91.12
257.521	89.12
257.754	75.12
257.987	76.12
258.22	85.12
258.452	75.12
258.685	89.12
258.918	75.12
259.151	91.12
259.383	91.12
259.616	78.12
259.849	83.12
260.081	81.12
260.314	81.12
260.547	91.12
260.779	70.12
261.012	97.12
261.244	76.12
261.477	87.12
261.71	61.12
261.942	66.12
262.175	72.12
262.407	72.12
262.64	91.12
262.872	76.12
263.105	62.12
263.337	83.12
263.57	81.12
263.802	80.12
264.035	79.12
264.267	79.12
264.499	80.12
264.732	70.12
264.964	85.12
265.197	68.12
265.429	85.12
265.661	72.12
265.894	83.12
266.126	61.12
266.358	76.12
266.591	80.12
266.823	78.12
267.055	94.12
267.287	83.12
267.52	97.12
267.752	78.12
267.984	93.12
268.216	92.12
268.448	74.12
268.681	85.12
268.913	87.12
269.145	89.12
269.377	72.12
269.609	71.12
269.841	73.12
270.073	80.12
270.306	87.12
270.538	82.12
270.77	81.12
271.002	83.12
271.234	67.12
271.466	71.12
271.698	81.12
271.93	84.12
272.162	71.12
272.394	92.12
272.626	91.12
272.858	90.12
273.09	95.12
273.322	89.12
273.553	71.12
273.785	91.12
274.017	81.12
274.249	83.12
274.481	81.12
274.713	71.12
274.945	94.12
275.176	85.12
275.408	83.12
275.64	91.12
275.872	90.12
276.104	76.12
276.335	78.12
276.567	93.12
276.799	85.12
277.031	87.12
277.262	82.12
277.494	83.12
277.726	83.12
277.957	78.12
278.189	81.12
278.421	95.12
278.652	80.12
278.884	78.12
279.115	76.12
279.347	89.12
279.579	85.12
279.81	79.12
280.042	78.12
280.273	93.12
280.505	70.12
280.736	79.12
280.968	91.12
281.199	72.12
281.431	88.12
281.662	86.12
281.894	89.12
282.125	72.12
282.356	84.12
282.588	75.12
282.819	95.12
283.051	92.12
283.282	87.12
283.513	90.12
283.745	92.12
283.976	82.12
284.207	107.12
284.439	83.12
284.67	76.12
284.901	93.12
285.132	78.12
285.364	77.12
285.595	92.12
285.826	87.12
286.057	77.12
286.288	81.12
286.52	99.12
286.751	91.12
286.982	89.12
287.213	76.12
287.444	95.12
287.675	75.12
287.906	80.12
288.138	93.12
288.369	97.12
288.6	92.12
288.831	76.12
289.062	81.12
289.293	85.12
289.524	80.12
289.755	92.12
289.986	88.12
290.217	89.12
290.448	90.12
290.679	89.12
290.91	98.12
291.141	81.12
291.371	75.12
291.602	95.12
291.833	76.12
292.064	69.12
292.295	79.12
292.526	63.12
292.757	84.12
292.987	86.12
293.218	79.12
293.449	82.12
293.68	91.12
293.91	101.12
294.141	86.12
294.372	82.12
294.603	84.12
294.833	93.12
295.064	85.12
295.295	74.12
295.525	78.12
295.756	78.12
295.987	91.12
296.217	87.12
296.448	93.12
296.679	86.12
296.909	96.12
297.14	93.12
297.37	86.12
297.601	93.12
297.831	93.12
298.062	78.12
298.292	89.12
298.523	92.12
298.753	77.12
298.984	93.12
299.214	84.12
299.445	75.12
299.675	82.12
299.905	76.12
300.136	81.12
300.366	71.12
300.597	87.12
300.827	97.12
301.057	91.12
301.288	89.12
301.518	78.12
301.748	87.12
301.979	89.12
302.209	83.12
302.439	86.12
302.669	88.12
302.9	76.12
303.13	91.12
303.36	85.12
303.59	93.12
303.82	87.12
304.051	87.12
304.281	82.12
304.511	80.12
304.741	84.12
304.971	91.12
305.201	88.12
305.431	73.12
305.661	107.12
305.891	87.12
306.121	84.12
306.352	69.12
306.582	73.12
306.812	90.12
307.042	93.12
307.272	87.12
307.502	97.12
307.731	99.12
307.961	84.12
308.191	87.12
308.421	95.12
308.651	96.12
308.881	97.12
309.111	95.12
309.341	88.12
309.571	95.12
309.8	81.12
310.03	88.12
310.26	81.12
310.49	74.12
310.72	71.12
310.949	88.12
311.179	79.12
311.409	87.12
311.639	88.12
311.868	86.12
312.098	81.12
312.328	90.12
312.557	89.12
312.787	75.12
313.017	80.12
313.246	95.12
313.476	86.12
313.706	82.12
313.935	81.12
314.165	67.12
314.394	97.12
314.624	67.12
314.853	77.12
315.083	78.12
315.312	94.12
315.542	90.12
315.771	88.12
316.001	83.12
316.23	86.12
316.46	85.12
316.689	86.12
316.919	85.12
317.148	83.12
317.377	93.12
317.607	84.12
317.836	88.12
318.065	98.12
318.295	89.12
318.524	79.12
318.753	87.12
318.983	74.12
319.212	78.12
319.441	84.12
319.67	75.12
319.9	85.12
320.129	87.12
320.358	78.12
320.587	101.12
320.816	83.12
321.046	90.12
321.275	84.12
321.504	81.12
321.733	76.12
321.962	82.12
322.191	72.12
322.42	91.12
322.649	93.12
322.878	79.12
323.108	81.12
323.337	74.12
323.566	86.12
323.795	91.12
324.024	92.12
324.253	77.12
324.482	93.12
324.71	92.12
324.939	94.12
325.168	79.12
325.397	89.12
325.626	96.12
325.855	91.12
326.084	78.12
326.313	84.12
326.542	87.12
326.77	86.12
326.999	86.12
327.228	86.12
327.457	77.12
327.686	76.12
327.914	91.12
328.143	84.12
328.372	87.12
328.6	85.12
328.829	95.12
329.058	88.12
329.287	99.12
329.515	83.12
329.744	96.12
329.972	85.12
330.201	93.12
330.43	91.12
330.658	69.12
330.887	93.12
331.115	95.12
331.344	99.12
331.572	82.12
331.801	77.12
332.03	83.12
332.258	93.12
332.486	88.12
332.715	77.12
332.943	75.12
333.172	90.12
333.4	90.12
333.629	96.12
333.857	85.12
334.085	98.12
334.314	88.12
334.542	85.12
334.771	90.12
334.999	108.12
335.227	79.12
335.455	77.12
335.684	89.12
335.912	91.12
336.14	99.12
336.369	96.12
336.597	85.12
336.825	77.12
337.053	92.12
337.281	87.12
337.51	93.12
337.738	90.12
337.966	83.12
338.194	83.12
338.422	92.12
338.65	92.12
338.878	101.12
339.106	85.12
339.334	97.12
339.562	93.12
339.79	94.12
340.018	75.12
340.246	95.12
340.474	95.12
340.702	84.12
340.93	81.12
341.158	92.12
341.386	94.12
341.614	70.12
341.842	90.12
342.07	89.12
342.298	93.12
342.526	90.12
342.754	96.12
342.981	83.12
343.209	86.12
343.437	91.12
343.665	74.12
343.893	95.12
344.12	91.12
344.348	84.12
344.576	90.12
344.804	82.12
345.031	91.12
345.259	76.12
345.487	91.12
345.714	77.12
345.942	92.12
346.17	84.12
346.397	76.12
346.625	88.12
346.853	75.12
347.08	99.12
347.308	91.12
347.535	84.12
347.763	89.12
347.99	78.12
348.218	91.12
348.445	75.12
348.673	93.12
348.9	81.12
349.128	98.12
349.355	81.12
349.583	92.12
349.81	89.12
350.037	74.12
350.265	88.12
350.492	75.12
350.72	79.12
350.947	92.12
351.174	104.12
351.402	93.12
351.629	92.12
351.856	80.12
352.083	96.12
352.311	96.12
352.538	73.12
352.765	92.12
352.992	91.12
353.22	107.12
353.447	95.12
353.674	85.12
353.901	88.12
354.128	93.12
354.355	87.12
354.583	93.12
354.81	77.12
355.037	84.12
355.264	89.12
355.491	91.12
355.718	83.12
355.945	81.12
356.172	75.12
356.399	87.12
356.626	90.12
356.853	80.12
357.08	97.12
357.307	92.12
357.534	87.12
357.761	103.12
357.988	89.12
358.215	105.12
358.441	88.12
358.668	82.12
358.895	94.12
359.122	93.12
359.349	83.12
359.576	83.12
359.802	78.12
360.029	92.12
360.256	88.12
360.483	80.12
360.709	99.12
360.936	83.12
361.163	97.12
361.39	79.12
361.616	86.12
361.843	95.12
362.07	117.12
362.296	114.12
362.523	115.12
362.749	122.12
362.976	112.12
363.203	130.12
363.429	106.12
363.656	111.12
363.882	101.12
364.109	122.12
364.335	137.12
364.562	142.12
364.788	114.12
365.015	92.12
365.241	100.12
365.468	85.12
365.694	93.12
365.92	91.12
366.147	83.12
366.373	83.12
366.599	94.12
366.826	99.12
367.052	92.12
367.278	91.12
367.505	87.12
367.731	100.12
367.957	87.12
368.184	79.12
368.41	84.12
368.636	91.12
368.862	93.12
369.089	91.12
369.315	78.12
369.541	74.12
369.767	76.12
369.993	78.12
370.219	86.12
370.445	89.12
370.672	93.12
370.898	85.12
371.124	84.12
371.35	89.12
371.576	91.12
371.802	81.12
372.028	85.12
372.254	98.12
372.48	87.12
372.706	89.12
372.932	99.12
373.158	69.12
373.384	88.12
373.61	109.12
373.835	101.12
374.061	81.12
374.287	96.12
374.513	89.12
374.739	90.12
374.965	91.12
375.191	77.12
375.416	89.12
375.642	99.12
375.868	99.12
376.094	93.12
376.319	91.12
376.545	94.12
376.771	85.12
376.997	97.12
377.222	68.12
377.448	93.12
377.674	69.12
377.899	86.12
378.125	81.12
378.35	82.12
378.576	86.12
378.802	77.12
379.027	83.12
379.253	87.12
379.478	100.12
379.704	86.12
379.929	83.12
380.155	92.12
380.38	84.12
380.606	97.12
380.831	86.12
381.057	89.12
381.282	79.12
381.507	87.12
381.733	82.12
381.958	108.12
382.184	101.12
382.409	92.12
382.634	88.12
382.86	94.12
383.085	99.12
383.31	95.12
383.535	91.12
383.761	91.12
383.986	96.12
384.211	113.12
384.436	94.12
384.662	89.12
384.887	90.12
385.112	80.12
385.337	88.12
385.562	97.12
385.787	90.12
386.013	105.12
386.238	86.12
386.463	78.12
386.688	100.12
386.913	100.12
387.138	109.12
387.363	108.12
387.588	99.12
387.813	98.12
388.038	106.12
388.263	88.12
388.488	107.12
388.713	97.12
388.938	111.12
389.163	85.12
389.387	90.12
389.612	87.12
389.837	86.12
390.062	92.12
390.287	100.12
390.512	99.12
390.736	89.12
390.961	81.12
391.186	86.12
391.411	80.12
391.636	91.12
391.86	87.12
392.085	84.12
392.31	101.12
392.534	103.12
392.759	130.12
392.984	153.12
393.208	235.12
393.433	318.12
393.658	263.12
393.882	132.12
394.107	102.12
394.331	113.12
394.556	129.12
394.78	102.12
395.005	104.12
395.229	106.12
395.454	97.12
395.678	127.12
395.903	123.12
396.127	141.12
396.352	146.12
396.576	172.12
396.801	239.12
397.025	275.12
397.249	165.12
397.474	119.12
397.698	113.12
397.922	95.12
398.147	83.12
398.371	85.12
398.595	97.12
398.82	90.12
399.044	93.12
399.268	78.12
399.492	93.12
399.717	94.12
399.941	77.12
400.165	104.12
400.389	73.12
400.613	85.12
400.837	106.12
401.062	87.12
401.286	78.12
401.51	98.12
401.734	89.12
401.958	87.12
402.182	75.12
402.406	75.12
402.63	82.12
402.854	82.12
403.078	98.12
403.302	83.12
403.526	97.12
403.75	89.12
403.974	87.12
404.198	88.12
404.422	90.12
404.645	111.12
404.869	108.12
405.093	106.12
405.317	91.12
405.541	79.12
405.765	87.12
405.988	89.12
406.212	91.12
406.436	87.12
406.66	92.12
406.883	101.12
407.107	89.12
407.331	95.12
407.555	98.12
407.778	108.12
408.002	112.12
408.226	95.12
408.449	92.12
408.673	87.12
408.896	97.12
409.12	105.12
409.344	84.12
409.567	113.12
409.791	105.12
410.014	129.12
410.238	96.12
410.461	88.12
410.685	104.12
410.908	84.12
411.132	90.12
411.355	80.12
411.578	97.12
411.802	104.12
412.025	88.12
412.249	91.12
412.472	82.12
412.695	91.12
412.919	84.12
413.142	100.12
413.365	96.12
413.589	95.12
413.812	63.12
414.035	86.12
414.258	75.12
414.482	89.12
414.705	87.12
414.928	75.12
415.151	73.12
415.374	76.12
415.597	86.12
415.821	78.12
416.044	93.12
416.267	93.12
416.49	90.12
416.713	80.12
416.936	87.12
417.159	89.12
417.382	86.12
417.605	84.12
417.828	87.12
418.051	92.12
418.274	89.12
418.497	82.12
418.72	87.12
418.943	88.12
419.166	101.12
419.389	85.12
419.611	88.12
419.834	87.12
420.057	89.12
420.28	79.12
420.503	81.12
420.726	105.12
420.948	80.12
421.171	115.12
421.394	115.12
421.617	136.12
421.839	131.12
422.062	124.12
422.285	186.12
422.507	263.12
422.73	359.12
422.953	332.12
423.175	226.12
423.398	149.12
423.621	131.12
423.843	109.12
424.066	101.12
424.288	96.12
424.511	94.12
424.733	100.12
424.956	102.12
425.178	86.12
425.401	85.12
425.623	113.12
425.846	89.12
426.068	84.12
426.291	97.12
426.513	74.12
426.735	104.12
426.958	98.12
427.18	88.12
427.402	96.12
427.625	81.12
427.847	83.12
428.069	91.12
428.292	120.12
428.514	152.12
428.736	129.12
428.958	139.12
429.181	117.12
429.403	92.12
429.625	107.12
429.847	127.12
430.069	156.12
430.292	180.12
430.514	167.12
430.736	133.12
430.958	125.12
431.18	91.12
431.402	87.12
431.624	103.12
431.846	124.12
432.068	129.12
432.29	96.12
432.512	91.12
432.734	81.12
432.956	83.12
433.178	89.12
433.4	78.12
433.622	77.12
433.844	100.12
434.066	97.12
434.287	78.12
434.509	84.12
434.731	59.12
434.953	77.12
435.175	84.12
435.397	95.12
435.618	93.12
435.84	93.12
436.062	89.12
436.284	75.12
436.505	91.12
436.727	99.12
436.949	92.12
437.17	78.12
437.392	86.12
437.614	76.12
437.835	83.12
438.057	99.12
438.278	87.12
438.5	91.12
438.721	97.12
438.943	81.12
439.165	97.12
439.386	95.12
439.608	90.12
439.829	85.12
440.05	91.12
440.272	93.12
440.493	91.12
440.715	80.12
440.936	94.12
441.158	92.12
441.379	100.12
441.6	103.12
441.822	87.12
442.043	89.12
442.264	102.12
442.486	140.12
442.707	173.12
442.928	131.12
443.149	118.12
443.371	167.12
443.592	243.12
443.813	202.12
444.034	119.12
444.255	96.12
444.476	97.12
444.698	95.12
444.919	112.12
445.14	214.12
445.361	233.12
445.582	316.12
445.803	279.12
446.024	125.12
446.245	92.12
446.466	86.12
446.687	83.12
446.908	71.12
447.129	95.12
447.35	94.12
447.571	77.12
447.792	83.12
448.013	83.12
448.234	98.12
448.455	76.12
448.675	70.12
448.896	87.12
449.117	75.12
449.338	84.12
449.559	84.12
449.779	98.12
450	97.12
450.221	77.12
450.442	70.12
450.662	80.12
450.883	85.12
451.104	95.12
451.324	94.12
451.545	91.12
451.766	83.12
451.986	86.12
452.207	91.12
452.428	92.12
452.648	104.12
452.869	82.12
453.089	80.12
453.31	83.12
453.53	89.12
453.751	77.12
453.971	87.12
454.192	99.12
454.412	88.12
454.633	85.12
454.853	86.12
455.073	93.12
455.294	85.12
455.514	85.12
455.734	92.12
455.955	92.12
456.175	82.12
456.395	74.12
456.616	83.12
456.836	78.12
457.056	88.12
457.276	78.12
457.497	88.12
457.717	91.12
457.937	114.12
458.157	145.12
458.377	145.12
458.598	136.12
458.818	134.12
459.038	106.12
459.258	80.12
459.478	79.12
459.698	77.12
459.918	94.12
460.138	80.12
460.358	80.12
460.578	115.12
460.798	113.12
461.018	123.12
461.238	87.12
461.458	75.12
461.678	84.12
461.898	90.12
462.118	100.12
462.338	86.12
462.558	86.12
462.777	83.12
462.997	84.12
463.217	87.12
463.437	73.12
463.657	83.12
463.876	91.12
464.096	93.12
464.316	83.12
464.536	81.12
464.755	90.12
464.975	80.12
465.195	71.12
465.414	106.12
465.634	92.12
465.854	97.12
466.073	80.12
466.293	73.12
466.512	83.12
466.732	85.12
466.951	85.12
467.171	99.12
467.391	89.12
467.61	94.12
467.829	96.12
468.049	84.12
468.268	80.12
468.488	84.12
468.707	89.12
468.927	90.12
469.146	81.12
469.365	85.12
469.585	84.12
469.804	83.12
470.023	87.12
470.243	104.12
470.462	82.12
470.681	87.12
470.901	87.12
471.12	91.12
471.339	100.12
471.558	94.12
471.777	86.12
471.997	95.12
472.216	98.12
472.435	97.12
472.654	88.12
472.873	81.12
473.092	84.12
473.311	81.12
473.53	83.12
473.749	93.12
473.968	84.12
474.187	83.12
474.406	92.12
474.625	63.12
474.844	83.12
475.063	74.12
475.282	90.12
475.501	86.12
475.72	75.12
475.939	77.12
476.158	97.12
476.377	101.12
476.596	86.12
476.814	83.12
477.033	93.12
477.252	75.12
477.471	84.12
477.69	80.12
477.908	86.12
478.127	80.12
478.346	92.12
478.564	87.12
478.783	81.12
479.002	97.12
479.22	87.12
479.439	95.12
479.658	94.12
479.876	97.12
480.095	92.12
480.313	83.12
480.532	92.12
480.751	87.12
480.969	91.12
481.188	87.12
481.406	94.12
481.624	93.12
481.843	89.12
482.061	92.12
482.28	100.12
482.498	79.12
482.717	97.12
482.935	81.12
483.153	84.12
483.372	81.12
483.59	106.12
483.808	89.12
484.027	83.12
484.245	80.12
484.463	90.12
484.681	97.12
484.9	79.12
485.118	102.12
485.336	95.12
485.554	82.12
485.772	86.12
485.99	88.12
486.209	99.12
486.427	85.12
486.645	88.12
486.863	85.12
487.081	87.12
487.299	86.12
487.517	105.12
487.735	153.12
487.953	206.12
488.171	169.12
488.389	105.12
488.607	88.12
488.825	76.12
489.043	81.12
489.261	96.12
489.479	79.12
489.696	104.12
489.914	81.12
490.132	89.12
490.35	85.12
490.568	86.12
490.786	89.12
491.003	93.12
491.221	86.12
491.439	89.12
491.657	96.12
491.874	88.12
492.092	95.12
492.31	87.12
492.527	92.12
492.745	85.12
492.963	105.12
493.18	89.12
493.398	101.12
493.615	97.12
493.833	96.12
494.05	87.12
494.268	89.12
494.485	101.12
494.703	91.12
494.92	100.12
495.138	104.12
495.355	104.12
495.573	91.12
495.79	87.12
496.008	98.12
496.225	95.12
496.442	83.12
496.66	99.12
496.877	102.12
497.094	100.12
497.312	79.12
497.529	92.12
497.746	104.12
497.963	87.12
498.181	100.12
498.398	106.12
498.615	101.12
498.832	83.12
499.049	87.12
499.267	85.12
499.484	91.12
499.701	87.12
499.918	106.12
500.135	114.12
500.352	95.12
500.569	94.12
500.786	95.12
501.003	92.12
501.22	81.12
501.437	87.12
501.654	95.12
501.871	90.12
502.088	83.12
502.305	87.12
502.522	91.12
502.739	101.12
502.956	92.12
503.172	86.12
503.389	77.12
503.606	84.12
503.823	94.12
504.04	126.12
504.256	167.12
504.473	147.12
504.69	96.12
504.907	102.12
505.123	90.12
505.34	77.12
505.557	77.12
505.773	100.12
505.99	87.12
506.207	88.12
506.423	88.12
506.64	90.12
506.856	81.12
507.073	68.12
507.289	95.12
507.506	96.12
507.722	84.12
507.939	104.12
508.155	93.12
508.372	88.12
508.588	100.12
508.805	79.12
509.021	75.12
509.238	78.12
509.454	99.12
509.67	85.12
509.887	80.12
510.103	77.12
510.319	85.12
510.536	99.12
510.752	76.12
510.968	87.12
511.184	95.12
511.401	88.12
511.617	92.12
511.833	87.12
512.049	77.12
512.265	106.12
512.481	89.12
512.698	90.12
512.914	82.12
513.13	88.12
513.346	86.12
513.562	93.12
513.778	90.12
513.994	89.12
514.21	83.12
514.426	91.12
514.642	98.12
514.858	95.12
515.074	100.12
515.29	90.12
515.506	101.12
515.721	87.12
515.937	96.12
516.153	106.12
516.369	95.12
516.585	91.12
516.801	101.12
517.016	99.12
517.232	105.12
517.448	100.12
517.664	94.12
517.879	88.12
518.095	91.12
518.311	99.12
518.527	113.12
518.742	114.12
518.958	162.12
519.173	205.12
519.389	121.12
519.605	93.12
519.82	98.12
520.036	100.12
520.251	92.12
520.467	76.12
520.682	99.12
520.898	92.12
521.113	100.12
521.329	104.12
521.544	92.12
521.76	85.12
521.975	95.12
522.19	82.12
522.406	106.12
522.621	99.12
522.836	94.12
523.052	91.12
523.267	98.12
523.482	102.12
523.698	102.12
523.913	106.12
524.128	81.12
524.343	91.12
524.559	95.12
524.774	89.12
524.989	84.12
525.204	114.12
525.419	89.12
525.634	88.12
525.849	114.12
526.064	128.12
526.28	252.12
526.495	381.12
526.71	392.12
526.925	250.12
527.14	303.12
527.355	289.12
527.57	130.12
527.785	105.12
527.999	93.12
528.214	104.12
528.429	104.12
528.644	91.12
528.859	116.12
529.074	96.12
529.289	89.12
529.503	99.12
529.718	99.12
529.933	93.12
530.148	88.12
530.363	96.12
530.577	91.12
530.792	94.12
531.007	90.12
531.221	91.12
531.436	101.12
531.651	104.12
531.865	108.12
532.08	96.12
532.295	103.12
532.509	104.12
532.724	100.12
532.938	105.12
533.153	98.12
533.367	89.12
533.582	117.12
533.796	114.12
534.011	93.12
534.225	103.12
534.44	107.12
534.654	122.12
534.868	121.12
535.083	184.12
535.297	167.12
535.511	119.12
535.726	92.12
535.94	103.12
536.154	110.12
536.369	109.12
536.583	103.12
536.797	105.12
537.011	103.12
537.225	111.12
537.44	121.12
537.654	130.12
537.868	113.12
538.082	96.12
538.296	107.12
538.51	116.12
538.724	113.12
538.938	111.12
539.153	102.12
539.367	118.12
539.581	94.12
539.795	99.12
540.009	105.12
540.222	108.12
540.436	122.12
540.65	97.12
540.864	115.12
541.078	106.12
541.292	116.12
541.506	128.12
541.72	124.12
541.934	110.12
542.147	93.12
542.361	109.12
542.575	105.12
542.789	103.12
543.002	113.12
543.216	119.12
543.43	105.12
543.644	111.12
543.857	111.12
544.071	114.12
544.285	118.12
544.498	108.12
544.712	110.12
544.925	115.12
545.139	122.12
545.352	117.12
545.566	119.12
545.779	111.12
545.993	105.12
546.206	120.12
546.42	127.12
546.633	128.12
546.847	151.12
547.06	152.12
547.274	163.12
547.487	189.12
547.7	192.12
547.914	204.12
548.127	214.12
548.34	208.12
548.554	230.12
548.767	213.12
548.98	218.12
549.193	220.12
549.407	225.12
549.62	240.12
549.833	253.12
550.046	294.12
550.259	305.12
550.473	284.12
550.686	309.12
550.899	342.12
551.112	346.12
551.325	402.12
551.538	426.12
551.751	382.12
551.964	376.12
552.177	386.12
552.39	396.12
552.603	386.12
552.816	377.12
553.029	380.12
553.242	390.12
553.455	386.12
553.667	420.12
553.88	460.12
554.093	459.12
554.306	442.12
554.519	460.12
554.732	458.12
554.944	445.12
555.157	413.12
555.37	425.12
555.583	400.12
555.795	380.12
556.008	357.12
556.221	335.12
556.433	329.12
556.646	312.12
556.859	277.12
557.071	288.12
557.284	265.12
557.496	253.12
557.709	244.12
557.921	214.12
558.134	224.12
558.346	284.12
558.559	258.12
558.771	247.12
558.984	381.12
559.196	451.12
559.409	274.12
559.621	356.12
559.833	291.12
560.046	323.12
560.258	279.12
560.47	291.12
560.683	181.12
560.895	157.12
561.107	129.12
561.32	129.12
561.532	135.12
561.744	117.12
561.956	134.12
562.168	126.12
562.381	139.12
562.593	109.12
562.805	118.12
563.017	113.12
563.229	115.12
563.441	117.12
563.653	130.12
563.865	113.12
564.077	122.12
564.289	123.12
564.501	106.12
564.713	134.12
564.925	120.12
565.137	107.12
565.349	115.12
565.561	107.12
565.773	129.12
565.985	119.12
566.197	114.12
566.408	107.12
566.62	121.12
566.832	117.12
567.044	113.12
567.255	103.12
567.467	95.12
567.679	107.12
567.891	109.12
568.102	126.12
568.314	120.12
568.526	126.12
568.737	122.12
568.949	138.12
569.161	125.12
569.372	111.12
569.584	112.12
569.795	100.12
570.007	109.12
570.218	108.12
570.43	96.12
570.641	92.12
570.853	105.12
571.064	107.12
571.276	99.12
571.487	113.12
571.698	123.12
571.91	109.12
572.121	115.12
572.333	116.12
572.544	117.12
572.755	119.12
572.966	114.12
573.178	106.12
573.389	108.12
573.6	124.12
573.811	107.12
574.023	100.12
574.234	128.12
574.445	115.12
574.656	104.12
574.867	108.12
575.078	107.12
575.289	104.12
575.501	103.12
575.712	99.12
575.923	112.12
576.134	105.12
576.345	101.12
576.556	100.12
576.767	110.12
576.978	108.12
577.188	79.12
577.399	119.12
577.61	99.12
577.821	96.12
578.032	110.12
578.243	97.12
578.454	99.12
578.665	106.12
578.875	92.12
579.086	85.12
579.297	90.12
579.508	98.12
579.718	100.12
579.929	116.12
580.14	99.12
580.35	105.12
580.561	98.12
580.772	115.12
580.982	111.12
581.193	105.12
581.403	109.12
581.614	94.12
581.825	108.12
582.035	103.12
582.246	101.12
582.456	90.12
582.667	97.12
582.877	106.12
583.087	94.12
583.298	91.12
583.508	109.12
583.719	97.12
583.929	95.12
584.139	100.12
584.35	102.12
584.56	105.12
584.77	99.12
584.981	116.12
585.191	106.12
585.401	123.12
585.611	127.12
585.821	193.12
586.032	296.12
586.242	151.12
586.452	108.12
586.662	119.12
586.872	109.12
587.082	111.12
587.292	116.12
587.502	104.12
587.713	119.12
587.923	115.12
588.133	121.12
588.343	124.12
588.553	144.12
588.762	163.12
588.972	322.12
589.182	599.12
589.392	462.12
589.602	347.12
589.812	554.12
590.022	331.12
590.232	175.12
590.441	132.12
590.651	155.12
590.861	127.12
591.071	144.12
591.281	144.12
591.49	135.12
591.7	125.12
591.91	137.12
592.119	121.12
592.329	116.12
592.539	121.12
592.748	140.12
592.958	137.12
593.167	139.12
593.377	154.12
593.587	147.12
593.796	152.12
594.006	155.12
594.215	167.12
594.424	135.12
594.634	151.12
594.843	165.12
595.053	178.12
595.262	178.12
595.472	175.12
595.681	171.12
595.89	191.12
596.1	199.12
596.309	176.12
596.518	204.12
596.727	225.12
596.937	223.12
597.146	217.12
597.355	231.12
597.564	227.12
597.774	225.12
597.983	233.12
598.192	220.12
598.401	246.12
598.61	239.12
598.819	236.12
599.028	241.12
599.237	248.12
599.446	261.12
599.655	257.12
599.864	241.12
600.073	237.12
600.282	235.12
600.491	272.12
600.7	267.12
600.909	251.12
601.118	226.12
601.327	223.12
601.536	209.12
601.745	224.12
601.953	216.12
602.162	221.12
602.371	234.12
602.58	214.12
602.789	225.12
602.997	224.12
603.206	267.12
603.415	247.12
603.623	251.12
603.832	244.12
604.041	235.12
604.249	241.12
604.458	256.12
604.666	256.12
604.875	229.12
605.084	262.12
605.292	275.12
605.501	273.12
605.709	282.12
605.918	294.12
606.126	277.12
606.334	283.12
606.543	297.12
606.751	303.12
606.96	275.12
607.168	269.12
607.376	274.12
607.585	266.12
607.793	267.12
608.001	269.12
608.21	274.12
608.418	289.12
608.626	268.12
608.834	259.12
609.043	288.12
609.251	271.12
609.459	274.12
609.667	295.12
609.875	298.12
610.083	293.12
610.291	314.12
610.499	411.12
610.707	339.12
610.916	277.12
611.124	286.12
611.332	287.12
611.54	293.12
611.748	324.12
611.955	335.12
612.163	332.12
612.371	465.12
612.579	429.12
612.787	358.12
612.995	331.12
613.203	319.12
613.411	315.12
613.618	317.12
613.826	320.12
614.034	316.12
614.242	318.12
614.449	339.12
614.657	337.12
614.865	342.12
615.072	321.12
615.28	334.12
615.488	347.12
615.695	336.12
615.903	348.12
616.111	376.12
616.318	498.12
616.526	554.12
616.733	441.12
616.941	407.12
617.148	481.12
617.356	409.12
617.563	380.12
617.771	331.12
617.978	352.12
618.185	332.12
618.393	323.12
618.6	336.12
618.807	330.12
619.015	339.12
619.222	324.12
619.429	317.12
619.637	315.12
619.844	328.12
620.051	315.12
620.258	316.12
620.466	330.12
620.673	337.12
620.88	310.12
621.087	323.12
621.294	365.12
621.501	337.12
621.708	341.12
621.915	336.12
622.122	341.12
622.329	343.12
622.536	329.12
622.743	353.12
622.95	350.12
623.157	346.12
623.364	358.12
623.571	361.12
623.778	342.12
623.985	342.12
624.192	331.12
624.399	331.12
624.606	351.12
624.812	339.12
625.019	356.12
625.226	344.12
625.433	345.12
625.639	321.12
625.846	315.12
626.053	312.12
626.259	308.12
626.466	279.12
626.673	277.12
626.879	277.12
627.086	294.12
627.293	264.12
627.499	257.12
627.706	228.12
627.912	223.12
628.119	198.12
628.325	199.12
628.532	166.12
628.738	159.12
628.945	152.12
629.151	161.12
629.357	159.12
629.564	144.12
629.77	153.12
629.976	145.12
630.183	144.12
630.389	147.12
630.595	141.12
630.802	136.12
631.008	137.12
631.214	116.12
631.42	134.12
631.627	130.12
631.833	121.12
632.039	119.12
632.245	127.12
632.451	115.12
632.657	116.12
632.863	119.12
633.069	132.12
633.275	119.12
633.481	118.12
633.688	121.12
633.893	131.12
634.099	119.12
634.305	113.12
634.511	127.12
634.717	135.12
634.923	137.12
635.129	125.12
635.335	117.12
635.541	123.12
635.747	130.12
635.952	104.12
636.158	136.12
636.364	117.12
636.57	123.12
636.775	122.12
636.981	126.12
637.187	125.12
637.392	132.12
637.598	125.12
637.804	131.12
638.009	115.12
638.215	119.12
638.421	139.12
638.626	129.12
638.832	123.12
639.037	115.12
639.243	122.12
639.448	113.12
639.654	112.12
639.859	115.12
640.065	114.12
640.27	116.12
640.475	115.12
640.681	121.12
640.886	107.12
641.091	117.12
641.297	132.12
641.502	115.12
641.707	115.12
641.913	107.12
642.118	118.12
642.323	115.12
642.528	120.12
642.733	123.12
642.939	124.12
643.144	108.12
643.349	107.12
643.554	112.12
643.759	115.12
643.964	170.12
644.169	210.12
644.374	133.12
644.579	120.12
644.784	123.12
644.989	135.12
645.194	153.12
645.399	131.12
645.604	105.12
645.809	129.12
646.014	112.12
646.219	137.12
646.423	179.12
646.628	155.12
646.833	123.12
647.038	115.12
647.243	127.12
647.447	126.12
647.652	119.12
647.857	103.12
648.062	121.12
648.266	100.12
648.471	117.12
648.676	111.12
648.88	105.12
649.085	108.12
649.289	105.12
649.494	141.12
649.698	139.12
649.903	113.12
650.107	115.12
650.312	112.12
650.516	86.12
650.721	105.12
650.925	97.12
651.13	89.12
651.334	102.12
651.539	89.12
651.743	71.12
651.947	84.12
652.152	91.12
652.356	100.12
652.56	92.12
652.764	96.12
652.969	96.12
653.173	90.12
653.377	98.12
653.581	97.12
653.785	94.12
653.99	76.12
654.194	89.12
654.398	88.12
654.602	95.12
654.806	76.12
655.01	105.12
655.214	93.12
655.418	88.12
655.622	67.12
655.826	79.12
656.03	82.12
656.234	78.12
656.438	88.12
656.642	77.12
656.846	83.12
657.049	87.12
657.253	105.12
657.457	92.12
657.661	94.12
657.865	85.12
658.068	85.12
658.272	87.12
658.476	78.12
658.68	83.12
658.883	84.12
659.087	80.12
659.291	95.12
659.494	85.12
659.698	92.12
659.901	82.12
660.105	80.12
660.309	75.12
660.512	81.12
660.716	92.12
660.919	83.12
661.123	86.12
661.326	95.12
661.53	84.12
661.733	67.12
661.936	99.12
662.14	86.12
662.343	84.12
662.546	96.12
662.75	83.12
662.953	83.12
663.156	90.12
663.36	90.12
663.563	90.12
663.766	78.12
663.969	88.12
664.173	69.12
664.376	79.12
664.579	75.12
664.782	81.12
664.985	72.12
665.188	91.12
665.391	84.12
665.594	72.12
665.797	63.12
666	86.12
666.203	65.12
666.406	79.12
666.609	79.12
666.812	91.12
667.015	91.12
667.218	91.12
667.421	84.12
667.624	79.12
667.827	84.12
668.03	80.12
668.232	86.12
668.435	91.12
668.638	81.12
668.841	75.12
669.043	83.12
669.246	75.12
669.449	87.12
669.651	69.12
669.854	101.12
670.057	81.12
670.259	82.12
670.462	75.12
670.665	78.12
670.867	94.12
671.07	78.12
671.272	85.12
671.475	91.12
671.677	72.12
671.88	83.12
672.082	76.12
672.284	87.12
672.487	81.12
672.689	80.12
672.892	77.12
