Data from 2145_1_HRD10591_00025.txt Node
Date: Mon Jan 19 14:21:21 EST 2026
User: Yrep
Spectrometer: HR+D1059
Trigger mode: 1
Integration Time (sec): 1.000000E-1
Scans to average: 1
Electric dark correction enabled: true
Nonlinearity correction enabled: false
Boxcar width: 0
XAxis mode: Wavelengths
Number of Pixels in Spectrum: 2048
>>>>>Begin Spectral Data<<<<<
223.165	-15.69
223.4	-15.69
223.635	-15.69
223.869	-23.69
224.104	-19.69
224.338	-21.69
224.573	-13.69
224.808	-10.69
225.042	-17.69
225.277	-6.69
225.511	-10.69
225.746	17.31
225.98	3.31
226.215	33.31
226.449	28.31
226.683	13.31
226.918	13.31
227.152	31.31
227.387	51.31
227.621	46.31
227.856	40.31
228.09	52.31
228.324	41.31
228.559	54.31
228.793	56.31
229.027	64.31
229.262	73.31
229.496	76.31
229.73	66.31
229.964	73.31
230.199	56.31
230.433	70.31
230.667	78.31
230.901	91.31
231.136	74.31
231.37	87.31
231.604	75.31
231.838	85.31
232.072	84.31
232.306	85.31
232.541	76.31
232.775	74.31
233.009	74.31
233.243	73.31
233.477	82.31
233.711	92.31
233.945	66.31
234.179	88.31
234.413	97.31
234.647	75.31
234.881	83.31
235.115	90.31
235.349	90.31
235.583	86.31
235.817	77.31
236.051	92.31
236.285	74.31
236.519	72.31
236.753	68.31
236.987	85.31
237.221	86.31
237.455	71.31
237.689	72.31
237.922	83.31
238.156	76.31
238.39	65.31
238.624	73.31
238.858	73.31
239.091	67.31
239.325	77.31
239.559	79.31
239.793	76.31
240.027	64.31
240.26	69.31
240.494	77.31
240.728	72.31
240.961	65.31
241.195	76.31
241.429	75.31
241.662	73.31
241.896	85.31
242.13	77.31
242.363	78.31
242.597	81.31
242.83	76.31
243.064	68.31
243.298	71.31
243.531	77.31
243.765	90.31
243.998	86.31
244.232	78.31
244.465	82.31
244.699	85.31
244.932	71.31
245.166	79.31
245.399	69.31
245.633	69.31
245.866	81.31
246.099	76.31
246.333	72.31
246.566	80.31
246.8	95.31
247.033	75.31
247.266	68.31
247.5	83.31
247.733	85.31
247.966	72.31
248.2	71.31
248.433	89.31
248.666	87.31
248.899	73.31
249.133	101.31
249.366	88.31
249.599	70.31
249.832	74.31
250.066	75.31
250.299	73.31
250.532	78.31
250.765	66.31
250.998	92.31
251.231	76.31
251.465	73.31
251.698	90.31
251.931	83.31
252.164	89.31
252.397	79.31
252.63	86.31
252.863	85.31
253.096	82.31
253.329	88.31
253.562	76.31
253.795	78.31
254.028	89.31
254.261	72.31
254.494	70.31
254.727	88.31
254.96	69.31
255.193	76.31
255.426	78.31
255.659	96.31
255.892	73.31
256.124	72.31
256.357	83.31
256.59	76.31
256.823	69.31
257.056	77.31
257.289	80.31
257.521	71.31
257.754	92.31
257.987	87.31
258.22	76.31
258.452	75.31
258.685	97.31
258.918	87.31
259.151	100.31
259.383	76.31
259.616	81.31
259.849	81.31
260.081	65.31
260.314	76.31
260.547	94.31
260.779	76.31
261.012	79.31
261.244	73.31
261.477	83.31
261.71	88.31
261.942	89.31
262.175	67.31
262.407	76.31
262.64	83.31
262.872	71.31
263.105	76.31
263.337	79.31
263.57	80.31
263.802	78.31
264.035	68.31
264.267	70.31
264.499	78.31
264.732	75.31
264.964	81.31
265.197	62.31
265.429	82.31
265.661	83.31
265.894	74.31
266.126	81.31
266.358	85.31
266.591	84.31
266.823	82.31
267.055	70.31
267.287	84.31
267.52	76.31
267.752	78.31
267.984	86.31
268.216	84.31
268.448	77.31
268.681	78.31
268.913	84.31
269.145	66.31
269.377	84.31
269.609	82.31
269.841	76.31
270.073	95.31
270.306	79.31
270.538	91.31
270.77	85.31
271.002	86.31
271.234	82.31
271.466	84.31
271.698	91.31
271.93	81.31
272.162	75.31
272.394	83.31
272.626	80.31
272.858	86.31
273.09	74.31
273.322	87.31
273.553	79.31
273.785	77.31
274.017	92.31
274.249	96.31
274.481	91.31
274.713	83.31
274.945	81.31
275.176	77.31
275.408	93.31
275.64	84.31
275.872	84.31
276.104	97.31
276.335	82.31
276.567	73.31
276.799	76.31
277.031	90.31
277.262	95.31
277.494	76.31
277.726	79.31
277.957	79.31
278.189	98.31
278.421	89.31
278.652	83.31
278.884	77.31
279.115	88.31
279.347	88.31
279.579	91.31
279.81	87.31
280.042	83.31
280.273	89.31
280.505	81.31
280.736	85.31
280.968	81.31
281.199	88.31
281.431	91.31
281.662	84.31
281.894	86.31
282.125	78.31
282.356	88.31
282.588	81.31
282.819	78.31
283.051	82.31
283.282	71.31
283.513	91.31
283.745	80.31
283.976	79.31
284.207	91.31
284.439	98.31
284.67	92.31
284.901	103.31
285.132	85.31
285.364	82.31
285.595	84.31
285.826	86.31
286.057	92.31
286.288	74.31
286.52	78.31
286.751	84.31
286.982	89.31
287.213	76.31
287.444	90.31
287.675	92.31
287.906	93.31
288.138	91.31
288.369	94.31
288.6	84.31
288.831	97.31
289.062	86.31
289.293	80.31
289.524	87.31
289.755	92.31
289.986	91.31
290.217	80.31
290.448	85.31
290.679	89.31
290.91	85.31
291.141	86.31
291.371	90.31
291.602	81.31
291.833	87.31
292.064	76.31
292.295	96.31
292.526	97.31
292.757	100.31
292.987	93.31
293.218	94.31
293.449	84.31
293.68	89.31
293.91	89.31
294.141	84.31
294.372	72.31
294.603	84.31
294.833	84.31
295.064	81.31
295.295	82.31
295.525	65.31
295.756	94.31
295.987	82.31
296.217	74.31
296.448	102.31
296.679	83.31
296.909	83.31
297.14	75.31
297.37	81.31
297.601	88.31
297.831	85.31
298.062	88.31
298.292	73.31
298.523	82.31
298.753	86.31
298.984	89.31
299.214	92.31
299.445	93.31
299.675	77.31
299.905	98.31
300.136	84.31
300.366	79.31
300.597	73.31
300.827	87.31
301.057	70.31
301.288	84.31
301.518	88.31
301.748	92.31
301.979	101.31
302.209	84.31
302.439	87.31
302.669	84.31
302.9	81.31
303.13	80.31
303.36	86.31
303.59	100.31
303.82	82.31
304.051	68.31
304.281	98.31
304.511	83.31
304.741	80.31
304.971	85.31
305.201	90.31
305.431	87.31
305.661	96.31
305.891	87.31
306.121	93.31
306.352	88.31
306.582	68.31
306.812	80.31
307.042	83.31
307.272	75.31
307.502	103.31
307.731	81.31
307.961	94.31
308.191	92.31
308.421	94.31
308.651	93.31
308.881	82.31
309.111	79.31
309.341	89.31
309.571	104.31
309.8	90.31
310.03	91.31
310.26	90.31
310.49	96.31
310.72	82.31
310.949	91.31
311.179	72.31
311.409	71.31
311.639	87.31
311.868	88.31
312.098	89.31
312.328	84.31
312.557	88.31
312.787	89.31
313.017	98.31
313.246	80.31
313.476	83.31
313.706	86.31
313.935	96.31
314.165	81.31
314.394	88.31
314.624	86.31
314.853	88.31
315.083	82.31
315.312	68.31
315.542	91.31
315.771	96.31
316.001	87.31
316.23	83.31
316.46	84.31
316.689	79.31
316.919	90.31
317.148	85.31
317.377	89.31
317.607	92.31
317.836	101.31
318.065	93.31
318.295	91.31
318.524	89.31
318.753	88.31
318.983	90.31
319.212	69.31
319.441	92.31
319.67	69.31
319.9	79.31
320.129	94.31
320.358	91.31
320.587	84.31
320.816	79.31
321.046	84.31
321.275	96.31
321.504	86.31
321.733	96.31
321.962	83.31
322.191	93.31
322.42	68.31
322.649	82.31
322.878	92.31
323.108	86.31
323.337	90.31
323.566	84.31
323.795	85.31
324.024	93.31
324.253	80.31
324.482	88.31
324.71	93.31
324.939	88.31
325.168	81.31
325.397	76.31
325.626	84.31
325.855	78.31
326.084	89.31
326.313	88.31
326.542	72.31
326.77	84.31
326.999	82.31
327.228	89.31
327.457	84.31
327.686	84.31
327.914	81.31
328.143	88.31
328.372	90.31
328.6	90.31
328.829	90.31
329.058	104.31
329.287	79.31
329.515	86.31
329.744	78.31
329.972	96.31
330.201	88.31
330.43	82.31
330.658	95.31
330.887	95.31
331.115	77.31
331.344	82.31
331.572	77.31
331.801	68.31
332.03	81.31
332.258	70.31
332.486	85.31
332.715	97.31
332.943	92.31
333.172	90.31
333.4	91.31
333.629	84.31
333.857	70.31
334.085	77.31
334.314	91.31
334.542	79.31
334.771	84.31
334.999	95.31
335.227	85.31
335.455	93.31
335.684	101.31
335.912	93.31
336.14	91.31
336.369	83.31
336.597	78.31
336.825	71.31
337.053	92.31
337.281	80.31
337.51	84.31
337.738	96.31
337.966	90.31
338.194	85.31
338.422	84.31
338.65	93.31
338.878	100.31
339.106	86.31
339.334	88.31
339.562	90.31
339.79	95.31
340.018	82.31
340.246	78.31
340.474	84.31
340.702	84.31
340.93	75.31
341.158	79.31
341.386	93.31
341.614	91.31
341.842	76.31
342.07	85.31
342.298	82.31
342.526	100.31
342.754	98.31
342.981	85.31
343.209	85.31
343.437	102.31
343.665	73.31
343.893	92.31
344.12	105.31
344.348	88.31
344.576	83.31
344.804	89.31
345.031	68.31
345.259	96.31
345.487	97.31
345.714	103.31
345.942	79.31
346.17	94.31
346.397	88.31
346.625	91.31
346.853	98.31
347.08	83.31
347.308	88.31
347.535	82.31
347.763	101.31
347.99	84.31
348.218	84.31
348.445	93.31
348.673	77.31
348.9	78.31
349.128	94.31
349.355	78.31
349.583	81.31
349.81	68.31
350.037	94.31
350.265	80.31
350.492	88.31
350.72	91.31
350.947	85.31
351.174	79.31
351.402	83.31
351.629	82.31
351.856	98.31
352.083	99.31
352.311	85.31
352.538	91.31
352.765	86.31
352.992	88.31
353.22	87.31
353.447	74.31
353.674	93.31
353.901	92.31
354.128	87.31
354.355	89.31
354.583	90.31
354.81	68.31
355.037	84.31
355.264	95.31
355.491	75.31
355.718	79.31
355.945	93.31
356.172	76.31
356.399	78.31
356.626	86.31
356.853	94.31
357.08	83.31
357.307	78.31
357.534	82.31
357.761	86.31
357.988	89.31
358.215	85.31
358.441	82.31
358.668	83.31
358.895	87.31
359.122	92.31
359.349	86.31
359.576	85.31
359.802	92.31
360.029	84.31
360.256	74.31
360.483	76.31
360.709	75.31
360.936	93.31
361.163	93.31
361.39	102.31
361.616	94.31
361.843	87.31
362.07	92.31
362.296	97.31
362.523	98.31
362.749	99.31
362.976	95.31
363.203	112.31
363.429	97.31
363.656	86.31
363.882	97.31
364.109	112.31
364.335	104.31
364.562	122.31
364.788	106.31
365.015	69.31
365.241	80.31
365.468	86.31
365.694	90.31
365.92	82.31
366.147	86.31
366.373	96.31
366.599	91.31
366.826	90.31
367.052	79.31
367.278	77.31
367.505	86.31
367.731	92.31
367.957	77.31
368.184	74.31
368.41	90.31
368.636	88.31
368.862	91.31
369.089	87.31
369.315	87.31
369.541	94.31
369.767	86.31
369.993	87.31
370.219	70.31
370.445	86.31
370.672	91.31
370.898	83.31
371.124	90.31
371.35	82.31
371.576	79.31
371.802	94.31
372.028	92.31
372.254	86.31
372.48	97.31
372.706	103.31
372.932	90.31
373.158	70.31
373.384	77.31
373.61	98.31
373.835	90.31
374.061	75.31
374.287	96.31
374.513	85.31
374.739	93.31
374.965	95.31
375.191	90.31
375.416	81.31
375.642	82.31
375.868	79.31
376.094	85.31
376.319	82.31
376.545	77.31
376.771	86.31
376.997	82.31
377.222	76.31
377.448	90.31
377.674	78.31
377.899	70.31
378.125	86.31
378.35	86.31
378.576	90.31
378.802	101.31
379.027	99.31
379.253	91.31
379.478	97.31
379.704	80.31
379.929	88.31
380.155	72.31
380.38	92.31
380.606	83.31
380.831	72.31
381.057	83.31
381.282	76.31
381.507	82.31
381.733	90.31
381.958	84.31
382.184	88.31
382.409	93.31
382.634	79.31
382.86	85.31
383.085	95.31
383.31	94.31
383.535	99.31
383.761	87.31
383.986	77.31
384.211	79.31
384.436	102.31
384.662	95.31
384.887	98.31
385.112	82.31
385.337	81.31
385.562	83.31
385.787	89.31
386.013	85.31
386.238	83.31
386.463	88.31
386.688	100.31
386.913	100.31
387.138	83.31
387.363	81.31
387.588	84.31
387.813	79.31
388.038	88.31
388.263	102.31
388.488	88.31
388.713	77.31
388.938	87.31
389.163	93.31
389.387	92.31
389.612	88.31
389.837	78.31
390.062	79.31
390.287	94.31
390.512	90.31
390.736	74.31
390.961	94.31
391.186	77.31
391.411	78.31
391.636	84.31
391.86	90.31
392.085	107.31
392.31	99.31
392.534	84.31
392.759	117.31
392.984	125.31
393.208	192.31
393.433	268.31
393.658	238.31
393.882	115.31
394.107	86.31
394.331	88.31
394.556	108.31
394.78	108.31
395.005	89.31
395.229	84.31
395.454	81.31
395.678	98.31
395.903	97.31
396.127	96.31
396.352	124.31
396.576	137.31
396.801	194.31
397.025	228.31
397.249	133.31
397.474	100.31
397.698	84.31
397.922	89.31
398.147	87.31
398.371	100.31
398.595	90.31
398.82	78.31
399.044	92.31
399.268	73.31
399.492	84.31
399.717	85.31
399.941	83.31
400.165	99.31
400.389	90.31
400.613	90.31
400.837	84.31
401.062	89.31
401.286	93.31
401.51	85.31
401.734	88.31
401.958	77.31
402.182	72.31
402.406	92.31
402.63	94.31
402.854	111.31
403.078	100.31
403.302	89.31
403.526	96.31
403.75	86.31
403.974	98.31
404.198	111.31
404.422	162.31
404.645	175.31
404.869	139.31
405.093	125.31
405.317	103.31
405.541	79.31
405.765	71.31
405.988	84.31
406.212	86.31
406.436	83.31
406.66	100.31
406.883	86.31
407.107	81.31
407.331	88.31
407.555	85.31
407.778	90.31
408.002	92.31
408.226	76.31
408.449	95.31
408.673	105.31
408.896	82.31
409.12	92.31
409.344	88.31
409.567	97.31
409.791	90.31
410.014	98.31
410.238	86.31
410.461	87.31
410.685	75.31
410.908	82.31
411.132	82.31
411.355	93.31
411.578	97.31
411.802	97.31
412.025	82.31
412.249	81.31
412.472	82.31
412.695	81.31
412.919	93.31
413.142	84.31
413.365	84.31
413.589	71.31
413.812	88.31
414.035	77.31
414.258	86.31
414.482	94.31
414.705	92.31
414.928	95.31
415.151	107.31
415.374	90.31
415.597	84.31
415.821	92.31
416.044	77.31
416.267	80.31
416.49	84.31
416.713	76.31
416.936	88.31
417.159	73.31
417.382	86.31
417.605	94.31
417.828	85.31
418.051	86.31
418.274	87.31
418.497	77.31
418.72	91.31
418.943	74.31
419.166	84.31
419.389	96.31
419.611	84.31
419.834	93.31
420.057	90.31
420.28	93.31
420.503	97.31
420.726	94.31
420.948	104.31
421.171	94.31
421.394	105.31
421.617	109.31
421.839	123.31
422.062	129.31
422.285	163.31
422.507	280.31
422.73	414.31
422.953	374.31
423.175	229.31
423.398	125.31
423.621	112.31
423.843	86.31
424.066	103.31
424.288	95.31
424.511	86.31
424.733	80.31
424.956	92.31
425.178	87.31
425.401	83.31
425.623	102.31
425.846	87.31
426.068	98.31
426.291	91.31
426.513	62.31
426.735	82.31
426.958	78.31
427.18	96.31
427.402	94.31
427.625	85.31
427.847	98.31
428.069	89.31
428.292	131.31
428.514	140.31
428.736	107.31
428.958	131.31
429.181	126.31
429.403	101.31
429.625	98.31
429.847	118.31
430.069	171.31
430.292	183.31
430.514	171.31
430.736	133.31
430.958	136.31
431.18	98.31
431.402	98.31
431.624	106.31
431.846	121.31
432.068	138.31
432.29	106.31
432.512	89.31
432.734	85.31
432.956	105.31
433.178	78.31
433.4	95.31
433.622	86.31
433.844	96.31
434.066	72.31
434.287	80.31
434.509	78.31
434.731	91.31
434.953	78.31
435.175	76.31
435.397	93.31
435.618	93.31
435.84	89.31
436.062	97.31
436.284	93.31
436.505	88.31
436.727	85.31
436.949	101.31
437.17	82.31
437.392	90.31
437.614	93.31
437.835	82.31
438.057	103.31
438.278	84.31
438.5	83.31
438.721	72.31
438.943	74.31
439.165	84.31
439.386	75.31
439.608	89.31
439.829	89.31
440.05	90.31
440.272	96.31
440.493	70.31
440.715	98.31
440.936	90.31
441.158	93.31
441.379	87.31
441.6	91.31
441.822	95.31
442.043	100.31
442.264	95.31
442.486	125.31
442.707	155.31
442.928	115.31
443.149	109.31
443.371	153.31
443.592	244.31
443.813	194.31
444.034	112.31
444.255	104.31
444.476	92.31
444.698	107.31
444.919	101.31
445.14	195.31
445.361	215.31
445.582	280.31
445.803	236.31
446.024	128.31
446.245	84.31
446.466	98.31
446.687	80.31
446.908	87.31
447.129	87.31
447.35	101.31
447.571	74.31
447.792	67.31
448.013	79.31
448.234	89.31
448.455	96.31
448.675	88.31
448.896	88.31
449.117	75.31
449.338	87.31
449.559	89.31
449.779	98.31
450	87.31
450.221	79.31
450.442	82.31
450.662	76.31
450.883	78.31
451.104	80.31
451.324	84.31
451.545	68.31
451.766	85.31
451.986	89.31
452.207	86.31
452.428	88.31
452.648	88.31
452.869	91.31
453.089	89.31
453.31	91.31
453.53	89.31
453.751	89.31
453.971	96.31
454.192	76.31
454.412	81.31
454.633	85.31
454.853	77.31
455.073	78.31
455.294	104.31
455.514	86.31
455.734	88.31
455.955	82.31
456.175	88.31
456.395	76.31
456.616	80.31
456.836	72.31
457.056	86.31
457.276	80.31
457.497	92.31
457.717	92.31
457.937	97.31
458.157	102.31
458.377	105.31
458.598	110.31
458.818	117.31
459.038	101.31
459.258	94.31
459.478	85.31
459.698	92.31
459.918	86.31
460.138	86.31
460.358	89.31
460.578	103.31
460.798	132.31
461.018	107.31
461.238	98.31
461.458	77.31
461.678	97.31
461.898	87.31
462.118	79.31
462.338	64.31
462.558	80.31
462.777	86.31
462.997	98.31
463.217	85.31
463.437	89.31
463.657	91.31
463.876	81.31
464.096	84.31
464.316	97.31
464.536	82.31
464.755	69.31
464.975	90.31
465.195	88.31
465.414	83.31
465.634	71.31
465.854	88.31
466.073	90.31
466.293	87.31
466.512	76.31
466.732	80.31
466.951	87.31
467.171	97.31
467.391	91.31
467.61	93.31
467.829	89.31
468.049	81.31
468.268	83.31
468.488	79.31
468.707	83.31
468.927	80.31
469.146	83.31
469.365	110.31
469.585	91.31
469.804	84.31
470.023	92.31
470.243	81.31
470.462	93.31
470.681	92.31
470.901	80.31
471.12	96.31
471.339	77.31
471.558	86.31
471.777	96.31
471.997	92.31
472.216	91.31
472.435	94.31
472.654	78.31
472.873	84.31
473.092	85.31
473.311	88.31
473.53	85.31
473.749	85.31
473.968	90.31
474.187	96.31
474.406	99.31
474.625	91.31
474.844	85.31
475.063	98.31
475.282	88.31
475.501	88.31
475.72	83.31
475.939	84.31
476.158	96.31
476.377	86.31
476.596	76.31
476.814	69.31
477.033	90.31
477.252	92.31
477.471	88.31
477.69	96.31
477.908	86.31
478.127	98.31
478.346	91.31
478.564	89.31
478.783	88.31
479.002	74.31
479.22	69.31
479.439	84.31
479.658	90.31
479.876	92.31
480.095	89.31
480.313	94.31
480.532	75.31
480.751	96.31
480.969	88.31
481.188	97.31
481.406	92.31
481.624	88.31
481.843	80.31
482.061	89.31
482.28	78.31
482.498	83.31
482.717	85.31
482.935	84.31
483.153	100.31
483.372	72.31
483.59	100.31
483.808	83.31
484.027	106.31
484.245	89.31
484.463	87.31
484.681	106.31
484.9	71.31
485.118	98.31
485.336	96.31
485.554	85.31
485.772	98.31
485.99	95.31
486.209	76.31
486.427	88.31
486.645	76.31
486.863	77.31
487.081	98.31
487.299	84.31
487.517	100.31
487.735	114.31
487.953	146.31
488.171	131.31
488.389	96.31
488.607	84.31
488.825	84.31
489.043	88.31
489.261	79.31
489.479	84.31
489.696	78.31
489.914	91.31
490.132	99.31
490.35	101.31
490.568	89.31
490.786	75.31
491.003	88.31
491.221	82.31
491.439	83.31
491.657	86.31
491.874	88.31
492.092	86.31
492.31	92.31
492.527	83.31
492.745	83.31
492.963	96.31
493.18	93.31
493.398	88.31
493.615	84.31
493.833	92.31
494.05	87.31
494.268	93.31
494.485	90.31
494.703	92.31
494.92	80.31
495.138	75.31
495.355	82.31
495.573	101.31
495.79	74.31
496.008	90.31
496.225	94.31
496.442	109.31
496.66	86.31
496.877	89.31
497.094	103.31
497.312	84.31
497.529	105.31
497.746	96.31
497.963	84.31
498.181	90.31
498.398	73.31
498.615	77.31
498.832	88.31
499.049	88.31
499.267	84.31
499.484	89.31
499.701	97.31
499.918	85.31
500.135	97.31
500.352	90.31
500.569	101.31
500.786	100.31
501.003	92.31
501.22	89.31
501.437	91.31
501.654	96.31
501.871	97.31
502.088	92.31
502.305	92.31
502.522	97.31
502.739	77.31
502.956	91.31
503.172	84.31
503.389	97.31
503.606	92.31
503.823	85.31
504.04	108.31
504.256	117.31
504.473	116.31
504.69	99.31
504.907	94.31
505.123	90.31
505.34	90.31
505.557	100.31
505.773	89.31
505.99	86.31
506.207	85.31
506.423	95.31
506.64	88.31
506.856	90.31
507.073	82.31
507.289	91.31
507.506	84.31
507.722	88.31
507.939	79.31
508.155	99.31
508.372	94.31
508.588	104.31
508.805	91.31
509.021	84.31
509.238	97.31
509.454	89.31
509.67	96.31
509.887	99.31
510.103	99.31
510.319	97.31
510.536	89.31
510.752	92.31
510.968	86.31
511.184	82.31
511.401	94.31
511.617	86.31
511.833	98.31
512.049	90.31
512.265	91.31
512.481	93.31
512.698	92.31
512.914	87.31
513.13	86.31
513.346	104.31
513.562	84.31
513.778	86.31
513.994	85.31
514.21	86.31
514.426	86.31
514.642	101.31
514.858	94.31
515.074	83.31
515.29	89.31
515.506	88.31
515.721	82.31
515.937	92.31
516.153	84.31
516.369	97.31
516.585	78.31
516.801	86.31
517.016	76.31
517.232	95.31
517.448	92.31
517.664	93.31
517.879	86.31
518.095	95.31
518.311	88.31
518.527	93.31
518.742	95.31
518.958	125.31
519.173	142.31
519.389	102.31
519.605	98.31
519.82	91.31
520.036	96.31
520.251	90.31
520.467	94.31
520.682	85.31
520.898	82.31
521.113	82.31
521.329	89.31
521.544	78.31
521.76	84.31
521.975	93.31
522.19	94.31
522.406	83.31
522.621	94.31
522.836	86.31
523.052	86.31
523.267	98.31
523.482	81.31
523.698	98.31
523.913	77.31
524.128	79.31
524.343	84.31
524.559	97.31
524.774	92.31
524.989	100.31
525.204	90.31
525.419	97.31
525.634	90.31
525.849	102.31
526.064	129.31
526.28	202.31
526.495	271.31
526.71	274.31
526.925	184.31
527.14	259.31
527.355	235.31
527.57	116.31
527.785	91.31
527.999	97.31
528.214	87.31
528.429	92.31
528.644	96.31
528.859	85.31
529.074	80.31
529.289	90.31
529.503	105.31
529.718	93.31
529.933	104.31
530.148	91.31
530.363	88.31
530.577	82.31
530.792	77.31
531.007	89.31
531.221	99.31
531.436	90.31
531.651	107.31
531.865	85.31
532.08	95.31
532.295	98.31
532.509	105.31
532.724	79.31
532.938	92.31
533.153	73.31
533.367	92.31
533.582	92.31
533.796	90.31
534.011	97.31
534.225	96.31
534.44	115.31
534.654	105.31
534.868	117.31
535.083	147.31
535.297	136.31
535.511	103.31
535.726	97.31
535.94	94.31
536.154	98.31
536.369	105.31
536.583	100.31
536.797	108.31
537.011	92.31
537.225	94.31
537.44	104.31
537.654	77.31
537.868	88.31
538.082	90.31
538.296	88.31
538.51	107.31
538.724	98.31
538.938	83.31
539.153	90.31
539.367	101.31
539.581	83.31
539.795	99.31
540.009	101.31
540.222	90.31
540.436	92.31
540.65	87.31
540.864	95.31
541.078	93.31
541.292	99.31
541.506	100.31
541.72	101.31
541.934	89.31
542.147	80.31
542.361	82.31
542.575	91.31
542.789	94.31
543.002	84.31
543.216	88.31
543.43	94.31
543.644	88.31
543.857	100.31
544.071	98.31
544.285	102.31
544.498	106.31
544.712	96.31
544.925	88.31
545.139	89.31
545.352	97.31
545.566	99.31
545.779	101.31
545.993	97.31
546.206	104.31
546.42	94.31
546.633	102.31
546.847	112.31
547.06	101.31
547.274	96.31
547.487	120.31
547.7	136.31
547.914	127.31
548.127	130.31
548.34	144.31
548.554	136.31
548.767	133.31
548.98	142.31
549.193	132.31
549.407	130.31
549.62	129.31
549.833	134.31
550.046	148.31
550.259	164.31
550.473	150.31
550.686	148.31
550.899	154.31
551.112	166.31
551.325	183.31
551.538	181.31
551.751	165.31
551.964	147.31
552.177	147.31
552.39	163.31
552.603	153.31
552.816	155.31
553.029	155.31
553.242	162.31
553.455	157.31
553.667	168.31
553.88	141.31
554.093	155.31
554.306	150.31
554.519	160.31
554.732	146.31
554.944	160.31
555.157	155.31
555.37	140.31
555.583	148.31
555.795	128.31
556.008	136.31
556.221	117.31
556.433	111.31
556.646	120.31
556.859	122.31
557.071	121.31
557.284	117.31
557.496	102.31
557.709	109.31
557.921	124.31
558.134	122.31
558.346	161.31
558.559	151.31
558.771	146.31
558.984	283.31
559.196	326.31
559.409	184.31
559.621	255.31
559.833	217.31
560.046	252.31
560.258	192.31
560.47	187.31
560.683	125.31
560.895	107.31
561.107	97.31
561.32	94.31
561.532	98.31
561.744	88.31
561.956	93.31
562.168	108.31
562.381	86.31
562.593	94.31
562.805	101.31
563.017	95.31
563.229	88.31
563.441	87.31
563.653	86.31
563.865	72.31
564.077	82.31
564.289	102.31
564.501	97.31
564.713	98.31
564.925	92.31
565.137	89.31
565.349	91.31
565.561	85.31
565.773	86.31
565.985	87.31
566.197	82.31
566.408	99.31
566.62	84.31
566.832	97.31
567.044	89.31
567.255	97.31
567.467	80.31
567.679	90.31
567.891	99.31
568.102	92.31
568.314	102.31
568.526	86.31
568.737	89.31
568.949	93.31
569.161	96.31
569.372	99.31
569.584	97.31
569.795	103.31
570.007	96.31
570.218	85.31
570.43	110.31
570.641	78.31
570.853	82.31
571.064	88.31
571.276	75.31
571.487	90.31
571.698	99.31
571.91	89.31
572.121	103.31
572.333	98.31
572.544	84.31
572.755	94.31
572.966	89.31
573.178	88.31
573.389	93.31
573.6	88.31
573.811	103.31
574.023	98.31
574.234	84.31
574.445	96.31
574.656	96.31
574.867	72.31
575.078	90.31
575.289	94.31
575.501	101.31
575.712	96.31
575.923	96.31
576.134	88.31
576.345	106.31
576.556	83.31
576.767	91.31
576.978	94.31
577.188	89.31
577.399	89.31
577.61	81.31
577.821	101.31
578.032	109.31
578.243	85.31
578.454	107.31
578.665	101.31
578.875	101.31
579.086	86.31
579.297	81.31
579.508	77.31
579.718	89.31
579.929	88.31
580.14	105.31
580.35	109.31
580.561	119.31
580.772	106.31
580.982	99.31
581.193	86.31
581.403	99.31
581.614	107.31
581.825	101.31
582.035	104.31
582.246	98.31
582.456	83.31
582.667	98.31
582.877	98.31
583.087	89.31
583.298	97.31
583.508	107.31
583.719	100.31
583.929	81.31
584.139	96.31
584.35	94.31
584.56	101.31
584.77	92.31
584.981	85.31
585.191	75.31
585.401	100.31
585.611	90.31
585.821	145.31
586.032	197.31
586.242	112.31
586.452	108.31
586.662	92.31
586.872	85.31
587.082	97.31
587.292	98.31
587.502	94.31
587.713	80.31
587.923	95.31
588.133	99.31
588.343	106.31
588.553	112.31
588.762	136.31
588.972	255.31
589.182	620.31
589.392	425.31
589.602	272.31
589.812	547.31
590.022	278.31
590.232	128.31
590.441	118.31
590.651	94.31
590.861	99.31
591.071	96.31
591.281	82.31
591.49	94.31
591.7	92.31
591.91	109.31
592.119	99.31
592.329	98.31
592.539	92.31
592.748	92.31
592.958	89.31
593.167	80.31
593.377	84.31
593.587	108.31
593.796	103.31
594.006	97.31
594.215	100.31
594.424	96.31
594.634	103.31
594.843	108.31
595.053	108.31
595.262	105.31
595.472	108.31
595.681	112.31
595.89	104.31
596.1	108.31
596.309	116.31
596.518	124.31
596.727	111.31
596.937	109.31
597.146	119.31
597.355	130.31
597.564	120.31
597.774	147.31
597.983	128.31
598.192	119.31
598.401	138.31
598.61	150.31
598.819	133.31
599.028	120.31
599.237	130.31
599.446	131.31
599.655	146.31
599.864	136.31
600.073	118.31
600.282	137.31
600.491	145.31
600.7	148.31
600.909	136.31
601.118	109.31
601.327	120.31
601.536	116.31
601.745	117.31
601.953	114.31
602.162	121.31
602.371	121.31
602.58	130.31
602.789	136.31
602.997	128.31
603.206	123.31
603.415	126.31
603.623	124.31
603.832	130.31
604.041	126.31
604.249	133.31
604.458	137.31
604.666	148.31
604.875	145.31
605.084	139.31
605.292	145.31
605.501	152.31
605.709	137.31
605.918	147.31
606.126	153.31
606.334	168.31
606.543	162.31
606.751	139.31
606.96	163.31
607.168	152.31
607.376	139.31
607.585	141.31
607.793	160.31
608.001	138.31
608.21	140.31
608.418	147.31
608.626	134.31
608.834	137.31
609.043	152.31
609.251	164.31
609.459	152.31
609.667	149.31
609.875	167.31
610.083	181.31
610.291	188.31
610.499	265.31
610.707	187.31
610.916	151.31
611.124	153.31
611.332	145.31
611.54	148.31
611.748	141.31
611.955	159.31
612.163	175.31
612.371	314.31
612.579	283.31
612.787	185.31
612.995	167.31
613.203	153.31
613.411	167.31
613.618	154.31
613.826	148.31
614.034	165.31
614.242	162.31
614.449	155.31
614.657	160.31
614.865	141.31
615.072	149.31
615.28	152.31
615.488	166.31
615.695	158.31
615.903	185.31
616.111	189.31
616.318	318.31
616.526	366.31
616.733	217.31
616.941	211.31
617.148	229.31
617.356	196.31
617.563	169.31
617.771	141.31
617.978	150.31
618.185	134.31
618.393	131.31
618.6	131.31
618.807	132.31
619.015	134.31
619.222	139.31
619.429	125.31
619.637	134.31
619.844	128.31
620.051	127.31
620.258	139.31
620.466	136.31
620.673	138.31
620.88	130.31
621.087	145.31
621.294	133.31
621.501	138.31
621.708	147.31
621.915	137.31
622.122	135.31
622.329	139.31
622.536	134.31
622.743	152.31
622.95	149.31
623.157	147.31
623.364	158.31
623.571	152.31
623.778	164.31
623.985	171.31
624.192	158.31
624.399	161.31
624.606	167.31
624.812	151.31
625.019	169.31
625.226	178.31
625.433	167.31
625.639	147.31
625.846	154.31
626.053	147.31
626.259	145.31
626.466	143.31
626.673	155.31
626.879	148.31
627.086	158.31
627.293	162.31
627.499	156.31
627.706	132.31
627.912	134.31
628.119	120.31
628.325	113.31
628.532	120.31
628.738	110.31
628.945	84.31
629.151	91.31
629.357	98.31
629.564	97.31
629.77	104.31
629.976	99.31
630.183	92.31
630.389	85.31
630.595	99.31
630.802	86.31
631.008	94.31
631.214	86.31
631.42	98.31
631.627	101.31
631.833	90.31
632.039	106.31
632.245	89.31
632.451	103.31
632.657	85.31
632.863	84.31
633.069	88.31
633.275	94.31
633.481	86.31
633.688	85.31
633.893	80.31
634.099	83.31
634.305	102.31
634.511	92.31
634.717	111.31
634.923	114.31
635.129	104.31
635.335	105.31
635.541	92.31
635.747	94.31
635.952	102.31
636.158	88.31
636.364	90.31
636.57	119.31
636.775	97.31
636.981	90.31
637.187	78.31
637.392	80.31
637.598	96.31
637.804	82.31
638.009	84.31
638.215	91.31
638.421	98.31
638.626	78.31
638.832	97.31
639.037	91.31
639.243	103.31
639.448	83.31
639.654	102.31
639.859	95.31
640.065	84.31
640.27	97.31
640.475	90.31
640.681	78.31
640.886	99.31
641.091	76.31
641.297	96.31
641.502	81.31
641.707	95.31
641.913	85.31
642.118	91.31
642.323	83.31
642.528	84.31
642.733	99.31
642.939	84.31
643.144	101.31
643.349	100.31
643.554	106.31
643.759	97.31
643.964	128.31
644.169	167.31
644.374	107.31
644.579	89.31
644.784	82.31
644.989	101.31
645.194	126.31
645.399	101.31
645.604	87.31
645.809	103.31
646.014	100.31
646.219	89.31
646.423	149.31
646.628	118.31
646.833	97.31
647.038	89.31
647.243	101.31
647.447	109.31
647.652	99.31
647.857	90.31
648.062	91.31
648.266	88.31
648.471	78.31
648.676	90.31
648.88	87.31
649.085	88.31
649.289	83.31
649.494	120.31
649.698	109.31
649.903	103.31
650.107	104.31
650.312	108.31
650.516	82.31
650.721	86.31
650.925	87.31
651.13	88.31
651.334	82.31
651.539	88.31
651.743	89.31
651.947	74.31
652.152	94.31
652.356	76.31
652.56	90.31
652.764	89.31
652.969	67.31
653.173	88.31
653.377	91.31
653.581	77.31
653.785	85.31
653.99	86.31
654.194	79.31
654.398	76.31
654.602	59.31
654.806	78.31
655.01	80.31
655.214	78.31
655.418	94.31
655.622	75.31
655.826	74.31
656.03	73.31
656.234	86.31
656.438	77.31
656.642	96.31
656.846	91.31
657.049	98.31
657.253	66.31
657.457	81.31
657.661	72.31
657.865	72.31
658.068	64.31
658.272	93.31
658.476	88.31
658.68	85.31
658.883	86.31
659.087	93.31
659.291	89.31
659.494	83.31
659.698	81.31
659.901	98.31
660.105	69.31
660.309	64.31
660.512	84.31
660.716	75.31
660.919	73.31
661.123	79.31
661.326	79.31
661.53	71.31
661.733	86.31
661.936	81.31
662.14	76.31
662.343	79.31
662.546	78.31
662.75	85.31
662.953	88.31
663.156	98.31
663.36	91.31
663.563	90.31
663.766	94.31
663.969	74.31
664.173	72.31
664.376	87.31
664.579	80.31
664.782	77.31
664.985	78.31
665.188	84.31
665.391	92.31
665.594	79.31
665.797	76.31
666	93.31
666.203	65.31
666.406	91.31
666.609	88.31
666.812	70.31
667.015	97.31
667.218	78.31
667.421	96.31
667.624	86.31
667.827	99.31
668.03	72.31
668.232	85.31
668.435	96.31
668.638	76.31
668.841	90.31
669.043	92.31
669.246	73.31
669.449	79.31
669.651	89.31
669.854	84.31
670.057	66.31
670.259	86.31
670.462	85.31
670.665	93.31
670.867	99.31
671.07	82.31
671.272	84.31
671.475	79.31
671.677	86.31
671.88	77.31
672.082	84.31
672.284	89.31
672.487	69.31
672.689	84.31
672.892	89.31
