Data from Circ_2005_H10_HRD10591_00043.txt Node
Date: Wed Jan 03 10:29:59 EST 2024
User: Yrep
Spectrometer: HR+D1059
Trigger mode: 1
Integration Time (sec): 1.000000E-1
Scans to average: 1
Electric dark correction enabled: true
Nonlinearity correction enabled: false
Boxcar width: 0
XAxis mode: Wavelengths
Number of Pixels in Spectrum: 2048
>>>>>Begin Spectral Data<<<<<
223.165	-19.88
223.4	-19.88
223.635	-19.88
223.869	-25.88
224.104	-17.88
224.338	-20.88
224.573	-30.88
224.808	-21.88
225.042	-5.88
225.277	-12.88
225.511	-2.88
225.746	7.12
225.98	19.12
226.215	6.12
226.449	28.12
226.683	28.12
226.918	29.12
227.152	41.12
227.387	39.12
227.621	45.12
227.856	49.12
228.09	45.12
228.324	52.12
228.559	50.12
228.793	167.12
229.027	466.12
229.262	527.12
229.496	626.12
229.73	837.12
229.964	842.12
230.199	551.12
230.433	494.12
230.667	483.12
230.901	468.12
231.136	446.12
231.37	464.12
231.604	475.12
231.838	448.12
232.072	477.12
232.306	467.12
232.541	474.12
232.775	500.12
233.009	486.12
233.243	479.12
233.477	482.12
233.711	505.12
233.945	516.12
234.179	526.12
234.413	489.12
234.647	523.12
234.881	507.12
235.115	524.12
235.349	569.12
235.583	578.12
235.817	617.12
236.051	659.12
236.285	607.12
236.519	639.12
236.753	726.12
236.987	935.12
237.221	1453.12
237.455	1573.12
237.689	929.12
237.922	779.12
238.156	737.12
238.39	689.12
238.624	670.12
238.858	647.12
239.091	653.12
239.325	654.12
239.559	686.12
239.793	706.12
240.027	790.12
240.26	937.12
240.494	988.12
240.728	994.12
240.961	933.12
241.195	813.12
241.429	813.12
241.662	787.12
241.896	774.12
242.13	766.12
242.363	774.12
242.597	806.12
242.83	820.12
243.064	847.12
243.298	806.12
243.531	811.12
243.765	835.12
243.998	855.12
244.232	875.12
244.465	892.12
244.699	899.12
244.932	921.12
245.166	895.12
245.399	866.12
245.633	925.12
245.866	914.12
246.099	917.12
246.333	946.12
246.566	956.12
246.8	981.12
247.033	993.12
247.266	1066.12
247.5	1139.12
247.733	1169.12
247.966	1156.12
248.2	1138.12
248.433	1174.12
248.666	1249.12
248.899	1379.12
249.133	1484.12
249.366	1477.12
249.599	1351.12
249.832	1272.12
250.066	1291.12
250.299	1378.12
250.532	1569.12
250.765	1733.12
250.998	1852.12
251.231	1699.12
251.465	1529.12
251.698	1452.12
251.931	1422.12
252.164	1392.12
252.397	1410.12
252.63	1452.12
252.863	1588.12
253.096	1700.12
253.329	1735.12
253.562	1621.12
253.795	1602.12
254.028	1565.12
254.261	1679.12
254.494	1854.12
254.727	2272.12
254.96	2353.12
255.193	2001.12
255.426	1782.12
255.659	1790.12
255.892	1966.12
256.124	2109.12
256.357	1981.12
256.59	1745.12
256.823	1643.12
257.056	1609.12
257.289	1562.12
257.521	1613.12
257.754	1569.12
257.987	1531.12
258.22	1535.12
258.452	1605.12
258.685	1591.12
258.918	1605.12
259.151	1704.12
259.383	1731.12
259.616	1728.12
259.849	1782.12
260.081	1955.12
260.314	2153.12
260.547	2078.12
260.779	1897.12
261.012	1803.12
261.244	1745.12
261.477	1712.12
261.71	1756.12
261.942	1787.12
262.175	1797.12
262.407	1748.12
262.64	1694.12
262.872	1667.12
263.105	1654.12
263.337	1659.12
263.57	1700.12
263.802	1704.12
264.035	1707.12
264.267	1725.12
264.499	1670.12
264.732	1670.12
264.964	1687.12
265.197	1710.12
265.429	1725.12
265.661	1737.12
265.894	1742.12
266.126	1798.12
266.358	1810.12
266.591	1823.12
266.823	1873.12
267.055	1887.12
267.287	1855.12
267.52	1857.12
267.752	1873.12
267.984	1885.12
268.216	1915.12
268.448	1920.12
268.681	2063.12
268.913	2165.12
269.145	2391.12
269.377	2479.12
269.609	2313.12
269.841	2334.12
270.073	2445.12
270.306	2730.12
270.538	2883.12
270.77	2674.12
271.002	2525.12
271.234	2542.12
271.466	2672.12
271.698	2771.12
271.93	2831.12
272.162	2805.12
272.394	2678.12
272.626	2547.12
272.858	2397.12
273.09	2345.12
273.322	2310.12
273.553	2335.12
273.785	2267.12
274.017	2270.12
274.249	2331.12
274.481	2258.12
274.713	2305.12
274.945	2309.12
275.176	2325.12
275.408	2287.12
275.64	2310.12
275.872	2292.12
276.104	2349.12
276.335	2384.12
276.567	2457.12
276.799	2639.12
277.031	2918.12
277.262	3033.12
277.494	2888.12
277.726	2625.12
277.957	2543.12
278.189	2521.12
278.421	2450.12
278.652	2438.12
278.884	2461.12
279.115	2405.12
279.347	2420.12
279.579	2383.12
279.81	2461.12
280.042	2454.12
280.273	2449.12
280.505	2481.12
280.736	2437.12
280.968	2477.12
281.199	2520.12
281.431	2527.12
281.662	2499.12
281.894	2558.12
282.125	2602.12
282.356	2832.12
282.588	2922.12
282.819	2729.12
283.051	2579.12
283.282	2543.12
283.513	2641.12
283.745	2644.12
283.976	2689.12
284.207	2678.12
284.439	2668.12
284.67	2646.12
284.901	2639.12
285.132	2676.12
285.364	2635.12
285.595	2645.12
285.826	2651.12
286.057	2661.12
286.288	2718.12
286.52	2658.12
286.751	2721.12
286.982	2696.12
287.213	2735.12
287.444	2760.12
287.675	2809.12
287.906	2967.12
288.138	3051.12
288.369	2944.12
288.6	2955.12
288.831	2899.12
289.062	2870.12
289.293	2839.12
289.524	2874.12
289.755	2833.12
289.986	2795.12
290.217	2798.12
290.448	2864.12
290.679	2782.12
290.91	2798.12
291.141	2807.12
291.371	2845.12
291.602	2831.12
291.833	2829.12
292.064	2809.12
292.295	2826.12
292.526	2910.12
292.757	2846.12
292.987	2824.12
293.218	2838.12
293.449	2877.12
293.68	2857.12
293.91	2870.12
294.141	2831.12
294.372	2918.12
294.603	2839.12
294.833	2870.12
295.064	2909.12
295.295	2930.12
295.525	2873.12
295.756	3001.12
295.987	3075.12
296.217	3284.12
296.448	3179.12
296.679	3014.12
296.909	2942.12
297.14	2996.12
297.37	3027.12
297.601	3116.12
297.831	3087.12
298.062	3050.12
298.292	3131.12
298.523	3098.12
298.753	3142.12
298.984	3095.12
299.214	3101.12
299.445	3104.12
299.675	3183.12
299.905	3198.12
300.136	3157.12
300.366	3156.12
300.597	3178.12
300.827	3354.12
301.057	3456.12
301.288	3433.12
301.518	3340.12
301.748	3368.12
301.979	3454.12
302.209	3427.12
302.439	3377.12
302.669	3400.12
302.9	3302.12
303.13	3372.12
303.36	3373.12
303.59	3374.12
303.82	3405.12
304.051	3380.12
304.281	3366.12
304.511	3286.12
304.741	3374.12
304.971	3326.12
305.201	3270.12
305.431	3314.12
305.661	3328.12
305.891	3296.12
306.121	3272.12
306.352	3404.12
306.582	3367.12
306.812	3283.12
307.042	3361.12
307.272	3322.12
307.502	3330.12
307.731	3314.12
307.961	3335.12
308.191	3335.12
308.421	3303.12
308.651	3330.12
308.881	3341.12
309.111	3444.12
309.341	3467.12
309.571	3534.12
309.8	3578.12
310.03	3709.12
310.26	3717.12
310.49	3739.12
310.72	3828.12
310.949	3934.12
311.179	3907.12
311.409	3706.12
311.639	3779.12
311.868	3750.12
312.098	3833.12
312.328	3865.12
312.557	4036.12
312.787	4162.12
313.017	4012.12
313.246	3878.12
313.476	3777.12
313.706	3890.12
313.935	3999.12
314.165	4061.12
314.394	4093.12
314.624	4007.12
314.853	3950.12
315.083	3863.12
315.312	3871.12
315.542	3817.12
315.771	3750.12
316.001	3758.12
316.23	3793.12
316.46	3746.12
316.689	3830.12
316.919	3910.12
317.148	3934.12
317.377	3913.12
317.607	3833.12
317.836	3860.12
318.065	3721.12
318.295	3770.12
318.524	3769.12
318.753	3691.12
318.983	3776.12
319.212	3723.12
319.441	3819.12
319.67	3802.12
319.9	3809.12
320.129	3823.12
320.358	3825.12
320.587	3822.12
320.816	3943.12
321.046	3956.12
321.275	3938.12
321.504	3980.12
321.733	3977.12
321.962	4046.12
322.191	4233.12
322.42	4323.12
322.649	4366.12
322.878	4518.12
323.108	4583.12
323.337	4886.12
323.566	5018.12
323.795	5442.12
324.024	6196.12
324.253	8349.12
324.482	12693.12
324.71	15607.12
324.939	15607.12
325.168	14157.12
325.397	7297.12
325.626	5745.12
325.855	5284.12
326.084	5086.12
326.313	5077.12
326.542	5301.12
326.77	6083.12
326.999	7943.12
327.228	11800.12
327.457	15418.12
327.686	14704.12
327.914	8314.12
328.143	6589.12
328.372	6325.12
328.6	5882.12
328.829	5808.12
329.058	5959.12
329.287	5987.12
329.515	5519.12
329.744	5385.12
329.972	5705.12
330.201	6128.12
330.43	6583.12
330.658	6537.12
330.887	6593.12
331.115	5951.12
331.344	5401.12
331.572	5210.12
331.801	5331.12
332.03	5312.12
332.258	5145.12
332.486	5238.12
332.715	5239.12
332.943	5375.12
333.172	5588.12
333.4	5778.12
333.629	5951.12
333.857	6190.12
334.085	6384.12
334.314	6872.12
334.542	7382.12
334.771	6957.12
334.999	5923.12
335.227	5615.12
335.455	5515.12
335.684	5261.12
335.912	5145.12
336.14	5077.12
336.369	5049.12
336.597	5148.12
336.825	5125.12
337.053	4959.12
337.281	4919.12
337.51	4810.12
337.738	4866.12
337.966	4793.12
338.194	4857.12
338.422	4774.12
338.65	4661.12
338.878	4627.12
339.106	4563.12
339.334	4586.12
339.562	4568.12
339.79	4422.12
340.018	4479.12
340.246	4521.12
340.474	4538.12
340.702	4479.12
340.93	4516.12
341.158	4470.12
341.386	4532.12
341.614	4529.12
341.842	4442.12
342.07	4410.12
342.298	4407.12
342.526	4377.12
342.754	4364.12
342.981	4322.12
343.209	4462.12
343.437	4717.12
343.665	4951.12
343.893	5154.12
344.12	5193.12
344.348	5007.12
344.576	4873.12
344.804	4848.12
345.031	4784.12
345.259	4772.12
345.487	4616.12
345.714	4455.12
345.942	4359.12
346.17	4319.12
346.397	4330.12
346.625	4314.12
346.853	4274.12
347.08	4267.12
347.308	4357.12
347.535	4422.12
347.763	4486.12
347.99	4398.12
348.218	4450.12
348.445	4476.12
348.673	4371.12
348.9	4343.12
349.128	4185.12
349.355	4175.12
349.583	4162.12
349.81	4129.12
350.037	4164.12
350.265	4067.12
350.492	4099.12
350.72	4166.12
350.947	4259.12
351.174	4362.12
351.402	4390.12
351.629	4272.12
351.856	4299.12
352.083	4379.12
352.311	4377.12
352.538	4338.12
352.765	4324.12
352.992	4290.12
353.22	4210.12
353.447	4155.12
353.674	4154.12
353.901	4037.12
354.128	4088.12
354.355	4031.12
354.583	4037.12
354.81	3983.12
355.037	3955.12
355.264	3967.12
355.491	4013.12
355.718	3993.12
355.945	3987.12
356.172	4054.12
356.399	3958.12
356.626	3981.12
356.853	4017.12
357.08	3950.12
357.307	4001.12
357.534	4040.12
357.761	4077.12
357.988	4034.12
358.215	4014.12
358.441	4034.12
358.668	4104.12
358.895	4129.12
359.122	4175.12
359.349	4287.12
359.576	4442.12
359.802	4687.12
360.029	4879.12
360.256	4801.12
360.483	4567.12
360.709	4374.12
360.936	4355.12
361.163	4358.12
361.39	4404.12
361.616	4310.12
361.843	4285.12
362.07	4311.12
362.296	4349.12
362.523	4291.12
362.749	4225.12
362.976	4225.12
363.203	4146.12
363.429	4065.12
363.656	4170.12
363.882	4105.12
364.109	4119.12
364.335	4067.12
364.562	4153.12
364.788	3995.12
365.015	4141.12
365.241	4126.12
365.468	4163.12
365.694	4241.12
365.92	4206.12
366.147	4105.12
366.373	4094.12
366.599	4092.12
366.826	4106.12
367.052	3982.12
367.278	4092.12
367.505	4071.12
367.731	4113.12
367.957	4131.12
368.184	4154.12
368.41	4276.12
368.636	4343.12
368.862	4353.12
369.089	4216.12
369.315	4155.12
369.541	4127.12
369.767	4237.12
369.993	4243.12
370.219	4252.12
370.445	4172.12
370.672	4218.12
370.898	4233.12
371.124	4344.12
371.35	4379.12
371.576	4356.12
371.802	4287.12
372.028	4257.12
372.254	4349.12
372.48	4353.12
372.706	4427.12
372.932	4525.12
373.158	4484.12
373.384	4381.12
373.61	4367.12
373.835	4373.12
374.061	4389.12
374.287	4486.12
374.513	4592.12
374.739	4695.12
374.965	4800.12
375.191	4752.12
375.416	4614.12
375.642	4489.12
375.868	4523.12
376.094	4426.12
376.319	4381.12
376.545	4369.12
376.771	4401.12
376.997	4353.12
377.222	4371.12
377.448	4316.12
377.674	4287.12
377.899	4283.12
378.125	4293.12
378.35	4259.12
378.576	4319.12
378.802	4251.12
379.027	4266.12
379.253	4289.12
379.478	4293.12
379.704	4289.12
379.929	4349.12
380.155	4330.12
380.38	4274.12
380.606	4421.12
380.831	4337.12
381.057	4398.12
381.282	4370.12
381.507	4366.12
381.733	4443.12
381.958	4459.12
382.184	4522.12
382.409	4569.12
382.634	4546.12
382.86	4513.12
383.085	4633.12
383.31	4724.12
383.535	4786.12
383.761	4756.12
383.986	4891.12
384.211	4987.12
384.436	5041.12
384.662	5097.12
384.887	5182.12
385.112	5181.12
385.337	5244.12
385.562	5136.12
385.787	5226.12
386.013	5346.12
386.238	5306.12
386.463	5286.12
386.688	5305.12
386.913	5167.12
387.138	5136.12
387.363	5131.12
387.588	5117.12
387.813	5107.12
388.038	5118.12
388.263	5170.12
388.488	5140.12
388.713	5153.12
388.938	5144.12
389.163	5092.12
389.387	5105.12
389.612	5030.12
389.837	5064.12
390.062	5001.12
390.287	5084.12
390.512	5104.12
390.736	5152.12
390.961	5198.12
391.186	5305.12
391.411	5505.12
391.636	5614.12
391.86	5740.12
392.085	5833.12
392.31	5649.12
392.534	5540.12
392.759	5468.12
392.984	5386.12
393.208	5326.12
393.433	5379.12
393.658	5318.12
393.882	5286.12
394.107	5394.12
394.331	5435.12
394.556	5372.12
394.78	5501.12
395.005	5490.12
395.229	5495.12
395.454	5677.12
395.678	5808.12
395.903	5797.12
396.127	5895.12
396.352	5637.12
396.576	5482.12
396.801	5426.12
397.025	5575.12
397.249	5669.12
397.474	5705.12
397.698	5824.12
397.922	5985.12
398.147	6077.12
398.371	6146.12
398.595	6271.12
398.82	6498.12
399.044	7191.12
399.268	7886.12
399.492	8789.12
399.717	9563.12
399.941	9337.12
400.165	8702.12
400.389	7961.12
400.613	7268.12
400.837	6887.12
401.062	6673.12
401.286	6482.12
401.51	6495.12
401.734	6520.12
401.958	6619.12
402.182	6687.12
402.406	6805.12
402.63	6876.12
402.854	7014.12
403.078	7077.12
403.302	7252.12
403.526	7291.12
403.75	7313.12
403.974	7381.12
404.198	7361.12
404.422	7468.12
404.645	7508.12
404.869	7462.12
405.093	7823.12
405.317	8093.12
405.541	8135.12
405.765	7500.12
405.988	7398.12
406.212	7501.12
406.436	7669.12
406.66	7806.12
406.883	7746.12
407.107	8457.12
407.331	8889.12
407.555	9534.12
407.778	9049.12
408.002	8241.12
408.226	7841.12
408.449	7789.12
408.673	7617.12
408.896	7881.12
409.12	7978.12
409.344	7500.12
409.567	7077.12
409.791	7013.12
410.014	7032.12
410.238	6985.12
410.461	7035.12
410.685	7097.12
410.908	7143.12
411.132	7498.12
411.355	7394.12
411.578	7110.12
411.802	6828.12
412.025	6806.12
412.249	7047.12
412.472	7340.12
412.695	7665.12
412.919	7141.12
413.142	6783.12
413.365	6615.12
413.589	6584.12
413.812	6393.12
414.035	6356.12
414.258	6355.12
414.482	6406.12
414.705	6514.12
414.928	6417.12
415.151	6386.12
415.374	6375.12
415.597	6332.12
415.821	6296.12
416.044	6303.12
416.267	6195.12
416.49	6251.12
416.713	6195.12
416.936	6386.12
417.159	6257.12
417.382	6436.12
417.605	6352.12
417.828	6423.12
418.051	6602.12
418.274	6500.12
418.497	6476.12
418.72	6531.12
418.943	6486.12
419.166	6902.12
419.389	7271.12
419.611	7146.12
419.834	6962.12
420.057	6977.12
420.28	6837.12
420.503	6652.12
420.726	6689.12
420.948	6778.12
421.171	7158.12
421.394	7094.12
421.617	6596.12
421.839	6533.12
422.062	6605.12
422.285	6774.12
422.507	7472.12
422.73	8147.12
422.953	7368.12
423.175	6961.12
423.398	7062.12
423.621	7035.12
423.843	7404.12
424.066	7212.12
424.288	7094.12
424.511	7315.12
424.733	7881.12
424.956	8416.12
425.178	7867.12
425.401	8073.12
425.623	7854.12
425.846	6851.12
426.068	6701.12
426.291	6653.12
426.513	6589.12
426.735	6784.12
426.958	7266.12
427.18	8137.12
427.402	9333.12
427.625	9615.12
427.847	8265.12
428.069	7572.12
428.292	6698.12
428.514	6217.12
428.736	6070.12
428.958	6093.12
429.181	5859.12
429.403	5860.12
429.625	6029.12
429.847	6442.12
430.069	6947.12
430.292	6357.12
430.514	5898.12
430.736	5832.12
430.958	5775.12
431.18	5695.12
431.402	5624.12
431.624	5690.12
431.846	5738.12
432.068	5739.12
432.29	5805.12
432.512	5751.12
432.734	5927.12
432.956	5782.12
433.178	5927.12
433.4	5863.12
433.622	5760.12
433.844	5800.12
434.066	5798.12
434.287	5907.12
434.509	6099.12
434.731	6356.12
434.953	6533.12
435.175	6632.12
435.397	6701.12
435.618	6642.12
435.84	7095.12
436.062	8049.12
436.284	7943.12
436.505	6685.12
436.727	6371.12
436.949	6027.12
437.17	5843.12
437.392	5904.12
437.614	6126.12
437.835	6539.12
438.057	7598.12
438.278	8243.12
438.5	8150.12
438.721	8964.12
438.943	7705.12
439.165	6472.12
439.386	6333.12
439.608	6390.12
439.829	6502.12
440.05	6908.12
440.272	7260.12
440.493	6533.12
440.715	6222.12
440.936	6218.12
441.158	6240.12
441.379	6422.12
441.6	6606.12
441.822	6894.12
442.043	7383.12
442.264	8257.12
442.486	7996.12
442.707	6956.12
442.928	6846.12
443.149	7025.12
443.371	7297.12
443.592	7891.12
443.813	8899.12
444.034	8840.12
444.255	7562.12
444.476	7394.12
444.698	7557.12
444.919	7605.12
445.14	7386.12
445.361	7369.12
445.582	7581.12
445.803	8246.12
446.024	9078.12
446.245	8591.12
446.466	7622.12
446.687	6559.12
446.908	6234.12
447.129	5920.12
447.35	5675.12
447.571	5687.12
447.792	5632.12
448.013	5694.12
448.234	5925.12
448.455	6757.12
448.675	7988.12
448.896	8385.12
449.117	6807.12
449.338	7154.12
449.559	8650.12
449.779	8710.12
450	6548.12
450.221	5852.12
450.442	5660.12
450.662	5549.12
450.883	5618.12
451.104	5735.12
451.324	5623.12
451.545	5470.12
451.766	5285.12
451.986	5135.12
452.207	5101.12
452.428	5115.12
452.648	5164.12
452.869	5234.12
453.089	5298.12
453.31	5381.12
453.53	5135.12
453.751	5110.12
453.971	5119.12
454.192	5286.12
454.412	5033.12
454.633	5023.12
454.853	4966.12
455.073	5065.12
455.294	5501.12
455.514	5993.12
455.734	5475.12
455.955	4857.12
456.175	4769.12
456.395	4702.12
456.616	4706.12
456.836	4702.12
457.056	4699.12
457.276	4618.12
457.497	4810.12
457.717	4751.12
457.937	4845.12
458.157	4966.12
458.377	5017.12
458.598	5414.12
458.818	6262.12
459.038	7080.12
459.258	6909.12
459.478	6070.12
459.698	5866.12
459.918	5954.12
460.138	6098.12
460.358	6264.12
460.578	6314.12
460.798	6394.12
461.018	6437.12
461.238	6235.12
461.458	6205.12
461.678	6231.12
461.898	6275.12
462.118	6286.12
462.338	6690.12
462.558	6815.12
462.777	7219.12
462.997	7703.12
463.217	8048.12
463.437	7844.12
463.657	7380.12
463.876	7213.12
464.096	7182.12
464.316	7093.12
464.536	7282.12
464.755	7027.12
464.975	6953.12
465.195	7185.12
465.414	7413.12
465.634	6439.12
465.854	6017.12
466.073	5695.12
466.293	5666.12
466.512	5427.12
466.732	5354.12
466.951	5340.12
467.171	5327.12
467.391	5403.12
467.61	5536.12
467.829	5379.12
468.049	5385.12
468.268	5466.12
468.488	5201.12
468.707	5081.12
468.927	5163.12
469.146	5036.12
469.365	5145.12
469.585	5172.12
469.804	5390.12
470.023	5473.12
470.243	5514.12
470.462	5541.12
470.681	5749.12
470.901	5576.12
471.12	5422.12
471.339	5354.12
471.558	5408.12
471.777	5263.12
471.997	5269.12
472.216	5500.12
472.435	6073.12
472.654	5618.12
472.873	5305.12
473.092	5205.12
473.311	5116.12
473.53	5194.12
473.749	5253.12
473.968	5918.12
474.187	6922.12
474.406	6370.12
474.625	5386.12
474.844	5159.12
475.063	5118.12
475.282	5167.12
475.501	5188.12
475.72	5229.12
475.939	5192.12
476.158	5230.12
476.377	5286.12
476.596	5230.12
476.814	5381.12
477.033	5501.12
477.252	5534.12
477.471	5644.12
477.69	5779.12
477.908	5861.12
478.127	6053.12
478.346	6040.12
478.564	6175.12
478.783	6189.12
479.002	6410.12
479.22	6378.12
479.439	6550.12
479.658	6658.12
479.876	6710.12
480.095	6925.12
480.313	7368.12
480.532	7227.12
480.751	7172.12
480.969	7302.12
481.188	8332.12
481.406	8257.12
481.624	7135.12
481.843	6639.12
482.061	6344.12
482.28	6206.12
482.498	6091.12
482.717	6054.12
482.935	6083.12
483.153	5979.12
483.372	5932.12
483.59	5983.12
483.808	6015.12
484.027	5976.12
484.245	6035.12
484.463	6067.12
484.681	6149.12
484.9	6188.12
485.118	6222.12
485.336	6229.12
485.554	6383.12
485.772	6358.12
485.99	6379.12
486.209	6441.12
486.427	6466.12
486.645	6519.12
486.863	6717.12
487.081	6649.12
487.299	6524.12
487.517	6411.12
487.735	6428.12
487.953	6394.12
488.171	6409.12
488.389	6450.12
488.607	6445.12
488.825	6426.12
489.043	6546.12
489.261	6530.12
489.479	6591.12
489.696	6636.12
489.914	6668.12
490.132	6707.12
490.35	6822.12
490.568	6885.12
490.786	6975.12
491.003	7106.12
491.221	7291.12
491.439	7466.12
491.657	7543.12
491.874	7530.12
492.092	7606.12
492.31	7662.12
492.527	7723.12
492.745	7758.12
492.963	7873.12
493.18	7862.12
493.398	7961.12
493.615	7879.12
493.833	7921.12
494.05	7894.12
494.268	7897.12
494.485	7848.12
494.703	7835.12
494.92	7788.12
495.138	7802.12
495.355	7782.12
495.573	7789.12
495.79	7660.12
496.008	7743.12
496.225	7666.12
496.442	7710.12
496.66	7766.12
496.877	7783.12
497.094	7885.12
497.312	8058.12
497.529	8194.12
497.746	8379.12
497.963	8644.12
498.181	9090.12
498.398	9184.12
498.615	9626.12
498.832	10134.12
499.049	10658.12
499.267	11180.12
499.484	11893.12
499.701	12693.12
499.918	13389.12
500.135	14179.12
500.352	14857.12
500.569	14956.12
500.786	14809.12
501.003	14409.12
501.22	13789.12
501.437	13055.12
501.654	12303.12
501.871	11722.12
502.088	10813.12
502.305	10249.12
502.522	9774.12
502.739	9437.12
502.956	8924.12
503.172	8600.12
503.389	8415.12
503.606	8417.12
503.823	8195.12
504.04	8116.12
504.256	8289.12
504.473	8375.12
504.69	8293.12
504.907	8205.12
505.123	7734.12
505.34	7548.12
505.557	7391.12
505.773	7346.12
505.99	7261.12
506.207	7184.12
506.423	7131.12
506.64	6989.12
506.856	6944.12
507.073	6869.12
507.289	6774.12
507.506	6763.12
507.722	6950.12
507.939	6944.12
508.155	6716.12
508.372	6512.12
508.588	6470.12
508.805	6492.12
509.021	6578.12
509.238	6775.12
509.454	6748.12
509.67	6550.12
509.887	6491.12
510.103	6406.12
510.319	6595.12
510.536	7962.12
510.752	12036.12
510.968	8005.12
511.184	6356.12
511.401	6272.12
511.617	6192.12
511.833	6326.12
512.049	6242.12
512.265	6178.12
512.481	6176.12
512.698	6107.12
512.914	6041.12
513.13	6012.12
513.346	5996.12
513.562	6057.12
513.778	6159.12
513.994	6144.12
514.21	6337.12
514.426	6522.12
514.642	6951.12
514.858	7213.12
515.074	7604.12
515.29	9169.12
515.506	12125.12
515.721	8822.12
515.937	7210.12
516.153	6949.12
516.369	6891.12
516.585	6881.12
516.801	6917.12
517.016	7049.12
517.232	7413.12
517.448	7552.12
517.664	7689.12
517.879	7686.12
518.095	7566.12
518.311	7485.12
518.527	7205.12
518.742	7009.12
518.958	6818.12
519.173	6610.12
519.389	6592.12
519.605	6433.12
519.82	6361.12
520.036	6559.12
520.251	6611.12
520.467	6774.12
520.682	6691.12
520.898	6725.12
521.113	6969.12
521.329	7339.12
521.544	8123.12
521.76	10363.12
521.975	14697.12
522.19	12085.12
522.406	7656.12
522.621	6518.12
522.836	5983.12
523.052	5774.12
523.267	5686.12
523.482	5502.12
523.698	5468.12
523.913	5447.12
524.128	5291.12
524.343	5254.12
524.559	5162.12
524.774	5147.12
524.989	5100.12
525.204	5259.12
525.419	5121.12
525.634	4969.12
525.849	5046.12
526.064	4975.12
526.28	4905.12
526.495	4949.12
526.71	4823.12
526.925	4806.12
527.14	4872.12
527.355	4836.12
527.57	4787.12
527.785	4817.12
527.999	4827.12
528.214	4769.12
528.429	4822.12
528.644	4855.12
528.859	4827.12
529.074	4926.12
529.289	5143.12
529.503	5789.12
529.718	5451.12
529.933	5092.12
530.148	4970.12
530.363	4891.12
530.577	4779.12
530.792	4741.12
531.007	4758.12
531.221	4823.12
531.436	4750.12
531.651	4781.12
531.865	4717.12
532.08	4733.12
532.295	4708.12
532.509	4682.12
532.724	4729.12
532.938	4746.12
533.153	4673.12
533.367	4637.12
533.582	4699.12
533.796	4635.12
534.011	4691.12
534.225	4626.12
534.44	4569.12
534.654	4595.12
534.868	4552.12
535.083	4525.12
535.297	4575.12
535.511	4639.12
535.726	4651.12
535.94	4639.12
536.154	4567.12
536.369	4559.12
536.583	4414.12
536.797	4487.12
537.011	4360.12
537.225	4287.12
537.44	4387.12
537.654	4385.12
537.868	4368.12
538.082	4358.12
538.296	4367.12
538.51	4406.12
538.724	4391.12
538.938	4286.12
539.153	4321.12
539.367	4419.12
539.581	4439.12
539.795	4249.12
540.009	4284.12
540.222	4291.12
540.436	4272.12
540.65	4320.12
540.864	4365.12
541.078	4390.12
541.292	4361.12
541.506	4261.12
541.72	4165.12
541.934	4064.12
542.147	4155.12
542.361	4133.12
542.575	4043.12
542.789	4129.12
543.002	4155.12
543.216	4212.12
543.43	4294.12
543.644	4217.12
543.857	4178.12
544.071	4168.12
544.285	4173.12
544.498	4227.12
544.712	4185.12
544.925	4191.12
545.139	4146.12
545.352	4156.12
545.566	4178.12
545.779	4159.12
545.993	4181.12
546.206	4144.12
546.42	4105.12
546.633	4096.12
546.847	4080.12
547.06	4131.12
547.274	4017.12
547.487	4124.12
547.7	4073.12
547.914	4183.12
548.127	4167.12
548.34	4130.12
548.554	4098.12
548.767	4120.12
548.98	4107.12
549.193	4165.12
549.407	4199.12
549.62	4276.12
549.833	4195.12
550.046	4127.12
550.259	4067.12
550.473	4037.12
550.686	4036.12
550.899	4066.12
551.112	3954.12
551.325	3967.12
551.538	4001.12
551.751	4008.12
551.964	4017.12
552.177	4149.12
552.39	4121.12
552.603	4193.12
552.816	4257.12
553.029	4414.12
553.242	4452.12
553.455	4539.12
553.667	4568.12
553.88	4558.12
554.093	4494.12
554.306	4338.12
554.519	4196.12
554.732	4142.12
554.944	4013.12
555.157	3927.12
555.37	3911.12
555.583	3837.12
555.795	3818.12
556.008	3701.12
556.221	3641.12
556.433	3579.12
556.646	3588.12
556.859	3552.12
557.071	3515.12
557.284	3507.12
557.496	3468.12
557.709	3489.12
557.921	3437.12
558.134	3339.12
558.346	3379.12
558.559	3439.12
558.771	3338.12
558.984	3345.12
559.196	3327.12
559.409	3299.12
559.621	3305.12
559.833	3369.12
560.046	3243.12
560.258	3343.12
560.47	3294.12
560.683	3275.12
560.895	3259.12
561.107	3294.12
561.32	3297.12
561.532	3306.12
561.744	3288.12
561.956	3207.12
562.168	3289.12
562.381	3277.12
562.593	3282.12
562.805	3369.12
563.017	3318.12
563.229	3349.12
563.441	3326.12
563.653	3292.12
563.865	3373.12
564.077	3419.12
564.289	3445.12
564.501	3471.12
564.713	3585.12
564.925	3658.12
565.137	3748.12
565.349	3789.12
565.561	3892.12
565.773	4013.12
565.985	4165.12
566.197	4389.12
566.408	4621.12
566.62	4971.12
566.832	5195.12
567.044	5262.12
567.255	5327.12
567.467	5602.12
567.679	5819.12
567.891	6148.12
568.102	5978.12
568.314	5740.12
568.526	5207.12
568.737	4829.12
568.949	4431.12
569.161	4140.12
569.372	3899.12
569.584	3701.12
569.795	3609.12
570.007	3523.12
570.218	3821.12
570.43	3511.12
570.641	3318.12
570.853	3387.12
571.064	3344.12
571.276	3329.12
571.487	3206.12
571.698	3104.12
571.91	2998.12
572.121	2961.12
572.333	2874.12
572.544	2829.12
572.755	2767.12
572.966	2766.12
573.178	2725.12
573.389	2671.12
573.6	2701.12
573.811	2701.12
574.023	2679.12
574.234	2632.12
574.445	2646.12
574.656	2618.12
574.867	2647.12
575.078	2595.12
575.289	2550.12
575.501	2500.12
575.712	2575.12
575.923	2532.12
576.134	2462.12
576.345	2511.12
576.556	2462.12
576.767	2477.12
576.978	2453.12
577.188	2477.12
577.399	2416.12
577.61	2398.12
577.821	2375.12
578.032	2407.12
578.243	2769.12
578.454	4062.12
578.665	2689.12
578.875	2369.12
579.086	2337.12
579.297	2295.12
579.508	2235.12
579.718	2295.12
579.929	2247.12
580.14	2202.12
580.35	2260.12
580.561	2194.12
580.772	2199.12
580.982	2149.12
581.193	2160.12
581.403	2208.12
581.614	2169.12
581.825	2174.12
582.035	2161.12
582.246	2127.12
582.456	2169.12
582.667	2148.12
582.877	2173.12
583.087	2095.12
583.298	2060.12
583.508	2119.12
583.719	2124.12
583.929	2136.12
584.139	2101.12
584.35	2106.12
584.56	2065.12
584.77	2071.12
584.981	2082.12
585.191	2063.12
585.401	2079.12
585.611	2051.12
585.821	2038.12
586.032	2063.12
586.242	2080.12
586.452	2035.12
586.662	2028.12
586.872	2051.12
587.082	2030.12
587.292	1986.12
587.502	2003.12
587.713	2017.12
587.923	1994.12
588.133	2009.12
588.343	1966.12
588.553	1971.12
588.762	2014.12
588.972	2030.12
589.182	2082.12
589.392	2071.12
589.602	2040.12
589.812	2065.12
590.022	2042.12
590.232	2034.12
590.441	2036.12
590.651	2053.12
590.861	2006.12
591.071	2021.12
591.281	2096.12
591.49	2106.12
591.7	2125.12
591.91	2163.12
592.119	2192.12
592.329	2242.12
592.539	2342.12
592.748	2401.12
592.958	2448.12
593.167	2433.12
593.377	2541.12
593.587	2528.12
593.796	2583.12
594.006	2553.12
594.215	2567.12
594.424	2570.12
594.634	2497.12
594.843	2423.12
595.053	2323.12
595.262	2263.12
595.472	2147.12
595.681	2078.12
595.89	2061.12
596.1	1977.12
596.309	1969.12
596.518	1926.12
596.727	1916.12
596.937	1852.12
597.146	1808.12
597.355	1796.12
597.564	1737.12
597.774	1747.12
597.983	1747.12
598.192	1770.12
598.401	1724.12
598.61	1697.12
598.819	1707.12
599.028	1693.12
599.237	1687.12
599.446	1663.12
599.655	1655.12
599.864	1651.12
600.073	1633.12
600.282	1644.12
600.491	1686.12
600.7	1633.12
600.909	1611.12
601.118	1610.12
601.327	1573.12
601.536	1587.12
601.745	1598.12
601.953	1598.12
602.162	1522.12
602.371	1536.12
602.58	1560.12
602.789	1567.12
602.997	1535.12
603.206	1527.12
603.415	1507.12
603.623	1511.12
603.832	1497.12
604.041	1479.12
604.249	1526.12
604.458	1489.12
604.666	1476.12
604.875	1489.12
605.084	1479.12
605.292	1493.12
605.501	1513.12
605.709	1478.12
605.918	1448.12
606.126	1463.12
606.334	1458.12
606.543	1442.12
606.751	1463.12
606.96	1429.12
607.168	1432.12
607.376	1420.12
607.585	1435.12
607.793	1453.12
608.001	1445.12
608.21	1423.12
608.418	1380.12
608.626	1407.12
608.834	1421.12
609.043	1392.12
609.251	1437.12
609.459	1400.12
609.667	1366.12
609.875	1399.12
610.083	1375.12
610.291	1394.12
610.499	1385.12
610.707	1389.12
610.916	1383.12
611.124	1398.12
611.332	1402.12
611.54	1384.12
611.748	1373.12
611.955	1386.12
612.163	1336.12
612.371	1390.12
612.579	1382.12
612.787	1349.12
612.995	1318.12
613.203	1375.12
613.411	1361.12
613.618	1357.12
613.826	1357.12
614.034	1322.12
614.242	1345.12
614.449	1314.12
614.657	1349.12
614.865	1347.12
615.072	1378.12
615.28	1339.12
615.488	1359.12
615.695	1369.12
615.903	1390.12
616.111	1366.12
616.318	1379.12
616.526	1392.12
616.733	1370.12
616.941	1343.12
617.148	1362.12
617.356	1361.12
617.563	1371.12
617.771	1318.12
617.978	1329.12
618.185	1362.12
618.393	1336.12
618.6	1343.12
618.807	1353.12
619.015	1363.12
619.222	1309.12
619.429	1307.12
619.637	1298.12
619.844	1320.12
620.051	1281.12
620.258	1258.12
620.466	1234.12
620.673	1230.12
620.88	1228.12
621.087	1192.12
621.294	1229.12
621.501	1243.12
621.708	1223.12
621.915	1254.12
622.122	1256.12
622.329	1234.12
622.536	1239.12
622.743	1228.12
622.95	1229.12
623.157	1198.12
623.364	1143.12
623.571	1168.12
623.778	1143.12
623.985	1138.12
624.192	1160.12
624.399	1131.12
624.606	1135.12
624.812	1152.12
625.019	1165.12
625.226	1151.12
625.433	1119.12
625.639	1119.12
625.846	1103.12
626.053	1130.12
626.259	1122.12
626.466	1105.12
626.673	1104.12
626.879	1076.12
627.086	1102.12
627.293	1088.12
627.499	1080.12
627.706	1069.12
627.912	1094.12
628.119	1041.12
628.325	1053.12
628.532	1048.12
628.738	1022.12
628.945	1043.12
629.151	1042.12
629.357	1035.12
629.564	1042.12
629.77	1023.12
629.976	1018.12
630.183	999.12
630.389	1001.12
630.595	968.12
630.802	979.12
631.008	971.12
631.214	984.12
631.42	983.12
631.627	958.12
631.833	969.12
632.039	946.12
632.245	934.12
632.451	928.12
632.657	933.12
632.863	905.12
633.069	928.12
633.275	919.12
633.481	911.12
633.688	923.12
633.893	892.12
634.099	905.12
634.305	921.12
634.511	901.12
634.717	891.12
634.923	902.12
635.129	906.12
635.335	899.12
635.541	868.12
635.747	848.12
635.952	869.12
636.158	885.12
636.364	927.12
636.57	945.12
636.775	904.12
636.981	889.12
637.187	876.12
637.392	865.12
637.598	858.12
637.804	902.12
638.009	871.12
638.215	855.12
638.421	817.12
638.626	837.12
638.832	819.12
639.037	828.12
639.243	813.12
639.448	789.12
639.654	780.12
639.859	818.12
640.065	777.12
640.27	797.12
640.475	787.12
640.681	780.12
640.886	801.12
641.091	769.12
641.297	769.12
641.502	767.12
641.707	787.12
641.913	771.12
642.118	787.12
642.323	743.12
642.528	732.12
642.733	732.12
642.939	768.12
643.144	742.12
643.349	748.12
643.554	763.12
643.759	711.12
643.964	712.12
644.169	715.12
644.374	711.12
644.579	737.12
644.784	744.12
644.989	765.12
645.194	730.12
645.399	734.12
645.604	703.12
645.809	720.12
646.014	742.12
646.219	740.12
646.423	748.12
646.628	722.12
646.833	732.12
647.038	726.12
647.243	752.12
647.447	756.12
647.652	742.12
647.857	786.12
648.062	764.12
648.266	772.12
648.471	810.12
648.676	819.12
648.88	825.12
649.085	815.12
649.289	777.12
649.494	892.12
649.698	1018.12
649.903	866.12
650.107	750.12
650.312	736.12
650.516	661.12
650.721	676.12
650.925	649.12
651.13	624.12
651.334	613.12
651.539	619.12
651.743	599.12
651.947	566.12
652.152	570.12
652.356	567.12
652.56	553.12
652.764	529.12
652.969	529.12
653.173	533.12
653.377	510.12
653.581	500.12
653.785	505.12
653.99	523.12
654.194	468.12
654.398	461.12
654.602	465.12
654.806	512.12
655.01	564.12
655.214	511.12
655.418	484.12
655.622	445.12
655.826	451.12
656.03	452.12
656.234	476.12
656.438	475.12
656.642	493.12
656.846	442.12
657.049	423.12
657.253	407.12
657.457	356.12
657.661	325.12
657.865	319.12
658.068	305.12
658.272	286.12
658.476	256.12
658.68	246.12
658.883	229.12
659.087	217.12
659.291	223.12
659.494	202.12
659.698	197.12
659.901	180.12
660.105	175.12
660.309	175.12
660.512	182.12
660.716	189.12
660.919	163.12
661.123	160.12
661.326	156.12
661.53	154.12
661.733	143.12
661.936	130.12
662.14	115.12
662.343	122.12
662.546	101.12
662.75	105.12
662.953	115.12
663.156	106.12
663.36	105.12
663.563	96.12
663.766	93.12
663.969	86.12
664.173	85.12
664.376	86.12
664.579	87.12
664.782	83.12
664.985	63.12
665.188	81.12
665.391	75.12
665.594	87.12
665.797	73.12
666	86.12
666.203	79.12
666.406	87.12
666.609	90.12
666.812	76.12
667.015	78.12
667.218	78.12
667.421	83.12
667.624	84.12
667.827	82.12
668.03	78.12
668.232	76.12
668.435	91.12
668.638	86.12
668.841	72.12
669.043	90.12
669.246	76.12
669.449	78.12
669.651	84.12
669.854	86.12
670.057	80.12
670.259	82.12
670.462	91.12
670.665	90.12
670.867	83.12
671.07	79.12
671.272	94.12
671.475	79.12
671.677	80.12
671.88	89.12
672.082	85.12
672.284	81.12
672.487	65.12
672.689	67.12
672.892	89.12
