Data from Circ_2005_H10_HRD10591_00047.txt Node
Date: Wed Jan 03 10:30:00 EST 2024
User: Yrep
Spectrometer: HR+D1059
Trigger mode: 1
Integration Time (sec): 1.000000E-1
Scans to average: 1
Electric dark correction enabled: true
Nonlinearity correction enabled: false
Boxcar width: 0
XAxis mode: Wavelengths
Number of Pixels in Spectrum: 2048
>>>>>Begin Spectral Data<<<<<
223.165	-25.19
223.4	-25.19
223.635	-25.19
223.869	-7.19
224.104	-20.19
224.338	-22.19
224.573	-20.19
224.808	-18.19
225.042	0.81
225.277	-9.19
225.511	3.81
225.746	13.81
225.98	15.81
226.215	-1.19
226.449	20.81
226.683	20.81
226.918	8.81
227.152	38.81
227.387	37.81
227.621	29.81
227.856	45.81
228.09	44.81
228.324	48.81
228.559	70.81
228.793	73.81
229.027	62.81
229.262	66.81
229.496	76.81
229.73	81.81
229.964	85.81
230.199	87.81
230.433	66.81
230.667	80.81
230.901	71.81
231.136	69.81
231.37	94.81
231.604	91.81
231.838	68.81
232.072	87.81
232.306	78.81
232.541	79.81
232.775	71.81
233.009	83.81
233.243	77.81
233.477	75.81
233.711	78.81
233.945	68.81
234.179	88.81
234.413	79.81
234.647	81.81
234.881	68.81
235.115	87.81
235.349	66.81
235.583	80.81
235.817	84.81
236.051	86.81
236.285	66.81
236.519	77.81
236.753	70.81
236.987	91.81
237.221	91.81
237.455	82.81
237.689	83.81
237.922	87.81
238.156	76.81
238.39	75.81
238.624	84.81
238.858	88.81
239.091	72.81
239.325	66.81
239.559	88.81
239.793	79.81
240.027	86.81
240.26	89.81
240.494	87.81
240.728	82.81
240.961	79.81
241.195	87.81
241.429	68.81
241.662	73.81
241.896	75.81
242.13	70.81
242.363	87.81
242.597	74.81
242.83	70.81
243.064	71.81
243.298	89.81
243.531	89.81
243.765	87.81
243.998	73.81
244.232	71.81
244.465	80.81
244.699	76.81
244.932	76.81
245.166	72.81
245.399	80.81
245.633	78.81
245.866	68.81
246.099	80.81
246.333	93.81
246.566	72.81
246.8	91.81
247.033	79.81
247.266	71.81
247.5	75.81
247.733	81.81
247.966	88.81
248.2	82.81
248.433	80.81
248.666	75.81
248.899	73.81
249.133	82.81
249.366	91.81
249.599	112.81
249.832	89.81
250.066	75.81
250.299	84.81
250.532	84.81
250.765	73.81
250.998	86.81
251.231	74.81
251.465	68.81
251.698	69.81
251.931	80.81
252.164	80.81
252.397	95.81
252.63	76.81
252.863	94.81
253.096	75.81
253.329	77.81
253.562	99.81
253.795	82.81
254.028	89.81
254.261	79.81
254.494	93.81
254.727	78.81
254.96	72.81
255.193	93.81
255.426	91.81
255.659	87.81
255.892	94.81
256.124	84.81
256.357	84.81
256.59	76.81
256.823	57.81
257.056	59.81
257.289	75.81
257.521	85.81
257.754	85.81
257.987	86.81
258.22	97.81
258.452	100.81
258.685	97.81
258.918	83.81
259.151	76.81
259.383	80.81
259.616	88.81
259.849	91.81
260.081	88.81
260.314	97.81
260.547	79.81
260.779	93.81
261.012	89.81
261.244	80.81
261.477	89.81
261.71	103.81
261.942	113.81
262.175	111.81
262.407	95.81
262.64	71.81
262.872	79.81
263.105	85.81
263.337	88.81
263.57	84.81
263.802	89.81
264.035	69.81
264.267	78.81
264.499	81.81
264.732	81.81
264.964	74.81
265.197	82.81
265.429	76.81
265.661	85.81
265.894	92.81
266.126	101.81
266.358	61.81
266.591	90.81
266.823	100.81
267.055	84.81
267.287	91.81
267.52	86.81
267.752	81.81
267.984	88.81
268.216	96.81
268.448	87.81
268.681	89.81
268.913	84.81
269.145	96.81
269.377	80.81
269.609	84.81
269.841	103.81
270.073	86.81
270.306	93.81
270.538	87.81
270.77	89.81
271.002	86.81
271.234	88.81
271.466	77.81
271.698	94.81
271.93	86.81
272.162	79.81
272.394	83.81
272.626	85.81
272.858	77.81
273.09	98.81
273.322	72.81
273.553	87.81
273.785	87.81
274.017	81.81
274.249	73.81
274.481	76.81
274.713	76.81
274.945	92.81
275.176	94.81
275.408	72.81
275.64	89.81
275.872	104.81
276.104	97.81
276.335	98.81
276.567	96.81
276.799	97.81
277.031	101.81
277.262	92.81
277.494	103.81
277.726	85.81
277.957	84.81
278.189	80.81
278.421	84.81
278.652	101.81
278.884	99.81
279.115	94.81
279.347	96.81
279.579	89.81
279.81	87.81
280.042	84.81
280.273	101.81
280.505	85.81
280.736	79.81
280.968	86.81
281.199	84.81
281.431	77.81
281.662	99.81
281.894	93.81
282.125	104.81
282.356	126.81
282.588	141.81
282.819	101.81
283.051	95.81
283.282	94.81
283.513	96.81
283.745	100.81
283.976	77.81
284.207	83.81
284.439	89.81
284.67	88.81
284.901	101.81
285.132	95.81
285.364	94.81
285.595	81.81
285.826	89.81
286.057	91.81
286.288	90.81
286.52	86.81
286.751	89.81
286.982	93.81
287.213	84.81
287.444	97.81
287.675	84.81
287.906	81.81
288.138	89.81
288.369	88.81
288.6	79.81
288.831	89.81
289.062	86.81
289.293	101.81
289.524	81.81
289.755	87.81
289.986	93.81
290.217	81.81
290.448	83.81
290.679	88.81
290.91	83.81
291.141	81.81
291.371	92.81
291.602	91.81
291.833	86.81
292.064	91.81
292.295	91.81
292.526	92.81
292.757	87.81
292.987	86.81
293.218	97.81
293.449	77.81
293.68	92.81
293.91	94.81
294.141	89.81
294.372	93.81
294.603	85.81
294.833	78.81
295.064	97.81
295.295	90.81
295.525	91.81
295.756	94.81
295.987	119.81
296.217	135.81
296.448	110.81
296.679	87.81
296.909	89.81
297.14	103.81
297.37	93.81
297.601	89.81
297.831	95.81
298.062	93.81
298.292	87.81
298.523	83.81
298.753	79.81
298.984	104.81
299.214	89.81
299.445	86.81
299.675	107.81
299.905	101.81
300.136	80.81
300.366	88.81
300.597	90.81
300.827	91.81
301.057	96.81
301.288	94.81
301.518	84.81
301.748	93.81
301.979	102.81
302.209	99.81
302.439	103.81
302.669	84.81
302.9	90.81
303.13	92.81
303.36	97.81
303.59	103.81
303.82	108.81
304.051	106.81
304.281	90.81
304.511	104.81
304.741	89.81
304.971	88.81
305.201	59.81
305.431	81.81
305.661	87.81
305.891	95.81
306.121	102.81
306.352	100.81
306.582	96.81
306.812	99.81
307.042	94.81
307.272	92.81
307.502	95.81
307.731	89.81
307.961	80.81
308.191	87.81
308.421	85.81
308.651	93.81
308.881	97.81
309.111	100.81
309.341	84.81
309.571	107.81
309.8	95.81
310.03	87.81
310.26	104.81
310.49	103.81
310.72	99.81
310.949	94.81
311.179	107.81
311.409	88.81
311.639	87.81
311.868	94.81
312.098	97.81
312.328	91.81
312.557	105.81
312.787	111.81
313.017	97.81
313.246	89.81
313.476	89.81
313.706	103.81
313.935	99.81
314.165	111.81
314.394	93.81
314.624	110.81
314.853	99.81
315.083	85.81
315.312	88.81
315.542	91.81
315.771	86.81
316.001	97.81
316.23	112.81
316.46	92.81
316.689	99.81
316.919	98.81
317.148	85.81
317.377	100.81
317.607	97.81
317.836	104.81
318.065	86.81
318.295	97.81
318.524	86.81
318.753	92.81
318.983	92.81
319.212	99.81
319.441	101.81
319.67	100.81
319.9	85.81
320.129	94.81
320.358	87.81
320.587	96.81
320.816	102.81
321.046	104.81
321.275	95.81
321.504	100.81
321.733	104.81
321.962	111.81
322.191	116.81
322.42	109.81
322.649	115.81
322.878	125.81
323.108	123.81
323.337	111.81
323.566	140.81
323.795	160.81
324.024	209.81
324.253	418.81
324.482	898.81
324.71	1779.81
324.939	2355.81
325.168	853.81
325.397	263.81
325.626	165.81
325.855	132.81
326.084	128.81
326.313	115.81
326.542	181.81
326.77	229.81
326.999	487.81
327.228	969.81
327.457	1833.81
327.686	1427.81
327.914	403.81
328.143	210.81
328.372	156.81
328.6	143.81
328.829	121.81
329.058	126.81
329.287	144.81
329.515	112.81
329.744	118.81
329.972	124.81
330.201	141.81
330.43	181.81
330.658	156.81
330.887	158.81
331.115	117.81
331.344	109.81
331.572	101.81
331.801	99.81
332.03	89.81
332.258	96.81
332.486	104.81
332.715	96.81
332.943	96.81
333.172	83.81
333.4	91.81
333.629	105.81
333.857	116.81
334.085	125.81
334.314	160.81
334.542	196.81
334.771	193.81
334.999	112.81
335.227	93.81
335.455	104.81
335.684	103.81
335.912	93.81
336.14	94.81
336.369	103.81
336.597	107.81
336.825	98.81
337.053	96.81
337.281	96.81
337.51	84.81
337.738	95.81
337.966	103.81
338.194	98.81
338.422	102.81
338.65	92.81
338.878	89.81
339.106	97.81
339.334	83.81
339.562	87.81
339.79	88.81
340.018	96.81
340.246	91.81
340.474	88.81
340.702	91.81
340.93	85.81
341.158	95.81
341.386	101.81
341.614	110.81
341.842	84.81
342.07	92.81
342.298	87.81
342.526	83.81
342.754	88.81
342.981	86.81
343.209	77.81
343.437	102.81
343.665	88.81
343.893	95.81
344.12	90.81
344.348	97.81
344.576	95.81
344.804	100.81
345.031	85.81
345.259	98.81
345.487	82.81
345.714	94.81
345.942	103.81
346.17	96.81
346.397	89.81
346.625	104.81
346.853	97.81
347.08	101.81
347.308	89.81
347.535	104.81
347.763	97.81
347.99	87.81
348.218	101.81
348.445	102.81
348.673	112.81
348.9	89.81
349.128	82.81
349.355	99.81
349.583	103.81
349.81	88.81
350.037	83.81
350.265	84.81
350.492	94.81
350.72	86.81
350.947	107.81
351.174	108.81
351.402	95.81
351.629	105.81
351.856	99.81
352.083	109.81
352.311	107.81
352.538	102.81
352.765	109.81
352.992	98.81
353.22	113.81
353.447	102.81
353.674	100.81
353.901	99.81
354.128	79.81
354.355	85.81
354.583	95.81
354.81	107.81
355.037	88.81
355.264	100.81
355.491	105.81
355.718	99.81
355.945	80.81
356.172	91.81
356.399	93.81
356.626	88.81
356.853	95.81
357.08	94.81
357.307	93.81
357.534	77.81
357.761	102.81
357.988	103.81
358.215	85.81
358.441	87.81
358.668	86.81
358.895	93.81
359.122	83.81
359.349	94.81
359.576	96.81
359.802	106.81
360.029	109.81
360.256	122.81
360.483	88.81
360.709	88.81
360.936	92.81
361.163	96.81
361.39	95.81
361.616	83.81
361.843	91.81
362.07	82.81
362.296	89.81
362.523	77.81
362.749	77.81
362.976	95.81
363.203	96.81
363.429	86.81
363.656	92.81
363.882	92.81
364.109	89.81
364.335	74.81
364.562	90.81
364.788	99.81
365.015	86.81
365.241	94.81
365.468	114.81
365.694	111.81
365.92	98.81
366.147	95.81
366.373	85.81
366.599	93.81
366.826	86.81
367.052	97.81
367.278	88.81
367.505	99.81
367.731	95.81
367.957	94.81
368.184	81.81
368.41	98.81
368.636	121.81
368.862	121.81
369.089	116.81
369.315	104.81
369.541	78.81
369.767	90.81
369.993	91.81
370.219	103.81
370.445	93.81
370.672	83.81
370.898	89.81
371.124	101.81
371.35	96.81
371.576	84.81
371.802	95.81
372.028	95.81
372.254	86.81
372.48	92.81
372.706	89.81
372.932	91.81
373.158	87.81
373.384	96.81
373.61	93.81
373.835	108.81
374.061	81.81
374.287	87.81
374.513	79.81
374.739	85.81
374.965	85.81
375.191	92.81
375.416	93.81
375.642	96.81
375.868	94.81
376.094	99.81
376.319	85.81
376.545	85.81
376.771	92.81
376.997	105.81
377.222	87.81
377.448	107.81
377.674	91.81
377.899	102.81
378.125	97.81
378.35	92.81
378.576	99.81
378.802	88.81
379.027	101.81
379.253	91.81
379.478	88.81
379.704	90.81
379.929	86.81
380.155	100.81
380.38	80.81
380.606	103.81
380.831	103.81
381.057	103.81
381.282	91.81
381.507	118.81
381.733	92.81
381.958	83.81
382.184	104.81
382.409	85.81
382.634	113.81
382.86	104.81
383.085	86.81
383.31	102.81
383.535	91.81
383.761	99.81
383.986	103.81
384.211	84.81
384.436	83.81
384.662	95.81
384.887	108.81
385.112	95.81
385.337	111.81
385.562	113.81
385.787	111.81
386.013	96.81
386.238	101.81
386.463	112.81
386.688	117.81
386.913	105.81
387.138	105.81
387.363	121.81
387.588	87.81
387.813	104.81
388.038	110.81
388.263	119.81
388.488	104.81
388.713	95.81
388.938	93.81
389.163	108.81
389.387	111.81
389.612	95.81
389.837	98.81
390.062	96.81
390.287	103.81
390.512	103.81
390.736	97.81
390.961	93.81
391.186	97.81
391.411	101.81
391.636	78.81
391.86	103.81
392.085	84.81
392.31	83.81
392.534	91.81
392.759	85.81
392.984	93.81
393.208	76.81
393.433	79.81
393.658	93.81
393.882	81.81
394.107	89.81
394.331	92.81
394.556	98.81
394.78	87.81
395.005	93.81
395.229	96.81
395.454	102.81
395.678	108.81
395.903	84.81
396.127	88.81
396.352	94.81
396.576	77.81
396.801	88.81
397.025	79.81
397.249	86.81
397.474	117.81
397.698	86.81
397.922	87.81
398.147	94.81
398.371	84.81
398.595	79.81
398.82	76.81
399.044	93.81
399.268	73.81
399.492	79.81
399.717	77.81
399.941	85.81
400.165	93.81
400.389	93.81
400.613	87.81
400.837	94.81
401.062	84.81
401.286	102.81
401.51	100.81
401.734	91.81
401.958	89.81
402.182	135.81
402.406	170.81
402.63	132.81
402.854	96.81
403.078	105.81
403.302	82.81
403.526	94.81
403.75	81.81
403.974	84.81
404.198	91.81
404.422	91.81
404.645	83.81
404.869	89.81
405.093	86.81
405.317	100.81
405.541	106.81
405.765	102.81
405.988	113.81
406.212	168.81
406.436	254.81
406.66	136.81
406.883	91.81
407.107	96.81
407.331	85.81
407.555	92.81
407.778	98.81
408.002	107.81
408.226	92.81
408.449	79.81
408.673	77.81
408.896	95.81
409.12	106.81
409.344	74.81
409.567	83.81
409.791	89.81
410.014	91.81
410.238	82.81
410.461	93.81
410.685	93.81
410.908	96.81
411.132	126.81
411.355	84.81
411.578	89.81
411.802	101.81
412.025	94.81
412.249	84.81
412.472	94.81
412.695	93.81
412.919	96.81
413.142	102.81
413.365	91.81
413.589	78.81
413.812	90.81
414.035	88.81
414.258	82.81
414.482	100.81
414.705	99.81
414.928	96.81
415.151	88.81
415.374	81.81
415.597	78.81
415.821	92.81
416.044	97.81
416.267	89.81
416.49	79.81
416.713	79.81
416.936	67.81
417.159	91.81
417.382	86.81
417.605	73.81
417.828	93.81
418.051	84.81
418.274	96.81
418.497	83.81
418.72	92.81
418.943	89.81
419.166	96.81
419.389	104.81
419.611	94.81
419.834	90.81
420.057	97.81
420.28	83.81
420.503	81.81
420.726	85.81
420.948	82.81
421.171	93.81
421.394	103.81
421.617	83.81
421.839	89.81
422.062	90.81
422.285	94.81
422.507	95.81
422.73	116.81
422.953	94.81
423.175	83.81
423.398	91.81
423.621	93.81
423.843	95.81
424.066	84.81
424.288	101.81
424.511	89.81
424.733	87.81
424.956	103.81
425.178	94.81
425.401	95.81
425.623	99.81
425.846	98.81
426.068	98.81
426.291	95.81
426.513	103.81
426.735	103.81
426.958	102.81
427.18	111.81
427.402	127.81
427.625	162.81
427.847	132.81
428.069	125.81
428.292	88.81
428.514	90.81
428.736	97.81
428.958	88.81
429.181	89.81
429.403	84.81
429.625	96.81
429.847	87.81
430.069	100.81
430.292	95.81
430.514	87.81
430.736	80.81
430.958	87.81
431.18	70.81
431.402	82.81
431.624	84.81
431.846	99.81
432.068	65.81
432.29	94.81
432.512	96.81
432.734	74.81
432.956	100.81
433.178	95.81
433.4	92.81
433.622	79.81
433.844	99.81
434.066	95.81
434.287	101.81
434.509	83.81
434.731	76.81
434.953	84.81
435.175	85.81
435.397	84.81
435.618	88.81
435.84	93.81
436.062	128.81
436.284	112.81
436.505	104.81
436.727	102.81
436.949	101.81
437.17	108.81
437.392	105.81
437.614	112.81
437.835	99.81
438.057	116.81
438.278	128.81
438.5	112.81
438.721	109.81
438.943	117.81
439.165	97.81
439.386	80.81
439.608	79.81
439.829	105.81
440.05	120.81
440.272	139.81
440.493	99.81
440.715	95.81
440.936	94.81
441.158	95.81
441.379	83.81
441.6	91.81
441.822	103.81
442.043	88.81
442.264	95.81
442.486	90.81
442.707	100.81
442.928	107.81
443.149	148.81
443.371	140.81
443.592	105.81
443.813	104.81
444.034	102.81
444.255	92.81
444.476	93.81
444.698	89.81
444.919	88.81
445.14	138.81
445.361	129.81
445.582	118.81
445.803	143.81
446.024	141.81
446.245	139.81
446.466	112.81
446.687	98.81
446.908	82.81
447.129	101.81
447.35	79.81
447.571	100.81
447.792	80.81
448.013	97.81
448.234	104.81
448.455	102.81
448.675	121.81
448.896	121.81
449.117	97.81
449.338	106.81
449.559	121.81
449.779	128.81
450	98.81
450.221	76.81
450.442	97.81
450.662	96.81
450.883	125.81
451.104	119.81
451.324	105.81
451.545	97.81
451.766	82.81
451.986	75.81
452.207	91.81
452.428	79.81
452.648	110.81
452.869	111.81
453.089	100.81
453.31	126.81
453.53	93.81
453.751	93.81
453.971	92.81
454.192	103.81
454.412	83.81
454.633	70.81
454.853	92.81
455.073	101.81
455.294	89.81
455.514	110.81
455.734	101.81
455.955	74.81
456.175	85.81
456.395	81.81
456.616	82.81
456.836	84.81
457.056	87.81
457.276	81.81
457.497	86.81
457.717	88.81
457.937	101.81
458.157	87.81
458.377	73.81
458.598	112.81
458.818	159.81
459.038	170.81
459.258	127.81
459.478	82.81
459.698	93.81
459.918	93.81
460.138	89.81
460.358	79.81
460.578	96.81
460.798	91.81
461.018	85.81
461.238	93.81
461.458	88.81
461.678	79.81
461.898	70.81
462.118	73.81
462.338	82.81
462.558	76.81
462.777	95.81
462.997	94.81
463.217	80.81
463.437	80.81
463.657	86.81
463.876	87.81
464.096	95.81
464.316	88.81
464.536	109.81
464.755	91.81
464.975	104.81
465.195	164.81
465.414	168.81
465.634	100.81
465.854	99.81
466.073	78.81
466.293	69.81
466.512	82.81
466.732	88.81
466.951	94.81
467.171	99.81
467.391	94.81
467.61	93.81
467.829	83.81
468.049	110.81
468.268	132.81
468.488	80.81
468.707	91.81
468.927	86.81
469.146	95.81
469.365	84.81
469.585	94.81
469.804	101.81
470.023	96.81
470.243	93.81
470.462	104.81
470.681	106.81
470.901	114.81
471.12	88.81
471.339	99.81
471.558	87.81
471.777	98.81
471.997	97.81
472.216	145.81
472.435	237.81
472.654	115.81
472.873	87.81
473.092	92.81
473.311	81.81
473.53	80.81
473.749	87.81
473.968	102.81
474.187	109.81
474.406	92.81
474.625	85.81
474.844	70.81
475.063	88.81
475.282	88.81
475.501	88.81
475.72	89.81
475.939	86.81
476.158	84.81
476.377	83.81
476.596	96.81
476.814	94.81
477.033	102.81
477.252	93.81
477.471	97.81
477.69	89.81
477.908	84.81
478.127	88.81
478.346	83.81
478.564	94.81
478.783	94.81
479.002	98.81
479.22	99.81
479.439	106.81
479.658	107.81
479.876	82.81
480.095	100.81
480.313	111.81
480.532	93.81
480.751	95.81
480.969	142.81
481.188	344.81
481.406	256.81
481.624	101.81
481.843	97.81
482.061	103.81
482.28	87.81
482.498	101.81
482.717	83.81
482.935	85.81
483.153	100.81
483.372	78.81
483.59	106.81
483.808	73.81
484.027	92.81
484.245	91.81
484.463	95.81
484.681	107.81
484.9	93.81
485.118	100.81
485.336	104.81
485.554	91.81
485.772	92.81
485.99	97.81
486.209	96.81
486.427	108.81
486.645	114.81
486.863	114.81
487.081	95.81
487.299	102.81
487.517	98.81
487.735	88.81
487.953	93.81
488.171	96.81
488.389	100.81
488.607	100.81
488.825	104.81
489.043	96.81
489.261	96.81
489.479	95.81
489.696	89.81
489.914	70.81
490.132	92.81
490.35	84.81
490.568	89.81
490.786	99.81
491.003	80.81
491.221	94.81
491.439	86.81
491.657	99.81
491.874	94.81
492.092	83.81
492.31	100.81
492.527	85.81
492.745	88.81
492.963	94.81
493.18	87.81
493.398	96.81
493.615	88.81
493.833	99.81
494.05	79.81
494.268	90.81
494.485	91.81
494.703	89.81
494.92	86.81
495.138	89.81
495.355	95.81
495.573	82.81
495.79	77.81
496.008	99.81
496.225	94.81
496.442	89.81
496.66	95.81
496.877	92.81
497.094	88.81
497.312	104.81
497.529	102.81
497.746	103.81
497.963	97.81
498.181	90.81
498.398	102.81
498.615	117.81
498.832	103.81
499.049	88.81
499.267	92.81
499.484	79.81
499.701	84.81
499.918	93.81
500.135	89.81
500.352	86.81
500.569	88.81
500.786	98.81
501.003	82.81
501.22	84.81
501.437	85.81
501.654	91.81
501.871	104.81
502.088	109.81
502.305	105.81
502.522	90.81
502.739	92.81
502.956	96.81
503.172	94.81
503.389	89.81
503.606	104.81
503.823	104.81
504.04	100.81
504.256	94.81
504.473	83.81
504.69	91.81
504.907	93.81
505.123	95.81
505.34	79.81
505.557	81.81
505.773	82.81
505.99	87.81
506.207	84.81
506.423	83.81
506.64	89.81
506.856	86.81
507.073	85.81
507.289	97.81
507.506	91.81
507.722	108.81
507.939	100.81
508.155	92.81
508.372	86.81
508.588	100.81
508.805	108.81
509.021	101.81
509.238	94.81
509.454	95.81
509.67	107.81
509.887	95.81
510.103	128.81
510.319	211.81
510.536	739.81
510.752	2469.81
510.968	687.81
511.184	163.81
511.401	114.81
511.617	106.81
511.833	95.81
512.049	93.81
512.265	88.81
512.481	92.81
512.698	87.81
512.914	97.81
513.13	95.81
513.346	103.81
513.562	93.81
513.778	107.81
513.994	92.81
514.21	93.81
514.426	121.81
514.642	146.81
514.858	130.81
515.074	165.81
515.29	460.81
515.506	1518.81
515.721	550.81
515.937	149.81
516.153	112.81
516.369	107.81
516.585	104.81
516.801	102.81
517.016	87.81
517.232	96.81
517.448	102.81
517.664	94.81
517.879	96.81
518.095	83.81
518.311	98.81
518.527	103.81
518.742	95.81
518.958	89.81
519.173	95.81
519.389	97.81
519.605	97.81
519.82	93.81
520.036	99.81
520.251	138.81
520.467	109.81
520.682	115.81
520.898	115.81
521.113	112.81
521.329	148.81
521.544	201.81
521.76	572.81
521.975	2493.81
522.19	1535.81
522.406	339.81
522.621	136.81
522.836	108.81
523.052	99.81
523.267	110.81
523.482	97.81
523.698	94.81
523.913	124.81
524.128	101.81
524.343	93.81
524.559	97.81
524.774	83.81
524.989	99.81
525.204	112.81
525.419	106.81
525.634	80.81
525.849	98.81
526.064	95.81
526.28	81.81
526.495	92.81
526.71	83.81
526.925	84.81
527.14	81.81
527.355	93.81
527.57	93.81
527.785	89.81
527.999	98.81
528.214	92.81
528.429	97.81
528.644	98.81
528.859	91.81
529.074	97.81
529.289	124.81
529.503	189.81
529.718	112.81
529.933	100.81
530.148	83.81
530.363	97.81
530.577	84.81
530.792	87.81
531.007	100.81
531.221	107.81
531.436	88.81
531.651	91.81
531.865	98.81
532.08	91.81
532.295	95.81
532.509	89.81
532.724	105.81
532.938	107.81
533.153	107.81
533.367	107.81
533.582	95.81
533.796	89.81
534.011	93.81
534.225	104.81
534.44	88.81
534.654	97.81
534.868	91.81
535.083	93.81
535.297	89.81
535.511	104.81
535.726	113.81
535.94	101.81
536.154	97.81
536.369	98.81
536.583	97.81
536.797	107.81
537.011	103.81
537.225	85.81
537.44	92.81
537.654	98.81
537.868	95.81
538.082	94.81
538.296	96.81
538.51	86.81
538.724	90.81
538.938	95.81
539.153	97.81
539.367	86.81
539.581	87.81
539.795	87.81
540.009	81.81
540.222	77.81
540.436	81.81
540.65	90.81
540.864	83.81
541.078	100.81
541.292	99.81
541.506	97.81
541.72	105.81
541.934	86.81
542.147	92.81
542.361	86.81
542.575	88.81
542.789	96.81
543.002	99.81
543.216	98.81
543.43	97.81
543.644	107.81
543.857	91.81
544.071	83.81
544.285	88.81
544.498	86.81
544.712	94.81
544.925	108.81
545.139	91.81
545.352	97.81
545.566	100.81
545.779	89.81
545.993	84.81
546.206	101.81
546.42	103.81
546.633	95.81
546.847	79.81
547.06	88.81
547.274	83.81
547.487	95.81
547.7	98.81
547.914	94.81
548.127	84.81
548.34	88.81
548.554	78.81
548.767	85.81
548.98	87.81
549.193	87.81
549.407	89.81
549.62	80.81
549.833	92.81
550.046	78.81
550.259	92.81
550.473	83.81
550.686	87.81
550.899	80.81
551.112	95.81
551.325	92.81
551.538	86.81
551.751	92.81
551.964	95.81
552.177	80.81
552.39	93.81
552.603	78.81
552.816	80.81
553.029	93.81
553.242	83.81
553.455	108.81
553.667	98.81
553.88	95.81
554.093	98.81
554.306	104.81
554.519	87.81
554.732	73.81
554.944	80.81
555.157	98.81
555.37	79.81
555.583	101.81
555.795	87.81
556.008	92.81
556.221	79.81
556.433	80.81
556.646	73.81
556.859	89.81
557.071	94.81
557.284	95.81
557.496	85.81
557.709	96.81
557.921	97.81
558.134	99.81
558.346	85.81
558.559	86.81
558.771	90.81
558.984	96.81
559.196	89.81
559.409	80.81
559.621	88.81
559.833	88.81
560.046	96.81
560.258	70.81
560.47	88.81
560.683	85.81
560.895	84.81
561.107	88.81
561.32	105.81
561.532	96.81
561.744	88.81
561.956	94.81
562.168	96.81
562.381	80.81
562.593	93.81
562.805	86.81
563.017	79.81
563.229	86.81
563.441	86.81
563.653	88.81
563.865	93.81
564.077	90.81
564.289	83.81
564.501	96.81
564.713	96.81
564.925	100.81
565.137	98.81
565.349	102.81
565.561	94.81
565.773	103.81
565.985	81.81
566.197	90.81
566.408	84.81
566.62	90.81
566.832	76.81
567.044	95.81
567.255	103.81
567.467	89.81
567.679	80.81
567.891	84.81
568.102	81.81
568.314	94.81
568.526	92.81
568.737	92.81
568.949	79.81
569.161	88.81
569.372	96.81
569.584	83.81
569.795	103.81
570.007	109.81
570.218	244.81
570.43	140.81
570.641	104.81
570.853	83.81
571.064	98.81
571.276	80.81
571.487	82.81
571.698	78.81
571.91	87.81
572.121	90.81
572.333	89.81
572.544	84.81
572.755	88.81
572.966	82.81
573.178	92.81
573.389	82.81
573.6	96.81
573.811	87.81
574.023	89.81
574.234	94.81
574.445	87.81
574.656	99.81
574.867	77.81
575.078	88.81
575.289	88.81
575.501	85.81
575.712	89.81
575.923	94.81
576.134	95.81
576.345	84.81
576.556	84.81
576.767	102.81
576.978	95.81
577.188	80.81
577.399	101.81
577.61	89.81
577.821	104.81
578.032	116.81
578.243	265.81
578.454	767.81
578.665	231.81
578.875	116.81
579.086	87.81
579.297	98.81
579.508	102.81
579.718	80.81
579.929	91.81
580.14	94.81
580.35	84.81
580.561	89.81
580.772	80.81
580.982	86.81
581.193	83.81
581.403	94.81
581.614	88.81
581.825	69.81
582.035	82.81
582.246	91.81
582.456	89.81
582.667	100.81
582.877	88.81
583.087	77.81
583.298	79.81
583.508	75.81
583.719	81.81
583.929	87.81
584.139	89.81
584.35	99.81
584.56	95.81
584.77	78.81
584.981	75.81
585.191	97.81
585.401	84.81
585.611	73.81
585.821	108.81
586.032	102.81
586.242	88.81
586.452	102.81
586.662	78.81
586.872	91.81
587.082	99.81
587.292	85.81
587.502	77.81
587.713	104.81
587.923	89.81
588.133	92.81
588.343	90.81
588.553	81.81
588.762	93.81
588.972	92.81
589.182	111.81
589.392	96.81
589.602	87.81
589.812	108.81
590.022	97.81
590.232	84.81
590.441	93.81
590.651	96.81
590.861	86.81
591.071	75.81
591.281	87.81
591.49	84.81
591.7	84.81
591.91	81.81
592.119	104.81
592.329	94.81
592.539	102.81
592.748	88.81
592.958	93.81
593.167	69.81
593.377	94.81
593.587	99.81
593.796	76.81
594.006	91.81
594.215	92.81
594.424	87.81
594.634	79.81
594.843	90.81
595.053	82.81
595.262	80.81
595.472	78.81
595.681	92.81
595.89	95.81
596.1	90.81
596.309	86.81
596.518	75.81
596.727	85.81
596.937	77.81
597.146	86.81
597.355	85.81
597.564	92.81
597.774	82.81
597.983	84.81
598.192	81.81
598.401	86.81
598.61	98.81
598.819	78.81
599.028	83.81
599.237	93.81
599.446	99.81
599.655	89.81
599.864	92.81
600.073	88.81
600.282	79.81
600.491	82.81
600.7	88.81
600.909	86.81
601.118	83.81
601.327	89.81
601.536	70.81
601.745	90.81
601.953	93.81
602.162	83.81
602.371	110.81
602.58	85.81
602.789	79.81
602.997	87.81
603.206	97.81
603.415	90.81
603.623	85.81
603.832	95.81
604.041	90.81
604.249	87.81
604.458	91.81
604.666	73.81
604.875	77.81
605.084	77.81
605.292	84.81
605.501	86.81
605.709	89.81
605.918	89.81
606.126	97.81
606.334	92.81
606.543	80.81
606.751	89.81
606.96	86.81
607.168	86.81
607.376	86.81
607.585	93.81
607.793	98.81
608.001	86.81
608.21	79.81
608.418	70.81
608.626	79.81
608.834	84.81
609.043	85.81
609.251	63.81
609.459	83.81
609.667	93.81
609.875	85.81
610.083	94.81
610.291	96.81
610.499	85.81
610.707	83.81
610.916	82.81
611.124	77.81
611.332	85.81
611.54	89.81
611.748	91.81
611.955	85.81
612.163	98.81
612.371	80.81
612.579	82.81
612.787	94.81
612.995	79.81
613.203	95.81
613.411	82.81
613.618	79.81
613.826	75.81
614.034	82.81
614.242	91.81
614.449	86.81
614.657	89.81
614.865	96.81
615.072	83.81
615.28	80.81
615.488	96.81
615.695	89.81
615.903	95.81
616.111	96.81
616.318	112.81
616.526	108.81
616.733	86.81
616.941	84.81
617.148	79.81
617.356	86.81
617.563	84.81
617.771	98.81
617.978	89.81
618.185	93.81
618.393	83.81
618.6	80.81
618.807	84.81
619.015	90.81
619.222	80.81
619.429	87.81
619.637	93.81
619.844	84.81
620.051	84.81
620.258	80.81
620.466	94.81
620.673	83.81
620.88	98.81
621.087	84.81
621.294	79.81
621.501	92.81
621.708	75.81
621.915	97.81
622.122	82.81
622.329	87.81
622.536	93.81
622.743	89.81
622.95	81.81
623.157	82.81
623.364	86.81
623.571	82.81
623.778	94.81
623.985	83.81
624.192	84.81
624.399	85.81
624.606	79.81
624.812	96.81
625.019	73.81
625.226	89.81
625.433	100.81
625.639	71.81
625.846	78.81
626.053	71.81
626.259	97.81
626.466	98.81
626.673	81.81
626.879	79.81
627.086	86.81
627.293	78.81
627.499	80.81
627.706	72.81
627.912	98.81
628.119	92.81
628.325	78.81
628.532	83.81
628.738	86.81
628.945	78.81
629.151	80.81
629.357	79.81
629.564	81.81
629.77	82.81
629.976	84.81
630.183	91.81
630.389	79.81
630.595	72.81
630.802	89.81
631.008	93.81
631.214	84.81
631.42	79.81
631.627	89.81
631.833	71.81
632.039	82.81
632.245	92.81
632.451	88.81
632.657	89.81
632.863	96.81
633.069	85.81
633.275	69.81
633.481	76.81
633.688	94.81
633.893	97.81
634.099	83.81
634.305	79.81
634.511	84.81
634.717	83.81
634.923	88.81
635.129	85.81
635.335	72.81
635.541	84.81
635.747	85.81
635.952	88.81
636.158	92.81
636.364	101.81
636.57	110.81
636.775	95.81
636.981	88.81
637.187	86.81
637.392	86.81
637.598	82.81
637.804	86.81
638.009	93.81
638.215	86.81
638.421	88.81
638.626	81.81
638.832	81.81
639.037	75.81
639.243	83.81
639.448	83.81
639.654	80.81
639.859	86.81
640.065	79.81
640.27	92.81
640.475	91.81
640.681	84.81
640.886	84.81
641.091	78.81
641.297	86.81
641.502	83.81
641.707	92.81
641.913	97.81
642.118	93.81
642.323	86.81
642.528	88.81
642.733	78.81
642.939	95.81
643.144	82.81
643.349	78.81
643.554	86.81
643.759	79.81
643.964	87.81
644.169	93.81
644.374	83.81
644.579	88.81
644.784	85.81
644.989	74.81
645.194	101.81
645.399	81.81
645.604	93.81
645.809	95.81
646.014	96.81
646.219	85.81
646.423	86.81
646.628	82.81
646.833	85.81
647.038	75.81
647.243	92.81
647.447	90.81
647.652	81.81
647.857	81.81
648.062	90.81
648.266	76.81
648.471	87.81
648.676	83.81
648.88	98.81
649.085	98.81
649.289	111.81
649.494	108.81
649.698	130.81
649.903	105.81
650.107	96.81
650.312	83.81
650.516	83.81
650.721	85.81
650.925	93.81
651.13	86.81
651.334	97.81
651.539	91.81
651.743	85.81
651.947	89.81
652.152	79.81
652.356	89.81
652.56	94.81
652.764	80.81
652.969	90.81
653.173	93.81
653.377	96.81
653.581	79.81
653.785	92.81
653.99	95.81
654.194	84.81
654.398	74.81
654.602	81.81
654.806	98.81
655.01	104.81
655.214	85.81
655.418	81.81
655.622	73.81
655.826	76.81
656.03	77.81
656.234	89.81
656.438	108.81
656.642	111.81
656.846	91.81
657.049	75.81
657.253	73.81
657.457	84.81
657.661	72.81
657.865	96.81
658.068	84.81
658.272	93.81
658.476	89.81
658.68	87.81
658.883	89.81
659.087	93.81
659.291	75.81
659.494	87.81
659.698	76.81
659.901	85.81
660.105	78.81
660.309	79.81
660.512	89.81
660.716	88.81
660.919	79.81
661.123	94.81
661.326	79.81
661.53	88.81
661.733	85.81
661.936	71.81
662.14	61.81
662.343	95.81
662.546	70.81
662.75	73.81
662.953	82.81
663.156	81.81
663.36	85.81
663.563	95.81
663.766	81.81
663.969	86.81
664.173	92.81
664.376	89.81
664.579	78.81
664.782	73.81
664.985	88.81
665.188	74.81
665.391	89.81
665.594	82.81
665.797	77.81
666	86.81
666.203	94.81
666.406	87.81
666.609	88.81
666.812	73.81
667.015	69.81
667.218	80.81
667.421	74.81
667.624	88.81
667.827	84.81
668.03	77.81
668.232	81.81
668.435	74.81
668.638	90.81
668.841	92.81
669.043	73.81
669.246	80.81
669.449	69.81
669.651	83.81
669.854	76.81
670.057	72.81
670.259	73.81
670.462	87.81
670.665	65.81
670.867	89.81
671.07	93.81
671.272	75.81
671.475	67.81
671.677	88.81
671.88	93.81
672.082	85.81
672.284	78.81
672.487	91.81
672.689	63.81
672.892	89.81
