Data from Circ_2005_H10_HRD10591_00031.txt Node
Date: Wed Jan 03 10:29:57 EST 2024
User: Yrep
Spectrometer: HR+D1059
Trigger mode: 1
Integration Time (sec): 1.000000E-1
Scans to average: 1
Electric dark correction enabled: true
Nonlinearity correction enabled: false
Boxcar width: 0
XAxis mode: Wavelengths
Number of Pixels in Spectrum: 2048
>>>>>Begin Spectral Data<<<<<
223.165	-22.81
223.4	-22.81
223.635	-22.81
223.869	-20.81
224.104	-18.81
224.338	-12.81
224.573	-26.81
224.808	-11.81
225.042	-13.81
225.277	-11.81
225.511	8.19
225.746	12.19
225.98	0.19
226.215	7.19
226.449	16.19
226.683	40.19
226.918	19.19
227.152	36.19
227.387	33.19
227.621	52.19
227.856	48.19
228.09	55.19
228.324	38.19
228.559	39.19
228.793	65.19
229.027	55.19
229.262	68.19
229.496	76.19
229.73	96.19
229.964	92.19
230.199	66.19
230.433	72.19
230.667	78.19
230.901	90.19
231.136	73.19
231.37	84.19
231.604	85.19
231.838	71.19
232.072	82.19
232.306	84.19
232.541	88.19
232.775	77.19
233.009	71.19
233.243	78.19
233.477	89.19
233.711	78.19
233.945	84.19
234.179	72.19
234.413	67.19
234.647	73.19
234.881	71.19
235.115	75.19
235.349	90.19
235.583	83.19
235.817	60.19
236.051	100.19
236.285	71.19
236.519	77.19
236.753	82.19
236.987	79.19
237.221	84.19
237.455	93.19
237.689	66.19
237.922	75.19
238.156	84.19
238.39	77.19
238.624	78.19
238.858	76.19
239.091	73.19
239.325	77.19
239.559	84.19
239.793	85.19
240.027	86.19
240.26	99.19
240.494	86.19
240.728	77.19
240.961	69.19
241.195	74.19
241.429	83.19
241.662	78.19
241.896	74.19
242.13	84.19
242.363	78.19
242.597	82.19
242.83	78.19
243.064	80.19
243.298	87.19
243.531	87.19
243.765	72.19
243.998	83.19
244.232	77.19
244.465	74.19
244.699	94.19
244.932	72.19
245.166	62.19
245.399	76.19
245.633	95.19
245.866	76.19
246.099	78.19
246.333	67.19
246.566	93.19
246.8	80.19
247.033	80.19
247.266	80.19
247.5	83.19
247.733	91.19
247.966	80.19
248.2	82.19
248.433	89.19
248.666	70.19
248.899	89.19
249.133	80.19
249.366	96.19
249.599	107.19
249.832	69.19
250.066	80.19
250.299	83.19
250.532	88.19
250.765	89.19
250.998	86.19
251.231	82.19
251.465	75.19
251.698	66.19
251.931	85.19
252.164	83.19
252.397	74.19
252.63	81.19
252.863	80.19
253.096	79.19
253.329	75.19
253.562	77.19
253.795	83.19
254.028	93.19
254.261	84.19
254.494	100.19
254.727	86.19
254.96	77.19
255.193	81.19
255.426	81.19
255.659	79.19
255.892	92.19
256.124	88.19
256.357	84.19
256.59	85.19
256.823	82.19
257.056	85.19
257.289	80.19
257.521	66.19
257.754	86.19
257.987	85.19
258.22	82.19
258.452	77.19
258.685	99.19
258.918	78.19
259.151	79.19
259.383	84.19
259.616	79.19
259.849	75.19
260.081	73.19
260.314	104.19
260.547	76.19
260.779	85.19
261.012	88.19
261.244	86.19
261.477	85.19
261.71	83.19
261.942	104.19
262.175	118.19
262.407	90.19
262.64	92.19
262.872	86.19
263.105	95.19
263.337	76.19
263.57	68.19
263.802	86.19
264.035	81.19
264.267	78.19
264.499	70.19
264.732	97.19
264.964	72.19
265.197	80.19
265.429	78.19
265.661	77.19
265.894	84.19
266.126	90.19
266.358	76.19
266.591	81.19
266.823	93.19
267.055	77.19
267.287	83.19
267.52	100.19
267.752	98.19
267.984	84.19
268.216	80.19
268.448	80.19
268.681	88.19
268.913	67.19
269.145	94.19
269.377	83.19
269.609	83.19
269.841	85.19
270.073	79.19
270.306	83.19
270.538	78.19
270.77	85.19
271.002	94.19
271.234	100.19
271.466	85.19
271.698	96.19
271.93	90.19
272.162	91.19
272.394	91.19
272.626	90.19
272.858	93.19
273.09	87.19
273.322	100.19
273.553	87.19
273.785	89.19
274.017	79.19
274.249	74.19
274.481	80.19
274.713	83.19
274.945	90.19
275.176	90.19
275.408	92.19
275.64	96.19
275.872	87.19
276.104	85.19
276.335	90.19
276.567	102.19
276.799	115.19
277.031	101.19
277.262	82.19
277.494	88.19
277.726	87.19
277.957	89.19
278.189	95.19
278.421	90.19
278.652	88.19
278.884	100.19
279.115	84.19
279.347	91.19
279.579	90.19
279.81	89.19
280.042	83.19
280.273	84.19
280.505	75.19
280.736	84.19
280.968	103.19
281.199	80.19
281.431	82.19
281.662	92.19
281.894	78.19
282.125	98.19
282.356	118.19
282.588	142.19
282.819	97.19
283.051	85.19
283.282	79.19
283.513	89.19
283.745	93.19
283.976	88.19
284.207	88.19
284.439	81.19
284.67	92.19
284.901	84.19
285.132	84.19
285.364	87.19
285.595	76.19
285.826	98.19
286.057	72.19
286.288	82.19
286.52	86.19
286.751	90.19
286.982	90.19
287.213	79.19
287.444	89.19
287.675	98.19
287.906	80.19
288.138	99.19
288.369	91.19
288.6	105.19
288.831	96.19
289.062	80.19
289.293	87.19
289.524	89.19
289.755	79.19
289.986	76.19
290.217	93.19
290.448	85.19
290.679	77.19
290.91	82.19
291.141	99.19
291.371	82.19
291.602	85.19
291.833	93.19
292.064	70.19
292.295	102.19
292.526	87.19
292.757	82.19
292.987	91.19
293.218	88.19
293.449	89.19
293.68	90.19
293.91	95.19
294.141	81.19
294.372	96.19
294.603	85.19
294.833	85.19
295.064	96.19
295.295	109.19
295.525	100.19
295.756	103.19
295.987	112.19
296.217	142.19
296.448	148.19
296.679	86.19
296.909	74.19
297.14	90.19
297.37	96.19
297.601	82.19
297.831	73.19
298.062	96.19
298.292	85.19
298.523	101.19
298.753	100.19
298.984	77.19
299.214	75.19
299.445	96.19
299.675	99.19
299.905	94.19
300.136	101.19
300.366	93.19
300.597	77.19
300.827	99.19
301.057	90.19
301.288	88.19
301.518	101.19
301.748	87.19
301.979	98.19
302.209	85.19
302.439	101.19
302.669	97.19
302.9	104.19
303.13	101.19
303.36	89.19
303.59	99.19
303.82	112.19
304.051	91.19
304.281	84.19
304.511	95.19
304.741	80.19
304.971	92.19
305.201	90.19
305.431	86.19
305.661	85.19
305.891	97.19
306.121	96.19
306.352	100.19
306.582	102.19
306.812	89.19
307.042	105.19
307.272	96.19
307.502	78.19
307.731	89.19
307.961	91.19
308.191	90.19
308.421	88.19
308.651	84.19
308.881	99.19
309.111	95.19
309.341	101.19
309.571	94.19
309.8	98.19
310.03	89.19
310.26	97.19
310.49	82.19
310.72	102.19
310.949	98.19
311.179	103.19
311.409	97.19
311.639	78.19
311.868	83.19
312.098	93.19
312.328	107.19
312.557	97.19
312.787	105.19
313.017	95.19
313.246	84.19
313.476	98.19
313.706	106.19
313.935	97.19
314.165	92.19
314.394	97.19
314.624	97.19
314.853	101.19
315.083	88.19
315.312	85.19
315.542	84.19
315.771	89.19
316.001	93.19
316.23	102.19
316.46	90.19
316.689	81.19
316.919	98.19
317.148	110.19
317.377	105.19
317.607	101.19
317.836	91.19
318.065	96.19
318.295	90.19
318.524	85.19
318.753	93.19
318.983	99.19
319.212	104.19
319.441	102.19
319.67	116.19
319.9	84.19
320.129	105.19
320.358	85.19
320.587	99.19
320.816	93.19
321.046	105.19
321.275	97.19
321.504	92.19
321.733	99.19
321.962	108.19
322.191	111.19
322.42	106.19
322.649	113.19
322.878	118.19
323.108	115.19
323.337	121.19
323.566	121.19
323.795	162.19
324.024	209.19
324.253	393.19
324.482	880.19
324.71	1747.19
324.939	2337.19
325.168	857.19
325.397	263.19
325.626	157.19
325.855	136.19
326.084	124.19
326.313	129.19
326.542	159.19
326.77	233.19
326.999	473.19
327.228	984.19
327.457	1838.19
327.686	1422.19
327.914	390.19
328.143	204.19
328.372	155.19
328.6	136.19
328.829	128.19
329.058	119.19
329.287	142.19
329.515	100.19
329.744	101.19
329.972	96.19
330.201	111.19
330.43	122.19
330.658	117.19
330.887	145.19
331.115	145.19
331.344	110.19
331.572	109.19
331.801	108.19
332.03	103.19
332.258	109.19
332.486	96.19
332.715	96.19
332.943	96.19
333.172	105.19
333.4	91.19
333.629	95.19
333.857	96.19
334.085	109.19
334.314	113.19
334.542	112.19
334.771	124.19
334.999	98.19
335.227	98.19
335.455	84.19
335.684	76.19
335.912	105.19
336.14	88.19
336.369	92.19
336.597	104.19
336.825	102.19
337.053	84.19
337.281	100.19
337.51	98.19
337.738	97.19
337.966	92.19
338.194	102.19
338.422	88.19
338.65	109.19
338.878	82.19
339.106	91.19
339.334	91.19
339.562	84.19
339.79	90.19
340.018	92.19
340.246	100.19
340.474	98.19
340.702	100.19
340.93	89.19
341.158	98.19
341.386	97.19
341.614	96.19
341.842	104.19
342.07	109.19
342.298	89.19
342.526	93.19
342.754	94.19
342.981	107.19
343.209	88.19
343.437	108.19
343.665	76.19
343.893	100.19
344.12	97.19
344.348	100.19
344.576	90.19
344.804	93.19
345.031	92.19
345.259	95.19
345.487	99.19
345.714	97.19
345.942	100.19
346.17	85.19
346.397	97.19
346.625	100.19
346.853	101.19
347.08	89.19
347.308	90.19
347.535	90.19
347.763	95.19
347.99	126.19
348.218	103.19
348.445	104.19
348.673	96.19
348.9	94.19
349.128	95.19
349.355	98.19
349.583	106.19
349.81	99.19
350.037	91.19
350.265	105.19
350.492	100.19
350.72	88.19
350.947	98.19
351.174	116.19
351.402	122.19
351.629	102.19
351.856	100.19
352.083	100.19
352.311	100.19
352.538	121.19
352.765	92.19
352.992	98.19
353.22	124.19
353.447	117.19
353.674	93.19
353.901	96.19
354.128	109.19
354.355	107.19
354.583	94.19
354.81	97.19
355.037	103.19
355.264	118.19
355.491	95.19
355.718	101.19
355.945	103.19
356.172	92.19
356.399	93.19
356.626	104.19
356.853	101.19
357.08	90.19
357.307	108.19
357.534	92.19
357.761	94.19
357.988	97.19
358.215	95.19
358.441	104.19
358.668	81.19
358.895	83.19
359.122	89.19
359.349	101.19
359.576	85.19
359.802	100.19
360.029	109.19
360.256	110.19
360.483	99.19
360.709	88.19
360.936	92.19
361.163	100.19
361.39	94.19
361.616	82.19
361.843	99.19
362.07	102.19
362.296	93.19
362.523	95.19
362.749	79.19
362.976	91.19
363.203	93.19
363.429	92.19
363.656	90.19
363.882	89.19
364.109	84.19
364.335	101.19
364.562	100.19
364.788	93.19
365.015	111.19
365.241	102.19
365.468	97.19
365.694	106.19
365.92	102.19
366.147	80.19
366.373	82.19
366.599	96.19
366.826	89.19
367.052	95.19
367.278	95.19
367.505	89.19
367.731	99.19
367.957	90.19
368.184	92.19
368.41	103.19
368.636	118.19
368.862	106.19
369.089	110.19
369.315	107.19
369.541	101.19
369.767	92.19
369.993	108.19
370.219	87.19
370.445	90.19
370.672	91.19
370.898	102.19
371.124	96.19
371.35	93.19
371.576	87.19
371.802	89.19
372.028	92.19
372.254	81.19
372.48	96.19
372.706	95.19
372.932	94.19
373.158	98.19
373.384	95.19
373.61	88.19
373.835	95.19
374.061	84.19
374.287	101.19
374.513	87.19
374.739	100.19
374.965	84.19
375.191	102.19
375.416	90.19
375.642	97.19
375.868	85.19
376.094	88.19
376.319	89.19
376.545	88.19
376.771	86.19
376.997	95.19
377.222	90.19
377.448	92.19
377.674	91.19
377.899	96.19
378.125	86.19
378.35	87.19
378.576	96.19
378.802	92.19
379.027	86.19
379.253	88.19
379.478	105.19
379.704	82.19
379.929	93.19
380.155	95.19
380.38	95.19
380.606	99.19
380.831	96.19
381.057	103.19
381.282	107.19
381.507	93.19
381.733	94.19
381.958	101.19
382.184	97.19
382.409	95.19
382.634	106.19
382.86	101.19
383.085	94.19
383.31	93.19
383.535	105.19
383.761	92.19
383.986	102.19
384.211	92.19
384.436	100.19
384.662	104.19
384.887	94.19
385.112	100.19
385.337	124.19
385.562	108.19
385.787	107.19
386.013	114.19
386.238	125.19
386.463	106.19
386.688	105.19
386.913	120.19
387.138	122.19
387.363	111.19
387.588	106.19
387.813	103.19
388.038	105.19
388.263	112.19
388.488	110.19
388.713	97.19
388.938	101.19
389.163	98.19
389.387	103.19
389.612	89.19
389.837	93.19
390.062	87.19
390.287	81.19
390.512	83.19
390.736	100.19
390.961	97.19
391.186	99.19
391.411	104.19
391.636	88.19
391.86	89.19
392.085	96.19
392.31	102.19
392.534	82.19
392.759	98.19
392.984	98.19
393.208	96.19
393.433	100.19
393.658	86.19
393.882	93.19
394.107	92.19
394.331	85.19
394.556	87.19
394.78	82.19
395.005	96.19
395.229	85.19
395.454	100.19
395.678	93.19
395.903	90.19
396.127	98.19
396.352	84.19
396.576	90.19
396.801	80.19
397.025	96.19
397.249	92.19
397.474	86.19
397.698	102.19
397.922	101.19
398.147	93.19
398.371	86.19
398.595	95.19
398.82	102.19
399.044	98.19
399.268	97.19
399.492	83.19
399.717	82.19
399.941	80.19
400.165	95.19
400.389	99.19
400.613	89.19
400.837	93.19
401.062	91.19
401.286	87.19
401.51	94.19
401.734	81.19
401.958	84.19
402.182	124.19
402.406	153.19
402.63	130.19
402.854	94.19
403.078	92.19
403.302	86.19
403.526	97.19
403.75	90.19
403.974	73.19
404.198	82.19
404.422	108.19
404.645	107.19
404.869	94.19
405.093	98.19
405.317	90.19
405.541	89.19
405.765	106.19
405.988	141.19
406.212	176.19
406.436	239.19
406.66	143.19
406.883	101.19
407.107	88.19
407.331	89.19
407.555	99.19
407.778	101.19
408.002	109.19
408.226	91.19
408.449	97.19
408.673	93.19
408.896	97.19
409.12	90.19
409.344	103.19
409.567	90.19
409.791	93.19
410.014	89.19
410.238	90.19
410.461	104.19
410.685	98.19
410.908	95.19
411.132	93.19
411.355	77.19
411.578	93.19
411.802	92.19
412.025	97.19
412.249	80.19
412.472	98.19
412.695	103.19
412.919	92.19
413.142	90.19
413.365	89.19
413.589	84.19
413.812	83.19
414.035	92.19
414.258	94.19
414.482	92.19
414.705	82.19
414.928	99.19
415.151	96.19
415.374	94.19
415.597	103.19
415.821	86.19
416.044	93.19
416.267	89.19
416.49	98.19
416.713	105.19
416.936	87.19
417.159	90.19
417.382	86.19
417.605	73.19
417.828	99.19
418.051	98.19
418.274	92.19
418.497	87.19
418.72	82.19
418.943	81.19
419.166	79.19
419.389	90.19
419.611	87.19
419.834	87.19
420.057	85.19
420.28	87.19
420.503	77.19
420.726	86.19
420.948	88.19
421.171	91.19
421.394	88.19
421.617	85.19
421.839	74.19
422.062	75.19
422.285	98.19
422.507	95.19
422.73	100.19
422.953	85.19
423.175	97.19
423.398	100.19
423.621	100.19
423.843	82.19
424.066	77.19
424.288	90.19
424.511	85.19
424.733	90.19
424.956	89.19
425.178	101.19
425.401	94.19
425.623	102.19
425.846	92.19
426.068	85.19
426.291	105.19
426.513	87.19
426.735	90.19
426.958	96.19
427.18	102.19
427.402	148.19
427.625	174.19
427.847	132.19
428.069	107.19
428.292	97.19
428.514	104.19
428.736	95.19
428.958	77.19
429.181	77.19
429.403	101.19
429.625	84.19
429.847	97.19
430.069	90.19
430.292	80.19
430.514	89.19
430.736	101.19
430.958	95.19
431.18	89.19
431.402	92.19
431.624	89.19
431.846	92.19
432.068	105.19
432.29	85.19
432.512	78.19
432.734	81.19
432.956	89.19
433.178	111.19
433.4	101.19
433.622	90.19
433.844	93.19
434.066	92.19
434.287	105.19
434.509	88.19
434.731	81.19
434.953	80.19
435.175	89.19
435.397	96.19
435.618	85.19
435.84	114.19
436.062	116.19
436.284	102.19
436.505	103.19
436.727	104.19
436.949	91.19
437.17	90.19
437.392	86.19
437.614	97.19
437.835	99.19
438.057	119.19
438.278	99.19
438.5	104.19
438.721	114.19
438.943	101.19
439.165	98.19
439.386	78.19
439.608	98.19
439.829	91.19
440.05	113.19
440.272	139.19
440.493	103.19
440.715	77.19
440.936	102.19
441.158	81.19
441.379	85.19
441.6	95.19
441.822	102.19
442.043	102.19
442.264	91.19
442.486	96.19
442.707	80.19
442.928	105.19
443.149	140.19
443.371	114.19
443.592	105.19
443.813	117.19
444.034	106.19
444.255	89.19
444.476	101.19
444.698	95.19
444.919	93.19
445.14	147.19
445.361	119.19
445.582	118.19
445.803	139.19
446.024	127.19
446.245	148.19
446.466	125.19
446.687	93.19
446.908	89.19
447.129	103.19
447.35	95.19
447.571	84.19
447.792	95.19
448.013	98.19
448.234	109.19
448.455	89.19
448.675	98.19
448.896	136.19
449.117	95.19
449.338	97.19
449.559	132.19
449.779	140.19
450	89.19
450.221	97.19
450.442	71.19
450.662	100.19
450.883	117.19
451.104	115.19
451.324	105.19
451.545	102.19
451.766	98.19
451.986	86.19
452.207	92.19
452.428	95.19
452.648	109.19
452.869	113.19
453.089	117.19
453.31	113.19
453.53	101.19
453.751	97.19
453.971	107.19
454.192	115.19
454.412	97.19
454.633	82.19
454.853	95.19
455.073	89.19
455.294	101.19
455.514	107.19
455.734	100.19
455.955	73.19
456.175	88.19
456.395	89.19
456.616	101.19
456.836	95.19
457.056	89.19
457.276	95.19
457.497	99.19
457.717	86.19
457.937	97.19
458.157	88.19
458.377	98.19
458.598	103.19
458.818	137.19
459.038	157.19
459.258	115.19
459.478	96.19
459.698	90.19
459.918	84.19
460.138	97.19
460.358	79.19
460.578	99.19
460.798	90.19
461.018	95.19
461.238	78.19
461.458	71.19
461.678	87.19
461.898	90.19
462.118	83.19
462.338	83.19
462.558	94.19
462.777	80.19
462.997	89.19
463.217	80.19
463.437	81.19
463.657	95.19
463.876	89.19
464.096	84.19
464.316	106.19
464.536	104.19
464.755	95.19
464.975	115.19
465.195	144.19
465.414	160.19
465.634	97.19
465.854	80.19
466.073	90.19
466.293	90.19
466.512	91.19
466.732	83.19
466.951	87.19
467.171	87.19
467.391	88.19
467.61	112.19
467.829	96.19
468.049	93.19
468.268	90.19
468.488	99.19
468.707	83.19
468.927	87.19
469.146	88.19
469.365	95.19
469.585	89.19
469.804	100.19
470.023	101.19
470.243	98.19
470.462	98.19
470.681	101.19
470.901	100.19
471.12	90.19
471.339	88.19
471.558	93.19
471.777	90.19
471.997	98.19
472.216	105.19
472.435	124.19
472.654	94.19
472.873	81.19
473.092	83.19
473.311	88.19
473.53	96.19
473.749	86.19
473.968	96.19
474.187	93.19
474.406	101.19
474.625	82.19
474.844	86.19
475.063	93.19
475.282	93.19
475.501	89.19
475.72	103.19
475.939	94.19
476.158	92.19
476.377	100.19
476.596	98.19
476.814	95.19
477.033	77.19
477.252	82.19
477.471	96.19
477.69	96.19
477.908	89.19
478.127	97.19
478.346	97.19
478.564	87.19
478.783	89.19
479.002	97.19
479.22	92.19
479.439	92.19
479.658	109.19
479.876	95.19
480.095	92.19
480.313	94.19
480.532	88.19
480.751	99.19
480.969	100.19
481.188	180.19
481.406	157.19
481.624	109.19
481.843	90.19
482.061	98.19
482.28	107.19
482.498	94.19
482.717	100.19
482.935	97.19
483.153	93.19
483.372	78.19
483.59	82.19
483.808	96.19
484.027	76.19
484.245	92.19
484.463	107.19
484.681	97.19
484.9	93.19
485.118	90.19
485.336	94.19
485.554	99.19
485.772	98.19
485.99	113.19
486.209	119.19
486.427	112.19
486.645	76.19
486.863	113.19
487.081	101.19
487.299	85.19
487.517	84.19
487.735	72.19
487.953	81.19
488.171	93.19
488.389	92.19
488.607	94.19
488.825	93.19
489.043	98.19
489.261	86.19
489.479	88.19
489.696	82.19
489.914	96.19
490.132	93.19
490.35	108.19
490.568	87.19
490.786	84.19
491.003	86.19
491.221	88.19
491.439	77.19
491.657	95.19
491.874	93.19
492.092	90.19
492.31	85.19
492.527	86.19
492.745	80.19
492.963	104.19
493.18	86.19
493.398	86.19
493.615	97.19
493.833	84.19
494.05	89.19
494.268	104.19
494.485	90.19
494.703	96.19
494.92	108.19
495.138	100.19
495.355	78.19
495.573	97.19
495.79	93.19
496.008	99.19
496.225	92.19
496.442	89.19
496.66	90.19
496.877	107.19
497.094	104.19
497.312	78.19
497.529	116.19
497.746	103.19
497.963	78.19
498.181	85.19
498.398	85.19
498.615	100.19
498.832	102.19
499.049	94.19
499.267	83.19
499.484	92.19
499.701	98.19
499.918	85.19
500.135	82.19
500.352	107.19
500.569	85.19
500.786	89.19
501.003	81.19
501.22	96.19
501.437	102.19
501.654	109.19
501.871	126.19
502.088	89.19
502.305	100.19
502.522	93.19
502.739	77.19
502.956	80.19
503.172	104.19
503.389	94.19
503.606	107.19
503.823	105.19
504.04	89.19
504.256	92.19
504.473	84.19
504.69	81.19
504.907	95.19
505.123	96.19
505.34	102.19
505.557	100.19
505.773	96.19
505.99	101.19
506.207	92.19
506.423	86.19
506.64	84.19
506.856	88.19
507.073	100.19
507.289	94.19
507.506	91.19
507.722	117.19
507.939	121.19
508.155	95.19
508.372	84.19
508.588	97.19
508.805	113.19
509.021	97.19
509.238	98.19
509.454	98.19
509.67	106.19
509.887	101.19
510.103	122.19
510.319	224.19
510.536	739.19
510.752	2400.19
510.968	680.19
511.184	155.19
511.401	119.19
511.617	102.19
511.833	98.19
512.049	105.19
512.265	101.19
512.481	93.19
512.698	105.19
512.914	107.19
513.13	102.19
513.346	100.19
513.562	84.19
513.778	95.19
513.994	98.19
514.21	98.19
514.426	113.19
514.642	131.19
514.858	138.19
515.074	161.19
515.29	445.19
515.506	1519.19
515.721	567.19
515.937	154.19
516.153	114.19
516.369	102.19
516.585	99.19
516.801	96.19
517.016	101.19
517.232	89.19
517.448	90.19
517.664	82.19
517.879	84.19
518.095	80.19
518.311	99.19
518.527	106.19
518.742	95.19
518.958	94.19
519.173	89.19
519.389	106.19
519.605	93.19
519.82	90.19
520.036	97.19
520.251	127.19
520.467	102.19
520.682	109.19
520.898	121.19
521.113	121.19
521.329	140.19
521.544	198.19
521.76	560.19
521.975	2482.19
522.19	1512.19
522.406	319.19
522.621	121.19
522.836	94.19
523.052	97.19
523.267	89.19
523.482	94.19
523.698	94.19
523.913	118.19
524.128	110.19
524.343	103.19
524.559	105.19
524.774	102.19
524.989	105.19
525.204	102.19
525.419	95.19
525.634	89.19
525.849	85.19
526.064	86.19
526.28	95.19
526.495	91.19
526.71	98.19
526.925	93.19
527.14	91.19
527.355	90.19
527.57	93.19
527.785	87.19
527.999	94.19
528.214	101.19
528.429	84.19
528.644	107.19
528.859	100.19
529.074	101.19
529.289	119.19
529.503	161.19
529.718	101.19
529.933	90.19
530.148	93.19
530.363	76.19
530.577	96.19
530.792	93.19
531.007	97.19
531.221	93.19
531.436	89.19
531.651	98.19
531.865	104.19
532.08	98.19
532.295	95.19
532.509	111.19
532.724	90.19
532.938	100.19
533.153	96.19
533.367	99.19
533.582	109.19
533.796	104.19
534.011	93.19
534.225	91.19
534.44	78.19
534.654	85.19
534.868	95.19
535.083	94.19
535.297	96.19
535.511	110.19
535.726	93.19
535.94	92.19
536.154	98.19
536.369	104.19
536.583	97.19
536.797	101.19
537.011	88.19
537.225	89.19
537.44	105.19
537.654	100.19
537.868	78.19
538.082	90.19
538.296	70.19
538.51	100.19
538.724	98.19
538.938	90.19
539.153	96.19
539.367	109.19
539.581	85.19
539.795	82.19
540.009	92.19
540.222	96.19
540.436	95.19
540.65	85.19
540.864	86.19
541.078	82.19
541.292	98.19
541.506	77.19
541.72	98.19
541.934	82.19
542.147	89.19
542.361	95.19
542.575	75.19
542.789	90.19
543.002	77.19
543.216	105.19
543.43	98.19
543.644	102.19
543.857	92.19
544.071	86.19
544.285	90.19
544.498	86.19
544.712	78.19
544.925	89.19
545.139	110.19
545.352	88.19
545.566	97.19
545.779	110.19
545.993	84.19
546.206	96.19
546.42	101.19
546.633	84.19
546.847	76.19
547.06	89.19
547.274	95.19
547.487	86.19
547.7	86.19
547.914	90.19
548.127	92.19
548.34	91.19
548.554	84.19
548.767	82.19
548.98	87.19
549.193	83.19
549.407	97.19
549.62	95.19
549.833	97.19
550.046	97.19
550.259	84.19
550.473	85.19
550.686	96.19
550.899	81.19
551.112	83.19
551.325	78.19
551.538	89.19
551.751	108.19
551.964	93.19
552.177	97.19
552.39	87.19
552.603	103.19
552.816	110.19
553.029	83.19
553.242	92.19
553.455	104.19
553.667	115.19
553.88	95.19
554.093	89.19
554.306	102.19
554.519	81.19
554.732	94.19
554.944	91.19
555.157	105.19
555.37	87.19
555.583	102.19
555.795	84.19
556.008	85.19
556.221	91.19
556.433	109.19
556.646	90.19
556.859	88.19
557.071	95.19
557.284	100.19
557.496	96.19
557.709	91.19
557.921	89.19
558.134	93.19
558.346	90.19
558.559	76.19
558.771	86.19
558.984	87.19
559.196	102.19
559.409	85.19
559.621	93.19
559.833	85.19
560.046	73.19
560.258	103.19
560.47	92.19
560.683	85.19
560.895	95.19
561.107	86.19
561.32	85.19
561.532	97.19
561.744	90.19
561.956	79.19
562.168	90.19
562.381	103.19
562.593	85.19
562.805	104.19
563.017	93.19
563.229	97.19
563.441	99.19
563.653	98.19
563.865	81.19
564.077	87.19
564.289	87.19
564.501	93.19
564.713	103.19
564.925	105.19
565.137	109.19
565.349	107.19
565.561	94.19
565.773	89.19
565.985	101.19
566.197	90.19
566.408	98.19
566.62	88.19
566.832	86.19
567.044	81.19
567.255	87.19
567.467	90.19
567.679	82.19
567.891	88.19
568.102	80.19
568.314	86.19
568.526	98.19
568.737	87.19
568.949	90.19
569.161	90.19
569.372	93.19
569.584	83.19
569.795	86.19
570.007	128.19
570.218	252.19
570.43	136.19
570.641	100.19
570.853	87.19
571.064	89.19
571.276	102.19
571.487	85.19
571.698	90.19
571.91	99.19
572.121	85.19
572.333	90.19
572.544	89.19
572.755	82.19
572.966	83.19
573.178	104.19
573.389	99.19
573.6	82.19
573.811	93.19
574.023	94.19
574.234	87.19
574.445	84.19
574.656	84.19
574.867	100.19
575.078	93.19
575.289	93.19
575.501	92.19
575.712	96.19
575.923	97.19
576.134	98.19
576.345	85.19
576.556	93.19
576.767	89.19
576.978	99.19
577.188	93.19
577.399	96.19
577.61	107.19
577.821	110.19
578.032	116.19
578.243	263.19
578.454	758.19
578.665	236.19
578.875	104.19
579.086	96.19
579.297	92.19
579.508	86.19
579.718	98.19
579.929	86.19
580.14	104.19
580.35	96.19
580.561	91.19
580.772	92.19
580.982	89.19
581.193	96.19
581.403	86.19
581.614	93.19
581.825	84.19
582.035	76.19
582.246	91.19
582.456	76.19
582.667	88.19
582.877	85.19
583.087	99.19
583.298	79.19
583.508	90.19
583.719	94.19
583.929	93.19
584.139	88.19
584.35	81.19
584.56	87.19
584.77	96.19
584.981	100.19
585.191	77.19
585.401	89.19
585.611	84.19
585.821	88.19
586.032	99.19
586.242	92.19
586.452	76.19
586.662	87.19
586.872	96.19
587.082	100.19
587.292	97.19
587.502	78.19
587.713	76.19
587.923	83.19
588.133	103.19
588.343	90.19
588.553	90.19
588.762	98.19
588.972	88.19
589.182	131.19
589.392	102.19
589.602	88.19
589.812	115.19
590.022	98.19
590.232	93.19
590.441	71.19
590.651	79.19
590.861	89.19
591.071	88.19
591.281	82.19
591.49	91.19
591.7	80.19
591.91	88.19
592.119	96.19
592.329	84.19
592.539	95.19
592.748	89.19
592.958	82.19
593.167	76.19
593.377	100.19
593.587	92.19
593.796	96.19
594.006	98.19
594.215	101.19
594.424	96.19
594.634	86.19
594.843	84.19
595.053	101.19
595.262	101.19
595.472	86.19
595.681	86.19
595.89	84.19
596.1	91.19
596.309	82.19
596.518	87.19
596.727	84.19
596.937	94.19
597.146	87.19
597.355	101.19
597.564	86.19
597.774	97.19
597.983	83.19
598.192	84.19
598.401	81.19
598.61	87.19
598.819	94.19
599.028	88.19
599.237	86.19
599.446	86.19
599.655	97.19
599.864	91.19
600.073	76.19
600.282	94.19
600.491	92.19
600.7	81.19
600.909	98.19
601.118	94.19
601.327	84.19
601.536	97.19
601.745	83.19
601.953	97.19
602.162	88.19
602.371	95.19
602.58	81.19
602.789	80.19
602.997	84.19
603.206	85.19
603.415	76.19
603.623	82.19
603.832	85.19
604.041	82.19
604.249	91.19
604.458	83.19
604.666	84.19
604.875	93.19
605.084	85.19
605.292	90.19
605.501	84.19
605.709	73.19
605.918	94.19
606.126	84.19
606.334	96.19
606.543	95.19
606.751	85.19
606.96	80.19
607.168	74.19
607.376	89.19
607.585	97.19
607.793	74.19
608.001	71.19
608.21	94.19
608.418	78.19
608.626	95.19
608.834	96.19
609.043	93.19
609.251	88.19
609.459	69.19
609.667	85.19
609.875	98.19
610.083	89.19
610.291	102.19
610.499	80.19
610.707	74.19
610.916	76.19
611.124	83.19
611.332	85.19
611.54	92.19
611.748	92.19
611.955	88.19
612.163	87.19
612.371	89.19
612.579	69.19
612.787	86.19
612.995	85.19
613.203	64.19
613.411	96.19
613.618	103.19
613.826	89.19
614.034	89.19
614.242	88.19
614.449	97.19
614.657	81.19
614.865	91.19
615.072	98.19
615.28	87.19
615.488	97.19
615.695	98.19
615.903	90.19
616.111	101.19
616.318	96.19
616.526	97.19
616.733	88.19
616.941	94.19
617.148	90.19
617.356	94.19
617.563	97.19
617.771	77.19
617.978	86.19
618.185	88.19
618.393	87.19
618.6	97.19
618.807	86.19
619.015	79.19
619.222	83.19
619.429	82.19
619.637	86.19
619.844	83.19
620.051	85.19
620.258	94.19
620.466	91.19
620.673	92.19
620.88	79.19
621.087	87.19
621.294	82.19
621.501	87.19
621.708	89.19
621.915	95.19
622.122	80.19
622.329	68.19
622.536	81.19
622.743	99.19
622.95	83.19
623.157	82.19
623.364	88.19
623.571	92.19
623.778	89.19
623.985	78.19
624.192	69.19
624.399	69.19
624.606	91.19
624.812	85.19
625.019	96.19
625.226	79.19
625.433	91.19
625.639	101.19
625.846	70.19
626.053	73.19
626.259	75.19
626.466	89.19
626.673	85.19
626.879	77.19
627.086	90.19
627.293	90.19
627.499	74.19
627.706	88.19
627.912	87.19
628.119	87.19
628.325	86.19
628.532	84.19
628.738	95.19
628.945	92.19
629.151	87.19
629.357	82.19
629.564	84.19
629.77	90.19
629.976	93.19
630.183	85.19
630.389	85.19
630.595	87.19
630.802	84.19
631.008	77.19
631.214	88.19
631.42	87.19
631.627	83.19
631.833	93.19
632.039	93.19
632.245	89.19
632.451	85.19
632.657	84.19
632.863	86.19
633.069	85.19
633.275	84.19
633.481	93.19
633.688	91.19
633.893	94.19
634.099	86.19
634.305	85.19
634.511	81.19
634.717	80.19
634.923	99.19
635.129	95.19
635.335	66.19
635.541	91.19
635.747	104.19
635.952	81.19
636.158	101.19
636.364	94.19
636.57	95.19
636.775	86.19
636.981	83.19
637.187	80.19
637.392	78.19
637.598	89.19
637.804	80.19
638.009	86.19
638.215	89.19
638.421	84.19
638.626	83.19
638.832	90.19
639.037	75.19
639.243	79.19
639.448	90.19
639.654	93.19
639.859	84.19
640.065	94.19
640.27	84.19
640.475	74.19
640.681	89.19
640.886	93.19
641.091	81.19
641.297	90.19
641.502	78.19
641.707	90.19
641.913	87.19
642.118	68.19
642.323	89.19
642.528	79.19
642.733	91.19
642.939	81.19
643.144	84.19
643.349	78.19
643.554	78.19
643.759	97.19
643.964	86.19
644.169	70.19
644.374	85.19
644.579	88.19
644.784	81.19
644.989	93.19
645.194	99.19
645.399	80.19
645.604	81.19
645.809	72.19
646.014	89.19
646.219	77.19
646.423	101.19
646.628	80.19
646.833	84.19
647.038	86.19
647.243	84.19
647.447	84.19
647.652	82.19
647.857	86.19
648.062	87.19
648.266	98.19
648.471	82.19
648.676	89.19
648.88	85.19
649.085	79.19
649.289	85.19
649.494	101.19
649.698	140.19
649.903	97.19
650.107	97.19
650.312	86.19
650.516	94.19
650.721	88.19
650.925	92.19
651.13	86.19
651.334	79.19
651.539	82.19
651.743	90.19
651.947	85.19
652.152	67.19
652.356	72.19
652.56	102.19
652.764	81.19
652.969	87.19
653.173	81.19
653.377	85.19
653.581	81.19
653.785	77.19
653.99	92.19
654.194	77.19
654.398	78.19
654.602	78.19
654.806	90.19
655.01	106.19
655.214	77.19
655.418	86.19
655.622	73.19
655.826	89.19
656.03	88.19
656.234	90.19
656.438	96.19
656.642	99.19
656.846	97.19
657.049	88.19
657.253	80.19
657.457	81.19
657.661	91.19
657.865	78.19
658.068	84.19
658.272	88.19
658.476	93.19
658.68	83.19
658.883	102.19
659.087	89.19
659.291	77.19
659.494	85.19
659.698	78.19
659.901	71.19
660.105	81.19
660.309	99.19
660.512	96.19
660.716	80.19
660.919	72.19
661.123	82.19
661.326	90.19
661.53	80.19
661.733	84.19
661.936	101.19
662.14	89.19
662.343	79.19
662.546	86.19
662.75	80.19
662.953	80.19
663.156	73.19
663.36	72.19
663.563	84.19
663.766	84.19
663.969	85.19
664.173	80.19
664.376	86.19
664.579	88.19
664.782	72.19
664.985	72.19
665.188	73.19
665.391	86.19
665.594	83.19
665.797	76.19
666	81.19
666.203	81.19
666.406	89.19
666.609	90.19
666.812	95.19
667.015	80.19
667.218	81.19
667.421	78.19
667.624	89.19
667.827	76.19
668.03	80.19
668.232	73.19
668.435	84.19
668.638	87.19
668.841	82.19
669.043	92.19
669.246	91.19
669.449	79.19
669.651	84.19
669.854	78.19
670.057	82.19
670.259	78.19
670.462	83.19
670.665	88.19
670.867	86.19
671.07	94.19
671.272	85.19
671.475	75.19
671.677	82.19
671.88	69.19
672.082	86.19
672.284	79.19
672.487	103.19
672.689	83.19
672.892	88.19
