Data from Circ_2005_H10_HRD10591_00093.txt Node
Date: Wed Jan 03 10:30:09 EST 2024
User: Yrep
Spectrometer: HR+D1059
Trigger mode: 1
Integration Time (sec): 1.000000E-1
Scans to average: 1
Electric dark correction enabled: true
Nonlinearity correction enabled: false
Boxcar width: 0
XAxis mode: Wavelengths
Number of Pixels in Spectrum: 2048
>>>>>Begin Spectral Data<<<<<
223.165	-16.94
223.4	-16.94
223.635	-16.94
223.869	-18.94
224.104	-18.94
224.338	-25.94
224.573	-15.94
224.808	-15.94
225.042	2.06
225.277	-15.94
225.511	-3.94
225.746	10.06
225.98	15.06
226.215	9.06
226.449	9.06
226.683	27.06
226.918	40.06
227.152	20.06
227.387	46.06
227.621	40.06
227.856	47.06
228.09	40.06
228.324	44.06
228.559	65.06
228.793	66.06
229.027	64.06
229.262	78.06
229.496	65.06
229.73	85.06
229.964	86.06
230.199	64.06
230.433	68.06
230.667	88.06
230.901	84.06
231.136	86.06
231.37	70.06
231.604	72.06
231.838	82.06
232.072	79.06
232.306	90.06
232.541	80.06
232.775	77.06
233.009	64.06
233.243	73.06
233.477	96.06
233.711	72.06
233.945	79.06
234.179	78.06
234.413	71.06
234.647	85.06
234.881	88.06
235.115	78.06
235.349	79.06
235.583	90.06
235.817	81.06
236.051	71.06
236.285	67.06
236.519	80.06
236.753	84.06
236.987	90.06
237.221	90.06
237.455	90.06
237.689	83.06
237.922	89.06
238.156	79.06
238.39	78.06
238.624	70.06
238.858	72.06
239.091	78.06
239.325	67.06
239.559	86.06
239.793	80.06
240.027	73.06
240.26	84.06
240.494	82.06
240.728	67.06
240.961	88.06
241.195	82.06
241.429	81.06
241.662	89.06
241.896	74.06
242.13	70.06
242.363	64.06
242.597	73.06
242.83	68.06
243.064	65.06
243.298	77.06
243.531	81.06
243.765	79.06
243.998	97.06
244.232	78.06
244.465	85.06
244.699	84.06
244.932	90.06
245.166	92.06
245.399	83.06
245.633	74.06
245.866	81.06
246.099	95.06
246.333	78.06
246.566	70.06
246.8	99.06
247.033	79.06
247.266	78.06
247.5	80.06
247.733	79.06
247.966	79.06
248.2	84.06
248.433	85.06
248.666	74.06
248.899	84.06
249.133	76.06
249.366	85.06
249.599	96.06
249.832	84.06
250.066	76.06
250.299	82.06
250.532	85.06
250.765	79.06
250.998	90.06
251.231	97.06
251.465	76.06
251.698	77.06
251.931	90.06
252.164	81.06
252.397	73.06
252.63	82.06
252.863	66.06
253.096	78.06
253.329	83.06
253.562	82.06
253.795	79.06
254.028	82.06
254.261	89.06
254.494	90.06
254.727	74.06
254.96	79.06
255.193	79.06
255.426	94.06
255.659	81.06
255.892	82.06
256.124	69.06
256.357	64.06
256.59	73.06
256.823	89.06
257.056	80.06
257.289	85.06
257.521	76.06
257.754	80.06
257.987	85.06
258.22	90.06
258.452	96.06
258.685	102.06
258.918	86.06
259.151	84.06
259.383	91.06
259.616	80.06
259.849	80.06
260.081	91.06
260.314	74.06
260.547	92.06
260.779	80.06
261.012	79.06
261.244	88.06
261.477	107.06
261.71	90.06
261.942	100.06
262.175	98.06
262.407	72.06
262.64	87.06
262.872	69.06
263.105	73.06
263.337	95.06
263.57	85.06
263.802	78.06
264.035	70.06
264.267	65.06
264.499	96.06
264.732	79.06
264.964	80.06
265.197	77.06
265.429	71.06
265.661	81.06
265.894	93.06
266.126	83.06
266.358	76.06
266.591	67.06
266.823	88.06
267.055	80.06
267.287	80.06
267.52	70.06
267.752	78.06
267.984	92.06
268.216	85.06
268.448	77.06
268.681	75.06
268.913	85.06
269.145	89.06
269.377	77.06
269.609	91.06
269.841	85.06
270.073	87.06
270.306	87.06
270.538	78.06
270.77	79.06
271.002	80.06
271.234	76.06
271.466	94.06
271.698	97.06
271.93	80.06
272.162	89.06
272.394	82.06
272.626	85.06
272.858	89.06
273.09	90.06
273.322	101.06
273.553	86.06
273.785	82.06
274.017	85.06
274.249	80.06
274.481	91.06
274.713	85.06
274.945	78.06
275.176	78.06
275.408	85.06
275.64	95.06
275.872	92.06
276.104	103.06
276.335	94.06
276.567	82.06
276.799	99.06
277.031	95.06
277.262	95.06
277.494	101.06
277.726	102.06
277.957	88.06
278.189	84.06
278.421	91.06
278.652	101.06
278.884	92.06
279.115	92.06
279.347	90.06
279.579	80.06
279.81	93.06
280.042	103.06
280.273	105.06
280.505	96.06
280.736	80.06
280.968	83.06
281.199	80.06
281.431	89.06
281.662	93.06
281.894	87.06
282.125	110.06
282.356	106.06
282.588	127.06
282.819	120.06
283.051	90.06
283.282	95.06
283.513	103.06
283.745	88.06
283.976	87.06
284.207	93.06
284.439	74.06
284.67	95.06
284.901	102.06
285.132	88.06
285.364	88.06
285.595	80.06
285.826	87.06
286.057	94.06
286.288	84.06
286.52	87.06
286.751	85.06
286.982	69.06
287.213	82.06
287.444	96.06
287.675	85.06
287.906	100.06
288.138	88.06
288.369	94.06
288.6	82.06
288.831	84.06
289.062	78.06
289.293	78.06
289.524	96.06
289.755	90.06
289.986	102.06
290.217	94.06
290.448	87.06
290.679	76.06
290.91	87.06
291.141	81.06
291.371	96.06
291.602	80.06
291.833	81.06
292.064	93.06
292.295	81.06
292.526	92.06
292.757	81.06
292.987	87.06
293.218	90.06
293.449	88.06
293.68	79.06
293.91	106.06
294.141	95.06
294.372	89.06
294.603	83.06
294.833	77.06
295.064	81.06
295.295	90.06
295.525	96.06
295.756	109.06
295.987	105.06
296.217	132.06
296.448	107.06
296.679	79.06
296.909	71.06
297.14	91.06
297.37	94.06
297.601	85.06
297.831	87.06
298.062	109.06
298.292	87.06
298.523	85.06
298.753	81.06
298.984	83.06
299.214	86.06
299.445	88.06
299.675	86.06
299.905	96.06
300.136	97.06
300.366	86.06
300.597	78.06
300.827	73.06
301.057	90.06
301.288	96.06
301.518	102.06
301.748	99.06
301.979	96.06
302.209	97.06
302.439	90.06
302.669	95.06
302.9	90.06
303.13	90.06
303.36	89.06
303.59	118.06
303.82	109.06
304.051	97.06
304.281	95.06
304.511	89.06
304.741	98.06
304.971	82.06
305.201	84.06
305.431	90.06
305.661	93.06
305.891	103.06
306.121	78.06
306.352	101.06
306.582	110.06
306.812	100.06
307.042	85.06
307.272	102.06
307.502	112.06
307.731	92.06
307.961	86.06
308.191	93.06
308.421	78.06
308.651	81.06
308.881	82.06
309.111	93.06
309.341	104.06
309.571	96.06
309.8	82.06
310.03	95.06
310.26	95.06
310.49	88.06
310.72	102.06
310.949	89.06
311.179	95.06
311.409	103.06
311.639	99.06
311.868	108.06
312.098	76.06
312.328	99.06
312.557	90.06
312.787	104.06
313.017	98.06
313.246	94.06
313.476	87.06
313.706	93.06
313.935	97.06
314.165	104.06
314.394	87.06
314.624	86.06
314.853	91.06
315.083	99.06
315.312	101.06
315.542	88.06
315.771	98.06
316.001	93.06
316.23	90.06
316.46	80.06
316.689	104.06
316.919	94.06
317.148	93.06
317.377	85.06
317.607	89.06
317.836	94.06
318.065	88.06
318.295	94.06
318.524	89.06
318.753	94.06
318.983	96.06
319.212	96.06
319.441	105.06
319.67	114.06
319.9	107.06
320.129	83.06
320.358	89.06
320.587	105.06
320.816	84.06
321.046	93.06
321.275	100.06
321.504	95.06
321.733	101.06
321.962	97.06
322.191	95.06
322.42	100.06
322.649	109.06
322.878	99.06
323.108	116.06
323.337	119.06
323.566	129.06
323.795	141.06
324.024	191.06
324.253	346.06
324.482	738.06
324.71	1492.06
324.939	1934.06
325.168	704.06
325.397	231.06
325.626	144.06
325.855	125.06
326.084	115.06
326.313	115.06
326.542	142.06
326.77	215.06
326.999	421.06
327.228	819.06
327.457	1516.06
327.686	1212.06
327.914	351.06
328.143	208.06
328.372	184.06
328.6	133.06
328.829	108.06
329.058	134.06
329.287	111.06
329.515	110.06
329.744	126.06
329.972	142.06
330.201	190.06
330.43	258.06
330.658	170.06
330.887	149.06
331.115	117.06
331.344	106.06
331.572	105.06
331.801	95.06
332.03	95.06
332.258	95.06
332.486	97.06
332.715	84.06
332.943	89.06
333.172	100.06
333.4	97.06
333.629	95.06
333.857	127.06
334.085	129.06
334.314	195.06
334.542	300.06
334.771	290.06
334.999	138.06
335.227	111.06
335.455	113.06
335.684	94.06
335.912	98.06
336.14	104.06
336.369	104.06
336.597	93.06
336.825	89.06
337.053	86.06
337.281	98.06
337.51	94.06
337.738	100.06
337.966	108.06
338.194	103.06
338.422	94.06
338.65	85.06
338.878	90.06
339.106	88.06
339.334	92.06
339.562	86.06
339.79	105.06
340.018	94.06
340.246	94.06
340.474	104.06
340.702	96.06
340.93	100.06
341.158	96.06
341.386	99.06
341.614	101.06
341.842	86.06
342.07	99.06
342.298	86.06
342.526	90.06
342.754	73.06
342.981	104.06
343.209	96.06
343.437	93.06
343.665	85.06
343.893	95.06
344.12	99.06
344.348	104.06
344.576	94.06
344.804	99.06
345.031	93.06
345.259	107.06
345.487	91.06
345.714	104.06
345.942	113.06
346.17	99.06
346.397	106.06
346.625	100.06
346.853	100.06
347.08	109.06
347.308	94.06
347.535	106.06
347.763	99.06
347.99	97.06
348.218	94.06
348.445	88.06
348.673	96.06
348.9	88.06
349.128	108.06
349.355	94.06
349.583	102.06
349.81	103.06
350.037	109.06
350.265	79.06
350.492	96.06
350.72	89.06
350.947	90.06
351.174	104.06
351.402	101.06
351.629	91.06
351.856	104.06
352.083	105.06
352.311	86.06
352.538	121.06
352.765	113.06
352.992	111.06
353.22	114.06
353.447	103.06
353.674	87.06
353.901	93.06
354.128	104.06
354.355	99.06
354.583	88.06
354.81	102.06
355.037	95.06
355.264	97.06
355.491	89.06
355.718	89.06
355.945	92.06
356.172	94.06
356.399	102.06
356.626	95.06
356.853	91.06
357.08	90.06
357.307	97.06
357.534	83.06
357.761	76.06
357.988	92.06
358.215	97.06
358.441	90.06
358.668	100.06
358.895	95.06
359.122	93.06
359.349	85.06
359.576	99.06
359.802	89.06
360.029	105.06
360.256	112.06
360.483	102.06
360.709	88.06
360.936	83.06
361.163	94.06
361.39	90.06
361.616	105.06
361.843	90.06
362.07	83.06
362.296	109.06
362.523	101.06
362.749	88.06
362.976	96.06
363.203	86.06
363.429	89.06
363.656	86.06
363.882	89.06
364.109	94.06
364.335	103.06
364.562	89.06
364.788	101.06
365.015	93.06
365.241	83.06
365.468	120.06
365.694	103.06
365.92	104.06
366.147	90.06
366.373	82.06
366.599	89.06
366.826	101.06
367.052	94.06
367.278	94.06
367.505	104.06
367.731	97.06
367.957	88.06
368.184	85.06
368.41	100.06
368.636	119.06
368.862	109.06
369.089	100.06
369.315	93.06
369.541	77.06
369.767	87.06
369.993	87.06
370.219	101.06
370.445	88.06
370.672	91.06
370.898	104.06
371.124	86.06
371.35	89.06
371.576	88.06
371.802	72.06
372.028	90.06
372.254	100.06
372.48	89.06
372.706	77.06
372.932	93.06
373.158	85.06
373.384	92.06
373.61	101.06
373.835	89.06
374.061	94.06
374.287	94.06
374.513	96.06
374.739	86.06
374.965	89.06
375.191	88.06
375.416	88.06
375.642	97.06
375.868	94.06
376.094	87.06
376.319	95.06
376.545	105.06
376.771	96.06
376.997	88.06
377.222	90.06
377.448	100.06
377.674	96.06
377.899	103.06
378.125	95.06
378.35	95.06
378.576	88.06
378.802	101.06
379.027	81.06
379.253	97.06
379.478	104.06
379.704	85.06
379.929	80.06
380.155	93.06
380.38	95.06
380.606	101.06
380.831	96.06
381.057	107.06
381.282	107.06
381.507	77.06
381.733	105.06
381.958	90.06
382.184	98.06
382.409	109.06
382.634	92.06
382.86	94.06
383.085	104.06
383.31	97.06
383.535	106.06
383.761	105.06
383.986	93.06
384.211	96.06
384.436	95.06
384.662	107.06
384.887	117.06
385.112	108.06
385.337	106.06
385.562	100.06
385.787	108.06
386.013	104.06
386.238	113.06
386.463	94.06
386.688	102.06
386.913	90.06
387.138	100.06
387.363	94.06
387.588	108.06
387.813	104.06
388.038	112.06
388.263	101.06
388.488	99.06
388.713	96.06
388.938	91.06
389.163	86.06
389.387	104.06
389.612	109.06
389.837	96.06
390.062	101.06
390.287	94.06
390.512	96.06
390.736	109.06
390.961	87.06
391.186	99.06
391.411	90.06
391.636	97.06
391.86	87.06
392.085	84.06
392.31	89.06
392.534	88.06
392.759	80.06
392.984	84.06
393.208	83.06
393.433	76.06
393.658	78.06
393.882	88.06
394.107	78.06
394.331	84.06
394.556	92.06
394.78	87.06
395.005	72.06
395.229	68.06
395.454	96.06
395.678	69.06
395.903	75.06
396.127	96.06
396.352	101.06
396.576	83.06
396.801	82.06
397.025	81.06
397.249	85.06
397.474	91.06
397.698	94.06
397.922	87.06
398.147	91.06
398.371	99.06
398.595	91.06
398.82	92.06
399.044	83.06
399.268	84.06
399.492	85.06
399.717	90.06
399.941	97.06
400.165	108.06
400.389	101.06
400.613	90.06
400.837	98.06
401.062	76.06
401.286	84.06
401.51	92.06
401.734	90.06
401.958	90.06
402.182	102.06
402.406	144.06
402.63	114.06
402.854	103.06
403.078	82.06
403.302	82.06
403.526	97.06
403.75	105.06
403.974	83.06
404.198	85.06
404.422	81.06
404.645	91.06
404.869	84.06
405.093	92.06
405.317	98.06
405.541	103.06
405.765	83.06
405.988	107.06
406.212	147.06
406.436	204.06
406.66	118.06
406.883	85.06
407.107	92.06
407.331	98.06
407.555	95.06
407.778	74.06
408.002	97.06
408.226	94.06
408.449	101.06
408.673	100.06
408.896	99.06
409.12	100.06
409.344	80.06
409.567	89.06
409.791	94.06
410.014	103.06
410.238	90.06
410.461	86.06
410.685	94.06
410.908	90.06
411.132	102.06
411.355	100.06
411.578	98.06
411.802	85.06
412.025	87.06
412.249	97.06
412.472	97.06
412.695	100.06
412.919	80.06
413.142	68.06
413.365	93.06
413.589	93.06
413.812	89.06
414.035	97.06
414.258	78.06
414.482	93.06
414.705	91.06
414.928	90.06
415.151	98.06
415.374	100.06
415.597	101.06
415.821	93.06
416.044	85.06
416.267	95.06
416.49	95.06
416.713	84.06
416.936	90.06
417.159	81.06
417.382	105.06
417.605	97.06
417.828	90.06
418.051	101.06
418.274	100.06
418.497	73.06
418.72	88.06
418.943	98.06
419.166	103.06
419.389	96.06
419.611	102.06
419.834	95.06
420.057	81.06
420.28	94.06
420.503	77.06
420.726	85.06
420.948	88.06
421.171	97.06
421.394	92.06
421.617	106.06
421.839	79.06
422.062	89.06
422.285	79.06
422.507	102.06
422.73	98.06
422.953	79.06
423.175	91.06
423.398	95.06
423.621	95.06
423.843	86.06
424.066	74.06
424.288	101.06
424.511	98.06
424.733	108.06
424.956	96.06
425.178	88.06
425.401	97.06
425.623	92.06
425.846	92.06
426.068	89.06
426.291	85.06
426.513	93.06
426.735	83.06
426.958	100.06
427.18	94.06
427.402	117.06
427.625	140.06
427.847	139.06
428.069	137.06
428.292	92.06
428.514	102.06
428.736	88.06
428.958	92.06
429.181	81.06
429.403	89.06
429.625	103.06
429.847	89.06
430.069	96.06
430.292	94.06
430.514	85.06
430.736	92.06
430.958	103.06
431.18	90.06
431.402	83.06
431.624	81.06
431.846	98.06
432.068	103.06
432.29	86.06
432.512	92.06
432.734	85.06
432.956	86.06
433.178	103.06
433.4	86.06
433.622	90.06
433.844	84.06
434.066	77.06
434.287	87.06
434.509	81.06
434.731	96.06
434.953	81.06
435.175	85.06
435.397	89.06
435.618	93.06
435.84	96.06
436.062	110.06
436.284	106.06
436.505	109.06
436.727	100.06
436.949	96.06
437.17	88.06
437.392	88.06
437.614	83.06
437.835	111.06
438.057	114.06
438.278	112.06
438.5	88.06
438.721	98.06
438.943	96.06
439.165	91.06
439.386	90.06
439.608	103.06
439.829	103.06
440.05	117.06
440.272	135.06
440.493	97.06
440.715	106.06
440.936	77.06
441.158	82.06
441.379	92.06
441.6	78.06
441.822	117.06
442.043	98.06
442.264	96.06
442.486	95.06
442.707	93.06
442.928	84.06
443.149	112.06
443.371	122.06
443.592	103.06
443.813	106.06
444.034	104.06
444.255	83.06
444.476	83.06
444.698	93.06
444.919	92.06
445.14	130.06
445.361	117.06
445.582	113.06
445.803	141.06
446.024	132.06
446.245	126.06
446.466	97.06
446.687	94.06
446.908	84.06
447.129	70.06
447.35	90.06
447.571	100.06
447.792	105.06
448.013	94.06
448.234	105.06
448.455	96.06
448.675	111.06
448.896	102.06
449.117	101.06
449.338	110.06
449.559	125.06
449.779	124.06
450	83.06
450.221	91.06
450.442	79.06
450.662	98.06
450.883	106.06
451.104	88.06
451.324	93.06
451.545	69.06
451.766	89.06
451.986	82.06
452.207	93.06
452.428	97.06
452.648	104.06
452.869	90.06
453.089	102.06
453.31	104.06
453.53	82.06
453.751	94.06
453.971	96.06
454.192	107.06
454.412	77.06
454.633	84.06
454.853	82.06
455.073	96.06
455.294	82.06
455.514	92.06
455.734	93.06
455.955	93.06
456.175	79.06
456.395	77.06
456.616	81.06
456.836	87.06
457.056	96.06
457.276	106.06
457.497	84.06
457.717	91.06
457.937	77.06
458.157	81.06
458.377	88.06
458.598	89.06
458.818	113.06
459.038	152.06
459.258	116.06
459.478	107.06
459.698	88.06
459.918	74.06
460.138	96.06
460.358	76.06
460.578	90.06
460.798	76.06
461.018	83.06
461.238	84.06
461.458	78.06
461.678	89.06
461.898	88.06
462.118	100.06
462.338	80.06
462.558	80.06
462.777	94.06
462.997	84.06
463.217	80.06
463.437	94.06
463.657	84.06
463.876	93.06
464.096	89.06
464.316	88.06
464.536	78.06
464.755	92.06
464.975	105.06
465.195	159.06
465.414	146.06
465.634	99.06
465.854	96.06
466.073	84.06
466.293	84.06
466.512	77.06
466.732	105.06
466.951	82.06
467.171	86.06
467.391	96.06
467.61	97.06
467.829	117.06
468.049	127.06
468.268	165.06
468.488	94.06
468.707	85.06
468.927	87.06
469.146	85.06
469.365	90.06
469.585	93.06
469.804	105.06
470.023	88.06
470.243	84.06
470.462	108.06
470.681	107.06
470.901	85.06
471.12	96.06
471.339	89.06
471.558	93.06
471.777	97.06
471.997	120.06
472.216	202.06
472.435	374.06
472.654	146.06
472.873	90.06
473.092	96.06
473.311	77.06
473.53	84.06
473.749	74.06
473.968	88.06
474.187	101.06
474.406	91.06
474.625	81.06
474.844	85.06
475.063	76.06
475.282	88.06
475.501	93.06
475.72	82.06
475.939	82.06
476.158	85.06
476.377	88.06
476.596	95.06
476.814	72.06
477.033	87.06
477.252	105.06
477.471	81.06
477.69	88.06
477.908	91.06
478.127	84.06
478.346	100.06
478.564	93.06
478.783	90.06
479.002	110.06
479.22	89.06
479.439	90.06
479.658	95.06
479.876	93.06
480.095	83.06
480.313	109.06
480.532	101.06
480.751	115.06
480.969	213.06
481.188	666.06
481.406	408.06
481.624	112.06
481.843	81.06
482.061	93.06
482.28	99.06
482.498	89.06
482.717	97.06
482.935	86.06
483.153	88.06
483.372	79.06
483.59	97.06
483.808	93.06
484.027	102.06
484.245	98.06
484.463	95.06
484.681	84.06
484.9	97.06
485.118	84.06
485.336	92.06
485.554	93.06
485.772	111.06
485.99	97.06
486.209	99.06
486.427	95.06
486.645	100.06
486.863	116.06
487.081	105.06
487.299	98.06
487.517	80.06
487.735	79.06
487.953	102.06
488.171	81.06
488.389	96.06
488.607	86.06
488.825	96.06
489.043	102.06
489.261	84.06
489.479	87.06
489.696	88.06
489.914	102.06
490.132	85.06
490.35	86.06
490.568	93.06
490.786	88.06
491.003	84.06
491.221	81.06
491.439	89.06
491.657	90.06
491.874	98.06
492.092	87.06
492.31	104.06
492.527	95.06
492.745	88.06
492.963	89.06
493.18	99.06
493.398	95.06
493.615	85.06
493.833	108.06
494.05	95.06
494.268	89.06
494.485	86.06
494.703	90.06
494.92	94.06
495.138	85.06
495.355	93.06
495.573	94.06
495.79	96.06
496.008	90.06
496.225	89.06
496.442	99.06
496.66	80.06
496.877	95.06
497.094	96.06
497.312	90.06
497.529	97.06
497.746	81.06
497.963	97.06
498.181	85.06
498.398	89.06
498.615	94.06
498.832	95.06
499.049	77.06
499.267	87.06
499.484	94.06
499.701	89.06
499.918	106.06
500.135	97.06
500.352	92.06
500.569	94.06
500.786	103.06
501.003	97.06
501.22	95.06
501.437	101.06
501.654	109.06
501.871	97.06
502.088	82.06
502.305	83.06
502.522	83.06
502.739	86.06
502.956	84.06
503.172	87.06
503.389	83.06
503.606	102.06
503.823	94.06
504.04	80.06
504.256	85.06
504.473	95.06
504.69	76.06
504.907	90.06
505.123	79.06
505.34	85.06
505.557	95.06
505.773	84.06
505.99	84.06
506.207	88.06
506.423	90.06
506.64	89.06
506.856	85.06
507.073	88.06
507.289	86.06
507.506	92.06
507.722	108.06
507.939	101.06
508.155	78.06
508.372	94.06
508.588	80.06
508.805	105.06
509.021	97.06
509.238	82.06
509.454	99.06
509.67	98.06
509.887	108.06
510.103	113.06
510.319	177.06
510.536	598.06
510.752	1831.06
510.968	536.06
511.184	146.06
511.401	118.06
511.617	104.06
511.833	106.06
512.049	107.06
512.265	84.06
512.481	77.06
512.698	92.06
512.914	89.06
513.13	76.06
513.346	102.06
513.562	94.06
513.778	100.06
513.994	95.06
514.21	102.06
514.426	106.06
514.642	114.06
514.858	108.06
515.074	141.06
515.29	364.06
515.506	1155.06
515.721	454.06
515.937	149.06
516.153	112.06
516.369	108.06
516.585	105.06
516.801	90.06
517.016	94.06
517.232	97.06
517.448	97.06
517.664	97.06
517.879	99.06
518.095	84.06
518.311	108.06
518.527	96.06
518.742	76.06
518.958	86.06
519.173	90.06
519.389	89.06
519.605	92.06
519.82	96.06
520.036	107.06
520.251	101.06
520.467	97.06
520.682	95.06
520.898	112.06
521.113	107.06
521.329	111.06
521.544	166.06
521.76	431.06
521.975	1856.06
522.19	1186.06
522.406	256.06
522.621	112.06
522.836	109.06
523.052	81.06
523.267	94.06
523.482	97.06
523.698	92.06
523.913	114.06
524.128	126.06
524.343	89.06
524.559	98.06
524.774	80.06
524.989	90.06
525.204	110.06
525.419	103.06
525.634	87.06
525.849	90.06
526.064	87.06
526.28	99.06
526.495	93.06
526.71	95.06
526.925	88.06
527.14	90.06
527.355	88.06
527.57	83.06
527.785	100.06
527.999	77.06
528.214	96.06
528.429	77.06
528.644	91.06
528.859	99.06
529.074	102.06
529.289	104.06
529.503	167.06
529.718	104.06
529.933	72.06
530.148	99.06
530.363	92.06
530.577	87.06
530.792	88.06
531.007	94.06
531.221	105.06
531.436	84.06
531.651	84.06
531.865	105.06
532.08	95.06
532.295	102.06
532.509	97.06
532.724	108.06
532.938	100.06
533.153	99.06
533.367	87.06
533.582	97.06
533.796	88.06
534.011	81.06
534.225	96.06
534.44	92.06
534.654	91.06
534.868	83.06
535.083	85.06
535.297	95.06
535.511	84.06
535.726	95.06
535.94	90.06
536.154	97.06
536.369	95.06
536.583	89.06
536.797	111.06
537.011	89.06
537.225	99.06
537.44	87.06
537.654	98.06
537.868	88.06
538.082	66.06
538.296	85.06
538.51	98.06
538.724	96.06
538.938	89.06
539.153	98.06
539.367	92.06
539.581	97.06
539.795	98.06
540.009	98.06
540.222	78.06
540.436	88.06
540.65	93.06
540.864	95.06
541.078	74.06
541.292	96.06
541.506	87.06
541.72	84.06
541.934	79.06
542.147	80.06
542.361	97.06
542.575	89.06
542.789	97.06
543.002	93.06
543.216	99.06
543.43	100.06
543.644	91.06
543.857	92.06
544.071	84.06
544.285	86.06
544.498	87.06
544.712	98.06
544.925	73.06
545.139	105.06
545.352	97.06
545.566	80.06
545.779	94.06
545.993	74.06
546.206	85.06
546.42	88.06
546.633	81.06
546.847	103.06
547.06	97.06
547.274	89.06
547.487	106.06
547.7	95.06
547.914	97.06
548.127	83.06
548.34	80.06
548.554	92.06
548.767	87.06
548.98	85.06
549.193	90.06
549.407	94.06
549.62	80.06
549.833	106.06
550.046	89.06
550.259	86.06
550.473	99.06
550.686	81.06
550.899	101.06
551.112	89.06
551.325	74.06
551.538	100.06
551.751	106.06
551.964	89.06
552.177	96.06
552.39	96.06
552.603	90.06
552.816	105.06
553.029	92.06
553.242	82.06
553.455	111.06
553.667	83.06
553.88	99.06
554.093	102.06
554.306	105.06
554.519	80.06
554.732	87.06
554.944	87.06
555.157	83.06
555.37	84.06
555.583	100.06
555.795	86.06
556.008	108.06
556.221	94.06
556.433	82.06
556.646	90.06
556.859	93.06
557.071	88.06
557.284	89.06
557.496	94.06
557.709	94.06
557.921	89.06
558.134	104.06
558.346	97.06
558.559	84.06
558.771	96.06
558.984	90.06
559.196	96.06
559.409	96.06
559.621	75.06
559.833	88.06
560.046	83.06
560.258	96.06
560.47	86.06
560.683	93.06
560.895	87.06
561.107	89.06
561.32	87.06
561.532	85.06
561.744	79.06
561.956	94.06
562.168	94.06
562.381	91.06
562.593	79.06
562.805	86.06
563.017	83.06
563.229	85.06
563.441	85.06
563.653	86.06
563.865	100.06
564.077	88.06
564.289	91.06
564.501	74.06
564.713	78.06
564.925	101.06
565.137	102.06
565.349	85.06
565.561	90.06
565.773	101.06
565.985	94.06
566.197	87.06
566.408	84.06
566.62	92.06
566.832	80.06
567.044	81.06
567.255	92.06
567.467	94.06
567.679	82.06
567.891	86.06
568.102	94.06
568.314	104.06
568.526	96.06
568.737	99.06
568.949	92.06
569.161	98.06
569.372	94.06
569.584	78.06
569.795	90.06
570.007	120.06
570.218	209.06
570.43	116.06
570.641	96.06
570.853	87.06
571.064	94.06
571.276	82.06
571.487	89.06
571.698	92.06
571.91	88.06
572.121	92.06
572.333	86.06
572.544	81.06
572.755	71.06
572.966	98.06
573.178	95.06
573.389	82.06
573.6	90.06
573.811	88.06
574.023	82.06
574.234	94.06
574.445	80.06
574.656	100.06
574.867	106.06
575.078	103.06
575.289	86.06
575.501	83.06
575.712	101.06
575.923	84.06
576.134	75.06
576.345	95.06
576.556	89.06
576.767	82.06
576.978	90.06
577.188	82.06
577.399	84.06
577.61	93.06
577.821	95.06
578.032	101.06
578.243	217.06
578.454	621.06
578.665	183.06
578.875	95.06
579.086	87.06
579.297	71.06
579.508	99.06
579.718	92.06
579.929	81.06
580.14	92.06
580.35	79.06
580.561	84.06
580.772	84.06
580.982	85.06
581.193	90.06
581.403	81.06
581.614	98.06
581.825	88.06
582.035	79.06
582.246	79.06
582.456	84.06
582.667	74.06
582.877	94.06
583.087	89.06
583.298	90.06
583.508	85.06
583.719	85.06
583.929	100.06
584.139	91.06
584.35	93.06
584.56	84.06
584.77	79.06
584.981	104.06
585.191	86.06
585.401	76.06
585.611	88.06
585.821	78.06
586.032	80.06
586.242	93.06
586.452	102.06
586.662	88.06
586.872	93.06
587.082	80.06
587.292	83.06
587.502	77.06
587.713	80.06
587.923	94.06
588.133	93.06
588.343	91.06
588.553	100.06
588.762	88.06
588.972	91.06
589.182	103.06
589.392	85.06
589.602	80.06
589.812	98.06
590.022	100.06
590.232	94.06
590.441	87.06
590.651	90.06
590.861	84.06
591.071	86.06
591.281	96.06
591.49	86.06
591.7	82.06
591.91	93.06
592.119	80.06
592.329	73.06
592.539	94.06
592.748	75.06
592.958	92.06
593.167	99.06
593.377	96.06
593.587	81.06
593.796	90.06
594.006	90.06
594.215	89.06
594.424	81.06
594.634	87.06
594.843	79.06
595.053	87.06
595.262	74.06
595.472	93.06
595.681	83.06
595.89	85.06
596.1	70.06
596.309	89.06
596.518	89.06
596.727	92.06
596.937	79.06
597.146	91.06
597.355	79.06
597.564	89.06
597.774	100.06
597.983	83.06
598.192	77.06
598.401	86.06
598.61	84.06
598.819	88.06
599.028	97.06
599.237	90.06
599.446	98.06
599.655	86.06
599.864	84.06
600.073	76.06
600.282	100.06
600.491	80.06
600.7	82.06
600.909	86.06
601.118	87.06
601.327	78.06
601.536	90.06
601.745	88.06
601.953	95.06
602.162	85.06
602.371	86.06
602.58	81.06
602.789	82.06
602.997	76.06
603.206	97.06
603.415	92.06
603.623	73.06
603.832	86.06
604.041	97.06
604.249	96.06
604.458	100.06
604.666	99.06
604.875	90.06
605.084	97.06
605.292	82.06
605.501	91.06
605.709	81.06
605.918	103.06
606.126	93.06
606.334	93.06
606.543	87.06
606.751	80.06
606.96	83.06
607.168	87.06
607.376	92.06
607.585	97.06
607.793	77.06
608.001	87.06
608.21	82.06
608.418	91.06
608.626	68.06
608.834	89.06
609.043	86.06
609.251	82.06
609.459	75.06
609.667	98.06
609.875	98.06
610.083	94.06
610.291	83.06
610.499	86.06
610.707	84.06
610.916	75.06
611.124	82.06
611.332	67.06
611.54	85.06
611.748	107.06
611.955	90.06
612.163	80.06
612.371	94.06
612.579	72.06
612.787	85.06
612.995	112.06
613.203	87.06
613.411	87.06
613.618	94.06
613.826	96.06
614.034	88.06
614.242	90.06
614.449	77.06
614.657	78.06
614.865	91.06
615.072	84.06
615.28	80.06
615.488	96.06
615.695	100.06
615.903	107.06
616.111	97.06
616.318	100.06
616.526	89.06
616.733	79.06
616.941	102.06
617.148	87.06
617.356	89.06
617.563	78.06
617.771	87.06
617.978	94.06
618.185	100.06
618.393	81.06
618.6	80.06
618.807	78.06
619.015	89.06
619.222	93.06
619.429	92.06
619.637	85.06
619.844	87.06
620.051	77.06
620.258	87.06
620.466	105.06
620.673	90.06
620.88	74.06
621.087	85.06
621.294	73.06
621.501	82.06
621.708	79.06
621.915	75.06
622.122	89.06
622.329	105.06
622.536	99.06
622.743	88.06
622.95	101.06
623.157	82.06
623.364	88.06
623.571	88.06
623.778	96.06
623.985	85.06
624.192	78.06
624.399	97.06
624.606	81.06
624.812	92.06
625.019	97.06
625.226	88.06
625.433	94.06
625.639	80.06
625.846	76.06
626.053	91.06
626.259	76.06
626.466	86.06
626.673	82.06
626.879	91.06
627.086	84.06
627.293	82.06
627.499	97.06
627.706	95.06
627.912	94.06
628.119	94.06
628.325	82.06
628.532	98.06
628.738	89.06
628.945	86.06
629.151	73.06
629.357	101.06
629.564	96.06
629.77	100.06
629.976	102.06
630.183	85.06
630.389	92.06
630.595	91.06
630.802	91.06
631.008	86.06
631.214	84.06
631.42	92.06
631.627	86.06
631.833	86.06
632.039	90.06
632.245	82.06
632.451	77.06
632.657	94.06
632.863	94.06
633.069	94.06
633.275	88.06
633.481	80.06
633.688	79.06
633.893	94.06
634.099	82.06
634.305	84.06
634.511	81.06
634.717	97.06
634.923	93.06
635.129	90.06
635.335	96.06
635.541	73.06
635.747	77.06
635.952	85.06
636.158	80.06
636.364	109.06
636.57	100.06
636.775	77.06
636.981	90.06
637.187	93.06
637.392	92.06
637.598	76.06
637.804	80.06
638.009	71.06
638.215	74.06
638.421	94.06
638.626	89.06
638.832	87.06
639.037	78.06
639.243	90.06
639.448	89.06
639.654	79.06
639.859	80.06
640.065	81.06
640.27	84.06
640.475	79.06
640.681	84.06
640.886	91.06
641.091	93.06
641.297	92.06
641.502	80.06
641.707	89.06
641.913	105.06
642.118	98.06
642.323	82.06
642.528	87.06
642.733	84.06
642.939	82.06
643.144	86.06
643.349	79.06
643.554	85.06
643.759	94.06
643.964	80.06
644.169	88.06
644.374	92.06
644.579	102.06
644.784	78.06
644.989	99.06
645.194	86.06
645.399	80.06
645.604	88.06
645.809	95.06
646.014	85.06
646.219	85.06
646.423	76.06
646.628	85.06
646.833	95.06
647.038	92.06
647.243	88.06
647.447	76.06
647.652	83.06
647.857	80.06
648.062	78.06
648.266	94.06
648.471	98.06
648.676	96.06
648.88	82.06
649.085	84.06
649.289	77.06
649.494	99.06
649.698	114.06
649.903	98.06
650.107	85.06
650.312	96.06
650.516	87.06
650.721	86.06
650.925	104.06
651.13	90.06
651.334	88.06
651.539	94.06
651.743	71.06
651.947	95.06
652.152	70.06
652.356	79.06
652.56	83.06
652.764	80.06
652.969	83.06
653.173	79.06
653.377	97.06
653.581	80.06
653.785	86.06
653.99	101.06
654.194	81.06
654.398	73.06
654.602	80.06
654.806	92.06
655.01	106.06
655.214	88.06
655.418	77.06
655.622	80.06
655.826	82.06
656.03	76.06
656.234	84.06
656.438	96.06
656.642	94.06
656.846	92.06
657.049	80.06
657.253	87.06
657.457	85.06
657.661	85.06
657.865	84.06
658.068	85.06
658.272	87.06
658.476	92.06
658.68	80.06
658.883	96.06
659.087	74.06
659.291	76.06
659.494	83.06
659.698	77.06
659.901	82.06
660.105	75.06
660.309	80.06
660.512	73.06
660.716	82.06
660.919	79.06
661.123	97.06
661.326	68.06
661.53	82.06
661.733	88.06
661.936	87.06
662.14	83.06
662.343	88.06
662.546	71.06
662.75	87.06
662.953	82.06
663.156	64.06
663.36	83.06
663.563	78.06
663.766	86.06
663.969	80.06
664.173	86.06
664.376	87.06
664.579	62.06
664.782	72.06
664.985	80.06
665.188	87.06
665.391	81.06
665.594	80.06
665.797	71.06
666	77.06
666.203	85.06
666.406	84.06
666.609	81.06
666.812	79.06
667.015	84.06
667.218	87.06
667.421	92.06
667.624	76.06
667.827	85.06
668.03	90.06
668.232	73.06
668.435	91.06
668.638	84.06
668.841	86.06
669.043	87.06
669.246	80.06
669.449	87.06
669.651	86.06
669.854	88.06
670.057	88.06
670.259	72.06
670.462	79.06
670.665	83.06
670.867	103.06
671.07	78.06
671.272	79.06
671.475	92.06
671.677	80.06
671.88	100.06
672.082	81.06
672.284	98.06
672.487	73.06
672.689	88.06
672.892	84.06
