Data from Circ_2005_H10_HRD10591_00040.txt Node
Date: Wed Jan 03 10:29:59 EST 2024
User: Yrep
Spectrometer: HR+D1059
Trigger mode: 1
Integration Time (sec): 1.000000E-1
Scans to average: 1
Electric dark correction enabled: true
Nonlinearity correction enabled: false
Boxcar width: 0
XAxis mode: Wavelengths
Number of Pixels in Spectrum: 2048
>>>>>Begin Spectral Data<<<<<
223.165	-13.25
223.4	-13.25
223.635	-13.25
223.869	-24.25
224.104	-26.25
224.338	-23.25
224.573	-7.25
224.808	-18.25
225.042	-19.25
225.277	-1.25
225.511	3.75
225.746	-3.25
225.98	1.75
226.215	10.75
226.449	17.75
226.683	37.75
226.918	22.75
227.152	41.75
227.387	50.75
227.621	29.75
227.856	47.75
228.09	55.75
228.324	63.75
228.559	63.75
228.793	49.75
229.027	62.75
229.262	71.75
229.496	72.75
229.73	79.75
229.964	73.75
230.199	83.75
230.433	80.75
230.667	76.75
230.901	69.75
231.136	65.75
231.37	89.75
231.604	92.75
231.838	71.75
232.072	82.75
232.306	79.75
232.541	69.75
232.775	85.75
233.009	77.75
233.243	70.75
233.477	88.75
233.711	76.75
233.945	83.75
234.179	79.75
234.413	76.75
234.647	88.75
234.881	77.75
235.115	73.75
235.349	77.75
235.583	72.75
235.817	78.75
236.051	65.75
236.285	85.75
236.519	87.75
236.753	77.75
236.987	60.75
237.221	76.75
237.455	87.75
237.689	70.75
237.922	63.75
238.156	78.75
238.39	79.75
238.624	86.75
238.858	83.75
239.091	98.75
239.325	84.75
239.559	82.75
239.793	84.75
240.027	87.75
240.26	60.75
240.494	75.75
240.728	69.75
240.961	89.75
241.195	88.75
241.429	71.75
241.662	84.75
241.896	70.75
242.13	79.75
242.363	58.75
242.597	63.75
242.83	68.75
243.064	60.75
243.298	73.75
243.531	77.75
243.765	91.75
243.998	73.75
244.232	92.75
244.465	95.75
244.699	89.75
244.932	73.75
245.166	72.75
245.399	96.75
245.633	75.75
245.866	73.75
246.099	75.75
246.333	79.75
246.566	75.75
246.8	92.75
247.033	72.75
247.266	74.75
247.5	73.75
247.733	91.75
247.966	75.75
248.2	66.75
248.433	69.75
248.666	72.75
248.899	78.75
249.133	92.75
249.366	98.75
249.599	87.75
249.832	85.75
250.066	69.75
250.299	88.75
250.532	82.75
250.765	68.75
250.998	72.75
251.231	72.75
251.465	80.75
251.698	71.75
251.931	73.75
252.164	75.75
252.397	70.75
252.63	83.75
252.863	83.75
253.096	86.75
253.329	78.75
253.562	94.75
253.795	78.75
254.028	89.75
254.261	88.75
254.494	89.75
254.727	71.75
254.96	76.75
255.193	88.75
255.426	71.75
255.659	77.75
255.892	90.75
256.124	78.75
256.357	76.75
256.59	78.75
256.823	92.75
257.056	94.75
257.289	90.75
257.521	97.75
257.754	82.75
257.987	92.75
258.22	89.75
258.452	79.75
258.685	74.75
258.918	80.75
259.151	86.75
259.383	76.75
259.616	85.75
259.849	80.75
260.081	86.75
260.314	84.75
260.547	91.75
260.779	91.75
261.012	79.75
261.244	85.75
261.477	91.75
261.71	90.75
261.942	110.75
262.175	113.75
262.407	93.75
262.64	87.75
262.872	86.75
263.105	85.75
263.337	83.75
263.57	86.75
263.802	77.75
264.035	89.75
264.267	93.75
264.499	79.75
264.732	84.75
264.964	97.75
265.197	77.75
265.429	87.75
265.661	67.75
265.894	87.75
266.126	86.75
266.358	79.75
266.591	78.75
266.823	80.75
267.055	78.75
267.287	90.75
267.52	95.75
267.752	93.75
267.984	85.75
268.216	85.75
268.448	85.75
268.681	77.75
268.913	81.75
269.145	85.75
269.377	94.75
269.609	93.75
269.841	84.75
270.073	88.75
270.306	73.75
270.538	89.75
270.77	76.75
271.002	81.75
271.234	95.75
271.466	87.75
271.698	85.75
271.93	85.75
272.162	78.75
272.394	83.75
272.626	99.75
272.858	94.75
273.09	89.75
273.322	88.75
273.553	79.75
273.785	80.75
274.017	84.75
274.249	72.75
274.481	87.75
274.713	80.75
274.945	84.75
275.176	91.75
275.408	79.75
275.64	84.75
275.872	90.75
276.104	80.75
276.335	83.75
276.567	86.75
276.799	95.75
277.031	104.75
277.262	93.75
277.494	87.75
277.726	98.75
277.957	94.75
278.189	72.75
278.421	69.75
278.652	71.75
278.884	77.75
279.115	84.75
279.347	86.75
279.579	78.75
279.81	77.75
280.042	97.75
280.273	100.75
280.505	90.75
280.736	94.75
280.968	94.75
281.199	80.75
281.431	95.75
281.662	81.75
281.894	87.75
282.125	104.75
282.356	132.75
282.588	131.75
282.819	102.75
283.051	88.75
283.282	79.75
283.513	87.75
283.745	83.75
283.976	90.75
284.207	87.75
284.439	75.75
284.67	83.75
284.901	96.75
285.132	88.75
285.364	93.75
285.595	83.75
285.826	79.75
286.057	88.75
286.288	87.75
286.52	89.75
286.751	101.75
286.982	98.75
287.213	85.75
287.444	89.75
287.675	96.75
287.906	93.75
288.138	88.75
288.369	93.75
288.6	93.75
288.831	76.75
289.062	80.75
289.293	80.75
289.524	87.75
289.755	85.75
289.986	97.75
290.217	105.75
290.448	89.75
290.679	86.75
290.91	77.75
291.141	79.75
291.371	89.75
291.602	82.75
291.833	94.75
292.064	92.75
292.295	95.75
292.526	77.75
292.757	83.75
292.987	89.75
293.218	85.75
293.449	92.75
293.68	88.75
293.91	96.75
294.141	90.75
294.372	81.75
294.603	77.75
294.833	80.75
295.064	88.75
295.295	86.75
295.525	88.75
295.756	111.75
295.987	103.75
296.217	133.75
296.448	118.75
296.679	97.75
296.909	84.75
297.14	69.75
297.37	103.75
297.601	92.75
297.831	95.75
298.062	86.75
298.292	88.75
298.523	85.75
298.753	77.75
298.984	86.75
299.214	88.75
299.445	86.75
299.675	88.75
299.905	92.75
300.136	95.75
300.366	88.75
300.597	94.75
300.827	83.75
301.057	94.75
301.288	87.75
301.518	89.75
301.748	92.75
301.979	107.75
302.209	85.75
302.439	89.75
302.669	88.75
302.9	93.75
303.13	107.75
303.36	95.75
303.59	96.75
303.82	98.75
304.051	96.75
304.281	76.75
304.511	83.75
304.741	100.75
304.971	83.75
305.201	96.75
305.431	97.75
305.661	97.75
305.891	93.75
306.121	95.75
306.352	110.75
306.582	92.75
306.812	95.75
307.042	87.75
307.272	88.75
307.502	108.75
307.731	91.75
307.961	94.75
308.191	85.75
308.421	94.75
308.651	102.75
308.881	101.75
309.111	94.75
309.341	97.75
309.571	98.75
309.8	94.75
310.03	89.75
310.26	102.75
310.49	90.75
310.72	105.75
310.949	94.75
311.179	95.75
311.409	100.75
311.639	86.75
311.868	91.75
312.098	94.75
312.328	107.75
312.557	100.75
312.787	81.75
313.017	93.75
313.246	90.75
313.476	93.75
313.706	99.75
313.935	100.75
314.165	91.75
314.394	107.75
314.624	93.75
314.853	120.75
315.083	98.75
315.312	93.75
315.542	95.75
315.771	85.75
316.001	105.75
316.23	94.75
316.46	84.75
316.689	81.75
316.919	84.75
317.148	98.75
317.377	92.75
317.607	98.75
317.836	86.75
318.065	85.75
318.295	84.75
318.524	79.75
318.753	84.75
318.983	95.75
319.212	112.75
319.441	112.75
319.67	98.75
319.9	86.75
320.129	87.75
320.358	99.75
320.587	96.75
320.816	95.75
321.046	96.75
321.275	91.75
321.504	111.75
321.733	85.75
321.962	102.75
322.191	96.75
322.42	108.75
322.649	100.75
322.878	105.75
323.108	117.75
323.337	112.75
323.566	150.75
323.795	147.75
324.024	192.75
324.253	408.75
324.482	858.75
324.71	1768.75
324.939	2342.75
325.168	843.75
325.397	248.75
325.626	159.75
325.855	131.75
326.084	129.75
326.313	122.75
326.542	156.75
326.77	230.75
326.999	452.75
327.228	1014.75
327.457	1853.75
327.686	1466.75
327.914	369.75
328.143	211.75
328.372	149.75
328.6	120.75
328.829	115.75
329.058	128.75
329.287	127.75
329.515	111.75
329.744	100.75
329.972	108.75
330.201	104.75
330.43	143.75
330.658	114.75
330.887	141.75
331.115	123.75
331.344	86.75
331.572	109.75
331.801	108.75
332.03	107.75
332.258	95.75
332.486	86.75
332.715	94.75
332.943	99.75
333.172	97.75
333.4	114.75
333.629	97.75
333.857	114.75
334.085	128.75
334.314	107.75
334.542	136.75
334.771	134.75
334.999	117.75
335.227	96.75
335.455	92.75
335.684	92.75
335.912	98.75
336.14	99.75
336.369	83.75
336.597	80.75
336.825	93.75
337.053	87.75
337.281	84.75
337.51	107.75
337.738	94.75
337.966	83.75
338.194	109.75
338.422	94.75
338.65	82.75
338.878	100.75
339.106	103.75
339.334	90.75
339.562	104.75
339.79	98.75
340.018	93.75
340.246	109.75
340.474	110.75
340.702	102.75
340.93	96.75
341.158	90.75
341.386	104.75
341.614	89.75
341.842	98.75
342.07	96.75
342.298	99.75
342.526	88.75
342.754	87.75
342.981	93.75
343.209	93.75
343.437	100.75
343.665	83.75
343.893	93.75
344.12	99.75
344.348	90.75
344.576	108.75
344.804	94.75
345.031	95.75
345.259	88.75
345.487	87.75
345.714	87.75
345.942	88.75
346.17	96.75
346.397	99.75
346.625	73.75
346.853	94.75
347.08	99.75
347.308	101.75
347.535	100.75
347.763	90.75
347.99	110.75
348.218	91.75
348.445	107.75
348.673	100.75
348.9	94.75
349.128	86.75
349.355	103.75
349.583	93.75
349.81	100.75
350.037	85.75
350.265	89.75
350.492	88.75
350.72	108.75
350.947	93.75
351.174	111.75
351.402	110.75
351.629	96.75
351.856	92.75
352.083	92.75
352.311	91.75
352.538	107.75
352.765	112.75
352.992	114.75
353.22	107.75
353.447	88.75
353.674	104.75
353.901	102.75
354.128	83.75
354.355	95.75
354.583	88.75
354.81	91.75
355.037	98.75
355.264	102.75
355.491	107.75
355.718	91.75
355.945	107.75
356.172	91.75
356.399	111.75
356.626	92.75
356.853	93.75
357.08	95.75
357.307	97.75
357.534	101.75
357.761	92.75
357.988	91.75
358.215	107.75
358.441	94.75
358.668	109.75
358.895	101.75
359.122	84.75
359.349	97.75
359.576	77.75
359.802	109.75
360.029	112.75
360.256	86.75
360.483	95.75
360.709	102.75
360.936	99.75
361.163	103.75
361.39	93.75
361.616	101.75
361.843	87.75
362.07	105.75
362.296	93.75
362.523	95.75
362.749	95.75
362.976	100.75
363.203	101.75
363.429	82.75
363.656	76.75
363.882	93.75
364.109	86.75
364.335	89.75
364.562	103.75
364.788	83.75
365.015	82.75
365.241	112.75
365.468	116.75
365.694	106.75
365.92	113.75
366.147	96.75
366.373	97.75
366.599	77.75
366.826	84.75
367.052	82.75
367.278	93.75
367.505	95.75
367.731	84.75
367.957	95.75
368.184	89.75
368.41	99.75
368.636	101.75
368.862	112.75
369.089	111.75
369.315	89.75
369.541	98.75
369.767	83.75
369.993	88.75
370.219	89.75
370.445	80.75
370.672	82.75
370.898	99.75
371.124	87.75
371.35	87.75
371.576	80.75
371.802	83.75
372.028	63.75
372.254	98.75
372.48	89.75
372.706	85.75
372.932	84.75
373.158	88.75
373.384	99.75
373.61	97.75
373.835	98.75
374.061	85.75
374.287	98.75
374.513	95.75
374.739	87.75
374.965	94.75
375.191	95.75
375.416	87.75
375.642	85.75
375.868	109.75
376.094	92.75
376.319	89.75
376.545	90.75
376.771	98.75
376.997	89.75
377.222	84.75
377.448	98.75
377.674	85.75
377.899	86.75
378.125	77.75
378.35	79.75
378.576	112.75
378.802	102.75
379.027	104.75
379.253	103.75
379.478	89.75
379.704	77.75
379.929	92.75
380.155	85.75
380.38	96.75
380.606	91.75
380.831	97.75
381.057	93.75
381.282	104.75
381.507	99.75
381.733	99.75
381.958	90.75
382.184	86.75
382.409	104.75
382.634	97.75
382.86	96.75
383.085	110.75
383.31	89.75
383.535	110.75
383.761	104.75
383.986	96.75
384.211	90.75
384.436	92.75
384.662	99.75
384.887	96.75
385.112	108.75
385.337	112.75
385.562	107.75
385.787	102.75
386.013	105.75
386.238	110.75
386.463	99.75
386.688	107.75
386.913	114.75
387.138	109.75
387.363	102.75
387.588	101.75
387.813	109.75
388.038	105.75
388.263	98.75
388.488	98.75
388.713	109.75
388.938	114.75
389.163	99.75
389.387	90.75
389.612	97.75
389.837	98.75
390.062	95.75
390.287	82.75
390.512	84.75
390.736	86.75
390.961	94.75
391.186	92.75
391.411	89.75
391.636	99.75
391.86	81.75
392.085	94.75
392.31	87.75
392.534	89.75
392.759	91.75
392.984	72.75
393.208	90.75
393.433	72.75
393.658	89.75
393.882	92.75
394.107	72.75
394.331	88.75
394.556	93.75
394.78	99.75
395.005	86.75
395.229	86.75
395.454	63.75
395.678	87.75
395.903	72.75
396.127	87.75
396.352	84.75
396.576	78.75
396.801	85.75
397.025	99.75
397.249	91.75
397.474	92.75
397.698	99.75
397.922	96.75
398.147	85.75
398.371	92.75
398.595	88.75
398.82	84.75
399.044	80.75
399.268	86.75
399.492	94.75
399.717	104.75
399.941	100.75
400.165	94.75
400.389	94.75
400.613	95.75
400.837	84.75
401.062	80.75
401.286	98.75
401.51	96.75
401.734	99.75
401.958	113.75
402.182	115.75
402.406	152.75
402.63	106.75
402.854	91.75
403.078	99.75
403.302	90.75
403.526	87.75
403.75	98.75
403.974	83.75
404.198	98.75
404.422	91.75
404.645	96.75
404.869	77.75
405.093	88.75
405.317	107.75
405.541	107.75
405.765	93.75
405.988	116.75
406.212	168.75
406.436	215.75
406.66	135.75
406.883	102.75
407.107	90.75
407.331	100.75
407.555	97.75
407.778	111.75
408.002	98.75
408.226	84.75
408.449	91.75
408.673	89.75
408.896	87.75
409.12	92.75
409.344	75.75
409.567	94.75
409.791	85.75
410.014	84.75
410.238	85.75
410.461	112.75
410.685	109.75
410.908	80.75
411.132	96.75
411.355	101.75
411.578	100.75
411.802	77.75
412.025	95.75
412.249	90.75
412.472	92.75
412.695	101.75
412.919	101.75
413.142	88.75
413.365	88.75
413.589	81.75
413.812	80.75
414.035	84.75
414.258	89.75
414.482	102.75
414.705	94.75
414.928	80.75
415.151	93.75
415.374	86.75
415.597	93.75
415.821	82.75
416.044	95.75
416.267	100.75
416.49	88.75
416.713	78.75
416.936	75.75
417.159	81.75
417.382	75.75
417.605	84.75
417.828	94.75
418.051	91.75
418.274	87.75
418.497	96.75
418.72	93.75
418.943	91.75
419.166	101.75
419.389	80.75
419.611	87.75
419.834	81.75
420.057	99.75
420.28	90.75
420.503	75.75
420.726	83.75
420.948	87.75
421.171	79.75
421.394	96.75
421.617	85.75
421.839	89.75
422.062	95.75
422.285	85.75
422.507	97.75
422.73	105.75
422.953	89.75
423.175	95.75
423.398	89.75
423.621	88.75
423.843	87.75
424.066	90.75
424.288	91.75
424.511	96.75
424.733	99.75
424.956	102.75
425.178	106.75
425.401	106.75
425.623	96.75
425.846	89.75
426.068	90.75
426.291	95.75
426.513	95.75
426.735	83.75
426.958	93.75
427.18	107.75
427.402	143.75
427.625	167.75
427.847	132.75
428.069	110.75
428.292	93.75
428.514	86.75
428.736	95.75
428.958	91.75
429.181	94.75
429.403	98.75
429.625	94.75
429.847	101.75
430.069	93.75
430.292	84.75
430.514	75.75
430.736	84.75
430.958	83.75
431.18	100.75
431.402	95.75
431.624	90.75
431.846	87.75
432.068	84.75
432.29	93.75
432.512	100.75
432.734	92.75
432.956	90.75
433.178	96.75
433.4	88.75
433.622	94.75
433.844	89.75
434.066	99.75
434.287	81.75
434.509	93.75
434.731	78.75
434.953	84.75
435.175	92.75
435.397	89.75
435.618	95.75
435.84	98.75
436.062	126.75
436.284	123.75
436.505	98.75
436.727	90.75
436.949	94.75
437.17	78.75
437.392	84.75
437.614	89.75
437.835	94.75
438.057	107.75
438.278	114.75
438.5	106.75
438.721	130.75
438.943	103.75
439.165	87.75
439.386	96.75
439.608	102.75
439.829	85.75
440.05	100.75
440.272	121.75
440.493	92.75
440.715	92.75
440.936	93.75
441.158	93.75
441.379	99.75
441.6	94.75
441.822	92.75
442.043	100.75
442.264	100.75
442.486	108.75
442.707	100.75
442.928	100.75
443.149	114.75
443.371	132.75
443.592	119.75
443.813	105.75
444.034	119.75
444.255	89.75
444.476	89.75
444.698	85.75
444.919	103.75
445.14	128.75
445.361	130.75
445.582	100.75
445.803	153.75
446.024	137.75
446.245	144.75
446.466	112.75
446.687	83.75
446.908	85.75
447.129	95.75
447.35	83.75
447.571	94.75
447.792	76.75
448.013	99.75
448.234	105.75
448.455	97.75
448.675	116.75
448.896	129.75
449.117	104.75
449.338	95.75
449.559	125.75
449.779	133.75
450	88.75
450.221	89.75
450.442	89.75
450.662	92.75
450.883	102.75
451.104	112.75
451.324	91.75
451.545	96.75
451.766	88.75
451.986	89.75
452.207	104.75
452.428	103.75
452.648	89.75
452.869	94.75
453.089	107.75
453.31	103.75
453.53	91.75
453.751	91.75
453.971	114.75
454.192	113.75
454.412	91.75
454.633	78.75
454.853	82.75
455.073	76.75
455.294	82.75
455.514	105.75
455.734	89.75
455.955	77.75
456.175	87.75
456.395	80.75
456.616	96.75
456.836	90.75
457.056	102.75
457.276	93.75
457.497	77.75
457.717	81.75
457.937	86.75
458.157	96.75
458.377	95.75
458.598	99.75
458.818	139.75
459.038	157.75
459.258	106.75
459.478	102.75
459.698	105.75
459.918	84.75
460.138	87.75
460.358	80.75
460.578	87.75
460.798	92.75
461.018	98.75
461.238	90.75
461.458	98.75
461.678	80.75
461.898	84.75
462.118	88.75
462.338	83.75
462.558	78.75
462.777	71.75
462.997	78.75
463.217	92.75
463.437	88.75
463.657	97.75
463.876	104.75
464.096	85.75
464.316	87.75
464.536	90.75
464.755	104.75
464.975	112.75
465.195	163.75
465.414	159.75
465.634	101.75
465.854	84.75
466.073	99.75
466.293	86.75
466.512	83.75
466.732	76.75
466.951	85.75
467.171	87.75
467.391	99.75
467.61	73.75
467.829	93.75
468.049	100.75
468.268	117.75
468.488	88.75
468.707	85.75
468.927	82.75
469.146	92.75
469.365	78.75
469.585	79.75
469.804	92.75
470.023	93.75
470.243	95.75
470.462	106.75
470.681	102.75
470.901	84.75
471.12	93.75
471.339	90.75
471.558	83.75
471.777	79.75
471.997	93.75
472.216	113.75
472.435	162.75
472.654	100.75
472.873	95.75
473.092	72.75
473.311	95.75
473.53	85.75
473.749	112.75
473.968	92.75
474.187	93.75
474.406	92.75
474.625	94.75
474.844	77.75
475.063	95.75
475.282	91.75
475.501	73.75
475.72	84.75
475.939	84.75
476.158	81.75
476.377	84.75
476.596	95.75
476.814	92.75
477.033	87.75
477.252	80.75
477.471	84.75
477.69	92.75
477.908	87.75
478.127	98.75
478.346	83.75
478.564	98.75
478.783	90.75
479.002	83.75
479.22	86.75
479.439	100.75
479.658	97.75
479.876	101.75
480.095	79.75
480.313	100.75
480.532	102.75
480.751	97.75
480.969	109.75
481.188	225.75
481.406	173.75
481.624	87.75
481.843	78.75
482.061	97.75
482.28	82.75
482.498	95.75
482.717	95.75
482.935	88.75
483.153	97.75
483.372	87.75
483.59	75.75
483.808	97.75
484.027	100.75
484.245	96.75
484.463	80.75
484.681	90.75
484.9	90.75
485.118	93.75
485.336	98.75
485.554	99.75
485.772	93.75
485.99	104.75
486.209	100.75
486.427	105.75
486.645	121.75
486.863	117.75
487.081	104.75
487.299	102.75
487.517	98.75
487.735	79.75
487.953	96.75
488.171	92.75
488.389	106.75
488.607	111.75
488.825	101.75
489.043	87.75
489.261	93.75
489.479	98.75
489.696	81.75
489.914	95.75
490.132	84.75
490.35	97.75
490.568	90.75
490.786	88.75
491.003	78.75
491.221	93.75
491.439	82.75
491.657	99.75
491.874	92.75
492.092	92.75
492.31	100.75
492.527	93.75
492.745	97.75
492.963	80.75
493.18	94.75
493.398	81.75
493.615	83.75
493.833	101.75
494.05	79.75
494.268	108.75
494.485	99.75
494.703	96.75
494.92	81.75
495.138	85.75
495.355	80.75
495.573	81.75
495.79	89.75
496.008	92.75
496.225	83.75
496.442	87.75
496.66	99.75
496.877	98.75
497.094	85.75
497.312	81.75
497.529	85.75
497.746	93.75
497.963	96.75
498.181	97.75
498.398	88.75
498.615	113.75
498.832	100.75
499.049	88.75
499.267	81.75
499.484	94.75
499.701	94.75
499.918	93.75
500.135	81.75
500.352	85.75
500.569	90.75
500.786	99.75
501.003	95.75
501.22	93.75
501.437	85.75
501.654	97.75
501.871	100.75
502.088	92.75
502.305	88.75
502.522	102.75
502.739	91.75
502.956	79.75
503.172	88.75
503.389	96.75
503.606	107.75
503.823	95.75
504.04	90.75
504.256	96.75
504.473	93.75
504.69	91.75
504.907	79.75
505.123	91.75
505.34	99.75
505.557	89.75
505.773	98.75
505.99	85.75
506.207	80.75
506.423	103.75
506.64	94.75
506.856	86.75
507.073	86.75
507.289	78.75
507.506	93.75
507.722	101.75
507.939	98.75
508.155	84.75
508.372	85.75
508.588	87.75
508.805	106.75
509.021	96.75
509.238	93.75
509.454	109.75
509.67	107.75
509.887	113.75
510.103	151.75
510.319	213.75
510.536	704.75
510.752	2292.75
510.968	639.75
511.184	155.75
511.401	112.75
511.617	84.75
511.833	87.75
512.049	103.75
512.265	105.75
512.481	98.75
512.698	103.75
512.914	94.75
513.13	96.75
513.346	96.75
513.562	97.75
513.778	99.75
513.994	89.75
514.21	104.75
514.426	115.75
514.642	124.75
514.858	127.75
515.074	164.75
515.29	415.75
515.506	1437.75
515.721	516.75
515.937	152.75
516.153	103.75
516.369	99.75
516.585	96.75
516.801	89.75
517.016	107.75
517.232	88.75
517.448	87.75
517.664	96.75
517.879	92.75
518.095	84.75
518.311	96.75
518.527	87.75
518.742	87.75
518.958	99.75
519.173	100.75
519.389	97.75
519.605	96.75
519.82	92.75
520.036	91.75
520.251	112.75
520.467	121.75
520.682	101.75
520.898	97.75
521.113	115.75
521.329	119.75
521.544	211.75
521.76	515.75
521.975	2262.75
522.19	1419.75
522.406	312.75
522.621	117.75
522.836	103.75
523.052	97.75
523.267	97.75
523.482	91.75
523.698	108.75
523.913	111.75
524.128	104.75
524.343	93.75
524.559	105.75
524.774	100.75
524.989	90.75
525.204	93.75
525.419	100.75
525.634	102.75
525.849	88.75
526.064	88.75
526.28	121.75
526.495	102.75
526.71	86.75
526.925	79.75
527.14	86.75
527.355	88.75
527.57	101.75
527.785	99.75
527.999	85.75
528.214	101.75
528.429	85.75
528.644	76.75
528.859	98.75
529.074	95.75
529.289	115.75
529.503	174.75
529.718	121.75
529.933	90.75
530.148	87.75
530.363	82.75
530.577	93.75
530.792	81.75
531.007	90.75
531.221	92.75
531.436	87.75
531.651	94.75
531.865	93.75
532.08	93.75
532.295	92.75
532.509	86.75
532.724	94.75
532.938	100.75
533.153	97.75
533.367	101.75
533.582	81.75
533.796	100.75
534.011	85.75
534.225	87.75
534.44	109.75
534.654	94.75
534.868	89.75
535.083	106.75
535.297	98.75
535.511	98.75
535.726	103.75
535.94	106.75
536.154	95.75
536.369	92.75
536.583	78.75
536.797	91.75
537.011	98.75
537.225	83.75
537.44	98.75
537.654	107.75
537.868	94.75
538.082	85.75
538.296	98.75
538.51	91.75
538.724	94.75
538.938	99.75
539.153	111.75
539.367	107.75
539.581	99.75
539.795	74.75
540.009	108.75
540.222	83.75
540.436	101.75
540.65	112.75
540.864	93.75
541.078	86.75
541.292	88.75
541.506	90.75
541.72	84.75
541.934	87.75
542.147	88.75
542.361	87.75
542.575	80.75
542.789	103.75
543.002	88.75
543.216	102.75
543.43	108.75
543.644	103.75
543.857	88.75
544.071	82.75
544.285	98.75
544.498	97.75
544.712	105.75
544.925	85.75
545.139	92.75
545.352	93.75
545.566	73.75
545.779	79.75
545.993	87.75
546.206	80.75
546.42	92.75
546.633	84.75
546.847	88.75
547.06	75.75
547.274	83.75
547.487	91.75
547.7	83.75
547.914	81.75
548.127	96.75
548.34	78.75
548.554	102.75
548.767	95.75
548.98	66.75
549.193	91.75
549.407	88.75
549.62	89.75
549.833	98.75
550.046	77.75
550.259	87.75
550.473	95.75
550.686	98.75
550.899	88.75
551.112	94.75
551.325	87.75
551.538	79.75
551.751	91.75
551.964	78.75
552.177	90.75
552.39	77.75
552.603	101.75
552.816	96.75
553.029	84.75
553.242	98.75
553.455	100.75
553.667	104.75
553.88	104.75
554.093	99.75
554.306	97.75
554.519	94.75
554.732	88.75
554.944	84.75
555.157	95.75
555.37	84.75
555.583	91.75
555.795	103.75
556.008	83.75
556.221	83.75
556.433	111.75
556.646	103.75
556.859	88.75
557.071	87.75
557.284	90.75
557.496	94.75
557.709	97.75
557.921	89.75
558.134	95.75
558.346	88.75
558.559	93.75
558.771	88.75
558.984	92.75
559.196	100.75
559.409	81.75
559.621	76.75
559.833	79.75
560.046	88.75
560.258	95.75
560.47	91.75
560.683	89.75
560.895	88.75
561.107	95.75
561.32	77.75
561.532	88.75
561.744	84.75
561.956	92.75
562.168	92.75
562.381	101.75
562.593	80.75
562.805	89.75
563.017	99.75
563.229	92.75
563.441	85.75
563.653	112.75
563.865	89.75
564.077	85.75
564.289	76.75
564.501	98.75
564.713	89.75
564.925	96.75
565.137	104.75
565.349	109.75
565.561	70.75
565.773	96.75
565.985	91.75
566.197	89.75
566.408	106.75
566.62	96.75
566.832	92.75
567.044	85.75
567.255	75.75
567.467	98.75
567.679	81.75
567.891	86.75
568.102	104.75
568.314	84.75
568.526	92.75
568.737	92.75
568.949	90.75
569.161	92.75
569.372	88.75
569.584	85.75
569.795	90.75
570.007	115.75
570.218	240.75
570.43	124.75
570.641	92.75
570.853	92.75
571.064	93.75
571.276	90.75
571.487	83.75
571.698	79.75
571.91	93.75
572.121	82.75
572.333	83.75
572.544	88.75
572.755	94.75
572.966	93.75
573.178	92.75
573.389	92.75
573.6	86.75
573.811	91.75
574.023	88.75
574.234	90.75
574.445	91.75
574.656	96.75
574.867	84.75
575.078	95.75
575.289	81.75
575.501	79.75
575.712	89.75
575.923	95.75
576.134	96.75
576.345	92.75
576.556	107.75
576.767	74.75
576.978	85.75
577.188	87.75
577.399	100.75
577.61	93.75
577.821	97.75
578.032	111.75
578.243	253.75
578.454	692.75
578.665	205.75
578.875	109.75
579.086	90.75
579.297	82.75
579.508	84.75
579.718	87.75
579.929	92.75
580.14	69.75
580.35	68.75
580.561	86.75
580.772	88.75
580.982	81.75
581.193	102.75
581.403	83.75
581.614	77.75
581.825	84.75
582.035	84.75
582.246	95.75
582.456	88.75
582.667	85.75
582.877	102.75
583.087	88.75
583.298	92.75
583.508	98.75
583.719	93.75
583.929	85.75
584.139	80.75
584.35	81.75
584.56	83.75
584.77	82.75
584.981	89.75
585.191	79.75
585.401	90.75
585.611	92.75
585.821	88.75
586.032	97.75
586.242	91.75
586.452	82.75
586.662	88.75
586.872	83.75
587.082	92.75
587.292	97.75
587.502	105.75
587.713	90.75
587.923	86.75
588.133	95.75
588.343	85.75
588.553	85.75
588.762	93.75
588.972	84.75
589.182	118.75
589.392	108.75
589.602	100.75
589.812	113.75
590.022	81.75
590.232	83.75
590.441	64.75
590.651	89.75
590.861	70.75
591.071	79.75
591.281	92.75
591.49	95.75
591.7	89.75
591.91	83.75
592.119	89.75
592.329	96.75
592.539	105.75
592.748	93.75
592.958	96.75
593.167	92.75
593.377	93.75
593.587	91.75
593.796	101.75
594.006	76.75
594.215	79.75
594.424	86.75
594.634	90.75
594.843	84.75
595.053	101.75
595.262	80.75
595.472	87.75
595.681	81.75
595.89	74.75
596.1	76.75
596.309	98.75
596.518	92.75
596.727	91.75
596.937	88.75
597.146	101.75
597.355	79.75
597.564	81.75
597.774	88.75
597.983	89.75
598.192	83.75
598.401	87.75
598.61	92.75
598.819	92.75
599.028	91.75
599.237	88.75
599.446	95.75
599.655	97.75
599.864	87.75
600.073	94.75
600.282	96.75
600.491	95.75
600.7	83.75
600.909	93.75
601.118	100.75
601.327	97.75
601.536	105.75
601.745	94.75
601.953	92.75
602.162	103.75
602.371	86.75
602.58	96.75
602.789	101.75
602.997	84.75
603.206	101.75
603.415	95.75
603.623	100.75
603.832	80.75
604.041	99.75
604.249	101.75
604.458	75.75
604.666	96.75
604.875	71.75
605.084	89.75
605.292	84.75
605.501	81.75
605.709	81.75
605.918	94.75
606.126	95.75
606.334	81.75
606.543	95.75
606.751	93.75
606.96	76.75
607.168	85.75
607.376	93.75
607.585	96.75
607.793	96.75
608.001	93.75
608.21	101.75
608.418	80.75
608.626	90.75
608.834	92.75
609.043	83.75
609.251	85.75
609.459	84.75
609.667	82.75
609.875	95.75
610.083	88.75
610.291	91.75
610.499	97.75
610.707	86.75
610.916	74.75
611.124	85.75
611.332	79.75
611.54	89.75
611.748	97.75
611.955	88.75
612.163	80.75
612.371	89.75
612.579	80.75
612.787	85.75
612.995	94.75
613.203	91.75
613.411	93.75
613.618	98.75
613.826	89.75
614.034	85.75
614.242	98.75
614.449	91.75
614.657	79.75
614.865	77.75
615.072	88.75
615.28	71.75
615.488	89.75
615.695	89.75
615.903	85.75
616.111	89.75
616.318	96.75
616.526	102.75
616.733	101.75
616.941	93.75
617.148	87.75
617.356	92.75
617.563	89.75
617.771	84.75
617.978	77.75
618.185	101.75
618.393	75.75
618.6	95.75
618.807	93.75
619.015	94.75
619.222	87.75
619.429	77.75
619.637	96.75
619.844	80.75
620.051	87.75
620.258	99.75
620.466	91.75
620.673	75.75
620.88	82.75
621.087	83.75
621.294	77.75
621.501	83.75
621.708	91.75
621.915	78.75
622.122	86.75
622.329	78.75
622.536	79.75
622.743	85.75
622.95	110.75
623.157	87.75
623.364	88.75
623.571	87.75
623.778	86.75
623.985	86.75
624.192	89.75
624.399	97.75
624.606	104.75
624.812	82.75
625.019	78.75
625.226	93.75
625.433	85.75
625.639	82.75
625.846	81.75
626.053	83.75
626.259	75.75
626.466	89.75
626.673	86.75
626.879	94.75
627.086	94.75
627.293	80.75
627.499	88.75
627.706	74.75
627.912	84.75
628.119	84.75
628.325	82.75
628.532	88.75
628.738	88.75
628.945	81.75
629.151	88.75
629.357	72.75
629.564	85.75
629.77	92.75
629.976	76.75
630.183	83.75
630.389	78.75
630.595	88.75
630.802	87.75
631.008	81.75
631.214	71.75
631.42	82.75
631.627	72.75
631.833	83.75
632.039	80.75
632.245	79.75
632.451	68.75
632.657	87.75
632.863	83.75
633.069	73.75
633.275	80.75
633.481	81.75
633.688	76.75
633.893	78.75
634.099	78.75
634.305	91.75
634.511	76.75
634.717	86.75
634.923	92.75
635.129	97.75
635.335	91.75
635.541	83.75
635.747	81.75
635.952	82.75
636.158	93.75
636.364	94.75
636.57	85.75
636.775	89.75
636.981	78.75
637.187	63.75
637.392	75.75
637.598	89.75
637.804	79.75
638.009	70.75
638.215	101.75
638.421	78.75
638.626	81.75
638.832	84.75
639.037	88.75
639.243	86.75
639.448	101.75
639.654	87.75
639.859	81.75
640.065	75.75
640.27	99.75
640.475	82.75
640.681	74.75
640.886	94.75
641.091	88.75
641.297	77.75
641.502	75.75
641.707	85.75
641.913	95.75
642.118	102.75
642.323	76.75
642.528	81.75
642.733	82.75
642.939	80.75
643.144	92.75
643.349	88.75
643.554	97.75
643.759	89.75
643.964	83.75
644.169	102.75
644.374	83.75
644.579	75.75
644.784	95.75
644.989	90.75
645.194	77.75
645.399	93.75
645.604	87.75
645.809	85.75
646.014	93.75
646.219	87.75
646.423	90.75
646.628	93.75
646.833	80.75
647.038	94.75
647.243	76.75
647.447	78.75
647.652	73.75
647.857	86.75
648.062	92.75
648.266	88.75
648.471	93.75
648.676	104.75
648.88	112.75
649.085	95.75
649.289	83.75
649.494	105.75
649.698	125.75
649.903	112.75
650.107	73.75
650.312	81.75
650.516	79.75
650.721	100.75
650.925	90.75
651.13	85.75
651.334	85.75
651.539	77.75
651.743	92.75
651.947	73.75
652.152	79.75
652.356	88.75
652.56	72.75
652.764	79.75
652.969	70.75
653.173	82.75
653.377	87.75
653.581	86.75
653.785	93.75
653.99	83.75
654.194	89.75
654.398	77.75
654.602	94.75
654.806	84.75
655.01	83.75
655.214	94.75
655.418	81.75
655.622	85.75
655.826	79.75
656.03	91.75
656.234	86.75
656.438	79.75
656.642	91.75
656.846	89.75
657.049	84.75
657.253	76.75
657.457	82.75
657.661	83.75
657.865	76.75
658.068	87.75
658.272	81.75
658.476	91.75
658.68	85.75
658.883	79.75
659.087	87.75
659.291	78.75
659.494	82.75
659.698	96.75
659.901	85.75
660.105	76.75
660.309	79.75
660.512	85.75
660.716	83.75
660.919	84.75
661.123	82.75
661.326	83.75
661.53	88.75
661.733	84.75
661.936	77.75
662.14	88.75
662.343	83.75
662.546	85.75
662.75	76.75
662.953	84.75
663.156	65.75
663.36	92.75
663.563	79.75
663.766	87.75
663.969	87.75
664.173	85.75
664.376	90.75
664.579	91.75
664.782	88.75
664.985	102.75
665.188	83.75
665.391	83.75
665.594	80.75
665.797	80.75
666	79.75
666.203	80.75
666.406	73.75
666.609	82.75
666.812	84.75
667.015	84.75
667.218	67.75
667.421	88.75
667.624	79.75
667.827	81.75
668.03	75.75
668.232	87.75
668.435	79.75
668.638	77.75
668.841	81.75
669.043	89.75
669.246	71.75
669.449	78.75
669.651	92.75
669.854	83.75
670.057	101.75
670.259	86.75
670.462	71.75
670.665	79.75
670.867	94.75
671.07	83.75
671.272	74.75
671.475	86.75
671.677	77.75
671.88	85.75
672.082	75.75
672.284	81.75
672.487	82.75
672.689	87.75
672.892	92.75
