Data from Circ_1987_H10_HRD10591_00043.txt Node
Date: Wed Jan 03 12:10:41 EST 2024
User: Yrep
Spectrometer: HR+D1059
Trigger mode: 1
Integration Time (sec): 1.000000E-1
Scans to average: 1
Electric dark correction enabled: true
Nonlinearity correction enabled: false
Boxcar width: 0
XAxis mode: Wavelengths
Number of Pixels in Spectrum: 2048
>>>>>Begin Spectral Data<<<<<
223.165	-11.56
223.4	-11.56
223.635	-11.56
223.869	-21.56
224.104	-17.56
224.338	-23.56
224.573	-5.56
224.808	-7.56
225.042	-6.56
225.277	-11.56
225.511	-5.56
225.746	14.44
225.98	-1.56
226.215	12.44
226.449	9.44
226.683	22.44
226.918	30.44
227.152	23.44
227.387	26.44
227.621	45.44
227.856	52.44
228.09	54.44
228.324	69.44
228.559	67.44
228.793	70.44
229.027	72.44
229.262	65.44
229.496	77.44
229.73	103.44
229.964	103.44
230.199	84.44
230.433	65.44
230.667	103.44
230.901	82.44
231.136	80.44
231.37	80.44
231.604	95.44
231.838	72.44
232.072	100.44
232.306	95.44
232.541	82.44
232.775	74.44
233.009	84.44
233.243	95.44
233.477	67.44
233.711	76.44
233.945	79.44
234.179	80.44
234.413	77.44
234.647	85.44
234.881	98.44
235.115	85.44
235.349	67.44
235.583	98.44
235.817	101.44
236.051	73.44
236.285	82.44
236.519	88.44
236.753	87.44
236.987	86.44
237.221	107.44
237.455	89.44
237.689	84.44
237.922	92.44
238.156	78.44
238.39	70.44
238.624	71.44
238.858	85.44
239.091	82.44
239.325	83.44
239.559	100.44
239.793	80.44
240.027	91.44
240.26	74.44
240.494	91.44
240.728	68.44
240.961	88.44
241.195	86.44
241.429	78.44
241.662	88.44
241.896	82.44
242.13	72.44
242.363	76.44
242.597	72.44
242.83	89.44
243.064	82.44
243.298	60.44
243.531	85.44
243.765	71.44
243.998	86.44
244.232	87.44
244.465	83.44
244.699	70.44
244.932	80.44
245.166	68.44
245.399	86.44
245.633	75.44
245.866	77.44
246.099	80.44
246.333	90.44
246.566	88.44
246.8	60.44
247.033	74.44
247.266	80.44
247.5	79.44
247.733	83.44
247.966	82.44
248.2	94.44
248.433	77.44
248.666	73.44
248.899	86.44
249.133	74.44
249.366	107.44
249.599	106.44
249.832	101.44
250.066	82.44
250.299	79.44
250.532	82.44
250.765	75.44
250.998	75.44
251.231	67.44
251.465	79.44
251.698	84.44
251.931	83.44
252.164	75.44
252.397	82.44
252.63	95.44
252.863	80.44
253.096	71.44
253.329	97.44
253.562	82.44
253.795	74.44
254.028	93.44
254.261	91.44
254.494	82.44
254.727	78.44
254.96	66.44
255.193	78.44
255.426	89.44
255.659	80.44
255.892	80.44
256.124	96.44
256.357	99.44
256.59	75.44
256.823	84.44
257.056	95.44
257.289	81.44
257.521	94.44
257.754	98.44
257.987	88.44
258.22	107.44
258.452	89.44
258.685	85.44
258.918	73.44
259.151	79.44
259.383	92.44
259.616	83.44
259.849	86.44
260.081	80.44
260.314	96.44
260.547	79.44
260.779	81.44
261.012	100.44
261.244	105.44
261.477	104.44
261.71	109.44
261.942	127.44
262.175	162.44
262.407	86.44
262.64	65.44
262.872	84.44
263.105	63.44
263.337	70.44
263.57	80.44
263.802	83.44
264.035	86.44
264.267	89.44
264.499	87.44
264.732	90.44
264.964	91.44
265.197	90.44
265.429	82.44
265.661	90.44
265.894	74.44
266.126	89.44
266.358	84.44
266.591	85.44
266.823	85.44
267.055	91.44
267.287	91.44
267.52	81.44
267.752	91.44
267.984	94.44
268.216	87.44
268.448	82.44
268.681	86.44
268.913	91.44
269.145	93.44
269.377	94.44
269.609	91.44
269.841	90.44
270.073	90.44
270.306	88.44
270.538	97.44
270.77	84.44
271.002	76.44
271.234	92.44
271.466	92.44
271.698	84.44
271.93	90.44
272.162	88.44
272.394	108.44
272.626	90.44
272.858	84.44
273.09	90.44
273.322	78.44
273.553	73.44
273.785	84.44
274.017	87.44
274.249	80.44
274.481	82.44
274.713	95.44
274.945	92.44
275.176	92.44
275.408	98.44
275.64	108.44
275.872	115.44
276.104	112.44
276.335	111.44
276.567	117.44
276.799	137.44
277.031	177.44
277.262	182.44
277.494	134.44
277.726	97.44
277.957	96.44
278.189	90.44
278.421	80.44
278.652	103.44
278.884	92.44
279.115	97.44
279.347	94.44
279.579	111.44
279.81	119.44
280.042	180.44
280.273	236.44
280.505	156.44
280.736	92.44
280.968	100.44
281.199	97.44
281.431	91.44
281.662	90.44
281.894	100.44
282.125	102.44
282.356	123.44
282.588	167.44
282.819	137.44
283.051	93.44
283.282	91.44
283.513	92.44
283.745	83.44
283.976	86.44
284.207	89.44
284.439	76.44
284.67	94.44
284.901	95.44
285.132	72.44
285.364	91.44
285.595	86.44
285.826	88.44
286.057	74.44
286.288	94.44
286.52	84.44
286.751	84.44
286.982	80.44
287.213	92.44
287.444	102.44
287.675	83.44
287.906	100.44
288.138	98.44
288.369	98.44
288.6	100.44
288.831	98.44
289.062	104.44
289.293	87.44
289.524	98.44
289.755	94.44
289.986	91.44
290.217	99.44
290.448	89.44
290.679	89.44
290.91	98.44
291.141	89.44
291.371	80.44
291.602	95.44
291.833	102.44
292.064	80.44
292.295	100.44
292.526	86.44
292.757	90.44
292.987	94.44
293.218	92.44
293.449	94.44
293.68	103.44
293.91	76.44
294.141	103.44
294.372	74.44
294.603	99.44
294.833	87.44
295.064	102.44
295.295	84.44
295.525	84.44
295.756	83.44
295.987	147.44
296.217	160.44
296.448	144.44
296.679	102.44
296.909	98.44
297.14	95.44
297.37	104.44
297.601	92.44
297.831	67.44
298.062	95.44
298.292	102.44
298.523	88.44
298.753	91.44
298.984	91.44
299.214	87.44
299.445	86.44
299.675	89.44
299.905	97.44
300.136	88.44
300.366	92.44
300.597	91.44
300.827	89.44
301.057	102.44
301.288	111.44
301.518	102.44
301.748	85.44
301.979	113.44
302.209	96.44
302.439	100.44
302.669	87.44
302.9	83.44
303.13	98.44
303.36	96.44
303.59	126.44
303.82	123.44
304.051	122.44
304.281	84.44
304.511	84.44
304.741	92.44
304.971	96.44
305.201	94.44
305.431	80.44
305.661	78.44
305.891	88.44
306.121	103.44
306.352	123.44
306.582	108.44
306.812	104.44
307.042	114.44
307.272	162.44
307.502	173.44
307.731	158.44
307.961	119.44
308.191	92.44
308.421	112.44
308.651	103.44
308.881	94.44
309.111	102.44
309.341	99.44
309.571	112.44
309.8	102.44
310.03	112.44
310.26	105.44
310.49	105.44
310.72	96.44
310.949	115.44
311.179	114.44
311.409	87.44
311.639	104.44
311.868	111.44
312.098	106.44
312.328	93.44
312.557	113.44
312.787	124.44
313.017	117.44
313.246	120.44
313.476	99.44
313.706	88.44
313.935	101.44
314.165	107.44
314.394	121.44
314.624	105.44
314.853	103.44
315.083	92.44
315.312	90.44
315.542	100.44
315.771	80.44
316.001	105.44
316.23	98.44
316.46	98.44
316.689	102.44
316.919	97.44
317.148	102.44
317.377	103.44
317.607	96.44
317.836	94.44
318.065	94.44
318.295	103.44
318.524	96.44
318.753	100.44
318.983	98.44
319.212	104.44
319.441	116.44
319.67	104.44
319.9	103.44
320.129	100.44
320.358	94.44
320.587	118.44
320.816	114.44
321.046	109.44
321.275	107.44
321.504	102.44
321.733	96.44
321.962	75.44
322.191	107.44
322.42	108.44
322.649	125.44
322.878	137.44
323.108	124.44
323.337	136.44
323.566	144.44
323.795	153.44
324.024	217.44
324.253	425.44
324.482	922.44
324.71	1797.44
324.939	2453.44
325.168	896.44
325.397	280.44
325.626	168.44
325.855	131.44
326.084	132.44
326.313	139.44
326.542	172.44
326.77	255.44
326.999	476.44
327.228	980.44
327.457	1758.44
327.686	1409.44
327.914	506.44
328.143	475.44
328.372	556.44
328.6	339.44
328.829	187.44
329.058	186.44
329.287	184.44
329.515	178.44
329.744	224.44
329.972	412.44
330.201	836.44
330.43	1226.44
330.658	548.44
330.887	277.44
331.115	191.44
331.344	130.44
331.572	126.44
331.801	132.44
332.03	121.44
332.258	107.44
332.486	111.44
332.715	114.44
332.943	113.44
333.172	124.44
333.4	132.44
333.629	140.44
333.857	214.44
334.085	365.44
334.314	779.44
334.542	1518.44
334.771	1444.44
334.999	398.44
335.227	184.44
335.455	108.44
335.684	120.44
335.912	112.44
336.14	126.44
336.369	129.44
336.597	121.44
336.825	108.44
337.053	105.44
337.281	93.44
337.51	100.44
337.738	93.44
337.966	103.44
338.194	103.44
338.422	108.44
338.65	89.44
338.878	111.44
339.106	91.44
339.334	94.44
339.562	99.44
339.79	94.44
340.018	86.44
340.246	112.44
340.474	96.44
340.702	100.44
340.93	101.44
341.158	97.44
341.386	87.44
341.614	116.44
341.842	107.44
342.07	88.44
342.298	95.44
342.526	91.44
342.754	91.44
342.981	103.44
343.209	97.44
343.437	99.44
343.665	92.44
343.893	107.44
344.12	90.44
344.348	99.44
344.576	105.44
344.804	92.44
345.031	116.44
345.259	115.44
345.487	79.44
345.714	104.44
345.942	94.44
346.17	96.44
346.397	97.44
346.625	99.44
346.853	96.44
347.08	102.44
347.308	100.44
347.535	110.44
347.763	114.44
347.99	111.44
348.218	111.44
348.445	113.44
348.673	102.44
348.9	102.44
349.128	108.44
349.355	96.44
349.583	90.44
349.81	94.44
350.037	95.44
350.265	85.44
350.492	95.44
350.72	94.44
350.947	103.44
351.174	123.44
351.402	122.44
351.629	114.44
351.856	98.44
352.083	103.44
352.311	127.44
352.538	137.44
352.765	127.44
352.992	128.44
353.22	129.44
353.447	121.44
353.674	113.44
353.901	92.44
354.128	92.44
354.355	95.44
354.583	94.44
354.81	96.44
355.037	100.44
355.264	89.44
355.491	99.44
355.718	89.44
355.945	84.44
356.172	84.44
356.399	113.44
356.626	88.44
356.853	94.44
357.08	94.44
357.307	86.44
357.534	98.44
357.761	98.44
357.988	87.44
358.215	102.44
358.441	94.44
358.668	90.44
358.895	95.44
359.122	94.44
359.349	78.44
359.576	83.44
359.802	116.44
360.029	131.44
360.256	154.44
360.483	121.44
360.709	106.44
360.936	97.44
361.163	110.44
361.39	115.44
361.616	96.44
361.843	84.44
362.07	103.44
362.296	93.44
362.523	94.44
362.749	100.44
362.976	109.44
363.203	95.44
363.429	84.44
363.656	89.44
363.882	98.44
364.109	110.44
364.335	84.44
364.562	98.44
364.788	106.44
365.015	107.44
365.241	99.44
365.468	111.44
365.694	115.44
365.92	90.44
366.147	88.44
366.373	88.44
366.599	95.44
366.826	88.44
367.052	91.44
367.278	89.44
367.505	79.44
367.731	95.44
367.957	95.44
368.184	89.44
368.41	95.44
368.636	113.44
368.862	129.44
369.089	118.44
369.315	102.44
369.541	104.44
369.767	87.44
369.993	99.44
370.219	79.44
370.445	96.44
370.672	93.44
370.898	90.44
371.124	94.44
371.35	96.44
371.576	98.44
371.802	92.44
372.028	98.44
372.254	92.44
372.48	86.44
372.706	88.44
372.932	97.44
373.158	95.44
373.384	99.44
373.61	108.44
373.835	97.44
374.061	92.44
374.287	81.44
374.513	96.44
374.739	91.44
374.965	75.44
375.191	107.44
375.416	95.44
375.642	83.44
375.868	107.44
376.094	90.44
376.319	82.44
376.545	101.44
376.771	95.44
376.997	96.44
377.222	105.44
377.448	96.44
377.674	83.44
377.899	91.44
378.125	73.44
378.35	87.44
378.576	92.44
378.802	89.44
379.027	97.44
379.253	99.44
379.478	92.44
379.704	92.44
379.929	91.44
380.155	91.44
380.38	99.44
380.606	108.44
380.831	99.44
381.057	98.44
381.282	83.44
381.507	95.44
381.733	100.44
381.958	88.44
382.184	106.44
382.409	94.44
382.634	101.44
382.86	99.44
383.085	112.44
383.31	109.44
383.535	95.44
383.761	86.44
383.986	88.44
384.211	105.44
384.436	100.44
384.662	105.44
384.887	95.44
385.112	104.44
385.337	97.44
385.562	95.44
385.787	103.44
386.013	99.44
386.238	127.44
386.463	99.44
386.688	94.44
386.913	78.44
387.138	111.44
387.363	110.44
387.588	103.44
387.813	90.44
388.038	101.44
388.263	119.44
388.488	110.44
388.713	110.44
388.938	97.44
389.163	94.44
389.387	92.44
389.612	84.44
389.837	103.44
390.062	106.44
390.287	88.44
390.512	94.44
390.736	81.44
390.961	108.44
391.186	100.44
391.411	92.44
391.636	89.44
391.86	88.44
392.085	84.44
392.31	94.44
392.534	75.44
392.759	91.44
392.984	100.44
393.208	84.44
393.433	97.44
393.658	94.44
393.882	83.44
394.107	83.44
394.331	71.44
394.556	99.44
394.78	97.44
395.005	98.44
395.229	99.44
395.454	87.44
395.678	85.44
395.903	95.44
396.127	94.44
396.352	89.44
396.576	97.44
396.801	94.44
397.025	91.44
397.249	100.44
397.474	96.44
397.698	89.44
397.922	89.44
398.147	73.44
398.371	86.44
398.595	94.44
398.82	99.44
399.044	91.44
399.268	80.44
399.492	80.44
399.717	91.44
399.941	98.44
400.165	108.44
400.389	107.44
400.613	87.44
400.837	84.44
401.062	94.44
401.286	98.44
401.51	92.44
401.734	91.44
401.958	99.44
402.182	154.44
402.406	190.44
402.63	131.44
402.854	106.44
403.078	95.44
403.302	98.44
403.526	113.44
403.75	100.44
403.974	88.44
404.198	101.44
404.422	99.44
404.645	95.44
404.869	107.44
405.093	103.44
405.317	154.44
405.541	158.44
405.765	115.44
405.988	126.44
406.212	211.44
406.436	307.44
406.66	197.44
406.883	132.44
407.107	110.44
407.331	91.44
407.555	134.44
407.778	123.44
408.002	93.44
408.226	90.44
408.449	86.44
408.673	103.44
408.896	100.44
409.12	120.44
409.344	90.44
409.567	98.44
409.791	99.44
410.014	103.44
410.238	100.44
410.461	96.44
410.685	100.44
410.908	91.44
411.132	106.44
411.355	102.44
411.578	89.44
411.802	86.44
412.025	92.44
412.249	111.44
412.472	114.44
412.695	150.44
412.919	112.44
413.142	99.44
413.365	88.44
413.589	96.44
413.812	92.44
414.035	113.44
414.258	102.44
414.482	99.44
414.705	87.44
414.928	97.44
415.151	89.44
415.374	111.44
415.597	97.44
415.821	85.44
416.044	90.44
416.267	98.44
416.49	92.44
416.713	82.44
416.936	93.44
417.159	82.44
417.382	95.44
417.605	113.44
417.828	111.44
418.051	89.44
418.274	101.44
418.497	93.44
418.72	81.44
418.943	89.44
419.166	98.44
419.389	89.44
419.611	89.44
419.834	96.44
420.057	90.44
420.28	90.44
420.503	100.44
420.726	102.44
420.948	99.44
421.171	103.44
421.394	100.44
421.617	95.44
421.839	94.44
422.062	78.44
422.285	86.44
422.507	115.44
422.73	108.44
422.953	103.44
423.175	76.44
423.398	79.44
423.621	84.44
423.843	82.44
424.066	90.44
424.288	82.44
424.511	90.44
424.733	106.44
424.956	122.44
425.178	119.44
425.401	123.44
425.623	117.44
425.846	101.44
426.068	106.44
426.291	90.44
426.513	112.44
426.735	116.44
426.958	105.44
427.18	127.44
427.402	179.44
427.625	263.44
427.847	238.44
428.069	219.44
428.292	130.44
428.514	91.44
428.736	91.44
428.958	92.44
429.181	91.44
429.403	88.44
429.625	87.44
429.847	99.44
430.069	121.44
430.292	114.44
430.514	85.44
430.736	105.44
430.958	96.44
431.18	97.44
431.402	99.44
431.624	99.44
431.846	83.44
432.068	81.44
432.29	88.44
432.512	92.44
432.734	94.44
432.956	76.44
433.178	103.44
433.4	83.44
433.622	92.44
433.844	99.44
434.066	82.44
434.287	100.44
434.509	88.44
434.731	85.44
434.953	102.44
435.175	100.44
435.397	86.44
435.618	106.44
435.84	108.44
436.062	142.44
436.284	139.44
436.505	92.44
436.727	96.44
436.949	104.44
437.17	104.44
437.392	90.44
437.614	100.44
437.835	121.44
438.057	168.44
438.278	133.44
438.5	128.44
438.721	129.44
438.943	115.44
439.165	108.44
439.386	92.44
439.608	103.44
439.829	118.44
440.05	134.44
440.272	187.44
440.493	129.44
440.715	110.44
440.936	71.44
441.158	93.44
441.379	93.44
441.6	111.44
441.822	111.44
442.043	124.44
442.264	117.44
442.486	121.44
442.707	97.44
442.928	114.44
443.149	178.44
443.371	164.44
443.592	129.44
443.813	137.44
444.034	131.44
444.255	93.44
444.476	99.44
444.698	84.44
444.919	99.44
445.14	146.44
445.361	137.44
445.582	152.44
445.803	175.44
446.024	175.44
446.245	173.44
446.466	143.44
446.687	102.44
446.908	89.44
447.129	92.44
447.35	95.44
447.571	87.44
447.792	99.44
448.013	126.44
448.234	129.44
448.455	114.44
448.675	127.44
448.896	150.44
449.117	113.44
449.338	106.44
449.559	130.44
449.779	153.44
450	104.44
450.221	98.44
450.442	94.44
450.662	113.44
450.883	132.44
451.104	128.44
451.324	117.44
451.545	98.44
451.766	107.44
451.986	83.44
452.207	98.44
452.428	99.44
452.648	95.44
452.869	129.44
453.089	156.44
453.31	140.44
453.53	106.44
453.751	100.44
453.971	113.44
454.192	139.44
454.412	106.44
454.633	95.44
454.853	82.44
455.073	95.44
455.294	96.44
455.514	105.44
455.734	102.44
455.955	75.44
456.175	96.44
456.395	104.44
456.616	105.44
456.836	96.44
457.056	98.44
457.276	87.44
457.497	100.44
457.717	89.44
457.937	101.44
458.157	94.44
458.377	112.44
458.598	129.44
458.818	197.44
459.038	228.44
459.258	144.44
459.478	96.44
459.698	94.44
459.918	90.44
460.138	82.44
460.358	92.44
460.578	105.44
460.798	96.44
461.018	93.44
461.238	81.44
461.458	94.44
461.678	85.44
461.898	94.44
462.118	76.44
462.338	75.44
462.558	91.44
462.777	83.44
462.997	94.44
463.217	106.44
463.437	82.44
463.657	91.44
463.876	89.44
464.096	89.44
464.316	106.44
464.536	114.44
464.755	107.44
464.975	121.44
465.195	237.44
465.414	226.44
465.634	114.44
465.854	99.44
466.073	103.44
466.293	93.44
466.512	99.44
466.732	90.44
466.951	92.44
467.171	104.44
467.391	99.44
467.61	149.44
467.829	187.44
468.049	486.44
468.268	708.44
468.488	198.44
468.707	116.44
468.927	82.44
469.146	97.44
469.365	66.44
469.585	87.44
469.804	118.44
470.023	120.44
470.243	103.44
470.462	96.44
470.681	142.44
470.901	119.44
471.12	91.44
471.339	105.44
471.558	108.44
471.777	162.44
471.997	265.44
472.216	904.44
472.435	2139.44
472.654	499.44
472.873	150.44
473.092	111.44
473.311	98.44
473.53	81.44
473.749	92.44
473.968	112.44
474.187	122.44
474.406	115.44
474.625	99.44
474.844	104.44
475.063	106.44
475.282	87.44
475.501	92.44
475.72	98.44
475.939	105.44
476.158	99.44
476.377	100.44
476.596	98.44
476.814	116.44
477.033	107.44
477.252	110.44
477.471	101.44
477.69	99.44
477.908	112.44
478.127	92.44
478.346	99.44
478.564	107.44
478.783	124.44
479.002	98.44
479.22	108.44
479.439	120.44
479.658	130.44
479.876	111.44
480.095	109.44
480.313	134.44
480.532	148.44
480.751	271.44
480.969	873.44
481.188	3601.44
481.406	2108.44
481.624	314.44
481.843	150.44
482.061	115.44
482.28	112.44
482.498	93.44
482.717	105.44
482.935	93.44
483.153	96.44
483.372	108.44
483.59	111.44
483.808	94.44
484.027	87.44
484.245	104.44
484.463	92.44
484.681	88.44
484.9	116.44
485.118	98.44
485.336	95.44
485.554	98.44
485.772	101.44
485.99	114.44
486.209	112.44
486.427	106.44
486.645	122.44
486.863	131.44
487.081	108.44
487.299	109.44
487.517	92.44
487.735	98.44
487.953	98.44
488.171	98.44
488.389	95.44
488.607	114.44
488.825	101.44
489.043	94.44
489.261	94.44
489.479	93.44
489.696	84.44
489.914	90.44
490.132	100.44
490.35	90.44
490.568	89.44
490.786	99.44
491.003	98.44
491.221	99.44
491.439	94.44
491.657	101.44
491.874	113.44
492.092	97.44
492.31	94.44
492.527	108.44
492.745	111.44
492.963	99.44
493.18	93.44
493.398	89.44
493.615	103.44
493.833	114.44
494.05	88.44
494.268	102.44
494.485	83.44
494.703	83.44
494.92	89.44
495.138	81.44
495.355	106.44
495.573	114.44
495.79	99.44
496.008	85.44
496.225	86.44
496.442	100.44
496.66	84.44
496.877	94.44
497.094	74.44
497.312	98.44
497.529	87.44
497.746	96.44
497.963	90.44
498.181	113.44
498.398	96.44
498.615	115.44
498.832	112.44
499.049	98.44
499.267	107.44
499.484	108.44
499.701	101.44
499.918	91.44
500.135	98.44
500.352	102.44
500.569	107.44
500.786	102.44
501.003	106.44
501.22	83.44
501.437	97.44
501.654	111.44
501.871	123.44
502.088	119.44
502.305	99.44
502.522	105.44
502.739	97.44
502.956	106.44
503.172	97.44
503.389	99.44
503.606	129.44
503.823	100.44
504.04	95.44
504.256	95.44
504.473	84.44
504.69	84.44
504.907	92.44
505.123	89.44
505.34	97.44
505.557	86.44
505.773	94.44
505.99	96.44
506.207	105.44
506.423	104.44
506.64	94.44
506.856	94.44
507.073	105.44
507.289	107.44
507.506	101.44
507.722	134.44
507.939	126.44
508.155	114.44
508.372	106.44
508.588	89.44
508.805	96.44
509.021	96.44
509.238	111.44
509.454	100.44
509.67	119.44
509.887	120.44
510.103	151.44
510.319	241.44
510.536	934.44
510.752	3093.44
510.968	822.44
511.184	187.44
511.401	110.44
511.617	106.44
511.833	118.44
512.049	92.44
512.265	85.44
512.481	97.44
512.698	74.44
512.914	102.44
513.13	92.44
513.346	105.44
513.562	104.44
513.778	106.44
513.994	111.44
514.21	106.44
514.426	151.44
514.642	176.44
514.858	158.44
515.074	216.44
515.29	648.44
515.506	2453.44
515.721	846.44
515.937	210.44
516.153	147.44
516.369	124.44
516.585	112.44
516.801	113.44
517.016	99.44
517.232	108.44
517.448	98.44
517.664	86.44
517.879	94.44
518.095	114.44
518.311	106.44
518.527	123.44
518.742	115.44
518.958	99.44
519.173	97.44
519.389	100.44
519.605	91.44
519.82	97.44
520.036	117.44
520.251	142.44
520.467	143.44
520.682	116.44
520.898	106.44
521.113	128.44
521.329	181.44
521.544	296.44
521.76	884.44
521.975	4035.44
522.19	2392.44
522.406	464.44
522.621	162.44
522.836	124.44
523.052	115.44
523.267	98.44
523.482	106.44
523.698	121.44
523.913	145.44
524.128	118.44
524.343	118.44
524.559	97.44
524.774	88.44
524.989	111.44
525.204	109.44
525.419	124.44
525.634	75.44
525.849	106.44
526.064	106.44
526.28	90.44
526.495	86.44
526.71	83.44
526.925	91.44
527.14	106.44
527.355	91.44
527.57	105.44
527.785	84.44
527.999	113.44
528.214	97.44
528.429	100.44
528.644	98.44
528.859	108.44
529.074	103.44
529.289	162.44
529.503	256.44
529.718	109.44
529.933	99.44
530.148	73.44
530.363	105.44
530.577	102.44
530.792	89.44
531.007	99.44
531.221	100.44
531.436	98.44
531.651	94.44
531.865	99.44
532.08	96.44
532.295	113.44
532.509	95.44
532.724	88.44
532.938	103.44
533.153	93.44
533.367	104.44
533.582	90.44
533.796	103.44
534.011	109.44
534.225	96.44
534.44	92.44
534.654	93.44
534.868	76.44
535.083	105.44
535.297	91.44
535.511	129.44
535.726	114.44
535.94	101.44
536.154	99.44
536.369	96.44
536.583	87.44
536.797	95.44
537.011	109.44
537.225	85.44
537.44	105.44
537.654	92.44
537.868	95.44
538.082	92.44
538.296	98.44
538.51	94.44
538.724	94.44
538.938	94.44
539.153	107.44
539.367	115.44
539.581	117.44
539.795	96.44
540.009	86.44
540.222	96.44
540.436	98.44
540.65	107.44
540.864	91.44
541.078	105.44
541.292	85.44
541.506	86.44
541.72	90.44
541.934	95.44
542.147	87.44
542.361	98.44
542.575	87.44
542.789	103.44
543.002	101.44
543.216	102.44
543.43	104.44
543.644	101.44
543.857	105.44
544.071	87.44
544.285	105.44
544.498	83.44
544.712	77.44
544.925	97.44
545.139	92.44
545.352	95.44
545.566	89.44
545.779	94.44
545.993	93.44
546.206	99.44
546.42	92.44
546.633	102.44
546.847	95.44
547.06	94.44
547.274	88.44
547.487	86.44
547.7	81.44
547.914	96.44
548.127	92.44
548.34	86.44
548.554	87.44
548.767	88.44
548.98	82.44
549.193	90.44
549.407	84.44
549.62	88.44
549.833	95.44
550.046	91.44
550.259	89.44
550.473	93.44
550.686	81.44
550.899	76.44
551.112	103.44
551.325	78.44
551.538	91.44
551.751	101.44
551.964	83.44
552.177	94.44
552.39	94.44
552.603	96.44
552.816	82.44
553.029	101.44
553.242	82.44
553.455	100.44
553.667	120.44
553.88	114.44
554.093	97.44
554.306	98.44
554.519	98.44
554.732	103.44
554.944	90.44
555.157	83.44
555.37	101.44
555.583	93.44
555.795	98.44
556.008	90.44
556.221	99.44
556.433	98.44
556.646	90.44
556.859	81.44
557.071	89.44
557.284	97.44
557.496	90.44
557.709	98.44
557.921	94.44
558.134	99.44
558.346	83.44
558.559	90.44
558.771	88.44
558.984	90.44
559.196	88.44
559.409	91.44
559.621	97.44
559.833	94.44
560.046	108.44
560.258	123.44
560.47	134.44
560.683	93.44
560.895	95.44
561.107	105.44
561.32	86.44
561.532	81.44
561.744	89.44
561.956	91.44
562.168	89.44
562.381	88.44
562.593	89.44
562.805	98.44
563.017	95.44
563.229	88.44
563.441	88.44
563.653	100.44
563.865	92.44
564.077	95.44
564.289	95.44
564.501	108.44
564.713	92.44
564.925	97.44
565.137	103.44
565.349	99.44
565.561	93.44
565.773	99.44
565.985	97.44
566.197	80.44
566.408	88.44
566.62	91.44
566.832	98.44
567.044	91.44
567.255	75.44
567.467	74.44
567.679	91.44
567.891	94.44
568.102	96.44
568.314	94.44
568.526	82.44
568.737	99.44
568.949	85.44
569.161	82.44
569.372	98.44
569.584	91.44
569.795	70.44
570.007	120.44
570.218	313.44
570.43	150.44
570.641	118.44
570.853	74.44
571.064	90.44
571.276	91.44
571.487	92.44
571.698	97.44
571.91	82.44
572.121	82.44
572.333	87.44
572.544	82.44
572.755	84.44
572.966	92.44
573.178	90.44
573.389	83.44
573.6	82.44
573.811	96.44
574.023	87.44
574.234	88.44
574.445	78.44
574.656	100.44
574.867	85.44
575.078	103.44
575.289	95.44
575.501	97.44
575.712	89.44
575.923	96.44
576.134	86.44
576.345	79.44
576.556	78.44
576.767	101.44
576.978	80.44
577.188	92.44
577.399	92.44
577.61	107.44
577.821	115.44
578.032	133.44
578.243	343.44
578.454	987.44
578.665	243.44
578.875	128.44
579.086	101.44
579.297	97.44
579.508	84.44
579.718	104.44
579.929	85.44
580.14	86.44
580.35	94.44
580.561	89.44
580.772	94.44
580.982	85.44
581.193	77.44
581.403	88.44
581.614	91.44
581.825	83.44
582.035	72.44
582.246	94.44
582.456	86.44
582.667	86.44
582.877	103.44
583.087	74.44
583.298	99.44
583.508	94.44
583.719	88.44
583.929	95.44
584.139	88.44
584.35	92.44
584.56	96.44
584.77	92.44
584.981	86.44
585.191	91.44
585.401	83.44
585.611	103.44
585.821	90.44
586.032	99.44
586.242	97.44
586.452	86.44
586.662	88.44
586.872	91.44
587.082	98.44
587.292	83.44
587.502	105.44
587.713	82.44
587.923	87.44
588.133	87.44
588.343	76.44
588.553	89.44
588.762	91.44
588.972	102.44
589.182	193.44
589.392	137.44
589.602	108.44
589.812	135.44
590.022	98.44
590.232	73.44
590.441	89.44
590.651	86.44
590.861	93.44
591.071	89.44
591.281	88.44
591.49	86.44
591.7	99.44
591.91	100.44
592.119	91.44
592.329	108.44
592.539	103.44
592.748	83.44
592.958	79.44
593.167	81.44
593.377	84.44
593.587	88.44
593.796	78.44
594.006	82.44
594.215	83.44
594.424	78.44
594.634	80.44
594.843	100.44
595.053	93.44
595.262	98.44
595.472	82.44
595.681	79.44
595.89	73.44
596.1	89.44
596.309	75.44
596.518	73.44
596.727	90.44
596.937	94.44
597.146	80.44
597.355	81.44
597.564	90.44
597.774	87.44
597.983	81.44
598.192	82.44
598.401	95.44
598.61	93.44
598.819	88.44
599.028	83.44
599.237	78.44
599.446	94.44
599.655	79.44
599.864	89.44
600.073	95.44
600.282	91.44
600.491	83.44
600.7	85.44
600.909	91.44
601.118	92.44
601.327	94.44
601.536	99.44
601.745	98.44
601.953	87.44
602.162	78.44
602.371	91.44
602.58	84.44
602.789	76.44
602.997	90.44
603.206	83.44
603.415	97.44
603.623	83.44
603.832	75.44
604.041	81.44
604.249	79.44
604.458	70.44
604.666	95.44
604.875	89.44
605.084	106.44
605.292	84.44
605.501	85.44
605.709	92.44
605.918	90.44
606.126	90.44
606.334	88.44
606.543	88.44
606.751	79.44
606.96	86.44
607.168	99.44
607.376	86.44
607.585	84.44
607.793	89.44
608.001	92.44
608.21	99.44
608.418	88.44
608.626	84.44
608.834	88.44
609.043	98.44
609.251	89.44
609.459	91.44
609.667	86.44
609.875	80.44
610.083	76.44
610.291	84.44
610.499	88.44
610.707	100.44
610.916	86.44
611.124	87.44
611.332	84.44
611.54	86.44
611.748	92.44
611.955	86.44
612.163	78.44
612.371	96.44
612.579	98.44
612.787	90.44
612.995	90.44
613.203	83.44
613.411	82.44
613.618	93.44
613.826	89.44
614.034	91.44
614.242	99.44
614.449	82.44
614.657	94.44
614.865	90.44
615.072	94.44
615.28	83.44
615.488	87.44
615.695	103.44
615.903	90.44
616.111	95.44
616.318	98.44
616.526	80.44
616.733	75.44
616.941	101.44
617.148	100.44
617.356	111.44
617.563	84.44
617.771	103.44
617.978	95.44
618.185	88.44
618.393	87.44
618.6	86.44
618.807	82.44
619.015	83.44
619.222	79.44
619.429	92.44
619.637	89.44
619.844	85.44
620.051	82.44
620.258	86.44
620.466	89.44
620.673	83.44
620.88	96.44
621.087	83.44
621.294	105.44
621.501	87.44
621.708	78.44
621.915	83.44
622.122	98.44
622.329	74.44
622.536	71.44
622.743	90.44
622.95	87.44
623.157	84.44
623.364	82.44
623.571	102.44
623.778	94.44
623.985	85.44
624.192	82.44
624.399	90.44
624.606	92.44
624.812	94.44
625.019	98.44
625.226	83.44
625.433	90.44
625.639	92.44
625.846	107.44
626.053	89.44
626.259	78.44
626.466	111.44
626.673	79.44
626.879	90.44
627.086	99.44
627.293	92.44
627.499	91.44
627.706	79.44
627.912	90.44
628.119	80.44
628.325	90.44
628.532	84.44
628.738	84.44
628.945	84.44
629.151	82.44
629.357	75.44
629.564	82.44
629.77	97.44
629.976	75.44
630.183	78.44
630.389	84.44
630.595	78.44
630.802	85.44
631.008	90.44
631.214	84.44
631.42	85.44
631.627	84.44
631.833	88.44
632.039	82.44
632.245	100.44
632.451	93.44
632.657	87.44
632.863	82.44
633.069	91.44
633.275	90.44
633.481	85.44
633.688	92.44
633.893	91.44
634.099	79.44
634.305	74.44
634.511	88.44
634.717	95.44
634.923	99.44
635.129	96.44
635.335	87.44
635.541	91.44
635.747	81.44
635.952	100.44
636.158	124.44
636.364	338.44
636.57	294.44
636.775	126.44
636.981	95.44
637.187	98.44
637.392	80.44
637.598	71.44
637.804	80.44
638.009	95.44
638.215	89.44
638.421	90.44
638.626	83.44
638.832	78.44
639.037	90.44
639.243	85.44
639.448	85.44
639.654	93.44
639.859	92.44
640.065	80.44
640.27	96.44
640.475	69.44
640.681	70.44
640.886	101.44
641.091	82.44
641.297	89.44
641.502	83.44
641.707	102.44
641.913	82.44
642.118	98.44
642.323	81.44
642.528	85.44
642.733	82.44
642.939	91.44
643.144	92.44
643.349	84.44
643.554	83.44
643.759	83.44
643.964	76.44
644.169	81.44
644.374	79.44
644.579	95.44
644.784	93.44
644.989	80.44
645.194	86.44
645.399	75.44
645.604	70.44
645.809	91.44
646.014	95.44
646.219	87.44
646.423	80.44
646.628	88.44
646.833	87.44
647.038	101.44
647.243	85.44
647.447	91.44
647.652	87.44
647.857	84.44
648.062	81.44
648.266	89.44
648.471	87.44
648.676	91.44
648.88	99.44
649.085	89.44
649.289	85.44
649.494	108.44
649.698	147.44
649.903	106.44
650.107	78.44
650.312	91.44
650.516	94.44
650.721	84.44
650.925	86.44
651.13	67.44
651.334	80.44
651.539	94.44
651.743	87.44
651.947	87.44
652.152	104.44
652.356	86.44
652.56	88.44
652.764	88.44
652.969	83.44
653.173	84.44
653.377	78.44
653.581	75.44
653.785	73.44
653.99	87.44
654.194	66.44
654.398	66.44
654.602	89.44
654.806	111.44
655.01	118.44
655.214	91.44
655.418	88.44
655.622	75.44
655.826	94.44
656.03	82.44
656.234	87.44
656.438	105.44
656.642	100.44
656.846	94.44
657.049	96.44
657.253	88.44
657.457	90.44
657.661	88.44
657.865	85.44
658.068	74.44
658.272	92.44
658.476	84.44
658.68	85.44
658.883	78.44
659.087	66.44
659.291	90.44
659.494	75.44
659.698	87.44
659.901	78.44
660.105	84.44
660.309	87.44
660.512	72.44
660.716	72.44
660.919	78.44
661.123	89.44
661.326	102.44
661.53	79.44
661.733	100.44
661.936	83.44
662.14	83.44
662.343	84.44
662.546	84.44
662.75	76.44
662.953	91.44
663.156	88.44
663.36	89.44
663.563	78.44
663.766	73.44
663.969	78.44
664.173	78.44
664.376	95.44
664.579	82.44
664.782	82.44
664.985	91.44
665.188	77.44
665.391	84.44
665.594	86.44
665.797	81.44
666	71.44
666.203	83.44
666.406	78.44
666.609	77.44
666.812	86.44
667.015	79.44
667.218	85.44
667.421	95.44
667.624	96.44
667.827	60.44
668.03	68.44
668.232	95.44
668.435	82.44
668.638	89.44
668.841	77.44
669.043	84.44
669.246	93.44
669.449	84.44
669.651	94.44
669.854	88.44
670.057	87.44
670.259	74.44
670.462	72.44
670.665	79.44
670.867	100.44
671.07	90.44
671.272	89.44
671.475	71.44
671.677	75.44
671.88	95.44
672.082	96.44
672.284	102.44
672.487	83.44
672.689	80.44
672.892	82.44
