Data from Circ_1987_H10_HRD10591_00003.txt Node
Date: Wed Jan 03 12:10:33 EST 2024
User: Yrep
Spectrometer: HR+D1059
Trigger mode: 1
Integration Time (sec): 1.000000E-1
Scans to average: 1
Electric dark correction enabled: true
Nonlinearity correction enabled: false
Boxcar width: 0
XAxis mode: Wavelengths
Number of Pixels in Spectrum: 2048
>>>>>Begin Spectral Data<<<<<
223.165	-19.31
223.4	-19.31
223.635	-19.31
223.869	-26.31
224.104	-18.31
224.338	-19.31
224.573	-16.31
224.808	-13.31
225.042	-12.31
225.277	-6.31
225.511	6.69
225.746	1.69
225.98	-13.31
226.215	22.69
226.449	24.69
226.683	40.69
226.918	25.69
227.152	22.69
227.387	40.69
227.621	47.69
227.856	46.69
228.09	46.69
228.324	58.69
228.559	56.69
228.793	49.69
229.027	70.69
229.262	61.69
229.496	68.69
229.73	98.69
229.964	84.69
230.199	78.69
230.433	87.69
230.667	84.69
230.901	82.69
231.136	86.69
231.37	77.69
231.604	98.69
231.838	88.69
232.072	85.69
232.306	89.69
232.541	92.69
232.775	84.69
233.009	77.69
233.243	90.69
233.477	98.69
233.711	82.69
233.945	90.69
234.179	82.69
234.413	70.69
234.647	70.69
234.881	85.69
235.115	72.69
235.349	89.69
235.583	69.69
235.817	86.69
236.051	88.69
236.285	83.69
236.519	74.69
236.753	85.69
236.987	86.69
237.221	85.69
237.455	88.69
237.689	80.69
237.922	70.69
238.156	86.69
238.39	84.69
238.624	72.69
238.858	84.69
239.091	78.69
239.325	66.69
239.559	86.69
239.793	84.69
240.027	85.69
240.26	85.69
240.494	86.69
240.728	69.69
240.961	74.69
241.195	69.69
241.429	77.69
241.662	78.69
241.896	86.69
242.13	79.69
242.363	80.69
242.597	84.69
242.83	73.69
243.064	80.69
243.298	89.69
243.531	84.69
243.765	76.69
243.998	97.69
244.232	73.69
244.465	98.69
244.699	86.69
244.932	71.69
245.166	67.69
245.399	81.69
245.633	78.69
245.866	79.69
246.099	74.69
246.333	71.69
246.566	78.69
246.8	76.69
247.033	85.69
247.266	84.69
247.5	77.69
247.733	69.69
247.966	72.69
248.2	88.69
248.433	78.69
248.666	80.69
248.899	71.69
249.133	88.69
249.366	89.69
249.599	98.69
249.832	79.69
250.066	94.69
250.299	91.69
250.532	84.69
250.765	65.69
250.998	84.69
251.231	63.69
251.465	85.69
251.698	83.69
251.931	98.69
252.164	81.69
252.397	85.69
252.63	86.69
252.863	83.69
253.096	73.69
253.329	78.69
253.562	76.69
253.795	85.69
254.028	84.69
254.261	88.69
254.494	73.69
254.727	74.69
254.96	78.69
255.193	92.69
255.426	80.69
255.659	81.69
255.892	90.69
256.124	92.69
256.357	95.69
256.59	84.69
256.823	80.69
257.056	90.69
257.289	92.69
257.521	84.69
257.754	77.69
257.987	80.69
258.22	102.69
258.452	92.69
258.685	99.69
258.918	86.69
259.151	74.69
259.383	92.69
259.616	84.69
259.849	76.69
260.081	86.69
260.314	86.69
260.547	92.69
260.779	93.69
261.012	98.69
261.244	85.69
261.477	86.69
261.71	96.69
261.942	130.69
262.175	141.69
262.407	92.69
262.64	87.69
262.872	86.69
263.105	78.69
263.337	88.69
263.57	79.69
263.802	88.69
264.035	79.69
264.267	82.69
264.499	81.69
264.732	83.69
264.964	84.69
265.197	91.69
265.429	96.69
265.661	86.69
265.894	71.69
266.126	82.69
266.358	78.69
266.591	70.69
266.823	82.69
267.055	86.69
267.287	88.69
267.52	82.69
267.752	86.69
267.984	80.69
268.216	86.69
268.448	84.69
268.681	92.69
268.913	93.69
269.145	80.69
269.377	82.69
269.609	88.69
269.841	87.69
270.073	88.69
270.306	85.69
270.538	88.69
270.77	104.69
271.002	77.69
271.234	77.69
271.466	90.69
271.698	80.69
271.93	86.69
272.162	94.69
272.394	89.69
272.626	97.69
272.858	78.69
273.09	83.69
273.322	90.69
273.553	87.69
273.785	100.69
274.017	89.69
274.249	84.69
274.481	91.69
274.713	93.69
274.945	82.69
275.176	97.69
275.408	110.69
275.64	95.69
275.872	103.69
276.104	94.69
276.335	110.69
276.567	109.69
276.799	125.69
277.031	125.69
277.262	140.69
277.494	128.69
277.726	82.69
277.957	80.69
278.189	90.69
278.421	62.69
278.652	78.69
278.884	90.69
279.115	89.69
279.347	102.69
279.579	84.69
279.81	101.69
280.042	141.69
280.273	192.69
280.505	140.69
280.736	94.69
280.968	83.69
281.199	88.69
281.431	88.69
281.662	93.69
281.894	100.69
282.125	120.69
282.356	111.69
282.588	167.69
282.819	123.69
283.051	93.69
283.282	88.69
283.513	103.69
283.745	93.69
283.976	84.69
284.207	92.69
284.439	82.69
284.67	86.69
284.901	81.69
285.132	92.69
285.364	88.69
285.595	82.69
285.826	89.69
286.057	96.69
286.288	82.69
286.52	93.69
286.751	88.69
286.982	106.69
287.213	84.69
287.444	88.69
287.675	90.69
287.906	97.69
288.138	100.69
288.369	91.69
288.6	79.69
288.831	101.69
289.062	93.69
289.293	82.69
289.524	99.69
289.755	97.69
289.986	84.69
290.217	85.69
290.448	99.69
290.679	81.69
290.91	92.69
291.141	79.69
291.371	91.69
291.602	87.69
291.833	98.69
292.064	83.69
292.295	94.69
292.526	90.69
292.757	88.69
292.987	86.69
293.218	102.69
293.449	92.69
293.68	101.69
293.91	88.69
294.141	91.69
294.372	92.69
294.603	91.69
294.833	93.69
295.064	79.69
295.295	93.69
295.525	101.69
295.756	97.69
295.987	128.69
296.217	148.69
296.448	118.69
296.679	94.69
296.909	99.69
297.14	96.69
297.37	98.69
297.601	91.69
297.831	89.69
298.062	94.69
298.292	90.69
298.523	87.69
298.753	83.69
298.984	88.69
299.214	90.69
299.445	89.69
299.675	101.69
299.905	89.69
300.136	97.69
300.366	90.69
300.597	91.69
300.827	93.69
301.057	97.69
301.288	102.69
301.518	96.69
301.748	95.69
301.979	113.69
302.209	93.69
302.439	87.69
302.669	87.69
302.9	84.69
303.13	93.69
303.36	90.69
303.59	121.69
303.82	137.69
304.051	104.69
304.281	101.69
304.511	85.69
304.741	80.69
304.971	76.69
305.201	93.69
305.431	104.69
305.661	87.69
305.891	86.69
306.121	84.69
306.352	110.69
306.582	120.69
306.812	106.69
307.042	112.69
307.272	136.69
307.502	140.69
307.731	147.69
307.961	129.69
308.191	95.69
308.421	99.69
308.651	86.69
308.881	107.69
309.111	84.69
309.341	103.69
309.571	103.69
309.8	96.69
310.03	100.69
310.26	97.69
310.49	108.69
310.72	112.69
310.949	116.69
311.179	100.69
311.409	104.69
311.639	93.69
311.868	104.69
312.098	97.69
312.328	104.69
312.557	99.69
312.787	118.69
313.017	114.69
313.246	95.69
313.476	85.69
313.706	89.69
313.935	102.69
314.165	101.69
314.394	109.69
314.624	101.69
314.853	96.69
315.083	96.69
315.312	97.69
315.542	88.69
315.771	97.69
316.001	96.69
316.23	85.69
316.46	92.69
316.689	103.69
316.919	96.69
317.148	103.69
317.377	95.69
317.607	88.69
317.836	92.69
318.065	88.69
318.295	76.69
318.524	96.69
318.753	92.69
318.983	104.69
319.212	99.69
319.441	117.69
319.67	117.69
319.9	95.69
320.129	110.69
320.358	90.69
320.587	102.69
320.816	104.69
321.046	108.69
321.275	95.69
321.504	94.69
321.733	106.69
321.962	109.69
322.191	94.69
322.42	112.69
322.649	116.69
322.878	112.69
323.108	122.69
323.337	123.69
323.566	120.69
323.795	140.69
324.024	182.69
324.253	365.69
324.482	745.69
324.71	1514.69
324.939	2020.69
325.168	754.69
325.397	246.69
325.626	145.69
325.855	136.69
326.084	121.69
326.313	127.69
326.542	160.69
326.77	212.69
326.999	393.69
327.228	776.69
327.457	1431.69
327.686	1169.69
327.914	391.69
328.143	369.69
328.372	418.69
328.6	263.69
328.829	162.69
329.058	156.69
329.287	179.69
329.515	142.69
329.744	194.69
329.972	291.69
330.201	575.69
330.43	884.69
330.658	418.69
330.887	230.69
331.115	162.69
331.344	113.69
331.572	105.69
331.801	116.69
332.03	109.69
332.258	110.69
332.486	101.69
332.715	106.69
332.943	103.69
333.172	111.69
333.4	128.69
333.629	142.69
333.857	168.69
334.085	281.69
334.314	525.69
334.542	1059.69
334.771	1025.69
334.999	297.69
335.227	149.69
335.455	110.69
335.684	104.69
335.912	96.69
336.14	100.69
336.369	112.69
336.597	104.69
336.825	104.69
337.053	98.69
337.281	94.69
337.51	88.69
337.738	106.69
337.966	89.69
338.194	105.69
338.422	107.69
338.65	90.69
338.878	78.69
339.106	94.69
339.334	92.69
339.562	78.69
339.79	105.69
340.018	98.69
340.246	81.69
340.474	114.69
340.702	94.69
340.93	84.69
341.158	88.69
341.386	96.69
341.614	101.69
341.842	101.69
342.07	100.69
342.298	79.69
342.526	94.69
342.754	93.69
342.981	89.69
343.209	84.69
343.437	96.69
343.665	89.69
343.893	110.69
344.12	91.69
344.348	89.69
344.576	97.69
344.804	99.69
345.031	84.69
345.259	104.69
345.487	99.69
345.714	95.69
345.942	82.69
346.17	89.69
346.397	80.69
346.625	95.69
346.853	104.69
347.08	100.69
347.308	76.69
347.535	103.69
347.763	99.69
347.99	91.69
348.218	113.69
348.445	94.69
348.673	97.69
348.9	97.69
349.128	104.69
349.355	89.69
349.583	82.69
349.81	89.69
350.037	103.69
350.265	105.69
350.492	85.69
350.72	100.69
350.947	88.69
351.174	116.69
351.402	114.69
351.629	85.69
351.856	119.69
352.083	111.69
352.311	107.69
352.538	119.69
352.765	113.69
352.992	123.69
353.22	122.69
353.447	102.69
353.674	104.69
353.901	94.69
354.128	93.69
354.355	93.69
354.583	98.69
354.81	102.69
355.037	89.69
355.264	96.69
355.491	85.69
355.718	78.69
355.945	95.69
356.172	94.69
356.399	84.69
356.626	95.69
356.853	78.69
357.08	83.69
357.307	91.69
357.534	101.69
357.761	90.69
357.988	97.69
358.215	93.69
358.441	112.69
358.668	94.69
358.895	92.69
359.122	103.69
359.349	100.69
359.576	92.69
359.802	109.69
360.029	117.69
360.256	121.69
360.483	105.69
360.709	85.69
360.936	82.69
361.163	100.69
361.39	101.69
361.616	103.69
361.843	84.69
362.07	102.69
362.296	105.69
362.523	107.69
362.749	89.69
362.976	103.69
363.203	91.69
363.429	95.69
363.656	83.69
363.882	88.69
364.109	96.69
364.335	85.69
364.562	90.69
364.788	95.69
365.015	111.69
365.241	113.69
365.468	110.69
365.694	119.69
365.92	95.69
366.147	96.69
366.373	91.69
366.599	97.69
366.826	80.69
367.052	76.69
367.278	99.69
367.505	93.69
367.731	88.69
367.957	94.69
368.184	101.69
368.41	98.69
368.636	115.69
368.862	122.69
369.089	112.69
369.315	98.69
369.541	84.69
369.767	88.69
369.993	94.69
370.219	99.69
370.445	80.69
370.672	92.69
370.898	91.69
371.124	86.69
371.35	72.69
371.576	98.69
371.802	88.69
372.028	85.69
372.254	93.69
372.48	74.69
372.706	88.69
372.932	90.69
373.158	98.69
373.384	87.69
373.61	95.69
373.835	94.69
374.061	109.69
374.287	82.69
374.513	79.69
374.739	94.69
374.965	95.69
375.191	91.69
375.416	96.69
375.642	98.69
375.868	97.69
376.094	90.69
376.319	88.69
376.545	94.69
376.771	94.69
376.997	83.69
377.222	95.69
377.448	85.69
377.674	95.69
377.899	99.69
378.125	88.69
378.35	89.69
378.576	96.69
378.802	98.69
379.027	85.69
379.253	112.69
379.478	89.69
379.704	97.69
379.929	85.69
380.155	98.69
380.38	103.69
380.606	102.69
380.831	91.69
381.057	98.69
381.282	117.69
381.507	102.69
381.733	89.69
381.958	87.69
382.184	92.69
382.409	115.69
382.634	99.69
382.86	98.69
383.085	112.69
383.31	111.69
383.535	105.69
383.761	115.69
383.986	99.69
384.211	102.69
384.436	108.69
384.662	120.69
384.887	110.69
385.112	116.69
385.337	112.69
385.562	112.69
385.787	109.69
386.013	113.69
386.238	122.69
386.463	113.69
386.688	112.69
386.913	126.69
387.138	119.69
387.363	103.69
387.588	111.69
387.813	98.69
388.038	114.69
388.263	119.69
388.488	115.69
388.713	96.69
388.938	98.69
389.163	94.69
389.387	97.69
389.612	82.69
389.837	97.69
390.062	92.69
390.287	69.69
390.512	76.69
390.736	100.69
390.961	77.69
391.186	91.69
391.411	92.69
391.636	92.69
391.86	76.69
392.085	94.69
392.31	90.69
392.534	72.69
392.759	88.69
392.984	91.69
393.208	89.69
393.433	105.69
393.658	91.69
393.882	82.69
394.107	101.69
394.331	84.69
394.556	74.69
394.78	88.69
395.005	84.69
395.229	88.69
395.454	84.69
395.678	88.69
395.903	101.69
396.127	99.69
396.352	93.69
396.576	85.69
396.801	97.69
397.025	89.69
397.249	76.69
397.474	91.69
397.698	87.69
397.922	91.69
398.147	93.69
398.371	78.69
398.595	92.69
398.82	80.69
399.044	85.69
399.268	80.69
399.492	96.69
399.717	100.69
399.941	85.69
400.165	93.69
400.389	79.69
400.613	91.69
400.837	87.69
401.062	80.69
401.286	86.69
401.51	104.69
401.734	100.69
401.958	110.69
402.182	137.69
402.406	174.69
402.63	138.69
402.854	114.69
403.078	95.69
403.302	89.69
403.526	98.69
403.75	97.69
403.974	74.69
404.198	79.69
404.422	98.69
404.645	102.69
404.869	90.69
405.093	104.69
405.317	126.69
405.541	121.69
405.765	106.69
405.988	123.69
406.212	187.69
406.436	271.69
406.66	172.69
406.883	104.69
407.107	101.69
407.331	104.69
407.555	111.69
407.778	102.69
408.002	81.69
408.226	78.69
408.449	88.69
408.673	93.69
408.896	94.69
409.12	98.69
409.344	89.69
409.567	81.69
409.791	106.69
410.014	92.69
410.238	84.69
410.461	84.69
410.685	87.69
410.908	102.69
411.132	117.69
411.355	100.69
411.578	87.69
411.802	91.69
412.025	93.69
412.249	97.69
412.472	121.69
412.695	114.69
412.919	112.69
413.142	85.69
413.365	96.69
413.589	85.69
413.812	89.69
414.035	71.69
414.258	71.69
414.482	96.69
414.705	93.69
414.928	104.69
415.151	87.69
415.374	102.69
415.597	82.69
415.821	88.69
416.044	80.69
416.267	87.69
416.49	90.69
416.713	94.69
416.936	89.69
417.159	95.69
417.382	91.69
417.605	89.69
417.828	105.69
418.051	102.69
418.274	88.69
418.497	80.69
418.72	85.69
418.943	82.69
419.166	100.69
419.389	97.69
419.611	80.69
419.834	80.69
420.057	85.69
420.28	90.69
420.503	92.69
420.726	94.69
420.948	99.69
421.171	114.69
421.394	109.69
421.617	95.69
421.839	95.69
422.062	105.69
422.285	95.69
422.507	95.69
422.73	125.69
422.953	100.69
423.175	101.69
423.398	90.69
423.621	80.69
423.843	82.69
424.066	86.69
424.288	91.69
424.511	90.69
424.733	99.69
424.956	121.69
425.178	94.69
425.401	121.69
425.623	110.69
425.846	89.69
426.068	89.69
426.291	94.69
426.513	96.69
426.735	88.69
426.958	97.69
427.18	128.69
427.402	146.69
427.625	201.69
427.847	183.69
428.069	164.69
428.292	111.69
428.514	84.69
428.736	93.69
428.958	76.69
429.181	89.69
429.403	85.69
429.625	77.69
429.847	96.69
430.069	112.69
430.292	99.69
430.514	100.69
430.736	84.69
430.958	86.69
431.18	102.69
431.402	81.69
431.624	92.69
431.846	83.69
432.068	82.69
432.29	93.69
432.512	95.69
432.734	95.69
432.956	103.69
433.178	81.69
433.4	97.69
433.622	98.69
433.844	90.69
434.066	92.69
434.287	100.69
434.509	103.69
434.731	105.69
434.953	77.69
435.175	103.69
435.397	84.69
435.618	85.69
435.84	95.69
436.062	110.69
436.284	97.69
436.505	98.69
436.727	102.69
436.949	81.69
437.17	90.69
437.392	85.69
437.614	76.69
437.835	111.69
438.057	133.69
438.278	109.69
438.5	108.69
438.721	148.69
438.943	94.69
439.165	92.69
439.386	86.69
439.608	82.69
439.829	106.69
440.05	124.69
440.272	164.69
440.493	105.69
440.715	98.69
440.936	95.69
441.158	100.69
441.379	96.69
441.6	89.69
441.822	98.69
442.043	120.69
442.264	116.69
442.486	108.69
442.707	103.69
442.928	118.69
443.149	141.69
443.371	150.69
443.592	123.69
443.813	112.69
444.034	104.69
444.255	96.69
444.476	100.69
444.698	93.69
444.919	88.69
445.14	120.69
445.361	121.69
445.582	113.69
445.803	174.69
446.024	156.69
446.245	154.69
446.466	122.69
446.687	97.69
446.908	86.69
447.129	84.69
447.35	85.69
447.571	104.69
447.792	86.69
448.013	105.69
448.234	111.69
448.455	103.69
448.675	130.69
448.896	133.69
449.117	100.69
449.338	112.69
449.559	141.69
449.779	137.69
450	95.69
450.221	88.69
450.442	82.69
450.662	87.69
450.883	117.69
451.104	120.69
451.324	111.69
451.545	89.69
451.766	78.69
451.986	86.69
452.207	84.69
452.428	79.69
452.648	110.69
452.869	124.69
453.089	130.69
453.31	137.69
453.53	104.69
453.751	97.69
453.971	113.69
454.192	119.69
454.412	99.69
454.633	84.69
454.853	84.69
455.073	90.69
455.294	90.69
455.514	109.69
455.734	99.69
455.955	82.69
456.175	86.69
456.395	94.69
456.616	88.69
456.836	92.69
457.056	85.69
457.276	80.69
457.497	73.69
457.717	92.69
457.937	93.69
458.157	89.69
458.377	99.69
458.598	129.69
458.818	196.69
459.038	204.69
459.258	121.69
459.478	97.69
459.698	105.69
459.918	100.69
460.138	94.69
460.358	90.69
460.578	92.69
460.798	95.69
461.018	83.69
461.238	82.69
461.458	98.69
461.678	89.69
461.898	97.69
462.118	91.69
462.338	80.69
462.558	96.69
462.777	88.69
462.997	104.69
463.217	91.69
463.437	96.69
463.657	95.69
463.876	93.69
464.096	97.69
464.316	89.69
464.536	82.69
464.755	97.69
464.975	114.69
465.195	213.69
465.414	212.69
465.634	93.69
465.854	91.69
466.073	98.69
466.293	93.69
466.512	98.69
466.732	103.69
466.951	104.69
467.171	106.69
467.391	102.69
467.61	128.69
467.829	153.69
468.049	334.69
468.268	476.69
468.488	148.69
468.707	90.69
468.927	92.69
469.146	90.69
469.365	84.69
469.585	88.69
469.804	101.69
470.023	92.69
470.243	90.69
470.462	105.69
470.681	117.69
470.901	103.69
471.12	86.69
471.339	80.69
471.558	106.69
471.777	138.69
471.997	201.69
472.216	606.69
472.435	1388.69
472.654	367.69
472.873	129.69
473.092	96.69
473.311	102.69
473.53	92.69
473.749	96.69
473.968	100.69
474.187	100.69
474.406	109.69
474.625	97.69
474.844	100.69
475.063	85.69
475.282	89.69
475.501	84.69
475.72	97.69
475.939	97.69
476.158	104.69
476.377	96.69
476.596	89.69
476.814	95.69
477.033	104.69
477.252	86.69
477.471	92.69
477.69	97.69
477.908	92.69
478.127	87.69
478.346	90.69
478.564	89.69
478.783	103.69
479.002	107.69
479.22	84.69
479.439	102.69
479.658	123.69
479.876	122.69
480.095	113.69
480.313	116.69
480.532	143.69
480.751	199.69
480.969	574.69
481.188	2362.69
481.406	1418.69
481.624	249.69
481.843	94.69
482.061	105.69
482.28	96.69
482.498	97.69
482.717	81.69
482.935	88.69
483.153	87.69
483.372	98.69
483.59	106.69
483.808	87.69
484.027	84.69
484.245	109.69
484.463	92.69
484.681	96.69
484.9	88.69
485.118	92.69
485.336	96.69
485.554	94.69
485.772	111.69
485.99	109.69
486.209	110.69
486.427	99.69
486.645	117.69
486.863	117.69
487.081	105.69
487.299	98.69
487.517	104.69
487.735	98.69
487.953	86.69
488.171	100.69
488.389	89.69
488.607	100.69
488.825	90.69
489.043	98.69
489.261	94.69
489.479	98.69
489.696	72.69
489.914	91.69
490.132	87.69
490.35	90.69
490.568	89.69
490.786	90.69
491.003	86.69
491.221	109.69
491.439	81.69
491.657	111.69
491.874	90.69
492.092	82.69
492.31	87.69
492.527	106.69
492.745	96.69
492.963	92.69
493.18	85.69
493.398	101.69
493.615	94.69
493.833	98.69
494.05	89.69
494.268	85.69
494.485	91.69
494.703	88.69
494.92	92.69
495.138	97.69
495.355	77.69
495.573	94.69
495.79	100.69
496.008	95.69
496.225	105.69
496.442	75.69
496.66	89.69
496.877	100.69
497.094	100.69
497.312	90.69
497.529	89.69
497.746	87.69
497.963	104.69
498.181	92.69
498.398	89.69
498.615	114.69
498.832	104.69
499.049	82.69
499.267	86.69
499.484	86.69
499.701	85.69
499.918	90.69
500.135	85.69
500.352	79.69
500.569	99.69
500.786	90.69
501.003	104.69
501.22	95.69
501.437	98.69
501.654	113.69
501.871	106.69
502.088	81.69
502.305	92.69
502.522	89.69
502.739	93.69
502.956	92.69
503.172	97.69
503.389	102.69
503.606	127.69
503.823	111.69
504.04	99.69
504.256	89.69
504.473	82.69
504.69	98.69
504.907	101.69
505.123	84.69
505.34	94.69
505.557	94.69
505.773	94.69
505.99	90.69
506.207	89.69
506.423	79.69
506.64	96.69
506.856	79.69
507.073	94.69
507.289	99.69
507.506	105.69
507.722	110.69
507.939	120.69
508.155	101.69
508.372	92.69
508.588	93.69
508.805	84.69
509.021	82.69
509.238	95.69
509.454	98.69
509.67	109.69
509.887	103.69
510.103	130.69
510.319	226.69
510.536	780.69
510.752	2640.69
510.968	748.69
511.184	168.69
511.401	129.69
511.617	105.69
511.833	105.69
512.049	99.69
512.265	84.69
512.481	95.69
512.698	95.69
512.914	105.69
513.13	97.69
513.346	100.69
513.562	93.69
513.778	97.69
513.994	107.69
514.21	105.69
514.426	122.69
514.642	145.69
514.858	146.69
515.074	189.69
515.29	548.69
515.506	1983.69
515.721	716.69
515.937	176.69
516.153	113.69
516.369	93.69
516.585	88.69
516.801	97.69
517.016	109.69
517.232	104.69
517.448	106.69
517.664	86.69
517.879	97.69
518.095	109.69
518.311	98.69
518.527	103.69
518.742	98.69
518.958	89.69
519.173	97.69
519.389	106.69
519.605	89.69
519.82	101.69
520.036	90.69
520.251	133.69
520.467	132.69
520.682	106.69
520.898	104.69
521.113	114.69
521.329	160.69
521.544	257.69
521.76	728.69
521.975	3301.69
522.19	1970.69
522.406	418.69
522.621	154.69
522.836	112.69
523.052	104.69
523.267	95.69
523.482	89.69
523.698	99.69
523.913	118.69
524.128	93.69
524.343	90.69
524.559	89.69
524.774	93.69
524.989	103.69
525.204	117.69
525.419	101.69
525.634	94.69
525.849	96.69
526.064	82.69
526.28	93.69
526.495	91.69
526.71	96.69
526.925	105.69
527.14	89.69
527.355	91.69
527.57	103.69
527.785	94.69
527.999	92.69
528.214	79.69
528.429	80.69
528.644	90.69
528.859	86.69
529.074	90.69
529.289	129.69
529.503	230.69
529.718	121.69
529.933	90.69
530.148	100.69
530.363	86.69
530.577	84.69
530.792	94.69
531.007	98.69
531.221	81.69
531.436	85.69
531.651	85.69
531.865	79.69
532.08	94.69
532.295	93.69
532.509	99.69
532.724	105.69
532.938	105.69
533.153	97.69
533.367	96.69
533.582	94.69
533.796	103.69
534.011	102.69
534.225	83.69
534.44	86.69
534.654	81.69
534.868	78.69
535.083	81.69
535.297	99.69
535.511	109.69
535.726	99.69
535.94	103.69
536.154	80.69
536.369	98.69
536.583	101.69
536.797	88.69
537.011	100.69
537.225	93.69
537.44	95.69
537.654	97.69
537.868	106.69
538.082	93.69
538.296	90.69
538.51	96.69
538.724	97.69
538.938	98.69
539.153	102.69
539.367	118.69
539.581	105.69
539.795	95.69
540.009	79.69
540.222	88.69
540.436	92.69
540.65	90.69
540.864	77.69
541.078	92.69
541.292	84.69
541.506	91.69
541.72	85.69
541.934	94.69
542.147	87.69
542.361	89.69
542.575	88.69
542.789	89.69
543.002	81.69
543.216	101.69
543.43	112.69
543.644	96.69
543.857	97.69
544.071	98.69
544.285	92.69
544.498	80.69
544.712	80.69
544.925	92.69
545.139	80.69
545.352	104.69
545.566	93.69
545.779	111.69
545.993	97.69
546.206	94.69
546.42	80.69
546.633	84.69
546.847	85.69
547.06	91.69
547.274	76.69
547.487	79.69
547.7	83.69
547.914	88.69
548.127	100.69
548.34	76.69
548.554	89.69
548.767	100.69
548.98	90.69
549.193	93.69
549.407	96.69
549.62	97.69
549.833	94.69
550.046	96.69
550.259	95.69
550.473	74.69
550.686	88.69
550.899	82.69
551.112	77.69
551.325	100.69
551.538	106.69
551.751	73.69
551.964	101.69
552.177	99.69
552.39	81.69
552.603	92.69
552.816	95.69
553.029	103.69
553.242	95.69
553.455	79.69
553.667	107.69
553.88	109.69
554.093	99.69
554.306	103.69
554.519	109.69
554.732	102.69
554.944	89.69
555.157	110.69
555.37	91.69
555.583	95.69
555.795	90.69
556.008	87.69
556.221	88.69
556.433	84.69
556.646	97.69
556.859	95.69
557.071	102.69
557.284	82.69
557.496	86.69
557.709	82.69
557.921	85.69
558.134	89.69
558.346	96.69
558.559	70.69
558.771	79.69
558.984	91.69
559.196	87.69
559.409	82.69
559.621	92.69
559.833	93.69
560.046	85.69
560.258	87.69
560.47	115.69
560.683	103.69
560.895	96.69
561.107	83.69
561.32	89.69
561.532	89.69
561.744	93.69
561.956	86.69
562.168	93.69
562.381	94.69
562.593	76.69
562.805	86.69
563.017	105.69
563.229	80.69
563.441	91.69
563.653	92.69
563.865	84.69
564.077	80.69
564.289	85.69
564.501	97.69
564.713	86.69
564.925	93.69
565.137	125.69
565.349	84.69
565.561	76.69
565.773	89.69
565.985	101.69
566.197	84.69
566.408	86.69
566.62	76.69
566.832	86.69
567.044	87.69
567.255	94.69
567.467	93.69
567.679	88.69
567.891	87.69
568.102	84.69
568.314	102.69
568.526	79.69
568.737	80.69
568.949	93.69
569.161	80.69
569.372	89.69
569.584	88.69
569.795	92.69
570.007	125.69
570.218	254.69
570.43	122.69
570.641	97.69
570.853	80.69
571.064	73.69
571.276	98.69
571.487	80.69
571.698	89.69
571.91	76.69
572.121	89.69
572.333	90.69
572.544	80.69
572.755	95.69
572.966	94.69
573.178	77.69
573.389	93.69
573.6	88.69
573.811	85.69
574.023	90.69
574.234	96.69
574.445	82.69
574.656	92.69
574.867	82.69
575.078	96.69
575.289	87.69
575.501	86.69
575.712	92.69
575.923	85.69
576.134	84.69
576.345	77.69
576.556	92.69
576.767	94.69
576.978	93.69
577.188	85.69
577.399	88.69
577.61	90.69
577.821	96.69
578.032	113.69
578.243	276.69
578.454	819.69
578.665	238.69
578.875	110.69
579.086	94.69
579.297	86.69
579.508	98.69
579.718	87.69
579.929	84.69
580.14	77.69
580.35	99.69
580.561	82.69
580.772	89.69
580.982	76.69
581.193	92.69
581.403	86.69
581.614	96.69
581.825	79.69
582.035	82.69
582.246	73.69
582.456	80.69
582.667	91.69
582.877	84.69
583.087	102.69
583.298	104.69
583.508	85.69
583.719	100.69
583.929	81.69
584.139	87.69
584.35	92.69
584.56	83.69
584.77	76.69
584.981	93.69
585.191	85.69
585.401	97.69
585.611	86.69
585.821	100.69
586.032	80.69
586.242	100.69
586.452	97.69
586.662	90.69
586.872	84.69
587.082	82.69
587.292	77.69
587.502	72.69
587.713	78.69
587.923	84.69
588.133	92.69
588.343	84.69
588.553	84.69
588.762	100.69
588.972	129.69
589.182	313.69
589.392	180.69
589.602	116.69
589.812	252.69
590.022	123.69
590.232	97.69
590.441	81.69
590.651	86.69
590.861	85.69
591.071	88.69
591.281	88.69
591.49	84.69
591.7	87.69
591.91	84.69
592.119	101.69
592.329	78.69
592.539	80.69
592.748	77.69
592.958	86.69
593.167	93.69
593.377	104.69
593.587	89.69
593.796	98.69
594.006	84.69
594.215	103.69
594.424	96.69
594.634	73.69
594.843	91.69
595.053	88.69
595.262	69.69
595.472	81.69
595.681	83.69
595.89	83.69
596.1	83.69
596.309	89.69
596.518	98.69
596.727	90.69
596.937	96.69
597.146	85.69
597.355	86.69
597.564	87.69
597.774	101.69
597.983	99.69
598.192	87.69
598.401	98.69
598.61	87.69
598.819	88.69
599.028	85.69
599.237	78.69
599.446	87.69
599.655	88.69
599.864	87.69
600.073	68.69
600.282	100.69
600.491	85.69
600.7	97.69
600.909	93.69
601.118	84.69
601.327	89.69
601.536	101.69
601.745	101.69
601.953	89.69
602.162	84.69
602.371	94.69
602.58	100.69
602.789	94.69
602.997	79.69
603.206	85.69
603.415	91.69
603.623	81.69
603.832	84.69
604.041	93.69
604.249	96.69
604.458	94.69
604.666	83.69
604.875	72.69
605.084	85.69
605.292	73.69
605.501	87.69
605.709	76.69
605.918	82.69
606.126	110.69
606.334	90.69
606.543	82.69
606.751	86.69
606.96	93.69
607.168	92.69
607.376	86.69
607.585	85.69
607.793	87.69
608.001	86.69
608.21	90.69
608.418	83.69
608.626	94.69
608.834	93.69
609.043	97.69
609.251	79.69
609.459	90.69
609.667	92.69
609.875	98.69
610.083	90.69
610.291	101.69
610.499	97.69
610.707	86.69
610.916	98.69
611.124	80.69
611.332	78.69
611.54	77.69
611.748	95.69
611.955	81.69
612.163	79.69
612.371	80.69
612.579	98.69
612.787	90.69
612.995	88.69
613.203	98.69
613.411	86.69
613.618	88.69
613.826	83.69
614.034	82.69
614.242	94.69
614.449	86.69
614.657	88.69
614.865	79.69
615.072	86.69
615.28	90.69
615.488	85.69
615.695	97.69
615.903	77.69
616.111	109.69
616.318	96.69
616.526	94.69
616.733	102.69
616.941	90.69
617.148	81.69
617.356	93.69
617.563	79.69
617.771	88.69
617.978	87.69
618.185	101.69
618.393	86.69
618.6	75.69
618.807	77.69
619.015	82.69
619.222	82.69
619.429	87.69
619.637	100.69
619.844	89.69
620.051	82.69
620.258	73.69
620.466	90.69
620.673	72.69
620.88	90.69
621.087	78.69
621.294	81.69
621.501	80.69
621.708	94.69
621.915	111.69
622.122	80.69
622.329	81.69
622.536	80.69
622.743	71.69
622.95	76.69
623.157	82.69
623.364	73.69
623.571	97.69
623.778	83.69
623.985	94.69
624.192	87.69
624.399	79.69
624.606	92.69
624.812	88.69
625.019	86.69
625.226	92.69
625.433	81.69
625.639	80.69
625.846	70.69
626.053	83.69
626.259	86.69
626.466	88.69
626.673	79.69
626.879	97.69
627.086	88.69
627.293	96.69
627.499	74.69
627.706	83.69
627.912	85.69
628.119	73.69
628.325	84.69
628.532	96.69
628.738	100.69
628.945	86.69
629.151	82.69
629.357	83.69
629.564	83.69
629.77	91.69
629.976	94.69
630.183	84.69
630.389	94.69
630.595	87.69
630.802	93.69
631.008	78.69
631.214	88.69
631.42	72.69
631.627	88.69
631.833	89.69
632.039	97.69
632.245	89.69
632.451	83.69
632.657	83.69
632.863	91.69
633.069	82.69
633.275	80.69
633.481	74.69
633.688	88.69
633.893	83.69
634.099	79.69
634.305	90.69
634.511	80.69
634.717	87.69
634.923	76.69
635.129	68.69
635.335	87.69
635.541	86.69
635.747	82.69
635.952	96.69
636.158	112.69
636.364	224.69
636.57	202.69
636.775	111.69
636.981	103.69
637.187	86.69
637.392	87.69
637.598	79.69
637.804	94.69
638.009	90.69
638.215	94.69
638.421	78.69
638.626	84.69
638.832	87.69
639.037	85.69
639.243	73.69
639.448	77.69
639.654	70.69
639.859	76.69
640.065	81.69
640.27	83.69
640.475	79.69
640.681	88.69
640.886	89.69
641.091	78.69
641.297	74.69
641.502	84.69
641.707	96.69
641.913	93.69
642.118	70.69
642.323	80.69
642.528	100.69
642.733	81.69
642.939	100.69
643.144	94.69
643.349	84.69
643.554	93.69
643.759	81.69
643.964	82.69
644.169	85.69
644.374	81.69
644.579	90.69
644.784	86.69
644.989	91.69
645.194	80.69
645.399	91.69
645.604	80.69
645.809	69.69
646.014	68.69
646.219	89.69
646.423	83.69
646.628	93.69
646.833	90.69
647.038	91.69
647.243	82.69
647.447	79.69
647.652	85.69
647.857	79.69
648.062	83.69
648.266	95.69
648.471	88.69
648.676	96.69
648.88	87.69
649.085	88.69
649.289	87.69
649.494	106.69
649.698	114.69
649.903	97.69
650.107	87.69
650.312	76.69
650.516	80.69
650.721	92.69
650.925	81.69
651.13	83.69
651.334	73.69
651.539	78.69
651.743	84.69
651.947	78.69
652.152	82.69
652.356	88.69
652.56	81.69
652.764	93.69
652.969	94.69
653.173	76.69
653.377	94.69
653.581	79.69
653.785	82.69
653.99	78.69
654.194	81.69
654.398	78.69
654.602	82.69
654.806	97.69
655.01	103.69
655.214	95.69
655.418	74.69
655.622	90.69
655.826	94.69
656.03	80.69
656.234	93.69
656.438	97.69
656.642	94.69
656.846	92.69
657.049	87.69
657.253	83.69
657.457	86.69
657.661	81.69
657.865	88.69
658.068	81.69
658.272	90.69
658.476	105.69
658.68	83.69
658.883	76.69
659.087	69.69
659.291	81.69
659.494	84.69
659.698	78.69
659.901	68.69
660.105	71.69
660.309	76.69
660.512	84.69
660.716	71.69
660.919	76.69
661.123	88.69
661.326	93.69
661.53	88.69
661.733	83.69
661.936	86.69
662.14	80.69
662.343	58.69
662.546	78.69
662.75	94.69
662.953	83.69
663.156	86.69
663.36	87.69
663.563	78.69
663.766	82.69
663.969	94.69
664.173	72.69
664.376	76.69
664.579	86.69
664.782	76.69
664.985	92.69
665.188	76.69
665.391	79.69
665.594	77.69
665.797	80.69
666	80.69
666.203	80.69
666.406	75.69
666.609	81.69
666.812	86.69
667.015	90.69
667.218	86.69
667.421	80.69
667.624	84.69
667.827	88.69
668.03	94.69
668.232	81.69
668.435	83.69
668.638	78.69
668.841	83.69
669.043	92.69
669.246	79.69
669.449	89.69
669.651	84.69
669.854	58.69
670.057	80.69
670.259	78.69
670.462	78.69
670.665	96.69
670.867	83.69
671.07	82.69
671.272	92.69
671.475	80.69
671.677	73.69
671.88	88.69
672.082	86.69
672.284	71.69
672.487	100.69
672.689	95.69
672.892	78.69
