Data from Circ_1987_H10_HRD10591_00096.txt Node
Date: Wed Jan 03 12:10:52 EST 2024
User: Yrep
Spectrometer: HR+D1059
Trigger mode: 1
Integration Time (sec): 1.000000E-1
Scans to average: 1
Electric dark correction enabled: true
Nonlinearity correction enabled: false
Boxcar width: 0
XAxis mode: Wavelengths
Number of Pixels in Spectrum: 2048
>>>>>Begin Spectral Data<<<<<
223.165	-24.38
223.4	-24.38
223.635	-24.38
223.869	-11.38
224.104	-20.38
224.338	-32.38
224.573	-21.38
224.808	-19.38
225.042	-19.38
225.277	-3.38
225.511	5.62
225.746	5.62
225.98	6.62
226.215	22.62
226.449	28.62
226.683	20.62
226.918	21.62
227.152	40.62
227.387	48.62
227.621	30.62
227.856	54.62
228.09	46.62
228.324	46.62
228.559	60.62
228.793	56.62
229.027	60.62
229.262	66.62
229.496	82.62
229.73	99.62
229.964	88.62
230.199	86.62
230.433	89.62
230.667	84.62
230.901	77.62
231.136	85.62
231.37	79.62
231.604	70.62
231.838	96.62
232.072	78.62
232.306	76.62
232.541	82.62
232.775	99.62
233.009	78.62
233.243	86.62
233.477	77.62
233.711	78.62
233.945	73.62
234.179	83.62
234.413	88.62
234.647	72.62
234.881	84.62
235.115	86.62
235.349	71.62
235.583	78.62
235.817	71.62
236.051	86.62
236.285	90.62
236.519	74.62
236.753	76.62
236.987	79.62
237.221	90.62
237.455	95.62
237.689	66.62
237.922	84.62
238.156	78.62
238.39	76.62
238.624	73.62
238.858	67.62
239.091	76.62
239.325	75.62
239.559	81.62
239.793	78.62
240.027	71.62
240.26	69.62
240.494	71.62
240.728	85.62
240.961	77.62
241.195	90.62
241.429	91.62
241.662	69.62
241.896	77.62
242.13	81.62
242.363	65.62
242.597	54.62
242.83	71.62
243.064	70.62
243.298	70.62
243.531	76.62
243.765	80.62
243.998	78.62
244.232	93.62
244.465	96.62
244.699	93.62
244.932	92.62
245.166	81.62
245.399	82.62
245.633	79.62
245.866	79.62
246.099	77.62
246.333	71.62
246.566	74.62
246.8	85.62
247.033	78.62
247.266	74.62
247.5	74.62
247.733	81.62
247.966	78.62
248.2	78.62
248.433	66.62
248.666	79.62
248.899	82.62
249.133	110.62
249.366	108.62
249.599	96.62
249.832	88.62
250.066	86.62
250.299	84.62
250.532	86.62
250.765	78.62
250.998	82.62
251.231	72.62
251.465	95.62
251.698	80.62
251.931	79.62
252.164	87.62
252.397	78.62
252.63	95.62
252.863	81.62
253.096	81.62
253.329	76.62
253.562	89.62
253.795	94.62
254.028	78.62
254.261	87.62
254.494	94.62
254.727	89.62
254.96	82.62
255.193	67.62
255.426	85.62
255.659	83.62
255.892	97.62
256.124	111.62
256.357	90.62
256.59	83.62
256.823	89.62
257.056	91.62
257.289	93.62
257.521	82.62
257.754	89.62
257.987	83.62
258.22	81.62
258.452	116.62
258.685	99.62
258.918	83.62
259.151	94.62
259.383	84.62
259.616	83.62
259.849	80.62
260.081	92.62
260.314	85.62
260.547	97.62
260.779	107.62
261.012	104.62
261.244	107.62
261.477	104.62
261.71	111.62
261.942	152.62
262.175	173.62
262.407	114.62
262.64	87.62
262.872	90.62
263.105	83.62
263.337	83.62
263.57	86.62
263.802	76.62
264.035	98.62
264.267	72.62
264.499	76.62
264.732	106.62
264.964	97.62
265.197	94.62
265.429	78.62
265.661	82.62
265.894	67.62
266.126	79.62
266.358	78.62
266.591	77.62
266.823	96.62
267.055	87.62
267.287	81.62
267.52	84.62
267.752	72.62
267.984	71.62
268.216	85.62
268.448	80.62
268.681	88.62
268.913	90.62
269.145	80.62
269.377	79.62
269.609	78.62
269.841	93.62
270.073	84.62
270.306	85.62
270.538	96.62
270.77	89.62
271.002	89.62
271.234	97.62
271.466	95.62
271.698	87.62
271.93	91.62
272.162	83.62
272.394	93.62
272.626	84.62
272.858	94.62
273.09	98.62
273.322	94.62
273.553	82.62
273.785	83.62
274.017	88.62
274.249	88.62
274.481	98.62
274.713	98.62
274.945	92.62
275.176	98.62
275.408	105.62
275.64	128.62
275.872	127.62
276.104	112.62
276.335	102.62
276.567	142.62
276.799	177.62
277.031	227.62
277.262	247.62
277.494	194.62
277.726	118.62
277.957	98.62
278.189	96.62
278.421	95.62
278.652	109.62
278.884	83.62
279.115	87.62
279.347	88.62
279.579	115.62
279.81	157.62
280.042	253.62
280.273	359.62
280.505	253.62
280.736	135.62
280.968	92.62
281.199	95.62
281.431	100.62
281.662	111.62
281.894	84.62
282.125	110.62
282.356	144.62
282.588	177.62
282.819	151.62
283.051	105.62
283.282	79.62
283.513	103.62
283.745	98.62
283.976	94.62
284.207	85.62
284.439	94.62
284.67	100.62
284.901	82.62
285.132	93.62
285.364	87.62
285.595	75.62
285.826	90.62
286.057	94.62
286.288	82.62
286.52	86.62
286.751	88.62
286.982	74.62
287.213	80.62
287.444	87.62
287.675	82.62
287.906	102.62
288.138	85.62
288.369	114.62
288.6	92.62
288.831	86.62
289.062	95.62
289.293	86.62
289.524	101.62
289.755	87.62
289.986	82.62
290.217	98.62
290.448	95.62
290.679	104.62
290.91	85.62
291.141	80.62
291.371	94.62
291.602	83.62
291.833	82.62
292.064	94.62
292.295	94.62
292.526	100.62
292.757	87.62
292.987	76.62
293.218	90.62
293.449	80.62
293.68	86.62
293.91	76.62
294.141	88.62
294.372	78.62
294.603	88.62
294.833	106.62
295.064	84.62
295.295	81.62
295.525	97.62
295.756	110.62
295.987	142.62
296.217	194.62
296.448	151.62
296.679	90.62
296.909	92.62
297.14	98.62
297.37	91.62
297.601	94.62
297.831	101.62
298.062	98.62
298.292	98.62
298.523	90.62
298.753	89.62
298.984	91.62
299.214	87.62
299.445	91.62
299.675	93.62
299.905	111.62
300.136	96.62
300.366	78.62
300.597	94.62
300.827	87.62
301.057	119.62
301.288	105.62
301.518	96.62
301.748	100.62
301.979	139.62
302.209	100.62
302.439	111.62
302.669	88.62
302.9	85.62
303.13	93.62
303.36	125.62
303.59	162.62
303.82	173.62
304.051	116.62
304.281	90.62
304.511	92.62
304.741	89.62
304.971	95.62
305.201	100.62
305.431	92.62
305.661	99.62
305.891	82.62
306.121	91.62
306.352	119.62
306.582	125.62
306.812	117.62
307.042	137.62
307.272	191.62
307.502	212.62
307.731	190.62
307.961	122.62
308.191	100.62
308.421	98.62
308.651	93.62
308.881	95.62
309.111	103.62
309.341	102.62
309.571	104.62
309.8	102.62
310.03	107.62
310.26	108.62
310.49	111.62
310.72	123.62
310.949	154.62
311.179	132.62
311.409	101.62
311.639	103.62
311.868	119.62
312.098	118.62
312.328	103.62
312.557	111.62
312.787	141.62
313.017	118.62
313.246	109.62
313.476	111.62
313.706	99.62
313.935	112.62
314.165	120.62
314.394	113.62
314.624	116.62
314.853	107.62
315.083	92.62
315.312	93.62
315.542	93.62
315.771	93.62
316.001	89.62
316.23	96.62
316.46	93.62
316.689	94.62
316.919	103.62
317.148	116.62
317.377	108.62
317.607	98.62
317.836	99.62
318.065	112.62
318.295	94.62
318.524	82.62
318.753	92.62
318.983	105.62
319.212	103.62
319.441	147.62
319.67	131.62
319.9	109.62
320.129	107.62
320.358	95.62
320.587	97.62
320.816	109.62
321.046	123.62
321.275	91.62
321.504	93.62
321.733	101.62
321.962	94.62
322.191	116.62
322.42	117.62
322.649	124.62
322.878	119.62
323.108	146.62
323.337	137.62
323.566	202.62
323.795	205.62
324.024	264.62
324.253	509.62
324.482	1055.62
324.71	2106.62
324.939	2802.62
325.168	1064.62
325.397	321.62
325.626	162.62
325.855	142.62
326.084	144.62
326.313	146.62
326.542	186.62
326.77	275.62
326.999	516.62
327.228	1072.62
327.457	1923.62
327.686	1614.62
327.914	652.62
328.143	724.62
328.372	967.62
328.6	506.62
328.829	235.62
329.058	220.62
329.287	246.62
329.515	235.62
329.744	311.62
329.972	677.62
330.201	1370.62
330.43	2100.62
330.658	894.62
330.887	383.62
331.115	248.62
331.344	143.62
331.572	146.62
331.801	130.62
332.03	163.62
332.258	137.62
332.486	123.62
332.715	113.62
332.943	144.62
333.172	145.62
333.4	154.62
333.629	204.62
333.857	296.62
334.085	586.62
334.314	1242.62
334.542	2557.62
334.771	2404.62
334.999	586.62
335.227	220.62
335.455	148.62
335.684	118.62
335.912	111.62
336.14	112.62
336.369	132.62
336.597	139.62
336.825	113.62
337.053	94.62
337.281	109.62
337.51	102.62
337.738	105.62
337.966	106.62
338.194	123.62
338.422	124.62
338.65	111.62
338.878	91.62
339.106	92.62
339.334	110.62
339.562	98.62
339.79	91.62
340.018	107.62
340.246	100.62
340.474	97.62
340.702	93.62
340.93	105.62
341.158	107.62
341.386	106.62
341.614	103.62
341.842	104.62
342.07	94.62
342.298	104.62
342.526	96.62
342.754	95.62
342.981	88.62
343.209	93.62
343.437	109.62
343.665	97.62
343.893	90.62
344.12	96.62
344.348	94.62
344.576	95.62
344.804	94.62
345.031	100.62
345.259	107.62
345.487	107.62
345.714	86.62
345.942	97.62
346.17	85.62
346.397	102.62
346.625	103.62
346.853	99.62
347.08	88.62
347.308	98.62
347.535	111.62
347.763	126.62
347.99	118.62
348.218	118.62
348.445	129.62
348.673	121.62
348.9	92.62
349.128	102.62
349.355	100.62
349.583	90.62
349.81	96.62
350.037	95.62
350.265	84.62
350.492	109.62
350.72	101.62
350.947	106.62
351.174	97.62
351.402	136.62
351.629	102.62
351.856	121.62
352.083	114.62
352.311	120.62
352.538	131.62
352.765	120.62
352.992	131.62
353.22	123.62
353.447	130.62
353.674	102.62
353.901	103.62
354.128	95.62
354.355	98.62
354.583	106.62
354.81	99.62
355.037	93.62
355.264	101.62
355.491	83.62
355.718	79.62
355.945	87.62
356.172	92.62
356.399	87.62
356.626	84.62
356.853	79.62
357.08	74.62
357.307	91.62
357.534	93.62
357.761	94.62
357.988	87.62
358.215	96.62
358.441	92.62
358.668	91.62
358.895	91.62
359.122	86.62
359.349	88.62
359.576	103.62
359.802	127.62
360.029	166.62
360.256	151.62
360.483	112.62
360.709	88.62
360.936	93.62
361.163	106.62
361.39	104.62
361.616	118.62
361.843	113.62
362.07	104.62
362.296	119.62
362.523	97.62
362.749	85.62
362.976	98.62
363.203	98.62
363.429	97.62
363.656	101.62
363.882	86.62
364.109	102.62
364.335	98.62
364.562	109.62
364.788	94.62
365.015	109.62
365.241	108.62
365.468	130.62
365.694	133.62
365.92	125.62
366.147	100.62
366.373	94.62
366.599	86.62
366.826	94.62
367.052	80.62
367.278	98.62
367.505	101.62
367.731	108.62
367.957	116.62
368.184	108.62
368.41	122.62
368.636	136.62
368.862	142.62
369.089	130.62
369.315	105.62
369.541	97.62
369.767	96.62
369.993	101.62
370.219	108.62
370.445	95.62
370.672	79.62
370.898	94.62
371.124	90.62
371.35	95.62
371.576	84.62
371.802	72.62
372.028	94.62
372.254	88.62
372.48	91.62
372.706	81.62
372.932	82.62
373.158	98.62
373.384	75.62
373.61	90.62
373.835	86.62
374.061	86.62
374.287	76.62
374.513	91.62
374.739	88.62
374.965	85.62
375.191	91.62
375.416	80.62
375.642	80.62
375.868	94.62
376.094	92.62
376.319	77.62
376.545	95.62
376.771	77.62
376.997	101.62
377.222	80.62
377.448	85.62
377.674	82.62
377.899	84.62
378.125	81.62
378.35	80.62
378.576	101.62
378.802	82.62
379.027	85.62
379.253	90.62
379.478	82.62
379.704	82.62
379.929	101.62
380.155	90.62
380.38	94.62
380.606	95.62
380.831	107.62
381.057	90.62
381.282	86.62
381.507	96.62
381.733	92.62
381.958	89.62
382.184	97.62
382.409	103.62
382.634	90.62
382.86	92.62
383.085	91.62
383.31	100.62
383.535	90.62
383.761	100.62
383.986	95.62
384.211	100.62
384.436	94.62
384.662	103.62
384.887	100.62
385.112	101.62
385.337	84.62
385.562	95.62
385.787	105.62
386.013	104.62
386.238	130.62
386.463	105.62
386.688	95.62
386.913	95.62
387.138	94.62
387.363	96.62
387.588	95.62
387.813	79.62
388.038	101.62
388.263	102.62
388.488	89.62
388.713	85.62
388.938	81.62
389.163	88.62
389.387	104.62
389.612	92.62
389.837	87.62
390.062	90.62
390.287	93.62
390.512	82.62
390.736	92.62
390.961	85.62
391.186	99.62
391.411	79.62
391.636	81.62
391.86	78.62
392.085	80.62
392.31	90.62
392.534	74.62
392.759	82.62
392.984	80.62
393.208	85.62
393.433	101.62
393.658	73.62
393.882	82.62
394.107	83.62
394.331	104.62
394.556	89.62
394.78	88.62
395.005	88.62
395.229	85.62
395.454	90.62
395.678	85.62
395.903	98.62
396.127	94.62
396.352	91.62
396.576	94.62
396.801	91.62
397.025	90.62
397.249	83.62
397.474	78.62
397.698	94.62
397.922	89.62
398.147	88.62
398.371	90.62
398.595	98.62
398.82	74.62
399.044	86.62
399.268	86.62
399.492	74.62
399.717	80.62
399.941	102.62
400.165	96.62
400.389	72.62
400.613	88.62
400.837	86.62
401.062	89.62
401.286	91.62
401.51	102.62
401.734	94.62
401.958	117.62
402.182	178.62
402.406	259.62
402.63	174.62
402.854	116.62
403.078	109.62
403.302	100.62
403.526	99.62
403.75	83.62
403.974	108.62
404.198	80.62
404.422	92.62
404.645	109.62
404.869	101.62
405.093	110.62
405.317	156.62
405.541	160.62
405.765	148.62
405.988	160.62
406.212	258.62
406.436	412.62
406.66	255.62
406.883	156.62
407.107	106.62
407.331	111.62
407.555	108.62
407.778	113.62
408.002	87.62
408.226	104.62
408.449	92.62
408.673	83.62
408.896	100.62
409.12	100.62
409.344	93.62
409.567	92.62
409.791	80.62
410.014	100.62
410.238	92.62
410.461	81.62
410.685	94.62
410.908	94.62
411.132	122.62
411.355	113.62
411.578	97.62
411.802	89.62
412.025	100.62
412.249	102.62
412.472	123.62
412.695	145.62
412.919	102.62
413.142	100.62
413.365	104.62
413.589	84.62
413.812	95.62
414.035	94.62
414.258	107.62
414.482	95.62
414.705	74.62
414.928	80.62
415.151	81.62
415.374	98.62
415.597	75.62
415.821	90.62
416.044	100.62
416.267	88.62
416.49	97.62
416.713	85.62
416.936	100.62
417.159	86.62
417.382	88.62
417.605	107.62
417.828	121.62
418.051	110.62
418.274	86.62
418.497	64.62
418.72	79.62
418.943	80.62
419.166	88.62
419.389	94.62
419.611	79.62
419.834	87.62
420.057	103.62
420.28	116.62
420.503	84.62
420.726	95.62
420.948	101.62
421.171	96.62
421.394	86.62
421.617	84.62
421.839	87.62
422.062	84.62
422.285	102.62
422.507	92.62
422.73	119.62
422.953	96.62
423.175	101.62
423.398	100.62
423.621	87.62
423.843	104.62
424.066	93.62
424.288	101.62
424.511	91.62
424.733	104.62
424.956	119.62
425.178	102.62
425.401	110.62
425.623	109.62
425.846	94.62
426.068	90.62
426.291	100.62
426.513	103.62
426.735	99.62
426.958	112.62
427.18	120.62
427.402	210.62
427.625	323.62
427.847	276.62
428.069	215.62
428.292	130.62
428.514	94.62
428.736	103.62
428.958	92.62
429.181	93.62
429.403	83.62
429.625	98.62
429.847	100.62
430.069	114.62
430.292	94.62
430.514	100.62
430.736	81.62
430.958	71.62
431.18	91.62
431.402	96.62
431.624	98.62
431.846	79.62
432.068	79.62
432.29	94.62
432.512	96.62
432.734	97.62
432.956	90.62
433.178	99.62
433.4	98.62
433.622	102.62
433.844	94.62
434.066	92.62
434.287	82.62
434.509	93.62
434.731	106.62
434.953	107.62
435.175	99.62
435.397	102.62
435.618	100.62
435.84	104.62
436.062	142.62
436.284	141.62
436.505	110.62
436.727	102.62
436.949	97.62
437.17	88.62
437.392	80.62
437.614	99.62
437.835	131.62
438.057	178.62
438.278	146.62
438.5	107.62
438.721	128.62
438.943	116.62
439.165	90.62
439.386	97.62
439.608	113.62
439.829	119.62
440.05	157.62
440.272	193.62
440.493	122.62
440.715	82.62
440.936	94.62
441.158	98.62
441.379	99.62
441.6	122.62
441.822	108.62
442.043	108.62
442.264	134.62
442.486	127.62
442.707	106.62
442.928	135.62
443.149	208.62
443.371	208.62
443.592	132.62
443.813	147.62
444.034	115.62
444.255	80.62
444.476	84.62
444.698	89.62
444.919	98.62
445.14	138.62
445.361	135.62
445.582	129.62
445.803	204.62
446.024	190.62
446.245	163.62
446.466	122.62
446.687	102.62
446.908	80.62
447.129	96.62
447.35	94.62
447.571	110.62
447.792	103.62
448.013	125.62
448.234	141.62
448.455	115.62
448.675	135.62
448.896	143.62
449.117	130.62
449.338	121.62
449.559	151.62
449.779	155.62
450	88.62
450.221	98.62
450.442	103.62
450.662	108.62
450.883	142.62
451.104	170.62
451.324	113.62
451.545	99.62
451.766	92.62
451.986	85.62
452.207	91.62
452.428	108.62
452.648	118.62
452.869	148.62
453.089	172.62
453.31	174.62
453.53	126.62
453.751	104.62
453.971	134.62
454.192	167.62
454.412	105.62
454.633	90.62
454.853	91.62
455.073	80.62
455.294	104.62
455.514	111.62
455.734	104.62
455.955	86.62
456.175	94.62
456.395	90.62
456.616	81.62
456.836	90.62
457.056	78.62
457.276	88.62
457.497	95.62
457.717	88.62
457.937	99.62
458.157	95.62
458.377	95.62
458.598	150.62
458.818	260.62
459.038	283.62
459.258	181.62
459.478	110.62
459.698	92.62
459.918	83.62
460.138	105.62
460.358	97.62
460.578	89.62
460.798	102.62
461.018	86.62
461.238	85.62
461.458	99.62
461.678	65.62
461.898	90.62
462.118	80.62
462.338	88.62
462.558	93.62
462.777	86.62
462.997	112.62
463.217	120.62
463.437	109.62
463.657	100.62
463.876	93.62
464.096	81.62
464.316	102.62
464.536	92.62
464.755	110.62
464.975	138.62
465.195	307.62
465.414	322.62
465.634	123.62
465.854	95.62
466.073	104.62
466.293	101.62
466.512	83.62
466.732	91.62
466.951	103.62
467.171	102.62
467.391	102.62
467.61	170.62
467.829	271.62
468.049	814.62
468.268	1230.62
468.488	299.62
468.707	121.62
468.927	86.62
469.146	96.62
469.365	78.62
469.585	94.62
469.804	123.62
470.023	117.62
470.243	111.62
470.462	120.62
470.681	168.62
470.901	112.62
471.12	105.62
471.339	103.62
471.558	121.62
471.777	170.62
471.997	388.62
472.216	1541.62
472.435	3658.62
472.654	800.62
472.873	194.62
473.092	119.62
473.311	108.62
473.53	90.62
473.749	104.62
473.968	121.62
474.187	136.62
474.406	127.62
474.625	93.62
474.844	77.62
475.063	85.62
475.282	99.62
475.501	84.62
475.72	98.62
475.939	99.62
476.158	97.62
476.377	90.62
476.596	95.62
476.814	113.62
477.033	109.62
477.252	106.62
477.471	86.62
477.69	92.62
477.908	101.62
478.127	91.62
478.346	99.62
478.564	99.62
478.783	104.62
479.002	104.62
479.22	119.62
479.439	128.62
479.658	171.62
479.876	156.62
480.095	131.62
480.313	138.62
480.532	197.62
480.751	364.62
480.969	1357.62
481.188	5980.62
481.406	3369.62
481.624	455.62
481.843	156.62
482.061	135.62
482.28	106.62
482.498	99.62
482.717	85.62
482.935	102.62
483.153	87.62
483.372	99.62
483.59	97.62
483.808	101.62
484.027	103.62
484.245	102.62
484.463	105.62
484.681	97.62
484.9	111.62
485.118	95.62
485.336	103.62
485.554	110.62
485.772	98.62
485.99	108.62
486.209	109.62
486.427	116.62
486.645	148.62
486.863	138.62
487.081	122.62
487.299	115.62
487.517	102.62
487.735	88.62
487.953	102.62
488.171	104.62
488.389	103.62
488.607	117.62
488.825	101.62
489.043	93.62
489.261	84.62
489.479	91.62
489.696	93.62
489.914	97.62
490.132	95.62
490.35	87.62
490.568	88.62
490.786	89.62
491.003	97.62
491.221	102.62
491.439	93.62
491.657	87.62
491.874	87.62
492.092	91.62
492.31	84.62
492.527	85.62
492.745	97.62
492.963	96.62
493.18	104.62
493.398	87.62
493.615	91.62
493.833	89.62
494.05	82.62
494.268	92.62
494.485	97.62
494.703	82.62
494.92	81.62
495.138	86.62
495.355	80.62
495.573	110.62
495.79	103.62
496.008	85.62
496.225	70.62
496.442	81.62
496.66	96.62
496.877	95.62
497.094	87.62
497.312	74.62
497.529	107.62
497.746	91.62
497.963	76.62
498.181	96.62
498.398	88.62
498.615	124.62
498.832	103.62
499.049	100.62
499.267	94.62
499.484	102.62
499.701	95.62
499.918	95.62
500.135	86.62
500.352	92.62
500.569	104.62
500.786	98.62
501.003	99.62
501.22	92.62
501.437	91.62
501.654	99.62
501.871	122.62
502.088	121.62
502.305	97.62
502.522	90.62
502.739	89.62
502.956	93.62
503.172	104.62
503.389	110.62
503.606	134.62
503.823	112.62
504.04	100.62
504.256	87.62
504.473	105.62
504.69	96.62
504.907	96.62
505.123	88.62
505.34	82.62
505.557	98.62
505.773	95.62
505.99	101.62
506.207	92.62
506.423	89.62
506.64	69.62
506.856	92.62
507.073	88.62
507.289	101.62
507.506	120.62
507.722	176.62
507.939	155.62
508.155	92.62
508.372	101.62
508.588	84.62
508.805	104.62
509.021	115.62
509.238	104.62
509.454	123.62
509.67	113.62
509.887	112.62
510.103	166.62
510.319	287.62
510.536	1210.62
510.752	4242.62
510.968	1075.62
511.184	212.62
511.401	156.62
511.617	124.62
511.833	132.62
512.049	108.62
512.265	100.62
512.481	88.62
512.698	91.62
512.914	99.62
513.13	99.62
513.346	92.62
513.562	105.62
513.778	107.62
513.994	117.62
514.21	133.62
514.426	185.62
514.642	213.62
514.858	176.62
515.074	282.62
515.29	995.62
515.506	3718.62
515.721	1222.62
515.937	258.62
516.153	156.62
516.369	114.62
516.585	122.62
516.801	120.62
517.016	103.62
517.232	101.62
517.448	93.62
517.664	115.62
517.879	117.62
518.095	96.62
518.311	117.62
518.527	114.62
518.742	106.62
518.958	95.62
519.173	98.62
519.389	112.62
519.605	131.62
519.82	112.62
520.036	128.62
520.251	181.62
520.467	147.62
520.682	131.62
520.898	144.62
521.113	166.62
521.329	224.62
521.544	429.62
521.76	1343.62
521.975	6216.62
522.19	3536.62
522.406	664.62
522.621	211.62
522.836	117.62
523.052	121.62
523.267	105.62
523.482	119.62
523.698	115.62
523.913	175.62
524.128	144.62
524.343	104.62
524.559	116.62
524.774	93.62
524.989	109.62
525.204	148.62
525.419	119.62
525.634	103.62
525.849	98.62
526.064	100.62
526.28	110.62
526.495	94.62
526.71	89.62
526.925	94.62
527.14	97.62
527.355	100.62
527.57	87.62
527.785	95.62
527.999	90.62
528.214	98.62
528.429	102.62
528.644	91.62
528.859	93.62
529.074	112.62
529.289	180.62
529.503	358.62
529.718	138.62
529.933	84.62
530.148	100.62
530.363	93.62
530.577	100.62
530.792	85.62
531.007	78.62
531.221	98.62
531.436	86.62
531.651	77.62
531.865	95.62
532.08	97.62
532.295	88.62
532.509	105.62
532.724	97.62
532.938	89.62
533.153	99.62
533.367	90.62
533.582	93.62
533.796	104.62
534.011	105.62
534.225	97.62
534.44	93.62
534.654	94.62
534.868	92.62
535.083	102.62
535.297	96.62
535.511	109.62
535.726	114.62
535.94	97.62
536.154	104.62
536.369	99.62
536.583	96.62
536.797	83.62
537.011	86.62
537.225	88.62
537.44	110.62
537.654	107.62
537.868	90.62
538.082	92.62
538.296	93.62
538.51	94.62
538.724	94.62
538.938	106.62
539.153	108.62
539.367	135.62
539.581	109.62
539.795	94.62
540.009	94.62
540.222	82.62
540.436	82.62
540.65	96.62
540.864	113.62
541.078	97.62
541.292	84.62
541.506	102.62
541.72	85.62
541.934	93.62
542.147	85.62
542.361	89.62
542.575	84.62
542.789	100.62
543.002	83.62
543.216	106.62
543.43	108.62
543.644	91.62
543.857	106.62
544.071	95.62
544.285	95.62
544.498	86.62
544.712	99.62
544.925	104.62
545.139	93.62
545.352	93.62
545.566	91.62
545.779	79.62
545.993	86.62
546.206	96.62
546.42	101.62
546.633	88.62
546.847	96.62
547.06	87.62
547.274	98.62
547.487	79.62
547.7	88.62
547.914	97.62
548.127	88.62
548.34	82.62
548.554	76.62
548.767	80.62
548.98	83.62
549.193	90.62
549.407	103.62
549.62	86.62
549.833	91.62
550.046	87.62
550.259	98.62
550.473	101.62
550.686	86.62
550.899	87.62
551.112	85.62
551.325	91.62
551.538	103.62
551.751	91.62
551.964	90.62
552.177	86.62
552.39	92.62
552.603	84.62
552.816	94.62
553.029	91.62
553.242	92.62
553.455	111.62
553.667	140.62
553.88	117.62
554.093	103.62
554.306	124.62
554.519	133.62
554.732	85.62
554.944	104.62
555.157	88.62
555.37	103.62
555.583	102.62
555.795	107.62
556.008	102.62
556.221	92.62
556.433	80.62
556.646	83.62
556.859	72.62
557.071	88.62
557.284	85.62
557.496	85.62
557.709	104.62
557.921	90.62
558.134	99.62
558.346	74.62
558.559	91.62
558.771	71.62
558.984	83.62
559.196	86.62
559.409	100.62
559.621	99.62
559.833	98.62
560.046	102.62
560.258	132.62
560.47	147.62
560.683	101.62
560.895	85.62
561.107	88.62
561.32	96.62
561.532	88.62
561.744	94.62
561.956	89.62
562.168	97.62
562.381	97.62
562.593	87.62
562.805	88.62
563.017	90.62
563.229	86.62
563.441	100.62
563.653	81.62
563.865	82.62
564.077	88.62
564.289	83.62
564.501	78.62
564.713	92.62
564.925	106.62
565.137	120.62
565.349	93.62
565.561	90.62
565.773	82.62
565.985	83.62
566.197	91.62
566.408	80.62
566.62	87.62
566.832	82.62
567.044	82.62
567.255	100.62
567.467	104.62
567.679	90.62
567.891	95.62
568.102	88.62
568.314	81.62
568.526	77.62
568.737	98.62
568.949	99.62
569.161	99.62
569.372	71.62
569.584	80.62
569.795	98.62
570.007	142.62
570.218	366.62
570.43	166.62
570.641	95.62
570.853	87.62
571.064	88.62
571.276	78.62
571.487	97.62
571.698	86.62
571.91	84.62
572.121	85.62
572.333	74.62
572.544	86.62
572.755	78.62
572.966	83.62
573.178	91.62
573.389	85.62
573.6	82.62
573.811	77.62
574.023	92.62
574.234	79.62
574.445	80.62
574.656	80.62
574.867	77.62
575.078	89.62
575.289	84.62
575.501	108.62
575.712	95.62
575.923	97.62
576.134	89.62
576.345	97.62
576.556	94.62
576.767	103.62
576.978	99.62
577.188	92.62
577.399	91.62
577.61	106.62
577.821	106.62
578.032	130.62
578.243	406.62
578.454	1322.62
578.665	311.62
578.875	110.62
579.086	91.62
579.297	86.62
579.508	77.62
579.718	90.62
579.929	97.62
580.14	91.62
580.35	92.62
580.561	84.62
580.772	100.62
580.982	90.62
581.193	82.62
581.403	86.62
581.614	77.62
581.825	82.62
582.035	84.62
582.246	87.62
582.456	93.62
582.667	85.62
582.877	94.62
583.087	78.62
583.298	87.62
583.508	96.62
583.719	88.62
583.929	104.62
584.139	94.62
584.35	75.62
584.56	80.62
584.77	79.62
584.981	84.62
585.191	98.62
585.401	83.62
585.611	83.62
585.821	93.62
586.032	89.62
586.242	76.62
586.452	95.62
586.662	80.62
586.872	89.62
587.082	69.62
587.292	78.62
587.502	95.62
587.713	83.62
587.923	82.62
588.133	89.62
588.343	87.62
588.553	98.62
588.762	80.62
588.972	78.62
589.182	140.62
589.392	113.62
589.602	88.62
589.812	122.62
590.022	103.62
590.232	91.62
590.441	85.62
590.651	86.62
590.861	84.62
591.071	76.62
591.281	92.62
591.49	81.62
591.7	77.62
591.91	84.62
592.119	89.62
592.329	99.62
592.539	88.62
592.748	97.62
592.958	87.62
593.167	80.62
593.377	90.62
593.587	100.62
593.796	77.62
594.006	75.62
594.215	86.62
594.424	76.62
594.634	74.62
594.843	96.62
595.053	86.62
595.262	75.62
595.472	92.62
595.681	88.62
595.89	91.62
596.1	102.62
596.309	69.62
596.518	94.62
596.727	83.62
596.937	74.62
597.146	84.62
597.355	98.62
597.564	81.62
597.774	92.62
597.983	85.62
598.192	94.62
598.401	84.62
598.61	88.62
598.819	88.62
599.028	85.62
599.237	76.62
599.446	85.62
599.655	71.62
599.864	92.62
600.073	80.62
600.282	79.62
600.491	86.62
600.7	91.62
600.909	88.62
601.118	94.62
601.327	90.62
601.536	86.62
601.745	92.62
601.953	78.62
602.162	81.62
602.371	86.62
602.58	86.62
602.789	108.62
602.997	81.62
603.206	78.62
603.415	78.62
603.623	84.62
603.832	83.62
604.041	83.62
604.249	93.62
604.458	86.62
604.666	87.62
604.875	77.62
605.084	81.62
605.292	90.62
605.501	79.62
605.709	79.62
605.918	74.62
606.126	98.62
606.334	76.62
606.543	94.62
606.751	80.62
606.96	76.62
607.168	86.62
607.376	116.62
607.585	94.62
607.793	85.62
608.001	94.62
608.21	84.62
608.418	91.62
608.626	85.62
608.834	96.62
609.043	82.62
609.251	85.62
609.459	72.62
609.667	85.62
609.875	89.62
610.083	79.62
610.291	80.62
610.499	99.62
610.707	75.62
610.916	77.62
611.124	87.62
611.332	74.62
611.54	71.62
611.748	73.62
611.955	85.62
612.163	70.62
612.371	92.62
612.579	87.62
612.787	96.62
612.995	69.62
613.203	99.62
613.411	89.62
613.618	86.62
613.826	64.62
614.034	71.62
614.242	95.62
614.449	78.62
614.657	101.62
614.865	83.62
615.072	97.62
615.28	79.62
615.488	78.62
615.695	86.62
615.903	88.62
616.111	95.62
616.318	96.62
616.526	95.62
616.733	86.62
616.941	98.62
617.148	79.62
617.356	70.62
617.563	84.62
617.771	88.62
617.978	73.62
618.185	88.62
618.393	80.62
618.6	88.62
618.807	86.62
619.015	71.62
619.222	78.62
619.429	99.62
619.637	78.62
619.844	88.62
620.051	84.62
620.258	92.62
620.466	78.62
620.673	86.62
620.88	76.62
621.087	83.62
621.294	82.62
621.501	86.62
621.708	78.62
621.915	78.62
622.122	88.62
622.329	88.62
622.536	86.62
622.743	86.62
622.95	88.62
623.157	75.62
623.364	82.62
623.571	91.62
623.778	90.62
623.985	85.62
624.192	80.62
624.399	88.62
624.606	91.62
624.812	80.62
625.019	70.62
625.226	83.62
625.433	79.62
625.639	75.62
625.846	82.62
626.053	89.62
626.259	76.62
626.466	83.62
626.673	95.62
626.879	91.62
627.086	86.62
627.293	94.62
627.499	78.62
627.706	70.62
627.912	89.62
628.119	86.62
628.325	92.62
628.532	88.62
628.738	82.62
628.945	80.62
629.151	92.62
629.357	83.62
629.564	82.62
629.77	75.62
629.976	88.62
630.183	63.62
630.389	62.62
630.595	83.62
630.802	79.62
631.008	77.62
631.214	65.62
631.42	71.62
631.627	87.62
631.833	82.62
632.039	80.62
632.245	92.62
632.451	88.62
632.657	76.62
632.863	76.62
633.069	77.62
633.275	74.62
633.481	83.62
633.688	85.62
633.893	86.62
634.099	75.62
634.305	82.62
634.511	87.62
634.717	76.62
634.923	87.62
635.129	83.62
635.335	81.62
635.541	82.62
635.747	94.62
635.952	98.62
636.158	158.62
636.364	542.62
636.57	448.62
636.775	154.62
636.981	104.62
637.187	85.62
637.392	83.62
637.598	70.62
637.804	78.62
638.009	80.62
638.215	78.62
638.421	91.62
638.626	78.62
638.832	76.62
639.037	78.62
639.243	83.62
639.448	77.62
639.654	78.62
639.859	71.62
640.065	74.62
640.27	78.62
640.475	82.62
640.681	88.62
640.886	86.62
641.091	74.62
641.297	86.62
641.502	79.62
641.707	91.62
641.913	95.62
642.118	79.62
642.323	91.62
642.528	86.62
642.733	92.62
642.939	86.62
643.144	76.62
643.349	77.62
643.554	79.62
643.759	96.62
643.964	79.62
644.169	89.62
644.374	76.62
644.579	84.62
644.784	89.62
644.989	90.62
645.194	86.62
645.399	79.62
645.604	88.62
645.809	78.62
646.014	78.62
646.219	80.62
646.423	84.62
646.628	88.62
646.833	93.62
647.038	74.62
647.243	86.62
647.447	87.62
647.652	69.62
647.857	88.62
648.062	84.62
648.266	85.62
648.471	74.62
648.676	94.62
648.88	81.62
649.085	94.62
649.289	85.62
649.494	106.62
649.698	134.62
649.903	91.62
650.107	90.62
650.312	89.62
650.516	83.62
650.721	77.62
650.925	72.62
651.13	78.62
651.334	76.62
651.539	81.62
651.743	71.62
651.947	93.62
652.152	92.62
652.356	92.62
652.56	80.62
652.764	87.62
652.969	64.62
653.173	62.62
653.377	76.62
653.581	75.62
653.785	70.62
653.99	73.62
654.194	82.62
654.398	83.62
654.602	64.62
654.806	82.62
655.01	107.62
655.214	87.62
655.418	85.62
655.622	80.62
655.826	86.62
656.03	99.62
656.234	88.62
656.438	100.62
656.642	99.62
656.846	92.62
657.049	82.62
657.253	68.62
657.457	80.62
657.661	78.62
657.865	78.62
658.068	85.62
658.272	72.62
658.476	73.62
658.68	76.62
658.883	90.62
659.087	57.62
659.291	81.62
659.494	63.62
659.698	72.62
659.901	74.62
660.105	77.62
660.309	86.62
660.512	76.62
660.716	83.62
660.919	78.62
661.123	88.62
661.326	82.62
661.53	71.62
661.733	82.62
661.936	71.62
662.14	90.62
662.343	68.62
662.546	90.62
662.75	84.62
662.953	69.62
663.156	71.62
663.36	76.62
663.563	86.62
663.766	74.62
663.969	93.62
664.173	84.62
664.376	75.62
664.579	71.62
664.782	75.62
664.985	82.62
665.188	86.62
665.391	90.62
665.594	75.62
665.797	85.62
666	70.62
666.203	78.62
666.406	81.62
666.609	82.62
666.812	82.62
667.015	77.62
667.218	77.62
667.421	74.62
667.624	62.62
667.827	79.62
668.03	80.62
668.232	68.62
668.435	80.62
668.638	92.62
668.841	89.62
669.043	75.62
669.246	88.62
669.449	69.62
669.651	76.62
669.854	65.62
670.057	85.62
670.259	74.62
670.462	79.62
670.665	71.62
670.867	84.62
671.07	85.62
671.272	88.62
671.475	86.62
671.677	77.62
671.88	87.62
672.082	74.62
672.284	77.62
672.487	71.62
672.689	67.62
672.892	81.62
