Data from Circ_1987_H10_HRD10591_00034.txt Node
Date: Wed Jan 03 12:10:39 EST 2024
User: Yrep
Spectrometer: HR+D1059
Trigger mode: 1
Integration Time (sec): 1.000000E-1
Scans to average: 1
Electric dark correction enabled: true
Nonlinearity correction enabled: false
Boxcar width: 0
XAxis mode: Wavelengths
Number of Pixels in Spectrum: 2048
>>>>>Begin Spectral Data<<<<<
223.165	-12.19
223.4	-12.19
223.635	-12.19
223.869	-20.19
224.104	-18.19
224.338	-23.19
224.573	-11.19
224.808	-14.19
225.042	-9.19
225.277	-3.19
225.511	1.81
225.746	-0.19
225.98	20.81
226.215	15.81
226.449	17.81
226.683	12.81
226.918	4.81
227.152	37.81
227.387	45.81
227.621	38.81
227.856	30.81
228.09	40.81
228.324	47.81
228.559	57.81
228.793	53.81
229.027	57.81
229.262	64.81
229.496	71.81
229.73	84.81
229.964	79.81
230.199	69.81
230.433	77.81
230.667	80.81
230.901	60.81
231.136	67.81
231.37	76.81
231.604	81.81
231.838	83.81
232.072	75.81
232.306	68.81
232.541	67.81
232.775	86.81
233.009	76.81
233.243	80.81
233.477	89.81
233.711	65.81
233.945	73.81
234.179	70.81
234.413	85.81
234.647	77.81
234.881	77.81
235.115	68.81
235.349	64.81
235.583	66.81
235.817	73.81
236.051	63.81
236.285	88.81
236.519	70.81
236.753	79.81
236.987	85.81
237.221	66.81
237.455	88.81
237.689	86.81
237.922	69.81
238.156	67.81
238.39	76.81
238.624	66.81
238.858	69.81
239.091	77.81
239.325	71.81
239.559	81.81
239.793	79.81
240.027	95.81
240.26	87.81
240.494	76.81
240.728	84.81
240.961	92.81
241.195	80.81
241.429	87.81
241.662	85.81
241.896	72.81
242.13	81.81
242.363	93.81
242.597	78.81
242.83	70.81
243.064	72.81
243.298	73.81
243.531	93.81
243.765	83.81
243.998	79.81
244.232	73.81
244.465	94.81
244.699	83.81
244.932	80.81
245.166	75.81
245.399	77.81
245.633	80.81
245.866	75.81
246.099	71.81
246.333	76.81
246.566	75.81
246.8	71.81
247.033	90.81
247.266	71.81
247.5	75.81
247.733	69.81
247.966	69.81
248.2	94.81
248.433	83.81
248.666	88.81
248.899	69.81
249.133	85.81
249.366	98.81
249.599	104.81
249.832	82.81
250.066	85.81
250.299	85.81
250.532	83.81
250.765	80.81
250.998	77.81
251.231	67.81
251.465	75.81
251.698	87.81
251.931	76.81
252.164	84.81
252.397	78.81
252.63	76.81
252.863	61.81
253.096	72.81
253.329	83.81
253.562	75.81
253.795	88.81
254.028	89.81
254.261	95.81
254.494	78.81
254.727	77.81
254.96	84.81
255.193	83.81
255.426	65.81
255.659	75.81
255.892	94.81
256.124	109.81
256.357	94.81
256.59	78.81
256.823	90.81
257.056	87.81
257.289	77.81
257.521	76.81
257.754	88.81
257.987	88.81
258.22	88.81
258.452	84.81
258.685	76.81
258.918	93.81
259.151	92.81
259.383	82.81
259.616	77.81
259.849	92.81
260.081	87.81
260.314	80.81
260.547	85.81
260.779	96.81
261.012	100.81
261.244	95.81
261.477	89.81
261.71	102.81
261.942	132.81
262.175	135.81
262.407	85.81
262.64	87.81
262.872	82.81
263.105	85.81
263.337	83.81
263.57	82.81
263.802	81.81
264.035	86.81
264.267	91.81
264.499	88.81
264.732	89.81
264.964	79.81
265.197	68.81
265.429	81.81
265.661	87.81
265.894	83.81
266.126	96.81
266.358	79.81
266.591	83.81
266.823	81.81
267.055	91.81
267.287	96.81
267.52	93.81
267.752	93.81
267.984	90.81
268.216	89.81
268.448	92.81
268.681	93.81
268.913	83.81
269.145	88.81
269.377	83.81
269.609	70.81
269.841	83.81
270.073	85.81
270.306	84.81
270.538	81.81
270.77	89.81
271.002	92.81
271.234	101.81
271.466	85.81
271.698	95.81
271.93	87.81
272.162	71.81
272.394	92.81
272.626	91.81
272.858	69.81
273.09	84.81
273.322	92.81
273.553	80.81
273.785	79.81
274.017	88.81
274.249	81.81
274.481	88.81
274.713	83.81
274.945	88.81
275.176	96.81
275.408	89.81
275.64	95.81
275.872	103.81
276.104	104.81
276.335	103.81
276.567	112.81
276.799	134.81
277.031	145.81
277.262	167.81
277.494	138.81
277.726	97.81
277.957	92.81
278.189	91.81
278.421	84.81
278.652	86.81
278.884	84.81
279.115	83.81
279.347	86.81
279.579	97.81
279.81	129.81
280.042	168.81
280.273	222.81
280.505	173.81
280.736	95.81
280.968	84.81
281.199	88.81
281.431	97.81
281.662	86.81
281.894	86.81
282.125	103.81
282.356	119.81
282.588	156.81
282.819	124.81
283.051	95.81
283.282	90.81
283.513	75.81
283.745	87.81
283.976	82.81
284.207	93.81
284.439	83.81
284.67	100.81
284.901	89.81
285.132	77.81
285.364	85.81
285.595	87.81
285.826	84.81
286.057	84.81
286.288	91.81
286.52	91.81
286.751	84.81
286.982	87.81
287.213	93.81
287.444	94.81
287.675	94.81
287.906	82.81
288.138	91.81
288.369	88.81
288.6	92.81
288.831	96.81
289.062	108.81
289.293	100.81
289.524	94.81
289.755	81.81
289.986	92.81
290.217	80.81
290.448	94.81
290.679	77.81
290.91	86.81
291.141	88.81
291.371	88.81
291.602	84.81
291.833	84.81
292.064	81.81
292.295	87.81
292.526	97.81
292.757	93.81
292.987	88.81
293.218	88.81
293.449	87.81
293.68	69.81
293.91	85.81
294.141	89.81
294.372	101.81
294.603	91.81
294.833	92.81
295.064	92.81
295.295	96.81
295.525	87.81
295.756	109.81
295.987	122.81
296.217	149.81
296.448	141.81
296.679	103.81
296.909	106.81
297.14	95.81
297.37	80.81
297.601	97.81
297.831	91.81
298.062	97.81
298.292	100.81
298.523	91.81
298.753	77.81
298.984	94.81
299.214	90.81
299.445	79.81
299.675	98.81
299.905	90.81
300.136	100.81
300.366	102.81
300.597	87.81
300.827	94.81
301.057	93.81
301.288	113.81
301.518	89.81
301.748	82.81
301.979	112.81
302.209	93.81
302.439	99.81
302.669	96.81
302.9	79.81
303.13	101.81
303.36	104.81
303.59	128.81
303.82	128.81
304.051	92.81
304.281	95.81
304.511	97.81
304.741	89.81
304.971	87.81
305.201	93.81
305.431	100.81
305.661	92.81
305.891	96.81
306.121	98.81
306.352	105.81
306.582	114.81
306.812	102.81
307.042	114.81
307.272	132.81
307.502	163.81
307.731	144.81
307.961	122.81
308.191	97.81
308.421	89.81
308.651	96.81
308.881	102.81
309.111	96.81
309.341	89.81
309.571	106.81
309.8	98.81
310.03	108.81
310.26	103.81
310.49	103.81
310.72	116.81
310.949	119.81
311.179	119.81
311.409	111.81
311.639	101.81
311.868	102.81
312.098	100.81
312.328	101.81
312.557	115.81
312.787	132.81
313.017	117.81
313.246	103.81
313.476	88.81
313.706	87.81
313.935	105.81
314.165	116.81
314.394	112.81
314.624	123.81
314.853	107.81
315.083	100.81
315.312	98.81
315.542	97.81
315.771	99.81
316.001	92.81
316.23	91.81
316.46	89.81
316.689	86.81
316.919	99.81
317.148	105.81
317.377	97.81
317.607	95.81
317.836	105.81
318.065	88.81
318.295	102.81
318.524	90.81
318.753	96.81
318.983	98.81
319.212	108.81
319.441	127.81
319.67	125.81
319.9	95.81
320.129	93.81
320.358	87.81
320.587	91.81
320.816	100.81
321.046	107.81
321.275	109.81
321.504	97.81
321.733	97.81
321.962	104.81
322.191	108.81
322.42	105.81
322.649	122.81
322.878	107.81
323.108	120.81
323.337	125.81
323.566	148.81
323.795	165.81
324.024	212.81
324.253	372.81
324.482	785.81
324.71	1590.81
324.939	2097.81
325.168	770.81
325.397	249.81
325.626	158.81
325.855	139.81
326.084	127.81
326.313	132.81
326.542	145.81
326.77	215.81
326.999	399.81
327.228	830.81
327.457	1504.81
327.686	1237.81
327.914	453.81
328.143	422.81
328.372	577.81
328.6	337.81
328.829	170.81
329.058	177.81
329.287	193.81
329.515	152.81
329.744	239.81
329.972	421.81
330.201	810.81
330.43	1181.81
330.658	549.81
330.887	248.81
331.115	189.81
331.344	144.81
331.572	120.81
331.801	133.81
332.03	114.81
332.258	100.81
332.486	107.81
332.715	100.81
332.943	105.81
333.172	121.81
333.4	130.81
333.629	161.81
333.857	208.81
334.085	384.81
334.314	786.81
334.542	1508.81
334.771	1455.81
334.999	366.81
335.227	158.81
335.455	130.81
335.684	113.81
335.912	105.81
336.14	113.81
336.369	101.81
336.597	123.81
336.825	110.81
337.053	104.81
337.281	96.81
337.51	100.81
337.738	96.81
337.966	112.81
338.194	113.81
338.422	102.81
338.65	95.81
338.878	77.81
339.106	84.81
339.334	96.81
339.562	91.81
339.79	95.81
340.018	98.81
340.246	89.81
340.474	102.81
340.702	108.81
340.93	89.81
341.158	90.81
341.386	117.81
341.614	107.81
341.842	108.81
342.07	87.81
342.298	95.81
342.526	78.81
342.754	102.81
342.981	90.81
343.209	83.81
343.437	95.81
343.665	101.81
343.893	83.81
344.12	87.81
344.348	101.81
344.576	92.81
344.804	95.81
345.031	103.81
345.259	101.81
345.487	111.81
345.714	111.81
345.942	100.81
346.17	90.81
346.397	95.81
346.625	96.81
346.853	99.81
347.08	90.81
347.308	108.81
347.535	103.81
347.763	106.81
347.99	111.81
348.218	108.81
348.445	116.81
348.673	104.81
348.9	104.81
349.128	87.81
349.355	91.81
349.583	95.81
349.81	87.81
350.037	93.81
350.265	85.81
350.492	94.81
350.72	102.81
350.947	106.81
351.174	117.81
351.402	109.81
351.629	110.81
351.856	115.81
352.083	104.81
352.311	105.81
352.538	100.81
352.765	118.81
352.992	110.81
353.22	124.81
353.447	106.81
353.674	86.81
353.901	97.81
354.128	93.81
354.355	95.81
354.583	99.81
354.81	93.81
355.037	88.81
355.264	99.81
355.491	87.81
355.718	96.81
355.945	85.81
356.172	92.81
356.399	85.81
356.626	82.81
356.853	96.81
357.08	97.81
357.307	103.81
357.534	101.81
357.761	96.81
357.988	90.81
358.215	92.81
358.441	79.81
358.668	90.81
358.895	100.81
359.122	99.81
359.349	89.81
359.576	97.81
359.802	110.81
360.029	135.81
360.256	140.81
360.483	115.81
360.709	93.81
360.936	95.81
361.163	111.81
361.39	106.81
361.616	108.81
361.843	110.81
362.07	84.81
362.296	113.81
362.523	90.81
362.749	93.81
362.976	88.81
363.203	85.81
363.429	96.81
363.656	102.81
363.882	92.81
364.109	99.81
364.335	106.81
364.562	92.81
364.788	85.81
365.015	109.81
365.241	87.81
365.468	113.81
365.694	105.81
365.92	89.81
366.147	100.81
366.373	87.81
366.599	82.81
366.826	82.81
367.052	99.81
367.278	90.81
367.505	103.81
367.731	98.81
367.957	86.81
368.184	92.81
368.41	89.81
368.636	111.81
368.862	120.81
369.089	110.81
369.315	102.81
369.541	100.81
369.767	103.81
369.993	94.81
370.219	78.81
370.445	95.81
370.672	85.81
370.898	98.81
371.124	95.81
371.35	93.81
371.576	78.81
371.802	97.81
372.028	85.81
372.254	72.81
372.48	91.81
372.706	82.81
372.932	97.81
373.158	73.81
373.384	90.81
373.61	84.81
373.835	92.81
374.061	90.81
374.287	104.81
374.513	83.81
374.739	80.81
374.965	80.81
375.191	84.81
375.416	88.81
375.642	83.81
375.868	90.81
376.094	104.81
376.319	89.81
376.545	83.81
376.771	86.81
376.997	100.81
377.222	80.81
377.448	94.81
377.674	86.81
377.899	86.81
378.125	79.81
378.35	87.81
378.576	80.81
378.802	91.81
379.027	86.81
379.253	83.81
379.478	100.81
379.704	98.81
379.929	99.81
380.155	90.81
380.38	93.81
380.606	100.81
380.831	87.81
381.057	99.81
381.282	106.81
381.507	103.81
381.733	91.81
381.958	84.81
382.184	102.81
382.409	100.81
382.634	103.81
382.86	103.81
383.085	104.81
383.31	106.81
383.535	105.81
383.761	114.81
383.986	99.81
384.211	88.81
384.436	94.81
384.662	90.81
384.887	96.81
385.112	105.81
385.337	104.81
385.562	89.81
385.787	112.81
386.013	115.81
386.238	130.81
386.463	121.81
386.688	114.81
386.913	86.81
387.138	102.81
387.363	114.81
387.588	102.81
387.813	100.81
388.038	93.81
388.263	96.81
388.488	105.81
388.713	79.81
388.938	91.81
389.163	94.81
389.387	88.81
389.612	92.81
389.837	96.81
390.062	83.81
390.287	95.81
390.512	88.81
390.736	88.81
390.961	98.81
391.186	83.81
391.411	88.81
391.636	90.81
391.86	80.81
392.085	89.81
392.31	79.81
392.534	79.81
392.759	95.81
392.984	99.81
393.208	88.81
393.433	101.81
393.658	96.81
393.882	64.81
394.107	94.81
394.331	88.81
394.556	86.81
394.78	90.81
395.005	85.81
395.229	104.81
395.454	98.81
395.678	89.81
395.903	84.81
396.127	89.81
396.352	109.81
396.576	80.81
396.801	98.81
397.025	93.81
397.249	93.81
397.474	75.81
397.698	95.81
397.922	82.81
398.147	93.81
398.371	80.81
398.595	93.81
398.82	88.81
399.044	93.81
399.268	73.81
399.492	85.81
399.717	81.81
399.941	82.81
400.165	90.81
400.389	87.81
400.613	72.81
400.837	84.81
401.062	100.81
401.286	86.81
401.51	96.81
401.734	99.81
401.958	100.81
402.182	136.81
402.406	200.81
402.63	129.81
402.854	102.81
403.078	89.81
403.302	96.81
403.526	93.81
403.75	84.81
403.974	72.81
404.198	89.81
404.422	87.81
404.645	103.81
404.869	107.81
405.093	114.81
405.317	151.81
405.541	132.81
405.765	117.81
405.988	139.81
406.212	190.81
406.436	276.81
406.66	188.81
406.883	131.81
407.107	103.81
407.331	97.81
407.555	111.81
407.778	103.81
408.002	109.81
408.226	83.81
408.449	83.81
408.673	89.81
408.896	103.81
409.12	94.81
409.344	85.81
409.567	99.81
409.791	99.81
410.014	85.81
410.238	90.81
410.461	99.81
410.685	111.81
410.908	104.81
411.132	96.81
411.355	103.81
411.578	83.81
411.802	87.81
412.025	93.81
412.249	103.81
412.472	116.81
412.695	132.81
412.919	91.81
413.142	78.81
413.365	95.81
413.589	98.81
413.812	79.81
414.035	85.81
414.258	95.81
414.482	107.81
414.705	93.81
414.928	92.81
415.151	94.81
415.374	93.81
415.597	94.81
415.821	78.81
416.044	86.81
416.267	88.81
416.49	94.81
416.713	94.81
416.936	85.81
417.159	90.81
417.382	98.81
417.605	99.81
417.828	89.81
418.051	99.81
418.274	96.81
418.497	77.81
418.72	87.81
418.943	101.81
419.166	98.81
419.389	92.81
419.611	90.81
419.834	69.81
420.057	98.81
420.28	95.81
420.503	83.81
420.726	89.81
420.948	72.81
421.171	103.81
421.394	86.81
421.617	96.81
421.839	89.81
422.062	88.81
422.285	107.81
422.507	103.81
422.73	105.81
422.953	91.81
423.175	86.81
423.398	64.81
423.621	102.81
423.843	90.81
424.066	96.81
424.288	78.81
424.511	108.81
424.733	92.81
424.956	108.81
425.178	101.81
425.401	106.81
425.623	105.81
425.846	94.81
426.068	96.81
426.291	95.81
426.513	89.81
426.735	101.81
426.958	99.81
427.18	112.81
427.402	162.81
427.625	233.81
427.847	221.81
428.069	179.81
428.292	116.81
428.514	93.81
428.736	75.81
428.958	78.81
429.181	87.81
429.403	80.81
429.625	84.81
429.847	98.81
430.069	93.81
430.292	101.81
430.514	89.81
430.736	72.81
430.958	77.81
431.18	83.81
431.402	80.81
431.624	98.81
431.846	85.81
432.068	93.81
432.29	87.81
432.512	90.81
432.734	83.81
432.956	92.81
433.178	98.81
433.4	115.81
433.622	75.81
433.844	103.81
434.066	85.81
434.287	98.81
434.509	85.81
434.731	90.81
434.953	90.81
435.175	84.81
435.397	81.81
435.618	95.81
435.84	95.81
436.062	125.81
436.284	126.81
436.505	111.81
436.727	89.81
436.949	111.81
437.17	99.81
437.392	85.81
437.614	89.81
437.835	144.81
438.057	148.81
438.278	125.81
438.5	116.81
438.721	137.81
438.943	109.81
439.165	84.81
439.386	73.81
439.608	92.81
439.829	110.81
440.05	139.81
440.272	171.81
440.493	104.81
440.715	87.81
440.936	85.81
441.158	89.81
441.379	78.81
441.6	84.81
441.822	96.81
442.043	104.81
442.264	103.81
442.486	107.81
442.707	83.81
442.928	112.81
443.149	152.81
443.371	143.81
443.592	125.81
443.813	128.81
444.034	126.81
444.255	97.81
444.476	85.81
444.698	93.81
444.919	82.81
445.14	125.81
445.361	142.81
445.582	132.81
445.803	187.81
446.024	179.81
446.245	157.81
446.466	112.81
446.687	89.81
446.908	88.81
447.129	102.81
447.35	81.81
447.571	89.81
447.792	89.81
448.013	86.81
448.234	124.81
448.455	104.81
448.675	132.81
448.896	128.81
449.117	115.81
449.338	107.81
449.559	147.81
449.779	132.81
450	101.81
450.221	87.81
450.442	89.81
450.662	102.81
450.883	121.81
451.104	130.81
451.324	110.81
451.545	88.81
451.766	103.81
451.986	85.81
452.207	94.81
452.428	83.81
452.648	99.81
452.869	119.81
453.089	124.81
453.31	128.81
453.53	105.81
453.751	98.81
453.971	121.81
454.192	117.81
454.412	94.81
454.633	95.81
454.853	82.81
455.073	91.81
455.294	96.81
455.514	94.81
455.734	85.81
455.955	84.81
456.175	85.81
456.395	80.81
456.616	93.81
456.836	80.81
457.056	93.81
457.276	79.81
457.497	87.81
457.717	95.81
457.937	82.81
458.157	83.81
458.377	93.81
458.598	120.81
458.818	177.81
459.038	226.81
459.258	154.81
459.478	85.81
459.698	88.81
459.918	88.81
460.138	80.81
460.358	77.81
460.578	101.81
460.798	86.81
461.018	93.81
461.238	89.81
461.458	71.81
461.678	98.81
461.898	86.81
462.118	86.81
462.338	71.81
462.558	87.81
462.777	92.81
462.997	98.81
463.217	102.81
463.437	95.81
463.657	81.81
463.876	80.81
464.096	94.81
464.316	96.81
464.536	103.81
464.755	107.81
464.975	111.81
465.195	209.81
465.414	237.81
465.634	110.81
465.854	71.81
466.073	86.81
466.293	74.81
466.512	72.81
466.732	73.81
466.951	89.81
467.171	107.81
467.391	92.81
467.61	142.81
467.829	182.81
468.049	430.81
468.268	648.81
468.488	201.81
468.707	102.81
468.927	94.81
469.146	89.81
469.365	95.81
469.585	102.81
469.804	117.81
470.023	102.81
470.243	95.81
470.462	122.81
470.681	140.81
470.901	113.81
471.12	105.81
471.339	104.81
471.558	91.81
471.777	130.81
471.997	260.81
472.216	848.81
472.435	1969.81
472.654	469.81
472.873	147.81
473.092	100.81
473.311	93.81
473.53	90.81
473.749	90.81
473.968	96.81
474.187	123.81
474.406	89.81
474.625	98.81
474.844	81.81
475.063	94.81
475.282	85.81
475.501	95.81
475.72	97.81
475.939	82.81
476.158	80.81
476.377	100.81
476.596	87.81
476.814	111.81
477.033	85.81
477.252	90.81
477.471	83.81
477.69	97.81
477.908	99.81
478.127	92.81
478.346	90.81
478.564	96.81
478.783	111.81
479.002	100.81
479.22	99.81
479.439	112.81
479.658	129.81
479.876	123.81
480.095	106.81
480.313	118.81
480.532	143.81
480.751	238.81
480.969	772.81
481.188	3412.81
481.406	1997.81
481.624	305.81
481.843	121.81
482.061	110.81
482.28	100.81
482.498	95.81
482.717	93.81
482.935	98.81
483.153	100.81
483.372	103.81
483.59	88.81
483.808	91.81
484.027	78.81
484.245	95.81
484.463	97.81
484.681	108.81
484.9	88.81
485.118	96.81
485.336	88.81
485.554	102.81
485.772	109.81
485.99	104.81
486.209	87.81
486.427	107.81
486.645	106.81
486.863	127.81
487.081	102.81
487.299	98.81
487.517	93.81
487.735	102.81
487.953	80.81
488.171	92.81
488.389	85.81
488.607	107.81
488.825	88.81
489.043	104.81
489.261	97.81
489.479	88.81
489.696	87.81
489.914	68.81
490.132	97.81
490.35	89.81
490.568	89.81
490.786	97.81
491.003	93.81
491.221	87.81
491.439	89.81
491.657	101.81
491.874	101.81
492.092	92.81
492.31	69.81
492.527	92.81
492.745	86.81
492.963	86.81
493.18	89.81
493.398	105.81
493.615	87.81
493.833	104.81
494.05	96.81
494.268	89.81
494.485	90.81
494.703	95.81
494.92	105.81
495.138	82.81
495.355	90.81
495.573	88.81
495.79	95.81
496.008	91.81
496.225	83.81
496.442	82.81
496.66	95.81
496.877	88.81
497.094	103.81
497.312	89.81
497.529	79.81
497.746	80.81
497.963	91.81
498.181	88.81
498.398	90.81
498.615	99.81
498.832	101.81
499.049	79.81
499.267	79.81
499.484	73.81
499.701	100.81
499.918	100.81
500.135	71.81
500.352	112.81
500.569	87.81
500.786	99.81
501.003	98.81
501.22	89.81
501.437	88.81
501.654	99.81
501.871	134.81
502.088	100.81
502.305	104.81
502.522	93.81
502.739	88.81
502.956	87.81
503.172	92.81
503.389	99.81
503.606	113.81
503.823	101.81
504.04	100.81
504.256	90.81
504.473	89.81
504.69	83.81
504.907	90.81
505.123	86.81
505.34	85.81
505.557	89.81
505.773	87.81
505.99	79.81
506.207	89.81
506.423	87.81
506.64	99.81
506.856	88.81
507.073	82.81
507.289	83.81
507.506	90.81
507.722	134.81
507.939	112.81
508.155	90.81
508.372	100.81
508.588	87.81
508.805	96.81
509.021	101.81
509.238	98.81
509.454	108.81
509.67	107.81
509.887	133.81
510.103	135.81
510.319	220.81
510.536	804.81
510.752	2787.81
510.968	763.81
511.184	156.81
511.401	125.81
511.617	104.81
511.833	105.81
512.049	95.81
512.265	92.81
512.481	93.81
512.698	94.81
512.914	89.81
513.13	100.81
513.346	81.81
513.562	101.81
513.778	100.81
513.994	108.81
514.21	117.81
514.426	130.81
514.642	163.81
514.858	160.81
515.074	203.81
515.29	627.81
515.506	2233.81
515.721	764.81
515.937	192.81
516.153	123.81
516.369	126.81
516.585	90.81
516.801	106.81
517.016	105.81
517.232	102.81
517.448	90.81
517.664	93.81
517.879	102.81
518.095	96.81
518.311	103.81
518.527	115.81
518.742	90.81
518.958	86.81
519.173	96.81
519.389	107.81
519.605	100.81
519.82	91.81
520.036	111.81
520.251	149.81
520.467	125.81
520.682	109.81
520.898	113.81
521.113	140.81
521.329	173.81
521.544	272.81
521.76	849.81
521.975	3650.81
522.19	2206.81
522.406	457.81
522.621	177.81
522.836	108.81
523.052	101.81
523.267	104.81
523.482	107.81
523.698	104.81
523.913	129.81
524.128	105.81
524.343	96.81
524.559	92.81
524.774	91.81
524.989	99.81
525.204	115.81
525.419	113.81
525.634	81.81
525.849	94.81
526.064	93.81
526.28	91.81
526.495	84.81
526.71	91.81
526.925	83.81
527.14	64.81
527.355	92.81
527.57	91.81
527.785	86.81
527.999	93.81
528.214	75.81
528.429	103.81
528.644	97.81
528.859	89.81
529.074	91.81
529.289	132.81
529.503	260.81
529.718	107.81
529.933	88.81
530.148	83.81
530.363	98.81
530.577	91.81
530.792	84.81
531.007	97.81
531.221	102.81
531.436	83.81
531.651	94.81
531.865	92.81
532.08	92.81
532.295	92.81
532.509	99.81
532.724	79.81
532.938	102.81
533.153	94.81
533.367	101.81
533.582	96.81
533.796	89.81
534.011	99.81
534.225	87.81
534.44	77.81
534.654	80.81
534.868	85.81
535.083	93.81
535.297	94.81
535.511	122.81
535.726	104.81
535.94	103.81
536.154	92.81
536.369	104.81
536.583	88.81
536.797	100.81
537.011	97.81
537.225	92.81
537.44	95.81
537.654	99.81
537.868	81.81
538.082	87.81
538.296	79.81
538.51	91.81
538.724	75.81
538.938	100.81
539.153	94.81
539.367	115.81
539.581	98.81
539.795	103.81
540.009	93.81
540.222	94.81
540.436	91.81
540.65	80.81
540.864	93.81
541.078	99.81
541.292	97.81
541.506	97.81
541.72	94.81
541.934	91.81
542.147	84.81
542.361	77.81
542.575	91.81
542.789	93.81
543.002	86.81
543.216	99.81
543.43	104.81
543.644	89.81
543.857	80.81
544.071	95.81
544.285	92.81
544.498	85.81
544.712	94.81
544.925	81.81
545.139	89.81
545.352	89.81
545.566	101.81
545.779	87.81
545.993	94.81
546.206	86.81
546.42	93.81
546.633	83.81
546.847	87.81
547.06	73.81
547.274	96.81
547.487	86.81
547.7	79.81
547.914	86.81
548.127	76.81
548.34	84.81
548.554	78.81
548.767	80.81
548.98	83.81
549.193	96.81
549.407	103.81
549.62	94.81
549.833	83.81
550.046	96.81
550.259	87.81
550.473	88.81
550.686	83.81
550.899	92.81
551.112	100.81
551.325	100.81
551.538	91.81
551.751	98.81
551.964	98.81
552.177	86.81
552.39	92.81
552.603	89.81
552.816	90.81
553.029	99.81
553.242	114.81
553.455	102.81
553.667	104.81
553.88	117.81
554.093	115.81
554.306	102.81
554.519	120.81
554.732	92.81
554.944	99.81
555.157	85.81
555.37	83.81
555.583	85.81
555.795	108.81
556.008	84.81
556.221	96.81
556.433	81.81
556.646	97.81
556.859	87.81
557.071	103.81
557.284	97.81
557.496	87.81
557.709	93.81
557.921	102.81
558.134	79.81
558.346	88.81
558.559	98.81
558.771	94.81
558.984	100.81
559.196	99.81
559.409	88.81
559.621	89.81
559.833	86.81
560.046	78.81
560.258	87.81
560.47	133.81
560.683	100.81
560.895	85.81
561.107	81.81
561.32	105.81
561.532	88.81
561.744	80.81
561.956	103.81
562.168	84.81
562.381	89.81
562.593	84.81
562.805	95.81
563.017	102.81
563.229	94.81
563.441	95.81
563.653	88.81
563.865	89.81
564.077	93.81
564.289	83.81
564.501	89.81
564.713	85.81
564.925	104.81
565.137	101.81
565.349	92.81
565.561	77.81
565.773	94.81
565.985	91.81
566.197	84.81
566.408	96.81
566.62	84.81
566.832	69.81
567.044	79.81
567.255	78.81
567.467	95.81
567.679	99.81
567.891	91.81
568.102	84.81
568.314	75.81
568.526	86.81
568.737	83.81
568.949	86.81
569.161	83.81
569.372	92.81
569.584	90.81
569.795	78.81
570.007	128.81
570.218	271.81
570.43	136.81
570.641	100.81
570.853	84.81
571.064	94.81
571.276	91.81
571.487	89.81
571.698	102.81
571.91	109.81
572.121	95.81
572.333	93.81
572.544	98.81
572.755	88.81
572.966	97.81
573.178	83.81
573.389	76.81
573.6	91.81
573.811	73.81
574.023	91.81
574.234	91.81
574.445	94.81
574.656	86.81
574.867	88.81
575.078	91.81
575.289	91.81
575.501	76.81
575.712	82.81
575.923	96.81
576.134	85.81
576.345	98.81
576.556	97.81
576.767	83.81
576.978	91.81
577.188	92.81
577.399	88.81
577.61	101.81
577.821	101.81
578.032	110.81
578.243	267.81
578.454	839.81
578.665	228.81
578.875	103.81
579.086	89.81
579.297	92.81
579.508	91.81
579.718	80.81
579.929	71.81
580.14	77.81
580.35	86.81
580.561	85.81
580.772	90.81
580.982	77.81
581.193	93.81
581.403	84.81
581.614	103.81
581.825	86.81
582.035	87.81
582.246	80.81
582.456	70.81
582.667	81.81
582.877	89.81
583.087	85.81
583.298	87.81
583.508	84.81
583.719	72.81
583.929	102.81
584.139	89.81
584.35	89.81
584.56	91.81
584.77	93.81
584.981	91.81
585.191	97.81
585.401	81.81
585.611	91.81
585.821	80.81
586.032	81.81
586.242	91.81
586.452	88.81
586.662	92.81
586.872	77.81
587.082	83.81
587.292	81.81
587.502	104.81
587.713	91.81
587.923	79.81
588.133	95.81
588.343	80.81
588.553	89.81
588.762	92.81
588.972	96.81
589.182	177.81
589.392	111.81
589.602	102.81
589.812	142.81
590.022	104.81
590.232	81.81
590.441	85.81
590.651	85.81
590.861	81.81
591.071	85.81
591.281	79.81
591.49	87.81
591.7	85.81
591.91	96.81
592.119	103.81
592.329	90.81
592.539	101.81
592.748	65.81
592.958	98.81
593.167	83.81
593.377	94.81
593.587	99.81
593.796	78.81
594.006	86.81
594.215	91.81
594.424	97.81
594.634	81.81
594.843	100.81
595.053	88.81
595.262	67.81
595.472	84.81
595.681	95.81
595.89	88.81
596.1	72.81
596.309	84.81
596.518	80.81
596.727	85.81
596.937	98.81
597.146	81.81
597.355	97.81
597.564	77.81
597.774	89.81
597.983	82.81
598.192	83.81
598.401	68.81
598.61	66.81
598.819	90.81
599.028	88.81
599.237	86.81
599.446	81.81
599.655	91.81
599.864	83.81
600.073	93.81
600.282	95.81
600.491	86.81
600.7	87.81
600.909	81.81
601.118	100.81
601.327	84.81
601.536	77.81
601.745	79.81
601.953	78.81
602.162	96.81
602.371	92.81
602.58	88.81
602.789	79.81
602.997	83.81
603.206	85.81
603.415	86.81
603.623	66.81
603.832	91.81
604.041	88.81
604.249	89.81
604.458	78.81
604.666	79.81
604.875	86.81
605.084	81.81
605.292	87.81
605.501	76.81
605.709	81.81
605.918	80.81
606.126	95.81
606.334	84.81
606.543	86.81
606.751	95.81
606.96	95.81
607.168	97.81
607.376	86.81
607.585	90.81
607.793	79.81
608.001	100.81
608.21	96.81
608.418	87.81
608.626	93.81
608.834	93.81
609.043	79.81
609.251	65.81
609.459	94.81
609.667	88.81
609.875	96.81
610.083	98.81
610.291	98.81
610.499	94.81
610.707	102.81
610.916	84.81
611.124	94.81
611.332	81.81
611.54	100.81
611.748	89.81
611.955	81.81
612.163	84.81
612.371	95.81
612.579	82.81
612.787	84.81
612.995	72.81
613.203	75.81
613.411	84.81
613.618	78.81
613.826	83.81
614.034	76.81
614.242	94.81
614.449	93.81
614.657	98.81
614.865	80.81
615.072	81.81
615.28	97.81
615.488	98.81
615.695	87.81
615.903	89.81
616.111	94.81
616.318	98.81
616.526	94.81
616.733	100.81
616.941	81.81
617.148	88.81
617.356	80.81
617.563	83.81
617.771	95.81
617.978	79.81
618.185	82.81
618.393	80.81
618.6	78.81
618.807	76.81
619.015	86.81
619.222	79.81
619.429	90.81
619.637	85.81
619.844	88.81
620.051	80.81
620.258	90.81
620.466	80.81
620.673	90.81
620.88	89.81
621.087	100.81
621.294	93.81
621.501	88.81
621.708	81.81
621.915	83.81
622.122	71.81
622.329	87.81
622.536	88.81
622.743	83.81
622.95	79.81
623.157	81.81
623.364	77.81
623.571	83.81
623.778	79.81
623.985	93.81
624.192	87.81
624.399	89.81
624.606	97.81
624.812	89.81
625.019	86.81
625.226	87.81
625.433	87.81
625.639	79.81
625.846	74.81
626.053	85.81
626.259	81.81
626.466	85.81
626.673	91.81
626.879	92.81
627.086	82.81
627.293	86.81
627.499	79.81
627.706	94.81
627.912	70.81
628.119	94.81
628.325	87.81
628.532	101.81
628.738	74.81
628.945	89.81
629.151	88.81
629.357	89.81
629.564	88.81
629.77	88.81
629.976	79.81
630.183	99.81
630.389	77.81
630.595	93.81
630.802	86.81
631.008	86.81
631.214	86.81
631.42	87.81
631.627	85.81
631.833	79.81
632.039	73.81
632.245	95.81
632.451	92.81
632.657	74.81
632.863	85.81
633.069	100.81
633.275	91.81
633.481	83.81
633.688	77.81
633.893	88.81
634.099	97.81
634.305	80.81
634.511	69.81
634.717	77.81
634.923	91.81
635.129	69.81
635.335	75.81
635.541	82.81
635.747	87.81
635.952	95.81
636.158	143.81
636.364	289.81
636.57	279.81
636.775	126.81
636.981	98.81
637.187	90.81
637.392	94.81
637.598	95.81
637.804	87.81
638.009	75.81
638.215	87.81
638.421	62.81
638.626	85.81
638.832	84.81
639.037	99.81
639.243	90.81
639.448	87.81
639.654	89.81
639.859	87.81
640.065	92.81
640.27	88.81
640.475	71.81
640.681	89.81
640.886	88.81
641.091	86.81
641.297	75.81
641.502	79.81
641.707	75.81
641.913	92.81
642.118	91.81
642.323	81.81
642.528	75.81
642.733	80.81
642.939	81.81
643.144	76.81
643.349	73.81
643.554	85.81
643.759	76.81
643.964	76.81
644.169	84.81
644.374	84.81
644.579	94.81
644.784	88.81
644.989	80.81
645.194	78.81
645.399	87.81
645.604	78.81
645.809	80.81
646.014	83.81
646.219	82.81
646.423	90.81
646.628	93.81
646.833	82.81
647.038	71.81
647.243	102.81
647.447	78.81
647.652	77.81
647.857	77.81
648.062	90.81
648.266	89.81
648.471	81.81
648.676	83.81
648.88	75.81
649.085	102.81
649.289	80.81
649.494	103.81
649.698	129.81
649.903	106.81
650.107	88.81
650.312	79.81
650.516	83.81
650.721	79.81
650.925	79.81
651.13	75.81
651.334	71.81
651.539	78.81
651.743	86.81
651.947	93.81
652.152	88.81
652.356	96.81
652.56	79.81
652.764	72.81
652.969	77.81
653.173	88.81
653.377	82.81
653.581	92.81
653.785	96.81
653.99	83.81
654.194	100.81
654.398	96.81
654.602	79.81
654.806	80.81
655.01	108.81
655.214	93.81
655.418	77.81
655.622	76.81
655.826	92.81
656.03	93.81
656.234	87.81
656.438	97.81
656.642	96.81
656.846	79.81
657.049	80.81
657.253	95.81
657.457	71.81
657.661	94.81
657.865	87.81
658.068	77.81
658.272	72.81
658.476	69.81
658.68	82.81
658.883	61.81
659.087	72.81
659.291	75.81
659.494	81.81
659.698	77.81
659.901	79.81
660.105	79.81
660.309	71.81
660.512	81.81
660.716	87.81
660.919	81.81
661.123	85.81
661.326	84.81
661.53	79.81
661.733	83.81
661.936	71.81
662.14	79.81
662.343	79.81
662.546	85.81
662.75	92.81
662.953	79.81
663.156	70.81
663.36	73.81
663.563	88.81
663.766	98.81
663.969	94.81
664.173	80.81
664.376	89.81
664.579	73.81
664.782	83.81
664.985	81.81
665.188	74.81
665.391	59.81
665.594	75.81
665.797	79.81
666	77.81
666.203	81.81
666.406	77.81
666.609	83.81
666.812	79.81
667.015	82.81
667.218	79.81
667.421	85.81
667.624	93.81
667.827	75.81
668.03	85.81
668.232	75.81
668.435	80.81
668.638	87.81
668.841	92.81
669.043	84.81
669.246	83.81
669.449	71.81
669.651	73.81
669.854	78.81
670.057	75.81
670.259	86.81
670.462	79.81
670.665	83.81
670.867	77.81
671.07	85.81
671.272	70.81
671.475	86.81
671.677	80.81
671.88	83.81
672.082	90.81
672.284	85.81
672.487	81.81
672.689	67.81
672.892	81.81
