Data from Circ_1987_H10_HRD10591_00081.txt Node
Date: Wed Jan 03 12:10:49 EST 2024
User: Yrep
Spectrometer: HR+D1059
Trigger mode: 1
Integration Time (sec): 1.000000E-1
Scans to average: 1
Electric dark correction enabled: true
Nonlinearity correction enabled: false
Boxcar width: 0
XAxis mode: Wavelengths
Number of Pixels in Spectrum: 2048
>>>>>Begin Spectral Data<<<<<
223.165	-11.25
223.4	-11.25
223.635	-11.25
223.869	-20.25
224.104	-22.25
224.338	-27.25
224.573	-13.25
224.808	-10.25
225.042	-13.25
225.277	-5.25
225.511	7.75
225.746	-6.25
225.98	2.75
226.215	14.75
226.449	14.75
226.683	30.75
226.918	28.75
227.152	29.75
227.387	33.75
227.621	39.75
227.856	35.75
228.09	54.75
228.324	40.75
228.559	59.75
228.793	47.75
229.027	61.75
229.262	70.75
229.496	79.75
229.73	99.75
229.964	112.75
230.199	73.75
230.433	79.75
230.667	91.75
230.901	85.75
231.136	76.75
231.37	95.75
231.604	73.75
231.838	96.75
232.072	72.75
232.306	91.75
232.541	97.75
232.775	97.75
233.009	82.75
233.243	70.75
233.477	75.75
233.711	85.75
233.945	67.75
234.179	83.75
234.413	74.75
234.647	93.75
234.881	85.75
235.115	87.75
235.349	88.75
235.583	87.75
235.817	70.75
236.051	66.75
236.285	80.75
236.519	93.75
236.753	90.75
236.987	86.75
237.221	98.75
237.455	107.75
237.689	93.75
237.922	86.75
238.156	77.75
238.39	74.75
238.624	68.75
238.858	82.75
239.091	75.75
239.325	90.75
239.559	91.75
239.793	84.75
240.027	93.75
240.26	101.75
240.494	98.75
240.728	72.75
240.961	81.75
241.195	70.75
241.429	68.75
241.662	85.75
241.896	70.75
242.13	83.75
242.363	73.75
242.597	65.75
242.83	79.75
243.064	87.75
243.298	72.75
243.531	85.75
243.765	77.75
243.998	81.75
244.232	90.75
244.465	84.75
244.699	93.75
244.932	86.75
245.166	90.75
245.399	89.75
245.633	81.75
245.866	87.75
246.099	83.75
246.333	96.75
246.566	100.75
246.8	86.75
247.033	76.75
247.266	62.75
247.5	90.75
247.733	81.75
247.966	69.75
248.2	100.75
248.433	80.75
248.666	81.75
248.899	84.75
249.133	81.75
249.366	107.75
249.599	96.75
249.832	101.75
250.066	81.75
250.299	103.75
250.532	89.75
250.765	84.75
250.998	85.75
251.231	91.75
251.465	86.75
251.698	81.75
251.931	93.75
252.164	87.75
252.397	93.75
252.63	88.75
252.863	90.75
253.096	75.75
253.329	86.75
253.562	112.75
253.795	93.75
254.028	90.75
254.261	86.75
254.494	90.75
254.727	102.75
254.96	96.75
255.193	86.75
255.426	84.75
255.659	77.75
255.892	95.75
256.124	107.75
256.357	91.75
256.59	99.75
256.823	97.75
257.056	86.75
257.289	94.75
257.521	93.75
257.754	91.75
257.987	98.75
258.22	107.75
258.452	109.75
258.685	109.75
258.918	97.75
259.151	101.75
259.383	81.75
259.616	82.75
259.849	85.75
260.081	85.75
260.314	101.75
260.547	90.75
260.779	106.75
261.012	120.75
261.244	112.75
261.477	108.75
261.71	101.75
261.942	157.75
262.175	170.75
262.407	108.75
262.64	81.75
262.872	104.75
263.105	91.75
263.337	79.75
263.57	83.75
263.802	83.75
264.035	77.75
264.267	84.75
264.499	88.75
264.732	80.75
264.964	91.75
265.197	78.75
265.429	87.75
265.661	86.75
265.894	89.75
266.126	78.75
266.358	90.75
266.591	75.75
266.823	85.75
267.055	73.75
267.287	81.75
267.52	86.75
267.752	88.75
267.984	96.75
268.216	72.75
268.448	81.75
268.681	83.75
268.913	93.75
269.145	88.75
269.377	79.75
269.609	83.75
269.841	98.75
270.073	78.75
270.306	82.75
270.538	87.75
270.77	84.75
271.002	81.75
271.234	97.75
271.466	98.75
271.698	96.75
271.93	86.75
272.162	90.75
272.394	79.75
272.626	84.75
272.858	85.75
273.09	81.75
273.322	94.75
273.553	83.75
273.785	82.75
274.017	96.75
274.249	84.75
274.481	88.75
274.713	91.75
274.945	92.75
275.176	101.75
275.408	104.75
275.64	129.75
275.872	152.75
276.104	125.75
276.335	113.75
276.567	128.75
276.799	189.75
277.031	200.75
277.262	249.75
277.494	199.75
277.726	119.75
277.957	100.75
278.189	93.75
278.421	94.75
278.652	108.75
278.884	95.75
279.115	94.75
279.347	84.75
279.579	101.75
279.81	145.75
280.042	253.75
280.273	355.75
280.505	233.75
280.736	121.75
280.968	106.75
281.199	100.75
281.431	107.75
281.662	93.75
281.894	86.75
282.125	110.75
282.356	151.75
282.588	182.75
282.819	148.75
283.051	97.75
283.282	85.75
283.513	81.75
283.745	104.75
283.976	98.75
284.207	96.75
284.439	90.75
284.67	88.75
284.901	92.75
285.132	73.75
285.364	83.75
285.595	85.75
285.826	98.75
286.057	95.75
286.288	77.75
286.52	64.75
286.751	88.75
286.982	88.75
287.213	89.75
287.444	91.75
287.675	97.75
287.906	96.75
288.138	99.75
288.369	96.75
288.6	94.75
288.831	94.75
289.062	96.75
289.293	96.75
289.524	98.75
289.755	85.75
289.986	90.75
290.217	82.75
290.448	101.75
290.679	83.75
290.91	105.75
291.141	96.75
291.371	99.75
291.602	91.75
291.833	106.75
292.064	80.75
292.295	93.75
292.526	86.75
292.757	94.75
292.987	82.75
293.218	108.75
293.449	96.75
293.68	101.75
293.91	88.75
294.141	87.75
294.372	90.75
294.603	81.75
294.833	90.75
295.064	97.75
295.295	78.75
295.525	99.75
295.756	117.75
295.987	124.75
296.217	178.75
296.448	170.75
296.679	111.75
296.909	101.75
297.14	89.75
297.37	106.75
297.601	102.75
297.831	86.75
298.062	93.75
298.292	90.75
298.523	87.75
298.753	90.75
298.984	85.75
299.214	87.75
299.445	100.75
299.675	96.75
299.905	108.75
300.136	104.75
300.366	91.75
300.597	90.75
300.827	95.75
301.057	111.75
301.288	127.75
301.518	103.75
301.748	107.75
301.979	110.75
302.209	103.75
302.439	106.75
302.669	104.75
302.9	102.75
303.13	98.75
303.36	120.75
303.59	157.75
303.82	161.75
304.051	111.75
304.281	95.75
304.511	94.75
304.741	80.75
304.971	79.75
305.201	78.75
305.431	104.75
305.661	106.75
305.891	103.75
306.121	102.75
306.352	112.75
306.582	130.75
306.812	120.75
307.042	124.75
307.272	191.75
307.502	211.75
307.731	188.75
307.961	138.75
308.191	112.75
308.421	95.75
308.651	94.75
308.881	81.75
309.111	100.75
309.341	112.75
309.571	110.75
309.8	114.75
310.03	111.75
310.26	113.75
310.49	114.75
310.72	110.75
310.949	132.75
311.179	121.75
311.409	96.75
311.639	100.75
311.868	108.75
312.098	107.75
312.328	118.75
312.557	115.75
312.787	134.75
313.017	118.75
313.246	97.75
313.476	94.75
313.706	88.75
313.935	93.75
314.165	134.75
314.394	136.75
314.624	124.75
314.853	109.75
315.083	91.75
315.312	103.75
315.542	94.75
315.771	98.75
316.001	81.75
316.23	100.75
316.46	103.75
316.689	97.75
316.919	91.75
317.148	106.75
317.377	97.75
317.607	115.75
317.836	113.75
318.065	96.75
318.295	103.75
318.524	94.75
318.753	93.75
318.983	106.75
319.212	116.75
319.441	125.75
319.67	124.75
319.9	100.75
320.129	84.75
320.358	106.75
320.587	107.75
320.816	104.75
321.046	114.75
321.275	112.75
321.504	93.75
321.733	100.75
321.962	99.75
322.191	109.75
322.42	131.75
322.649	141.75
322.878	121.75
323.108	132.75
323.337	155.75
323.566	165.75
323.795	196.75
324.024	249.75
324.253	493.75
324.482	1033.75
324.71	2090.75
324.939	2709.75
325.168	1026.75
325.397	305.75
325.626	186.75
325.855	157.75
326.084	143.75
326.313	168.75
326.542	167.75
326.77	286.75
326.999	517.75
327.228	1024.75
327.457	1877.75
327.686	1553.75
327.914	616.75
328.143	658.75
328.372	891.75
328.6	485.75
328.829	229.75
329.058	234.75
329.287	225.75
329.515	233.75
329.744	297.75
329.972	609.75
330.201	1293.75
330.43	1947.75
330.658	855.75
330.887	376.75
331.115	233.75
331.344	145.75
331.572	141.75
331.801	149.75
332.03	139.75
332.258	119.75
332.486	112.75
332.715	100.75
332.943	125.75
333.172	129.75
333.4	133.75
333.629	182.75
333.857	272.75
334.085	530.75
334.314	1140.75
334.542	2353.75
334.771	2197.75
334.999	555.75
335.227	219.75
335.455	135.75
335.684	138.75
335.912	106.75
336.14	134.75
336.369	125.75
336.597	113.75
336.825	102.75
337.053	118.75
337.281	108.75
337.51	101.75
337.738	112.75
337.966	106.75
338.194	108.75
338.422	118.75
338.65	96.75
338.878	101.75
339.106	90.75
339.334	93.75
339.562	93.75
339.79	99.75
340.018	87.75
340.246	108.75
340.474	117.75
340.702	105.75
340.93	90.75
341.158	108.75
341.386	118.75
341.614	117.75
341.842	115.75
342.07	112.75
342.298	105.75
342.526	95.75
342.754	74.75
342.981	100.75
343.209	96.75
343.437	106.75
343.665	93.75
343.893	102.75
344.12	101.75
344.348	83.75
344.576	101.75
344.804	101.75
345.031	108.75
345.259	120.75
345.487	115.75
345.714	102.75
345.942	106.75
346.17	95.75
346.397	94.75
346.625	114.75
346.853	106.75
347.08	85.75
347.308	117.75
347.535	117.75
347.763	115.75
347.99	98.75
348.218	119.75
348.445	149.75
348.673	113.75
348.9	108.75
349.128	97.75
349.355	96.75
349.583	100.75
349.81	109.75
350.037	113.75
350.265	104.75
350.492	97.75
350.72	96.75
350.947	111.75
351.174	110.75
351.402	130.75
351.629	110.75
351.856	128.75
352.083	110.75
352.311	118.75
352.538	137.75
352.765	119.75
352.992	129.75
353.22	138.75
353.447	121.75
353.674	101.75
353.901	90.75
354.128	98.75
354.355	96.75
354.583	98.75
354.81	97.75
355.037	106.75
355.264	83.75
355.491	94.75
355.718	81.75
355.945	96.75
356.172	99.75
356.399	96.75
356.626	100.75
356.853	86.75
357.08	93.75
357.307	93.75
357.534	94.75
357.761	101.75
357.988	99.75
358.215	87.75
358.441	95.75
358.668	94.75
358.895	92.75
359.122	78.75
359.349	92.75
359.576	118.75
359.802	131.75
360.029	166.75
360.256	158.75
360.483	123.75
360.709	101.75
360.936	111.75
361.163	98.75
361.39	112.75
361.616	111.75
361.843	117.75
362.07	114.75
362.296	130.75
362.523	117.75
362.749	101.75
362.976	90.75
363.203	98.75
363.429	114.75
363.656	107.75
363.882	89.75
364.109	95.75
364.335	79.75
364.562	90.75
364.788	94.75
365.015	107.75
365.241	108.75
365.468	138.75
365.694	138.75
365.92	113.75
366.147	104.75
366.373	96.75
366.599	84.75
366.826	98.75
367.052	98.75
367.278	103.75
367.505	103.75
367.731	104.75
367.957	93.75
368.184	93.75
368.41	112.75
368.636	128.75
368.862	145.75
369.089	126.75
369.315	112.75
369.541	108.75
369.767	112.75
369.993	93.75
370.219	106.75
370.445	91.75
370.672	97.75
370.898	82.75
371.124	95.75
371.35	94.75
371.576	101.75
371.802	100.75
372.028	90.75
372.254	88.75
372.48	78.75
372.706	73.75
372.932	97.75
373.158	88.75
373.384	96.75
373.61	100.75
373.835	81.75
374.061	94.75
374.287	102.75
374.513	98.75
374.739	80.75
374.965	95.75
375.191	99.75
375.416	94.75
375.642	105.75
375.868	91.75
376.094	87.75
376.319	91.75
376.545	91.75
376.771	81.75
376.997	90.75
377.222	87.75
377.448	103.75
377.674	93.75
377.899	91.75
378.125	73.75
378.35	86.75
378.576	79.75
378.802	85.75
379.027	87.75
379.253	85.75
379.478	88.75
379.704	87.75
379.929	97.75
380.155	98.75
380.38	99.75
380.606	104.75
380.831	92.75
381.057	92.75
381.282	99.75
381.507	100.75
381.733	98.75
381.958	110.75
382.184	98.75
382.409	90.75
382.634	109.75
382.86	89.75
383.085	98.75
383.31	97.75
383.535	87.75
383.761	94.75
383.986	87.75
384.211	105.75
384.436	85.75
384.662	91.75
384.887	86.75
385.112	85.75
385.337	106.75
385.562	112.75
385.787	118.75
386.013	107.75
386.238	127.75
386.463	99.75
386.688	112.75
386.913	89.75
387.138	90.75
387.363	83.75
387.588	95.75
387.813	104.75
388.038	106.75
388.263	98.75
388.488	109.75
388.713	83.75
388.938	88.75
389.163	85.75
389.387	95.75
389.612	88.75
389.837	95.75
390.062	105.75
390.287	93.75
390.512	96.75
390.736	90.75
390.961	81.75
391.186	97.75
391.411	87.75
391.636	89.75
391.86	83.75
392.085	97.75
392.31	97.75
392.534	94.75
392.759	95.75
392.984	86.75
393.208	88.75
393.433	85.75
393.658	85.75
393.882	94.75
394.107	90.75
394.331	85.75
394.556	90.75
394.78	93.75
395.005	94.75
395.229	96.75
395.454	85.75
395.678	95.75
395.903	90.75
396.127	100.75
396.352	98.75
396.576	101.75
396.801	94.75
397.025	96.75
397.249	89.75
397.474	94.75
397.698	82.75
397.922	96.75
398.147	80.75
398.371	87.75
398.595	82.75
398.82	87.75
399.044	87.75
399.268	80.75
399.492	92.75
399.717	101.75
399.941	85.75
400.165	89.75
400.389	93.75
400.613	104.75
400.837	77.75
401.062	98.75
401.286	107.75
401.51	97.75
401.734	96.75
401.958	112.75
402.182	167.75
402.406	244.75
402.63	145.75
402.854	100.75
403.078	95.75
403.302	75.75
403.526	98.75
403.75	102.75
403.974	98.75
404.198	93.75
404.422	87.75
404.645	92.75
404.869	98.75
405.093	123.75
405.317	165.75
405.541	157.75
405.765	143.75
405.988	153.75
406.212	259.75
406.436	418.75
406.66	254.75
406.883	133.75
407.107	115.75
407.331	104.75
407.555	111.75
407.778	122.75
408.002	101.75
408.226	91.75
408.449	86.75
408.673	97.75
408.896	91.75
409.12	110.75
409.344	85.75
409.567	86.75
409.791	93.75
410.014	88.75
410.238	98.75
410.461	101.75
410.685	90.75
410.908	93.75
411.132	105.75
411.355	94.75
411.578	104.75
411.802	95.75
412.025	90.75
412.249	91.75
412.472	123.75
412.695	154.75
412.919	129.75
413.142	104.75
413.365	118.75
413.589	85.75
413.812	85.75
414.035	90.75
414.258	97.75
414.482	104.75
414.705	99.75
414.928	91.75
415.151	103.75
415.374	88.75
415.597	86.75
415.821	86.75
416.044	91.75
416.267	80.75
416.49	89.75
416.713	81.75
416.936	91.75
417.159	110.75
417.382	116.75
417.605	101.75
417.828	115.75
418.051	97.75
418.274	89.75
418.497	85.75
418.72	81.75
418.943	79.75
419.166	93.75
419.389	96.75
419.611	107.75
419.834	97.75
420.057	100.75
420.28	106.75
420.503	89.75
420.726	106.75
420.948	101.75
421.171	107.75
421.394	91.75
421.617	106.75
421.839	87.75
422.062	88.75
422.285	89.75
422.507	96.75
422.73	120.75
422.953	81.75
423.175	93.75
423.398	89.75
423.621	82.75
423.843	87.75
424.066	97.75
424.288	89.75
424.511	104.75
424.733	114.75
424.956	130.75
425.178	104.75
425.401	110.75
425.623	113.75
425.846	103.75
426.068	114.75
426.291	105.75
426.513	99.75
426.735	99.75
426.958	105.75
427.18	139.75
427.402	196.75
427.625	321.75
427.847	268.75
428.069	223.75
428.292	122.75
428.514	102.75
428.736	91.75
428.958	81.75
429.181	89.75
429.403	97.75
429.625	103.75
429.847	104.75
430.069	106.75
430.292	98.75
430.514	93.75
430.736	81.75
430.958	94.75
431.18	95.75
431.402	85.75
431.624	93.75
431.846	81.75
432.068	88.75
432.29	89.75
432.512	94.75
432.734	90.75
432.956	90.75
433.178	90.75
433.4	108.75
433.622	89.75
433.844	97.75
434.066	82.75
434.287	106.75
434.509	90.75
434.731	110.75
434.953	77.75
435.175	79.75
435.397	99.75
435.618	106.75
435.84	117.75
436.062	138.75
436.284	117.75
436.505	105.75
436.727	115.75
436.949	89.75
437.17	91.75
437.392	81.75
437.614	93.75
437.835	130.75
438.057	174.75
438.278	151.75
438.5	125.75
438.721	134.75
438.943	114.75
439.165	92.75
439.386	80.75
439.608	102.75
439.829	107.75
440.05	147.75
440.272	195.75
440.493	122.75
440.715	98.75
440.936	106.75
441.158	96.75
441.379	88.75
441.6	104.75
441.822	91.75
442.043	108.75
442.264	118.75
442.486	131.75
442.707	121.75
442.928	144.75
443.149	177.75
443.371	190.75
443.592	154.75
443.813	126.75
444.034	136.75
444.255	106.75
444.476	98.75
444.698	83.75
444.919	86.75
445.14	132.75
445.361	126.75
445.582	127.75
445.803	194.75
446.024	179.75
446.245	193.75
446.466	143.75
446.687	93.75
446.908	92.75
447.129	88.75
447.35	87.75
447.571	95.75
447.792	99.75
448.013	117.75
448.234	150.75
448.455	111.75
448.675	141.75
448.896	142.75
449.117	119.75
449.338	120.75
449.559	165.75
449.779	171.75
450	106.75
450.221	86.75
450.442	88.75
450.662	109.75
450.883	145.75
451.104	174.75
451.324	124.75
451.545	98.75
451.766	93.75
451.986	95.75
452.207	98.75
452.428	109.75
452.648	113.75
452.869	155.75
453.089	149.75
453.31	144.75
453.53	104.75
453.751	121.75
453.971	130.75
454.192	161.75
454.412	110.75
454.633	75.75
454.853	97.75
455.073	90.75
455.294	95.75
455.514	122.75
455.734	97.75
455.955	93.75
456.175	86.75
456.395	99.75
456.616	87.75
456.836	78.75
457.056	87.75
457.276	81.75
457.497	101.75
457.717	88.75
457.937	91.75
458.157	91.75
458.377	119.75
458.598	144.75
458.818	266.75
459.038	269.75
459.258	177.75
459.478	111.75
459.698	98.75
459.918	97.75
460.138	98.75
460.358	91.75
460.578	77.75
460.798	96.75
461.018	99.75
461.238	99.75
461.458	85.75
461.678	80.75
461.898	80.75
462.118	86.75
462.338	84.75
462.558	97.75
462.777	90.75
462.997	93.75
463.217	103.75
463.437	98.75
463.657	98.75
463.876	106.75
464.096	98.75
464.316	114.75
464.536	106.75
464.755	104.75
464.975	140.75
465.195	307.75
465.414	305.75
465.634	128.75
465.854	104.75
466.073	102.75
466.293	90.75
466.512	101.75
466.732	82.75
466.951	96.75
467.171	114.75
467.391	120.75
467.61	176.75
467.829	264.75
468.049	714.75
468.268	1132.75
468.488	277.75
468.707	120.75
468.927	101.75
469.146	96.75
469.365	89.75
469.585	107.75
469.804	127.75
470.023	134.75
470.243	111.75
470.462	123.75
470.681	148.75
470.901	127.75
471.12	101.75
471.339	111.75
471.558	123.75
471.777	157.75
471.997	355.75
472.216	1381.75
472.435	3273.75
472.654	727.75
472.873	175.75
473.092	99.75
473.311	104.75
473.53	107.75
473.749	105.75
473.968	114.75
474.187	126.75
474.406	111.75
474.625	108.75
474.844	97.75
475.063	91.75
475.282	101.75
475.501	105.75
475.72	86.75
475.939	93.75
476.158	85.75
476.377	89.75
476.596	105.75
476.814	116.75
477.033	112.75
477.252	108.75
477.471	97.75
477.69	88.75
477.908	94.75
478.127	96.75
478.346	94.75
478.564	112.75
478.783	109.75
479.002	110.75
479.22	111.75
479.439	135.75
479.658	155.75
479.876	147.75
480.095	126.75
480.313	145.75
480.532	174.75
480.751	347.75
480.969	1226.75
481.188	5576.75
481.406	3151.75
481.624	439.75
481.843	184.75
482.061	116.75
482.28	118.75
482.498	94.75
482.717	100.75
482.935	100.75
483.153	75.75
483.372	97.75
483.59	89.75
483.808	90.75
484.027	98.75
484.245	105.75
484.463	114.75
484.681	101.75
484.9	100.75
485.118	90.75
485.336	99.75
485.554	101.75
485.772	98.75
485.99	104.75
486.209	118.75
486.427	137.75
486.645	140.75
486.863	152.75
487.081	105.75
487.299	105.75
487.517	94.75
487.735	82.75
487.953	98.75
488.171	114.75
488.389	102.75
488.607	102.75
488.825	96.75
489.043	102.75
489.261	101.75
489.479	97.75
489.696	95.75
489.914	103.75
490.132	92.75
490.35	102.75
490.568	104.75
490.786	88.75
491.003	90.75
491.221	112.75
491.439	111.75
491.657	103.75
491.874	97.75
492.092	92.75
492.31	105.75
492.527	103.75
492.745	116.75
492.963	97.75
493.18	88.75
493.398	91.75
493.615	104.75
493.833	90.75
494.05	88.75
494.268	80.75
494.485	92.75
494.703	109.75
494.92	90.75
495.138	93.75
495.355	98.75
495.573	106.75
495.79	101.75
496.008	92.75
496.225	89.75
496.442	95.75
496.66	99.75
496.877	112.75
497.094	97.75
497.312	70.75
497.529	102.75
497.746	104.75
497.963	106.75
498.181	105.75
498.398	102.75
498.615	122.75
498.832	113.75
499.049	98.75
499.267	96.75
499.484	103.75
499.701	95.75
499.918	100.75
500.135	101.75
500.352	86.75
500.569	90.75
500.786	102.75
501.003	97.75
501.22	89.75
501.437	95.75
501.654	112.75
501.871	141.75
502.088	105.75
502.305	93.75
502.522	103.75
502.739	94.75
502.956	89.75
503.172	108.75
503.389	114.75
503.606	121.75
503.823	107.75
504.04	120.75
504.256	107.75
504.473	87.75
504.69	99.75
504.907	118.75
505.123	92.75
505.34	105.75
505.557	102.75
505.773	108.75
505.99	88.75
506.207	104.75
506.423	97.75
506.64	109.75
506.856	101.75
507.073	99.75
507.289	90.75
507.506	99.75
507.722	156.75
507.939	146.75
508.155	119.75
508.372	101.75
508.588	111.75
508.805	115.75
509.021	101.75
509.238	112.75
509.454	115.75
509.67	110.75
509.887	135.75
510.103	163.75
510.319	273.75
510.536	1095.75
510.752	3984.75
510.968	1042.75
511.184	207.75
511.401	142.75
511.617	139.75
511.833	126.75
512.049	113.75
512.265	98.75
512.481	101.75
512.698	101.75
512.914	95.75
513.13	95.75
513.346	96.75
513.562	96.75
513.778	122.75
513.994	130.75
514.21	127.75
514.426	165.75
514.642	227.75
514.858	194.75
515.074	280.75
515.29	925.75
515.506	3462.75
515.721	1193.75
515.937	260.75
516.153	156.75
516.369	122.75
516.585	124.75
516.801	123.75
517.016	109.75
517.232	101.75
517.448	95.75
517.664	102.75
517.879	114.75
518.095	90.75
518.311	111.75
518.527	130.75
518.742	95.75
518.958	100.75
519.173	117.75
519.389	101.75
519.605	90.75
519.82	109.75
520.036	106.75
520.251	169.75
520.467	167.75
520.682	132.75
520.898	146.75
521.113	175.75
521.329	223.75
521.544	394.75
521.76	1253.75
521.975	5812.75
522.19	3439.75
522.406	649.75
522.621	196.75
522.836	142.75
523.052	113.75
523.267	112.75
523.482	95.75
523.698	123.75
523.913	170.75
524.128	141.75
524.343	117.75
524.559	108.75
524.774	93.75
524.989	95.75
525.204	133.75
525.419	106.75
525.634	103.75
525.849	112.75
526.064	93.75
526.28	93.75
526.495	86.75
526.71	90.75
526.925	86.75
527.14	87.75
527.355	97.75
527.57	93.75
527.785	92.75
527.999	81.75
528.214	91.75
528.429	99.75
528.644	97.75
528.859	111.75
529.074	121.75
529.289	185.75
529.503	362.75
529.718	141.75
529.933	90.75
530.148	109.75
530.363	94.75
530.577	95.75
530.792	104.75
531.007	82.75
531.221	95.75
531.436	99.75
531.651	95.75
531.865	89.75
532.08	98.75
532.295	100.75
532.509	92.75
532.724	95.75
532.938	106.75
533.153	93.75
533.367	99.75
533.582	90.75
533.796	98.75
534.011	106.75
534.225	90.75
534.44	95.75
534.654	117.75
534.868	93.75
535.083	99.75
535.297	107.75
535.511	113.75
535.726	115.75
535.94	124.75
536.154	100.75
536.369	94.75
536.583	94.75
536.797	86.75
537.011	84.75
537.225	82.75
537.44	89.75
537.654	87.75
537.868	93.75
538.082	83.75
538.296	102.75
538.51	98.75
538.724	101.75
538.938	102.75
539.153	119.75
539.367	130.75
539.581	101.75
539.795	88.75
540.009	100.75
540.222	90.75
540.436	103.75
540.65	99.75
540.864	98.75
541.078	113.75
541.292	106.75
541.506	90.75
541.72	99.75
541.934	91.75
542.147	94.75
542.361	82.75
542.575	105.75
542.789	103.75
543.002	89.75
543.216	115.75
543.43	106.75
543.644	101.75
543.857	97.75
544.071	82.75
544.285	98.75
544.498	88.75
544.712	85.75
544.925	78.75
545.139	98.75
545.352	84.75
545.566	80.75
545.779	99.75
545.993	78.75
546.206	93.75
546.42	97.75
546.633	95.75
546.847	90.75
547.06	98.75
547.274	81.75
547.487	96.75
547.7	98.75
547.914	89.75
548.127	90.75
548.34	89.75
548.554	88.75
548.767	83.75
548.98	93.75
549.193	101.75
549.407	91.75
549.62	96.75
549.833	106.75
550.046	96.75
550.259	104.75
550.473	76.75
550.686	86.75
550.899	83.75
551.112	97.75
551.325	93.75
551.538	115.75
551.751	106.75
551.964	82.75
552.177	90.75
552.39	93.75
552.603	89.75
552.816	90.75
553.029	94.75
553.242	96.75
553.455	113.75
553.667	136.75
553.88	138.75
554.093	121.75
554.306	132.75
554.519	132.75
554.732	96.75
554.944	88.75
555.157	102.75
555.37	86.75
555.583	89.75
555.795	104.75
556.008	96.75
556.221	93.75
556.433	90.75
556.646	80.75
556.859	99.75
557.071	86.75
557.284	99.75
557.496	95.75
557.709	89.75
557.921	89.75
558.134	99.75
558.346	98.75
558.559	103.75
558.771	96.75
558.984	99.75
559.196	106.75
559.409	102.75
559.621	99.75
559.833	100.75
560.046	95.75
560.258	116.75
560.47	133.75
560.683	99.75
560.895	96.75
561.107	99.75
561.32	98.75
561.532	89.75
561.744	95.75
561.956	103.75
562.168	84.75
562.381	105.75
562.593	93.75
562.805	87.75
563.017	101.75
563.229	110.75
563.441	83.75
563.653	80.75
563.865	109.75
564.077	93.75
564.289	90.75
564.501	91.75
564.713	106.75
564.925	92.75
565.137	136.75
565.349	114.75
565.561	94.75
565.773	86.75
565.985	77.75
566.197	79.75
566.408	88.75
566.62	100.75
566.832	97.75
567.044	79.75
567.255	90.75
567.467	82.75
567.679	87.75
567.891	87.75
568.102	83.75
568.314	94.75
568.526	90.75
568.737	97.75
568.949	79.75
569.161	95.75
569.372	84.75
569.584	99.75
569.795	106.75
570.007	138.75
570.218	342.75
570.43	183.75
570.641	95.75
570.853	94.75
571.064	78.75
571.276	81.75
571.487	78.75
571.698	97.75
571.91	89.75
572.121	82.75
572.333	80.75
572.544	89.75
572.755	96.75
572.966	78.75
573.178	85.75
573.389	98.75
573.6	102.75
573.811	95.75
574.023	96.75
574.234	86.75
574.445	90.75
574.656	88.75
574.867	97.75
575.078	83.75
575.289	95.75
575.501	89.75
575.712	85.75
575.923	82.75
576.134	76.75
576.345	88.75
576.556	83.75
576.767	80.75
576.978	82.75
577.188	95.75
577.399	105.75
577.61	98.75
577.821	100.75
578.032	124.75
578.243	398.75
578.454	1264.75
578.665	300.75
578.875	126.75
579.086	105.75
579.297	101.75
579.508	89.75
579.718	93.75
579.929	86.75
580.14	84.75
580.35	91.75
580.561	88.75
580.772	72.75
580.982	78.75
581.193	83.75
581.403	93.75
581.614	77.75
581.825	100.75
582.035	77.75
582.246	93.75
582.456	85.75
582.667	81.75
582.877	80.75
583.087	82.75
583.298	92.75
583.508	76.75
583.719	90.75
583.929	88.75
584.139	96.75
584.35	90.75
584.56	97.75
584.77	84.75
584.981	89.75
585.191	97.75
585.401	98.75
585.611	98.75
585.821	88.75
586.032	88.75
586.242	86.75
586.452	90.75
586.662	83.75
586.872	100.75
587.082	87.75
587.292	91.75
587.502	82.75
587.713	90.75
587.923	97.75
588.133	93.75
588.343	89.75
588.553	95.75
588.762	81.75
588.972	97.75
589.182	148.75
589.392	123.75
589.602	113.75
589.812	107.75
590.022	100.75
590.232	80.75
590.441	90.75
590.651	80.75
590.861	88.75
591.071	95.75
591.281	93.75
591.49	86.75
591.7	97.75
591.91	101.75
592.119	80.75
592.329	99.75
592.539	105.75
592.748	90.75
592.958	93.75
593.167	81.75
593.377	84.75
593.587	91.75
593.796	87.75
594.006	81.75
594.215	89.75
594.424	72.75
594.634	94.75
594.843	89.75
595.053	81.75
595.262	82.75
595.472	80.75
595.681	89.75
595.89	85.75
596.1	89.75
596.309	85.75
596.518	93.75
596.727	97.75
596.937	110.75
597.146	96.75
597.355	84.75
597.564	87.75
597.774	98.75
597.983	86.75
598.192	84.75
598.401	91.75
598.61	77.75
598.819	85.75
599.028	97.75
599.237	87.75
599.446	89.75
599.655	80.75
599.864	105.75
600.073	83.75
600.282	98.75
600.491	87.75
600.7	85.75
600.909	95.75
601.118	87.75
601.327	93.75
601.536	93.75
601.745	85.75
601.953	81.75
602.162	95.75
602.371	83.75
602.58	83.75
602.789	82.75
602.997	84.75
603.206	103.75
603.415	82.75
603.623	88.75
603.832	83.75
604.041	109.75
604.249	91.75
604.458	83.75
604.666	78.75
604.875	98.75
605.084	69.75
605.292	89.75
605.501	91.75
605.709	85.75
605.918	93.75
606.126	90.75
606.334	74.75
606.543	89.75
606.751	85.75
606.96	75.75
607.168	85.75
607.376	96.75
607.585	95.75
607.793	83.75
608.001	90.75
608.21	98.75
608.418	84.75
608.626	85.75
608.834	84.75
609.043	78.75
609.251	84.75
609.459	91.75
609.667	90.75
609.875	89.75
610.083	84.75
610.291	89.75
610.499	95.75
610.707	90.75
610.916	81.75
611.124	95.75
611.332	83.75
611.54	89.75
611.748	75.75
611.955	91.75
612.163	98.75
612.371	72.75
612.579	83.75
612.787	82.75
612.995	90.75
613.203	89.75
613.411	84.75
613.618	86.75
613.826	93.75
614.034	100.75
614.242	101.75
614.449	82.75
614.657	88.75
614.865	105.75
615.072	93.75
615.28	107.75
615.488	90.75
615.695	85.75
615.903	102.75
616.111	85.75
616.318	83.75
616.526	102.75
616.733	92.75
616.941	92.75
617.148	88.75
617.356	88.75
617.563	87.75
617.771	91.75
617.978	88.75
618.185	104.75
618.393	86.75
618.6	86.75
618.807	77.75
619.015	83.75
619.222	87.75
619.429	82.75
619.637	84.75
619.844	87.75
620.051	99.75
620.258	96.75
620.466	93.75
620.673	70.75
620.88	97.75
621.087	97.75
621.294	79.75
621.501	85.75
621.708	98.75
621.915	85.75
622.122	97.75
622.329	86.75
622.536	85.75
622.743	78.75
622.95	96.75
623.157	94.75
623.364	90.75
623.571	87.75
623.778	91.75
623.985	81.75
624.192	94.75
624.399	86.75
624.606	81.75
624.812	88.75
625.019	83.75
625.226	73.75
625.433	81.75
625.639	87.75
625.846	89.75
626.053	75.75
626.259	92.75
626.466	82.75
626.673	93.75
626.879	79.75
627.086	83.75
627.293	87.75
627.499	93.75
627.706	92.75
627.912	93.75
628.119	79.75
628.325	84.75
628.532	93.75
628.738	89.75
628.945	78.75
629.151	83.75
629.357	91.75
629.564	89.75
629.77	88.75
629.976	81.75
630.183	74.75
630.389	74.75
630.595	86.75
630.802	90.75
631.008	85.75
631.214	96.75
631.42	98.75
631.627	91.75
631.833	87.75
632.039	86.75
632.245	79.75
632.451	90.75
632.657	82.75
632.863	78.75
633.069	83.75
633.275	78.75
633.481	85.75
633.688	85.75
633.893	94.75
634.099	92.75
634.305	87.75
634.511	81.75
634.717	88.75
634.923	87.75
635.129	91.75
635.335	82.75
635.541	92.75
635.747	102.75
635.952	95.75
636.158	157.75
636.364	479.75
636.57	407.75
636.775	163.75
636.981	113.75
637.187	79.75
637.392	85.75
637.598	80.75
637.804	83.75
638.009	89.75
638.215	82.75
638.421	82.75
638.626	82.75
638.832	78.75
639.037	81.75
639.243	83.75
639.448	84.75
639.654	94.75
639.859	81.75
640.065	84.75
640.27	87.75
640.475	80.75
640.681	75.75
640.886	66.75
641.091	91.75
641.297	90.75
641.502	90.75
641.707	92.75
641.913	84.75
642.118	73.75
642.323	81.75
642.528	71.75
642.733	70.75
642.939	74.75
643.144	84.75
643.349	83.75
643.554	93.75
643.759	89.75
643.964	94.75
644.169	86.75
644.374	87.75
644.579	75.75
644.784	86.75
644.989	79.75
645.194	85.75
645.399	73.75
645.604	87.75
645.809	85.75
646.014	92.75
646.219	82.75
646.423	73.75
646.628	70.75
646.833	87.75
647.038	79.75
647.243	74.75
647.447	81.75
647.652	82.75
647.857	84.75
648.062	93.75
648.266	93.75
648.471	85.75
648.676	95.75
648.88	85.75
649.085	98.75
649.289	80.75
649.494	109.75
649.698	137.75
649.903	117.75
650.107	81.75
650.312	83.75
650.516	85.75
650.721	93.75
650.925	93.75
651.13	107.75
651.334	86.75
651.539	84.75
651.743	81.75
651.947	84.75
652.152	86.75
652.356	93.75
652.56	74.75
652.764	77.75
652.969	73.75
653.173	81.75
653.377	82.75
653.581	83.75
653.785	85.75
653.99	101.75
654.194	84.75
654.398	94.75
654.602	80.75
654.806	94.75
655.01	97.75
655.214	88.75
655.418	88.75
655.622	81.75
655.826	90.75
656.03	90.75
656.234	90.75
656.438	104.75
656.642	101.75
656.846	85.75
657.049	85.75
657.253	102.75
657.457	90.75
657.661	84.75
657.865	93.75
658.068	88.75
658.272	79.75
658.476	86.75
658.68	86.75
658.883	70.75
659.087	74.75
659.291	62.75
659.494	85.75
659.698	74.75
659.901	81.75
660.105	86.75
660.309	77.75
660.512	92.75
660.716	80.75
660.919	82.75
661.123	78.75
661.326	83.75
661.53	81.75
661.733	69.75
661.936	79.75
662.14	77.75
662.343	86.75
662.546	66.75
662.75	72.75
662.953	92.75
663.156	79.75
663.36	90.75
663.563	79.75
663.766	87.75
663.969	82.75
664.173	92.75
664.376	69.75
664.579	84.75
664.782	80.75
664.985	74.75
665.188	78.75
665.391	72.75
665.594	72.75
665.797	96.75
666	85.75
666.203	70.75
666.406	73.75
666.609	93.75
666.812	72.75
667.015	89.75
667.218	90.75
667.421	96.75
667.624	79.75
667.827	84.75
668.03	85.75
668.232	78.75
668.435	81.75
668.638	74.75
668.841	84.75
669.043	70.75
669.246	80.75
669.449	77.75
669.651	88.75
669.854	91.75
670.057	74.75
670.259	84.75
670.462	94.75
670.665	85.75
670.867	90.75
671.07	80.75
671.272	94.75
671.475	90.75
671.677	83.75
671.88	75.75
672.082	88.75
672.284	77.75
672.487	89.75
672.689	79.75
672.892	82.75
