Data from Circ_1987_H10_HRD10591_00031.txt Node
Date: Wed Jan 03 12:10:39 EST 2024
User: Yrep
Spectrometer: HR+D1059
Trigger mode: 1
Integration Time (sec): 1.000000E-1
Scans to average: 1
Electric dark correction enabled: true
Nonlinearity correction enabled: false
Boxcar width: 0
XAxis mode: Wavelengths
Number of Pixels in Spectrum: 2048
>>>>>Begin Spectral Data<<<<<
223.165	-19.94
223.4	-19.94
223.635	-19.94
223.869	-16.94
224.104	-27.94
224.338	-23.94
224.573	-13.94
224.808	-5.94
225.042	-6.94
225.277	2.06
225.511	-0.94
225.746	14.06
225.98	8.06
226.215	5.06
226.449	11.06
226.683	14.06
226.918	36.06
227.152	26.06
227.387	31.06
227.621	35.06
227.856	50.06
228.09	43.06
228.324	46.06
228.559	54.06
228.793	63.06
229.027	73.06
229.262	59.06
229.496	74.06
229.73	113.06
229.964	97.06
230.199	74.06
230.433	80.06
230.667	86.06
230.901	81.06
231.136	89.06
231.37	84.06
231.604	83.06
231.838	74.06
232.072	80.06
232.306	75.06
232.541	78.06
232.775	78.06
233.009	87.06
233.243	64.06
233.477	85.06
233.711	94.06
233.945	80.06
234.179	82.06
234.413	80.06
234.647	71.06
234.881	90.06
235.115	98.06
235.349	73.06
235.583	78.06
235.817	87.06
236.051	81.06
236.285	66.06
236.519	71.06
236.753	82.06
236.987	84.06
237.221	84.06
237.455	89.06
237.689	86.06
237.922	81.06
238.156	70.06
238.39	67.06
238.624	69.06
238.858	70.06
239.091	74.06
239.325	81.06
239.559	89.06
239.793	83.06
240.027	88.06
240.26	72.06
240.494	73.06
240.728	75.06
240.961	81.06
241.195	101.06
241.429	89.06
241.662	80.06
241.896	82.06
242.13	67.06
242.363	85.06
242.597	73.06
242.83	95.06
243.064	68.06
243.298	78.06
243.531	80.06
243.765	94.06
243.998	87.06
244.232	88.06
244.465	83.06
244.699	81.06
244.932	81.06
245.166	80.06
245.399	78.06
245.633	75.06
245.866	71.06
246.099	73.06
246.333	93.06
246.566	94.06
246.8	85.06
247.033	91.06
247.266	76.06
247.5	86.06
247.733	88.06
247.966	82.06
248.2	86.06
248.433	75.06
248.666	74.06
248.899	87.06
249.133	92.06
249.366	92.06
249.599	105.06
249.832	88.06
250.066	86.06
250.299	80.06
250.532	86.06
250.765	72.06
250.998	85.06
251.231	78.06
251.465	92.06
251.698	86.06
251.931	83.06
252.164	88.06
252.397	101.06
252.63	76.06
252.863	97.06
253.096	70.06
253.329	83.06
253.562	80.06
253.795	78.06
254.028	91.06
254.261	83.06
254.494	79.06
254.727	87.06
254.96	83.06
255.193	73.06
255.426	96.06
255.659	92.06
255.892	97.06
256.124	98.06
256.357	95.06
256.59	85.06
256.823	83.06
257.056	83.06
257.289	73.06
257.521	82.06
257.754	78.06
257.987	90.06
258.22	89.06
258.452	92.06
258.685	86.06
258.918	101.06
259.151	78.06
259.383	78.06
259.616	92.06
259.849	87.06
260.081	97.06
260.314	85.06
260.547	91.06
260.779	104.06
261.012	114.06
261.244	102.06
261.477	96.06
261.71	112.06
261.942	133.06
262.175	142.06
262.407	106.06
262.64	78.06
262.872	89.06
263.105	85.06
263.337	88.06
263.57	73.06
263.802	88.06
264.035	84.06
264.267	87.06
264.499	76.06
264.732	98.06
264.964	90.06
265.197	83.06
265.429	93.06
265.661	62.06
265.894	81.06
266.126	91.06
266.358	82.06
266.591	91.06
266.823	75.06
267.055	87.06
267.287	86.06
267.52	87.06
267.752	78.06
267.984	82.06
268.216	82.06
268.448	96.06
268.681	90.06
268.913	84.06
269.145	82.06
269.377	88.06
269.609	79.06
269.841	76.06
270.073	88.06
270.306	88.06
270.538	101.06
270.77	88.06
271.002	103.06
271.234	88.06
271.466	78.06
271.698	87.06
271.93	91.06
272.162	85.06
272.394	94.06
272.626	89.06
272.858	86.06
273.09	89.06
273.322	99.06
273.553	82.06
273.785	88.06
274.017	83.06
274.249	86.06
274.481	86.06
274.713	86.06
274.945	87.06
275.176	92.06
275.408	108.06
275.64	102.06
275.872	112.06
276.104	98.06
276.335	106.06
276.567	123.06
276.799	142.06
277.031	151.06
277.262	171.06
277.494	140.06
277.726	103.06
277.957	105.06
278.189	87.06
278.421	99.06
278.652	85.06
278.884	87.06
279.115	82.06
279.347	89.06
279.579	100.06
279.81	113.06
280.042	168.06
280.273	224.06
280.505	167.06
280.736	112.06
280.968	88.06
281.199	83.06
281.431	82.06
281.662	84.06
281.894	87.06
282.125	102.06
282.356	144.06
282.588	192.06
282.819	129.06
283.051	94.06
283.282	92.06
283.513	95.06
283.745	82.06
283.976	82.06
284.207	101.06
284.439	89.06
284.67	84.06
284.901	86.06
285.132	84.06
285.364	78.06
285.595	74.06
285.826	89.06
286.057	89.06
286.288	90.06
286.52	96.06
286.751	101.06
286.982	84.06
287.213	84.06
287.444	86.06
287.675	73.06
287.906	83.06
288.138	103.06
288.369	84.06
288.6	84.06
288.831	76.06
289.062	94.06
289.293	89.06
289.524	87.06
289.755	82.06
289.986	105.06
290.217	88.06
290.448	96.06
290.679	74.06
290.91	96.06
291.141	98.06
291.371	114.06
291.602	94.06
291.833	86.06
292.064	80.06
292.295	82.06
292.526	82.06
292.757	82.06
292.987	90.06
293.218	103.06
293.449	99.06
293.68	82.06
293.91	94.06
294.141	88.06
294.372	94.06
294.603	77.06
294.833	85.06
295.064	88.06
295.295	95.06
295.525	91.06
295.756	102.06
295.987	126.06
296.217	174.06
296.448	142.06
296.679	113.06
296.909	107.06
297.14	92.06
297.37	90.06
297.601	98.06
297.831	95.06
298.062	86.06
298.292	104.06
298.523	90.06
298.753	94.06
298.984	99.06
299.214	96.06
299.445	107.06
299.675	102.06
299.905	116.06
300.136	96.06
300.366	89.06
300.597	89.06
300.827	84.06
301.057	111.06
301.288	108.06
301.518	111.06
301.748	96.06
301.979	112.06
302.209	96.06
302.439	95.06
302.669	93.06
302.9	103.06
303.13	105.06
303.36	115.06
303.59	132.06
303.82	140.06
304.051	113.06
304.281	94.06
304.511	94.06
304.741	87.06
304.971	90.06
305.201	105.06
305.431	99.06
305.661	99.06
305.891	88.06
306.121	105.06
306.352	110.06
306.582	124.06
306.812	102.06
307.042	128.06
307.272	144.06
307.502	171.06
307.731	164.06
307.961	114.06
308.191	92.06
308.421	101.06
308.651	88.06
308.881	88.06
309.111	91.06
309.341	120.06
309.571	109.06
309.8	95.06
310.03	100.06
310.26	114.06
310.49	104.06
310.72	109.06
310.949	119.06
311.179	109.06
311.409	99.06
311.639	111.06
311.868	98.06
312.098	84.06
312.328	104.06
312.557	115.06
312.787	114.06
313.017	105.06
313.246	99.06
313.476	71.06
313.706	86.06
313.935	107.06
314.165	90.06
314.394	108.06
314.624	114.06
314.853	98.06
315.083	114.06
315.312	94.06
315.542	97.06
315.771	96.06
316.001	94.06
316.23	94.06
316.46	98.06
316.689	106.06
316.919	95.06
317.148	110.06
317.377	95.06
317.607	95.06
317.836	98.06
318.065	96.06
318.295	106.06
318.524	99.06
318.753	97.06
318.983	94.06
319.212	116.06
319.441	126.06
319.67	113.06
319.9	101.06
320.129	100.06
320.358	94.06
320.587	115.06
320.816	118.06
321.046	103.06
321.275	112.06
321.504	102.06
321.733	92.06
321.962	109.06
322.191	105.06
322.42	115.06
322.649	111.06
322.878	121.06
323.108	112.06
323.337	141.06
323.566	142.06
323.795	176.06
324.024	202.06
324.253	393.06
324.482	806.06
324.71	1636.06
324.939	2202.06
325.168	850.06
325.397	260.06
325.626	147.06
325.855	132.06
326.084	130.06
326.313	144.06
326.542	142.06
326.77	229.06
326.999	435.06
327.228	841.06
327.457	1489.06
327.686	1250.06
327.914	482.06
328.143	472.06
328.372	564.06
328.6	329.06
328.829	189.06
329.058	198.06
329.287	203.06
329.515	177.06
329.744	216.06
329.972	415.06
330.201	801.06
330.43	1212.06
330.658	554.06
330.887	294.06
331.115	182.06
331.344	135.06
331.572	106.06
331.801	127.06
332.03	139.06
332.258	97.06
332.486	109.06
332.715	99.06
332.943	108.06
333.172	115.06
333.4	122.06
333.629	161.06
333.857	226.06
334.085	348.06
334.314	727.06
334.542	1458.06
334.771	1422.06
334.999	402.06
335.227	158.06
335.455	126.06
335.684	111.06
335.912	117.06
336.14	110.06
336.369	95.06
336.597	119.06
336.825	111.06
337.053	96.06
337.281	104.06
337.51	105.06
337.738	97.06
337.966	106.06
338.194	99.06
338.422	106.06
338.65	109.06
338.878	87.06
339.106	94.06
339.334	106.06
339.562	101.06
339.79	90.06
340.018	100.06
340.246	92.06
340.474	107.06
340.702	115.06
340.93	99.06
341.158	105.06
341.386	117.06
341.614	102.06
341.842	100.06
342.07	106.06
342.298	87.06
342.526	75.06
342.754	100.06
342.981	81.06
343.209	82.06
343.437	103.06
343.665	94.06
343.893	87.06
344.12	95.06
344.348	92.06
344.576	96.06
344.804	103.06
345.031	107.06
345.259	122.06
345.487	111.06
345.714	96.06
345.942	98.06
346.17	96.06
346.397	85.06
346.625	83.06
346.853	90.06
347.08	101.06
347.308	92.06
347.535	104.06
347.763	105.06
347.99	118.06
348.218	96.06
348.445	131.06
348.673	114.06
348.9	86.06
349.128	104.06
349.355	101.06
349.583	94.06
349.81	93.06
350.037	92.06
350.265	103.06
350.492	106.06
350.72	79.06
350.947	114.06
351.174	110.06
351.402	130.06
351.629	114.06
351.856	120.06
352.083	101.06
352.311	120.06
352.538	120.06
352.765	119.06
352.992	115.06
353.22	115.06
353.447	113.06
353.674	107.06
353.901	97.06
354.128	99.06
354.355	98.06
354.583	109.06
354.81	86.06
355.037	107.06
355.264	100.06
355.491	94.06
355.718	94.06
355.945	96.06
356.172	85.06
356.399	91.06
356.626	94.06
356.853	111.06
357.08	92.06
357.307	80.06
357.534	99.06
357.761	84.06
357.988	100.06
358.215	100.06
358.441	83.06
358.668	85.06
358.895	82.06
359.122	91.06
359.349	117.06
359.576	104.06
359.802	130.06
360.029	156.06
360.256	144.06
360.483	121.06
360.709	99.06
360.936	98.06
361.163	96.06
361.39	106.06
361.616	111.06
361.843	94.06
362.07	106.06
362.296	108.06
362.523	94.06
362.749	103.06
362.976	101.06
363.203	95.06
363.429	85.06
363.656	100.06
363.882	103.06
364.109	100.06
364.335	105.06
364.562	89.06
364.788	89.06
365.015	88.06
365.241	113.06
365.468	142.06
365.694	129.06
365.92	105.06
366.147	91.06
366.373	83.06
366.599	99.06
366.826	94.06
367.052	92.06
367.278	90.06
367.505	95.06
367.731	104.06
367.957	94.06
368.184	111.06
368.41	113.06
368.636	118.06
368.862	148.06
369.089	135.06
369.315	99.06
369.541	89.06
369.767	98.06
369.993	95.06
370.219	106.06
370.445	86.06
370.672	83.06
370.898	90.06
371.124	92.06
371.35	90.06
371.576	114.06
371.802	101.06
372.028	98.06
372.254	78.06
372.48	91.06
372.706	92.06
372.932	84.06
373.158	92.06
373.384	100.06
373.61	90.06
373.835	94.06
374.061	98.06
374.287	100.06
374.513	87.06
374.739	92.06
374.965	86.06
375.191	86.06
375.416	98.06
375.642	98.06
375.868	94.06
376.094	109.06
376.319	100.06
376.545	71.06
376.771	99.06
376.997	89.06
377.222	99.06
377.448	99.06
377.674	78.06
377.899	88.06
378.125	95.06
378.35	83.06
378.576	88.06
378.802	95.06
379.027	89.06
379.253	78.06
379.478	98.06
379.704	82.06
379.929	102.06
380.155	107.06
380.38	90.06
380.606	90.06
380.831	90.06
381.057	95.06
381.282	90.06
381.507	98.06
381.733	103.06
381.958	98.06
382.184	90.06
382.409	95.06
382.634	110.06
382.86	99.06
383.085	104.06
383.31	102.06
383.535	106.06
383.761	87.06
383.986	111.06
384.211	98.06
384.436	107.06
384.662	86.06
384.887	100.06
385.112	108.06
385.337	110.06
385.562	110.06
385.787	106.06
386.013	107.06
386.238	127.06
386.463	111.06
386.688	118.06
386.913	113.06
387.138	116.06
387.363	111.06
387.588	98.06
387.813	113.06
388.038	105.06
388.263	106.06
388.488	110.06
388.713	109.06
388.938	102.06
389.163	89.06
389.387	93.06
389.612	97.06
389.837	85.06
390.062	94.06
390.287	99.06
390.512	102.06
390.736	82.06
390.961	85.06
391.186	76.06
391.411	83.06
391.636	107.06
391.86	98.06
392.085	95.06
392.31	92.06
392.534	94.06
392.759	96.06
392.984	83.06
393.208	92.06
393.433	97.06
393.658	87.06
393.882	88.06
394.107	91.06
394.331	89.06
394.556	67.06
394.78	91.06
395.005	90.06
395.229	75.06
395.454	84.06
395.678	89.06
395.903	102.06
396.127	95.06
396.352	86.06
396.576	90.06
396.801	84.06
397.025	94.06
397.249	93.06
397.474	91.06
397.698	100.06
397.922	73.06
398.147	81.06
398.371	94.06
398.595	99.06
398.82	73.06
399.044	92.06
399.268	95.06
399.492	99.06
399.717	92.06
399.941	93.06
400.165	100.06
400.389	95.06
400.613	86.06
400.837	72.06
401.062	84.06
401.286	88.06
401.51	73.06
401.734	86.06
401.958	89.06
402.182	175.06
402.406	232.06
402.63	164.06
402.854	96.06
403.078	111.06
403.302	89.06
403.526	104.06
403.75	114.06
403.974	86.06
404.198	87.06
404.422	74.06
404.645	95.06
404.869	85.06
405.093	112.06
405.317	127.06
405.541	126.06
405.765	120.06
405.988	125.06
406.212	233.06
406.436	363.06
406.66	213.06
406.883	113.06
407.107	95.06
407.331	111.06
407.555	107.06
407.778	97.06
408.002	105.06
408.226	96.06
408.449	98.06
408.673	89.06
408.896	99.06
409.12	106.06
409.344	109.06
409.567	76.06
409.791	84.06
410.014	99.06
410.238	97.06
410.461	83.06
410.685	96.06
410.908	89.06
411.132	100.06
411.355	115.06
411.578	90.06
411.802	90.06
412.025	105.06
412.249	104.06
412.472	112.06
412.695	134.06
412.919	96.06
413.142	111.06
413.365	98.06
413.589	96.06
413.812	100.06
414.035	103.06
414.258	86.06
414.482	94.06
414.705	88.06
414.928	96.06
415.151	101.06
415.374	112.06
415.597	86.06
415.821	96.06
416.044	91.06
416.267	80.06
416.49	98.06
416.713	104.06
416.936	96.06
417.159	88.06
417.382	100.06
417.605	116.06
417.828	107.06
418.051	96.06
418.274	90.06
418.497	101.06
418.72	86.06
418.943	82.06
419.166	86.06
419.389	92.06
419.611	90.06
419.834	84.06
420.057	91.06
420.28	101.06
420.503	90.06
420.726	94.06
420.948	94.06
421.171	83.06
421.394	108.06
421.617	97.06
421.839	80.06
422.062	92.06
422.285	105.06
422.507	114.06
422.73	109.06
422.953	91.06
423.175	88.06
423.398	87.06
423.621	91.06
423.843	97.06
424.066	84.06
424.288	101.06
424.511	93.06
424.733	91.06
424.956	126.06
425.178	126.06
425.401	100.06
425.623	98.06
425.846	92.06
426.068	102.06
426.291	96.06
426.513	103.06
426.735	92.06
426.958	99.06
427.18	131.06
427.402	172.06
427.625	254.06
427.847	204.06
428.069	175.06
428.292	119.06
428.514	110.06
428.736	99.06
428.958	86.06
429.181	73.06
429.403	95.06
429.625	98.06
429.847	93.06
430.069	104.06
430.292	93.06
430.514	91.06
430.736	102.06
430.958	91.06
431.18	78.06
431.402	92.06
431.624	85.06
431.846	96.06
432.068	89.06
432.29	93.06
432.512	87.06
432.734	90.06
432.956	96.06
433.178	106.06
433.4	100.06
433.622	101.06
433.844	101.06
434.066	88.06
434.287	105.06
434.509	105.06
434.731	98.06
434.953	80.06
435.175	82.06
435.397	84.06
435.618	83.06
435.84	78.06
436.062	129.06
436.284	108.06
436.505	110.06
436.727	102.06
436.949	94.06
437.17	99.06
437.392	96.06
437.614	105.06
437.835	125.06
438.057	146.06
438.278	131.06
438.5	105.06
438.721	135.06
438.943	97.06
439.165	103.06
439.386	89.06
439.608	104.06
439.829	110.06
440.05	132.06
440.272	172.06
440.493	90.06
440.715	99.06
440.936	105.06
441.158	97.06
441.379	84.06
441.6	95.06
441.822	98.06
442.043	101.06
442.264	121.06
442.486	112.06
442.707	101.06
442.928	114.06
443.149	159.06
443.371	160.06
443.592	114.06
443.813	119.06
444.034	117.06
444.255	92.06
444.476	107.06
444.698	103.06
444.919	81.06
445.14	133.06
445.361	143.06
445.582	129.06
445.803	170.06
446.024	174.06
446.245	142.06
446.466	128.06
446.687	99.06
446.908	90.06
447.129	112.06
447.35	100.06
447.571	100.06
447.792	92.06
448.013	108.06
448.234	114.06
448.455	123.06
448.675	118.06
448.896	125.06
449.117	106.06
449.338	95.06
449.559	138.06
449.779	125.06
450	102.06
450.221	96.06
450.442	96.06
450.662	105.06
450.883	132.06
451.104	151.06
451.324	111.06
451.545	99.06
451.766	98.06
451.986	103.06
452.207	93.06
452.428	116.06
452.648	103.06
452.869	133.06
453.089	156.06
453.31	153.06
453.53	109.06
453.751	99.06
453.971	118.06
454.192	146.06
454.412	102.06
454.633	91.06
454.853	88.06
455.073	96.06
455.294	80.06
455.514	114.06
455.734	103.06
455.955	100.06
456.175	86.06
456.395	94.06
456.616	83.06
456.836	90.06
457.056	87.06
457.276	86.06
457.497	90.06
457.717	98.06
457.937	80.06
458.157	92.06
458.377	106.06
458.598	119.06
458.818	194.06
459.038	245.06
459.258	155.06
459.478	105.06
459.698	101.06
459.918	93.06
460.138	80.06
460.358	84.06
460.578	97.06
460.798	86.06
461.018	105.06
461.238	88.06
461.458	94.06
461.678	96.06
461.898	89.06
462.118	92.06
462.338	106.06
462.558	87.06
462.777	88.06
462.997	87.06
463.217	103.06
463.437	82.06
463.657	89.06
463.876	97.06
464.096	104.06
464.316	98.06
464.536	115.06
464.755	96.06
464.975	122.06
465.195	247.06
465.414	254.06
465.634	116.06
465.854	96.06
466.073	88.06
466.293	98.06
466.512	98.06
466.732	102.06
466.951	98.06
467.171	97.06
467.391	121.06
467.61	152.06
467.829	206.06
468.049	487.06
468.268	742.06
468.488	222.06
468.707	103.06
468.927	86.06
469.146	98.06
469.365	94.06
469.585	107.06
469.804	107.06
470.023	114.06
470.243	120.06
470.462	114.06
470.681	150.06
470.901	115.06
471.12	93.06
471.339	109.06
471.558	127.06
471.777	137.06
471.997	266.06
472.216	903.06
472.435	2114.06
472.654	513.06
472.873	154.06
473.092	104.06
473.311	89.06
473.53	99.06
473.749	92.06
473.968	128.06
474.187	144.06
474.406	122.06
474.625	85.06
474.844	86.06
475.063	88.06
475.282	80.06
475.501	102.06
475.72	98.06
475.939	97.06
476.158	92.06
476.377	82.06
476.596	97.06
476.814	111.06
477.033	109.06
477.252	101.06
477.471	95.06
477.69	115.06
477.908	102.06
478.127	106.06
478.346	96.06
478.564	112.06
478.783	124.06
479.002	113.06
479.22	102.06
479.439	129.06
479.658	149.06
479.876	116.06
480.095	131.06
480.313	136.06
480.532	142.06
480.751	256.06
480.969	808.06
481.188	3532.06
481.406	2094.06
481.624	320.06
481.843	138.06
482.061	105.06
482.28	84.06
482.498	105.06
482.717	99.06
482.935	83.06
483.153	108.06
483.372	80.06
483.59	112.06
483.808	88.06
484.027	95.06
484.245	94.06
484.463	86.06
484.681	106.06
484.9	82.06
485.118	104.06
485.336	110.06
485.554	109.06
485.772	102.06
485.99	107.06
486.209	131.06
486.427	120.06
486.645	142.06
486.863	135.06
487.081	98.06
487.299	93.06
487.517	98.06
487.735	105.06
487.953	104.06
488.171	99.06
488.389	94.06
488.607	102.06
488.825	94.06
489.043	82.06
489.261	96.06
489.479	93.06
489.696	95.06
489.914	94.06
490.132	95.06
490.35	97.06
490.568	93.06
490.786	105.06
491.003	94.06
491.221	100.06
491.439	89.06
491.657	85.06
491.874	88.06
492.092	100.06
492.31	98.06
492.527	116.06
492.745	98.06
492.963	95.06
493.18	112.06
493.398	92.06
493.615	94.06
493.833	95.06
494.05	88.06
494.268	104.06
494.485	94.06
494.703	93.06
494.92	104.06
495.138	82.06
495.355	83.06
495.573	87.06
495.79	102.06
496.008	101.06
496.225	101.06
496.442	91.06
496.66	95.06
496.877	102.06
497.094	102.06
497.312	87.06
497.529	101.06
497.746	89.06
497.963	83.06
498.181	114.06
498.398	87.06
498.615	100.06
498.832	112.06
499.049	103.06
499.267	90.06
499.484	90.06
499.701	88.06
499.918	90.06
500.135	84.06
500.352	99.06
500.569	96.06
500.786	102.06
501.003	102.06
501.22	95.06
501.437	98.06
501.654	98.06
501.871	137.06
502.088	98.06
502.305	91.06
502.522	101.06
502.739	83.06
502.956	96.06
503.172	103.06
503.389	123.06
503.606	133.06
503.823	126.06
504.04	100.06
504.256	100.06
504.473	96.06
504.69	102.06
504.907	101.06
505.123	94.06
505.34	86.06
505.557	94.06
505.773	109.06
505.99	76.06
506.207	89.06
506.423	103.06
506.64	93.06
506.856	106.06
507.073	88.06
507.289	95.06
507.506	100.06
507.722	134.06
507.939	159.06
508.155	85.06
508.372	96.06
508.588	115.06
508.805	99.06
509.021	99.06
509.238	112.06
509.454	114.06
509.67	115.06
509.887	124.06
510.103	162.06
510.319	286.06
510.536	1025.06
510.752	3689.06
510.968	977.06
511.184	188.06
511.401	139.06
511.617	122.06
511.833	110.06
512.049	97.06
512.265	103.06
512.481	92.06
512.698	92.06
512.914	92.06
513.13	103.06
513.346	96.06
513.562	102.06
513.778	113.06
513.994	96.06
514.21	119.06
514.426	156.06
514.642	192.06
514.858	172.06
515.074	246.06
515.29	788.06
515.506	2924.06
515.721	986.06
515.937	243.06
516.153	132.06
516.369	118.06
516.585	113.06
516.801	105.06
517.016	113.06
517.232	90.06
517.448	92.06
517.664	102.06
517.879	111.06
518.095	110.06
518.311	98.06
518.527	118.06
518.742	115.06
518.958	103.06
519.173	100.06
519.389	93.06
519.605	105.06
519.82	101.06
520.036	121.06
520.251	149.06
520.467	137.06
520.682	120.06
520.898	127.06
521.113	143.06
521.329	192.06
521.544	326.06
521.76	999.06
521.975	4795.06
522.19	2850.06
522.406	554.06
522.621	178.06
522.836	124.06
523.052	116.06
523.267	109.06
523.482	103.06
523.698	120.06
523.913	146.06
524.128	105.06
524.343	107.06
524.559	102.06
524.774	91.06
524.989	115.06
525.204	121.06
525.419	101.06
525.634	103.06
525.849	90.06
526.064	88.06
526.28	111.06
526.495	111.06
526.71	84.06
526.925	94.06
527.14	89.06
527.355	92.06
527.57	90.06
527.785	98.06
527.999	99.06
528.214	105.06
528.429	91.06
528.644	75.06
528.859	102.06
529.074	98.06
529.289	151.06
529.503	299.06
529.718	129.06
529.933	101.06
530.148	99.06
530.363	97.06
530.577	108.06
530.792	107.06
531.007	92.06
531.221	98.06
531.436	91.06
531.651	100.06
531.865	90.06
532.08	90.06
532.295	104.06
532.509	107.06
532.724	106.06
532.938	99.06
533.153	96.06
533.367	92.06
533.582	107.06
533.796	101.06
534.011	92.06
534.225	94.06
534.44	100.06
534.654	84.06
534.868	95.06
535.083	100.06
535.297	91.06
535.511	110.06
535.726	128.06
535.94	99.06
536.154	96.06
536.369	94.06
536.583	97.06
536.797	93.06
537.011	91.06
537.225	82.06
537.44	79.06
537.654	109.06
537.868	93.06
538.082	93.06
538.296	98.06
538.51	89.06
538.724	91.06
538.938	93.06
539.153	99.06
539.367	109.06
539.581	116.06
539.795	93.06
540.009	94.06
540.222	86.06
540.436	83.06
540.65	93.06
540.864	91.06
541.078	99.06
541.292	79.06
541.506	85.06
541.72	89.06
541.934	92.06
542.147	95.06
542.361	89.06
542.575	92.06
542.789	94.06
543.002	86.06
543.216	87.06
543.43	116.06
543.644	99.06
543.857	112.06
544.071	100.06
544.285	95.06
544.498	102.06
544.712	100.06
544.925	88.06
545.139	79.06
545.352	79.06
545.566	93.06
545.779	104.06
545.993	90.06
546.206	99.06
546.42	98.06
546.633	114.06
546.847	97.06
547.06	82.06
547.274	87.06
547.487	82.06
547.7	84.06
547.914	102.06
548.127	87.06
548.34	83.06
548.554	64.06
548.767	94.06
548.98	87.06
549.193	94.06
549.407	96.06
549.62	94.06
549.833	98.06
550.046	95.06
550.259	92.06
550.473	81.06
550.686	89.06
550.899	80.06
551.112	97.06
551.325	86.06
551.538	84.06
551.751	106.06
551.964	88.06
552.177	108.06
552.39	102.06
552.603	87.06
552.816	94.06
553.029	84.06
553.242	92.06
553.455	107.06
553.667	98.06
553.88	118.06
554.093	107.06
554.306	111.06
554.519	130.06
554.732	85.06
554.944	97.06
555.157	91.06
555.37	73.06
555.583	100.06
555.795	100.06
556.008	89.06
556.221	95.06
556.433	96.06
556.646	103.06
556.859	91.06
557.071	99.06
557.284	94.06
557.496	105.06
557.709	91.06
557.921	97.06
558.134	102.06
558.346	91.06
558.559	111.06
558.771	89.06
558.984	88.06
559.196	91.06
559.409	90.06
559.621	90.06
559.833	93.06
560.046	79.06
560.258	114.06
560.47	142.06
560.683	89.06
560.895	88.06
561.107	91.06
561.32	90.06
561.532	92.06
561.744	100.06
561.956	102.06
562.168	78.06
562.381	94.06
562.593	81.06
562.805	91.06
563.017	90.06
563.229	104.06
563.441	96.06
563.653	84.06
563.865	108.06
564.077	84.06
564.289	75.06
564.501	77.06
564.713	85.06
564.925	111.06
565.137	121.06
565.349	104.06
565.561	89.06
565.773	91.06
565.985	82.06
566.197	88.06
566.408	102.06
566.62	96.06
566.832	94.06
567.044	81.06
567.255	86.06
567.467	76.06
567.679	94.06
567.891	84.06
568.102	80.06
568.314	85.06
568.526	101.06
568.737	85.06
568.949	112.06
569.161	91.06
569.372	90.06
569.584	94.06
569.795	101.06
570.007	149.06
570.218	351.06
570.43	166.06
570.641	99.06
570.853	96.06
571.064	85.06
571.276	80.06
571.487	88.06
571.698	95.06
571.91	102.06
572.121	92.06
572.333	102.06
572.544	105.06
572.755	84.06
572.966	91.06
573.178	98.06
573.389	94.06
573.6	87.06
573.811	89.06
574.023	83.06
574.234	101.06
574.445	88.06
574.656	82.06
574.867	95.06
575.078	91.06
575.289	76.06
575.501	103.06
575.712	94.06
575.923	88.06
576.134	97.06
576.345	90.06
576.556	84.06
576.767	92.06
576.978	88.06
577.188	89.06
577.399	97.06
577.61	110.06
577.821	101.06
578.032	129.06
578.243	372.06
578.454	1183.06
578.665	300.06
578.875	111.06
579.086	92.06
579.297	96.06
579.508	98.06
579.718	88.06
579.929	95.06
580.14	99.06
580.35	78.06
580.561	85.06
580.772	100.06
580.982	94.06
581.193	102.06
581.403	89.06
581.614	90.06
581.825	80.06
582.035	93.06
582.246	84.06
582.456	78.06
582.667	87.06
582.877	90.06
583.087	97.06
583.298	80.06
583.508	87.06
583.719	79.06
583.929	92.06
584.139	82.06
584.35	86.06
584.56	103.06
584.77	87.06
584.981	91.06
585.191	102.06
585.401	89.06
585.611	97.06
585.821	86.06
586.032	105.06
586.242	82.06
586.452	80.06
586.662	96.06
586.872	100.06
587.082	82.06
587.292	104.06
587.502	96.06
587.713	87.06
587.923	83.06
588.133	105.06
588.343	106.06
588.553	84.06
588.762	85.06
588.972	112.06
589.182	216.06
589.392	148.06
589.602	116.06
589.812	150.06
590.022	103.06
590.232	100.06
590.441	82.06
590.651	85.06
590.861	82.06
591.071	83.06
591.281	79.06
591.49	83.06
591.7	97.06
591.91	94.06
592.119	96.06
592.329	91.06
592.539	91.06
592.748	96.06
592.958	92.06
593.167	90.06
593.377	78.06
593.587	87.06
593.796	103.06
594.006	87.06
594.215	82.06
594.424	89.06
594.634	85.06
594.843	90.06
595.053	88.06
595.262	87.06
595.472	70.06
595.681	87.06
595.89	84.06
596.1	91.06
596.309	82.06
596.518	82.06
596.727	84.06
596.937	86.06
597.146	72.06
597.355	102.06
597.564	79.06
597.774	87.06
597.983	75.06
598.192	99.06
598.401	94.06
598.61	85.06
598.819	96.06
599.028	88.06
599.237	80.06
599.446	90.06
599.655	86.06
599.864	79.06
600.073	88.06
600.282	84.06
600.491	88.06
600.7	77.06
600.909	77.06
601.118	70.06
601.327	90.06
601.536	71.06
601.745	95.06
601.953	88.06
602.162	88.06
602.371	88.06
602.58	102.06
602.789	75.06
602.997	81.06
603.206	96.06
603.415	80.06
603.623	84.06
603.832	81.06
604.041	80.06
604.249	89.06
604.458	84.06
604.666	89.06
604.875	82.06
605.084	96.06
605.292	83.06
605.501	86.06
605.709	76.06
605.918	77.06
606.126	93.06
606.334	87.06
606.543	92.06
606.751	94.06
606.96	98.06
607.168	103.06
607.376	103.06
607.585	95.06
607.793	96.06
608.001	86.06
608.21	84.06
608.418	88.06
608.626	78.06
608.834	75.06
609.043	80.06
609.251	92.06
609.459	99.06
609.667	79.06
609.875	95.06
610.083	81.06
610.291	101.06
610.499	80.06
610.707	75.06
610.916	88.06
611.124	96.06
611.332	92.06
611.54	88.06
611.748	74.06
611.955	72.06
612.163	83.06
612.371	94.06
612.579	86.06
612.787	83.06
612.995	83.06
613.203	83.06
613.411	98.06
613.618	104.06
613.826	71.06
614.034	73.06
614.242	83.06
614.449	93.06
614.657	98.06
614.865	89.06
615.072	81.06
615.28	98.06
615.488	87.06
615.695	69.06
615.903	78.06
616.111	99.06
616.318	99.06
616.526	94.06
616.733	100.06
616.941	86.06
617.148	91.06
617.356	81.06
617.563	76.06
617.771	82.06
617.978	84.06
618.185	86.06
618.393	84.06
618.6	91.06
618.807	91.06
619.015	87.06
619.222	81.06
619.429	83.06
619.637	73.06
619.844	98.06
620.051	91.06
620.258	87.06
620.466	86.06
620.673	84.06
620.88	89.06
621.087	80.06
621.294	101.06
621.501	82.06
621.708	82.06
621.915	91.06
622.122	85.06
622.329	87.06
622.536	83.06
622.743	94.06
622.95	87.06
623.157	74.06
623.364	97.06
623.571	83.06
623.778	84.06
623.985	98.06
624.192	82.06
624.399	90.06
624.606	95.06
624.812	83.06
625.019	78.06
625.226	80.06
625.433	79.06
625.639	96.06
625.846	88.06
626.053	93.06
626.259	74.06
626.466	94.06
626.673	78.06
626.879	95.06
627.086	95.06
627.293	91.06
627.499	88.06
627.706	87.06
627.912	100.06
628.119	88.06
628.325	96.06
628.532	89.06
628.738	82.06
628.945	74.06
629.151	82.06
629.357	82.06
629.564	73.06
629.77	78.06
629.976	94.06
630.183	83.06
630.389	86.06
630.595	79.06
630.802	87.06
631.008	73.06
631.214	79.06
631.42	96.06
631.627	76.06
631.833	80.06
632.039	71.06
632.245	93.06
632.451	90.06
632.657	78.06
632.863	85.06
633.069	88.06
633.275	99.06
633.481	72.06
633.688	86.06
633.893	86.06
634.099	83.06
634.305	86.06
634.511	90.06
634.717	94.06
634.923	87.06
635.129	81.06
635.335	74.06
635.541	84.06
635.747	95.06
635.952	99.06
636.158	130.06
636.364	339.06
636.57	267.06
636.775	129.06
636.981	107.06
637.187	86.06
637.392	90.06
637.598	90.06
637.804	85.06
638.009	73.06
638.215	92.06
638.421	94.06
638.626	82.06
638.832	75.06
639.037	89.06
639.243	94.06
639.448	72.06
639.654	89.06
639.859	73.06
640.065	89.06
640.27	82.06
640.475	82.06
640.681	79.06
640.886	89.06
641.091	74.06
641.297	76.06
641.502	94.06
641.707	77.06
641.913	98.06
642.118	82.06
642.323	98.06
642.528	92.06
642.733	84.06
642.939	92.06
643.144	96.06
643.349	97.06
643.554	82.06
643.759	90.06
643.964	77.06
644.169	70.06
644.374	80.06
644.579	94.06
644.784	81.06
644.989	72.06
645.194	82.06
645.399	82.06
645.604	87.06
645.809	80.06
646.014	105.06
646.219	96.06
646.423	90.06
646.628	73.06
646.833	96.06
647.038	86.06
647.243	89.06
647.447	97.06
647.652	84.06
647.857	83.06
648.062	75.06
648.266	80.06
648.471	83.06
648.676	83.06
648.88	85.06
649.085	100.06
649.289	103.06
649.494	102.06
649.698	137.06
649.903	91.06
650.107	97.06
650.312	90.06
650.516	78.06
650.721	88.06
650.925	88.06
651.13	88.06
651.334	73.06
651.539	97.06
651.743	90.06
651.947	101.06
652.152	83.06
652.356	81.06
652.56	102.06
652.764	72.06
652.969	79.06
653.173	98.06
653.377	69.06
653.581	80.06
653.785	89.06
653.99	80.06
654.194	78.06
654.398	82.06
654.602	98.06
654.806	96.06
655.01	103.06
655.214	91.06
655.418	84.06
655.622	98.06
655.826	73.06
656.03	73.06
656.234	91.06
656.438	94.06
656.642	103.06
656.846	99.06
657.049	76.06
657.253	79.06
657.457	78.06
657.661	67.06
657.865	88.06
658.068	79.06
658.272	93.06
658.476	84.06
658.68	92.06
658.883	73.06
659.087	82.06
659.291	87.06
659.494	82.06
659.698	88.06
659.901	80.06
660.105	88.06
660.309	81.06
660.512	88.06
660.716	79.06
660.919	95.06
661.123	77.06
661.326	91.06
661.53	78.06
661.733	75.06
661.936	82.06
662.14	97.06
662.343	83.06
662.546	84.06
662.75	92.06
662.953	93.06
663.156	89.06
663.36	92.06
663.563	80.06
663.766	95.06
663.969	93.06
664.173	64.06
664.376	82.06
664.579	82.06
664.782	76.06
664.985	78.06
665.188	70.06
665.391	75.06
665.594	78.06
665.797	71.06
666	87.06
666.203	83.06
666.406	82.06
666.609	78.06
666.812	80.06
667.015	82.06
667.218	89.06
667.421	89.06
667.624	66.06
667.827	88.06
668.03	94.06
668.232	80.06
668.435	87.06
668.638	84.06
668.841	82.06
669.043	85.06
669.246	90.06
669.449	79.06
669.651	94.06
669.854	90.06
670.057	90.06
670.259	94.06
670.462	97.06
670.665	74.06
670.867	85.06
671.07	98.06
671.272	95.06
671.475	84.06
671.677	79.06
671.88	87.06
672.082	79.06
672.284	76.06
672.487	89.06
672.689	71.06
672.892	71.06
