Data from Circ_1987_H10_HRD10591_00014.txt Node
Date: Wed Jan 03 12:10:35 EST 2024
User: Yrep
Spectrometer: HR+D1059
Trigger mode: 1
Integration Time (sec): 1.000000E-1
Scans to average: 1
Electric dark correction enabled: true
Nonlinearity correction enabled: false
Boxcar width: 0
XAxis mode: Wavelengths
Number of Pixels in Spectrum: 2048
>>>>>Begin Spectral Data<<<<<
223.165	-14.69
223.4	-14.69
223.635	-14.69
223.869	-17.69
224.104	-29.69
224.338	-19.69
224.573	-15.69
224.808	-3.69
225.042	-3.69
225.277	-10.69
225.511	2.31
225.746	5.31
225.98	-5.69
226.215	19.31
226.449	23.31
226.683	24.31
226.918	23.31
227.152	23.31
227.387	46.31
227.621	41.31
227.856	47.31
228.09	46.31
228.324	46.31
228.559	51.31
228.793	68.31
229.027	58.31
229.262	77.31
229.496	75.31
229.73	78.31
229.964	95.31
230.199	65.31
230.433	96.31
230.667	77.31
230.901	82.31
231.136	65.31
231.37	62.31
231.604	83.31
231.838	86.31
232.072	89.31
232.306	95.31
232.541	88.31
232.775	86.31
233.009	89.31
233.243	79.31
233.477	95.31
233.711	78.31
233.945	65.31
234.179	81.31
234.413	82.31
234.647	80.31
234.881	93.31
235.115	87.31
235.349	72.31
235.583	86.31
235.817	73.31
236.051	81.31
236.285	69.31
236.519	78.31
236.753	82.31
236.987	89.31
237.221	83.31
237.455	104.31
237.689	89.31
237.922	79.31
238.156	71.31
238.39	77.31
238.624	76.31
238.858	79.31
239.091	77.31
239.325	74.31
239.559	96.31
239.793	82.31
240.027	78.31
240.26	84.31
240.494	88.31
240.728	77.31
240.961	77.31
241.195	74.31
241.429	83.31
241.662	90.31
241.896	70.31
242.13	66.31
242.363	71.31
242.597	88.31
242.83	79.31
243.064	67.31
243.298	76.31
243.531	77.31
243.765	82.31
243.998	70.31
244.232	89.31
244.465	81.31
244.699	95.31
244.932	82.31
245.166	78.31
245.399	82.31
245.633	70.31
245.866	90.31
246.099	73.31
246.333	86.31
246.566	85.31
246.8	82.31
247.033	85.31
247.266	78.31
247.5	85.31
247.733	84.31
247.966	94.31
248.2	86.31
248.433	81.31
248.666	83.31
248.899	84.31
249.133	83.31
249.366	106.31
249.599	96.31
249.832	77.31
250.066	90.31
250.299	101.31
250.532	96.31
250.765	80.31
250.998	79.31
251.231	93.31
251.465	83.31
251.698	95.31
251.931	95.31
252.164	84.31
252.397	91.31
252.63	83.31
252.863	74.31
253.096	79.31
253.329	81.31
253.562	86.31
253.795	78.31
254.028	84.31
254.261	74.31
254.494	83.31
254.727	65.31
254.96	89.31
255.193	79.31
255.426	88.31
255.659	69.31
255.892	97.31
256.124	87.31
256.357	82.31
256.59	104.31
256.823	75.31
257.056	79.31
257.289	80.31
257.521	81.31
257.754	90.31
257.987	80.31
258.22	80.31
258.452	99.31
258.685	96.31
258.918	79.31
259.151	83.31
259.383	86.31
259.616	83.31
259.849	93.31
260.081	89.31
260.314	83.31
260.547	86.31
260.779	78.31
261.012	92.31
261.244	97.31
261.477	96.31
261.71	102.31
261.942	117.31
262.175	142.31
262.407	87.31
262.64	91.31
262.872	95.31
263.105	83.31
263.337	88.31
263.57	72.31
263.802	89.31
264.035	94.31
264.267	86.31
264.499	86.31
264.732	83.31
264.964	79.31
265.197	89.31
265.429	83.31
265.661	88.31
265.894	88.31
266.126	84.31
266.358	87.31
266.591	79.31
266.823	74.31
267.055	73.31
267.287	86.31
267.52	86.31
267.752	86.31
267.984	86.31
268.216	93.31
268.448	77.31
268.681	91.31
268.913	96.31
269.145	83.31
269.377	85.31
269.609	71.31
269.841	85.31
270.073	91.31
270.306	89.31
270.538	94.31
270.77	82.31
271.002	93.31
271.234	82.31
271.466	84.31
271.698	90.31
271.93	87.31
272.162	94.31
272.394	94.31
272.626	79.31
272.858	90.31
273.09	80.31
273.322	71.31
273.553	83.31
273.785	84.31
274.017	93.31
274.249	93.31
274.481	86.31
274.713	93.31
274.945	106.31
275.176	81.31
275.408	91.31
275.64	90.31
275.872	114.31
276.104	102.31
276.335	97.31
276.567	119.31
276.799	141.31
277.031	156.31
277.262	147.31
277.494	135.31
277.726	97.31
277.957	97.31
278.189	96.31
278.421	79.31
278.652	97.31
278.884	104.31
279.115	103.31
279.347	77.31
279.579	87.31
279.81	100.31
280.042	134.31
280.273	187.31
280.505	131.31
280.736	107.31
280.968	85.31
281.199	88.31
281.431	80.31
281.662	94.31
281.894	108.31
282.125	99.31
282.356	126.31
282.588	158.31
282.819	131.31
283.051	89.31
283.282	90.31
283.513	88.31
283.745	85.31
283.976	87.31
284.207	93.31
284.439	102.31
284.67	109.31
284.901	89.31
285.132	92.31
285.364	86.31
285.595	86.31
285.826	94.31
286.057	102.31
286.288	96.31
286.52	82.31
286.751	93.31
286.982	93.31
287.213	111.31
287.444	93.31
287.675	97.31
287.906	86.31
288.138	79.31
288.369	86.31
288.6	107.31
288.831	88.31
289.062	86.31
289.293	89.31
289.524	92.31
289.755	81.31
289.986	90.31
290.217	92.31
290.448	86.31
290.679	84.31
290.91	95.31
291.141	82.31
291.371	91.31
291.602	92.31
291.833	94.31
292.064	80.31
292.295	89.31
292.526	88.31
292.757	80.31
292.987	93.31
293.218	94.31
293.449	87.31
293.68	96.31
293.91	90.31
294.141	114.31
294.372	93.31
294.603	99.31
294.833	79.31
295.064	103.31
295.295	84.31
295.525	89.31
295.756	101.31
295.987	129.31
296.217	159.31
296.448	154.31
296.679	99.31
296.909	95.31
297.14	90.31
297.37	85.31
297.601	94.31
297.831	85.31
298.062	97.31
298.292	84.31
298.523	89.31
298.753	88.31
298.984	84.31
299.214	88.31
299.445	98.31
299.675	86.31
299.905	93.31
300.136	86.31
300.366	86.31
300.597	88.31
300.827	90.31
301.057	106.31
301.288	107.31
301.518	95.31
301.748	80.31
301.979	111.31
302.209	106.31
302.439	100.31
302.669	90.31
302.9	95.31
303.13	98.31
303.36	111.31
303.59	121.31
303.82	132.31
304.051	104.31
304.281	105.31
304.511	101.31
304.741	93.31
304.971	93.31
305.201	83.31
305.431	82.31
305.661	90.31
305.891	73.31
306.121	93.31
306.352	107.31
306.582	117.31
306.812	101.31
307.042	100.31
307.272	127.31
307.502	156.31
307.731	156.31
307.961	114.31
308.191	90.31
308.421	95.31
308.651	92.31
308.881	90.31
309.111	111.31
309.341	98.31
309.571	102.31
309.8	86.31
310.03	107.31
310.26	106.31
310.49	100.31
310.72	94.31
310.949	106.31
311.179	121.31
311.409	95.31
311.639	95.31
311.868	90.31
312.098	88.31
312.328	107.31
312.557	108.31
312.787	119.31
313.017	106.31
313.246	104.31
313.476	91.31
313.706	91.31
313.935	109.31
314.165	102.31
314.394	126.31
314.624	99.31
314.853	99.31
315.083	99.31
315.312	99.31
315.542	96.31
315.771	92.31
316.001	91.31
316.23	93.31
316.46	94.31
316.689	96.31
316.919	114.31
317.148	102.31
317.377	89.31
317.607	106.31
317.836	99.31
318.065	98.31
318.295	90.31
318.524	98.31
318.753	86.31
318.983	103.31
319.212	95.31
319.441	114.31
319.67	123.31
319.9	93.31
320.129	91.31
320.358	89.31
320.587	86.31
320.816	93.31
321.046	113.31
321.275	92.31
321.504	103.31
321.733	90.31
321.962	106.31
322.191	96.31
322.42	115.31
322.649	126.31
322.878	120.31
323.108	124.31
323.337	132.31
323.566	145.31
323.795	179.31
324.024	219.31
324.253	395.31
324.482	826.31
324.71	1640.31
324.939	2253.31
325.168	859.31
325.397	256.31
325.626	150.31
325.855	143.31
326.084	128.31
326.313	129.31
326.542	157.31
326.77	226.31
326.999	431.31
327.228	866.31
327.457	1533.31
327.686	1248.31
327.914	436.31
328.143	407.31
328.372	461.31
328.6	302.31
328.829	175.31
329.058	165.31
329.287	177.31
329.515	149.31
329.744	193.31
329.972	338.31
330.201	667.31
330.43	965.31
330.658	472.31
330.887	247.31
331.115	172.31
331.344	137.31
331.572	130.31
331.801	126.31
332.03	131.31
332.258	119.31
332.486	100.31
332.715	114.31
332.943	113.31
333.172	106.31
333.4	120.31
333.629	137.31
333.857	181.31
334.085	299.31
334.314	619.31
334.542	1156.31
334.771	1146.31
334.999	336.31
335.227	160.31
335.455	125.31
335.684	125.31
335.912	98.31
336.14	106.31
336.369	107.31
336.597	110.31
336.825	107.31
337.053	100.31
337.281	95.31
337.51	114.31
337.738	95.31
337.966	104.31
338.194	109.31
338.422	103.31
338.65	104.31
338.878	107.31
339.106	98.31
339.334	99.31
339.562	101.31
339.79	88.31
340.018	101.31
340.246	93.31
340.474	97.31
340.702	92.31
340.93	69.31
341.158	97.31
341.386	98.31
341.614	107.31
341.842	102.31
342.07	81.31
342.298	97.31
342.526	95.31
342.754	85.31
342.981	95.31
343.209	88.31
343.437	105.31
343.665	80.31
343.893	81.31
344.12	104.31
344.348	87.31
344.576	94.31
344.804	87.31
345.031	100.31
345.259	109.31
345.487	93.31
345.714	86.31
345.942	107.31
346.17	104.31
346.397	89.31
346.625	88.31
346.853	93.31
347.08	91.31
347.308	103.31
347.535	104.31
347.763	107.31
347.99	88.31
348.218	102.31
348.445	115.31
348.673	110.31
348.9	106.31
349.128	89.31
349.355	102.31
349.583	92.31
349.81	79.31
350.037	96.31
350.265	94.31
350.492	87.31
350.72	101.31
350.947	108.31
351.174	115.31
351.402	117.31
351.629	101.31
351.856	98.31
352.083	113.31
352.311	121.31
352.538	117.31
352.765	112.31
352.992	136.31
353.22	121.31
353.447	96.31
353.674	106.31
353.901	105.31
354.128	97.31
354.355	106.31
354.583	87.31
354.81	95.31
355.037	109.31
355.264	101.31
355.491	106.31
355.718	73.31
355.945	97.31
356.172	91.31
356.399	91.31
356.626	99.31
356.853	91.31
357.08	88.31
357.307	82.31
357.534	95.31
357.761	98.31
357.988	95.31
358.215	92.31
358.441	110.31
358.668	107.31
358.895	78.31
359.122	102.31
359.349	94.31
359.576	92.31
359.802	106.31
360.029	136.31
360.256	133.31
360.483	121.31
360.709	110.31
360.936	109.31
361.163	94.31
361.39	107.31
361.616	88.31
361.843	94.31
362.07	91.31
362.296	107.31
362.523	101.31
362.749	108.31
362.976	89.31
363.203	103.31
363.429	90.31
363.656	88.31
363.882	83.31
364.109	89.31
364.335	95.31
364.562	88.31
364.788	87.31
365.015	104.31
365.241	103.31
365.468	119.31
365.694	120.31
365.92	112.31
366.147	98.31
366.373	106.31
366.599	108.31
366.826	90.31
367.052	85.31
367.278	79.31
367.505	103.31
367.731	99.31
367.957	118.31
368.184	102.31
368.41	100.31
368.636	117.31
368.862	114.31
369.089	123.31
369.315	112.31
369.541	101.31
369.767	95.31
369.993	93.31
370.219	87.31
370.445	93.31
370.672	97.31
370.898	94.31
371.124	93.31
371.35	95.31
371.576	99.31
371.802	90.31
372.028	97.31
372.254	95.31
372.48	83.31
372.706	89.31
372.932	83.31
373.158	103.31
373.384	98.31
373.61	89.31
373.835	87.31
374.061	80.31
374.287	102.31
374.513	101.31
374.739	91.31
374.965	108.31
375.191	83.31
375.416	97.31
375.642	95.31
375.868	83.31
376.094	92.31
376.319	82.31
376.545	81.31
376.771	77.31
376.997	98.31
377.222	101.31
377.448	100.31
377.674	78.31
377.899	90.31
378.125	102.31
378.35	97.31
378.576	108.31
378.802	97.31
379.027	104.31
379.253	100.31
379.478	85.31
379.704	103.31
379.929	99.31
380.155	94.31
380.38	93.31
380.606	89.31
380.831	94.31
381.057	106.31
381.282	99.31
381.507	99.31
381.733	101.31
381.958	106.31
382.184	101.31
382.409	116.31
382.634	110.31
382.86	109.31
383.085	102.31
383.31	98.31
383.535	95.31
383.761	99.31
383.986	107.31
384.211	103.31
384.436	106.31
384.662	119.31
384.887	105.31
385.112	112.31
385.337	111.31
385.562	106.31
385.787	115.31
386.013	127.31
386.238	124.31
386.463	121.31
386.688	129.31
386.913	111.31
387.138	122.31
387.363	107.31
387.588	96.31
387.813	104.31
388.038	114.31
388.263	97.31
388.488	108.31
388.713	95.31
388.938	91.31
389.163	100.31
389.387	106.31
389.612	95.31
389.837	79.31
390.062	88.31
390.287	89.31
390.512	84.31
390.736	89.31
390.961	102.31
391.186	95.31
391.411	98.31
391.636	87.31
391.86	94.31
392.085	83.31
392.31	83.31
392.534	90.31
392.759	91.31
392.984	77.31
393.208	109.31
393.433	117.31
393.658	100.31
393.882	85.31
394.107	91.31
394.331	93.31
394.556	106.31
394.78	107.31
395.005	109.31
395.229	83.31
395.454	98.31
395.678	92.31
395.903	89.31
396.127	87.31
396.352	87.31
396.576	93.31
396.801	101.31
397.025	100.31
397.249	86.31
397.474	91.31
397.698	89.31
397.922	94.31
398.147	89.31
398.371	98.31
398.595	83.31
398.82	97.31
399.044	91.31
399.268	91.31
399.492	94.31
399.717	92.31
399.941	82.31
400.165	102.31
400.389	99.31
400.613	85.31
400.837	74.31
401.062	81.31
401.286	93.31
401.51	91.31
401.734	86.31
401.958	128.31
402.182	145.31
402.406	200.31
402.63	141.31
402.854	111.31
403.078	99.31
403.302	92.31
403.526	92.31
403.75	93.31
403.974	82.31
404.198	97.31
404.422	88.31
404.645	72.31
404.869	102.31
405.093	119.31
405.317	141.31
405.541	144.31
405.765	119.31
405.988	136.31
406.212	209.31
406.436	295.31
406.66	200.31
406.883	124.31
407.107	100.31
407.331	114.31
407.555	123.31
407.778	109.31
408.002	100.31
408.226	98.31
408.449	105.31
408.673	101.31
408.896	105.31
409.12	101.31
409.344	95.31
409.567	99.31
409.791	89.31
410.014	90.31
410.238	96.31
410.461	87.31
410.685	93.31
410.908	90.31
411.132	105.31
411.355	106.31
411.578	82.31
411.802	84.31
412.025	104.31
412.249	91.31
412.472	126.31
412.695	126.31
412.919	103.31
413.142	93.31
413.365	90.31
413.589	77.31
413.812	93.31
414.035	93.31
414.258	87.31
414.482	112.31
414.705	89.31
414.928	83.31
415.151	85.31
415.374	97.31
415.597	94.31
415.821	97.31
416.044	107.31
416.267	81.31
416.49	93.31
416.713	98.31
416.936	96.31
417.159	98.31
417.382	96.31
417.605	99.31
417.828	118.31
418.051	93.31
418.274	94.31
418.497	90.31
418.72	84.31
418.943	82.31
419.166	86.31
419.389	88.31
419.611	98.31
419.834	94.31
420.057	83.31
420.28	83.31
420.503	84.31
420.726	94.31
420.948	90.31
421.171	116.31
421.394	101.31
421.617	90.31
421.839	95.31
422.062	97.31
422.285	86.31
422.507	109.31
422.73	122.31
422.953	106.31
423.175	101.31
423.398	84.31
423.621	97.31
423.843	83.31
424.066	99.31
424.288	93.31
424.511	91.31
424.733	115.31
424.956	113.31
425.178	91.31
425.401	101.31
425.623	111.31
425.846	89.31
426.068	98.31
426.291	95.31
426.513	85.31
426.735	99.31
426.958	113.31
427.18	119.31
427.402	176.31
427.625	244.31
427.847	209.31
428.069	170.31
428.292	105.31
428.514	96.31
428.736	100.31
428.958	85.31
429.181	89.31
429.403	99.31
429.625	96.31
429.847	89.31
430.069	104.31
430.292	111.31
430.514	81.31
430.736	81.31
430.958	74.31
431.18	85.31
431.402	102.31
431.624	88.31
431.846	92.31
432.068	87.31
432.29	79.31
432.512	87.31
432.734	81.31
432.956	87.31
433.178	109.31
433.4	96.31
433.622	84.31
433.844	99.31
434.066	98.31
434.287	87.31
434.509	98.31
434.731	94.31
434.953	68.31
435.175	74.31
435.397	95.31
435.618	80.31
435.84	100.31
436.062	120.31
436.284	131.31
436.505	103.31
436.727	96.31
436.949	83.31
437.17	97.31
437.392	83.31
437.614	94.31
437.835	121.31
438.057	148.31
438.278	115.31
438.5	132.31
438.721	121.31
438.943	93.31
439.165	93.31
439.386	93.31
439.608	97.31
439.829	102.31
440.05	146.31
440.272	174.31
440.493	106.31
440.715	94.31
440.936	87.31
441.158	84.31
441.379	82.31
441.6	96.31
441.822	109.31
442.043	106.31
442.264	113.31
442.486	101.31
442.707	101.31
442.928	118.31
443.149	135.31
443.371	152.31
443.592	122.31
443.813	127.31
444.034	127.31
444.255	102.31
444.476	86.31
444.698	88.31
444.919	76.31
445.14	119.31
445.361	120.31
445.582	111.31
445.803	166.31
446.024	177.31
446.245	153.31
446.466	110.31
446.687	89.31
446.908	99.31
447.129	91.31
447.35	87.31
447.571	102.31
447.792	77.31
448.013	112.31
448.234	121.31
448.455	98.31
448.675	127.31
448.896	129.31
449.117	114.31
449.338	118.31
449.559	132.31
449.779	144.31
450	90.31
450.221	89.31
450.442	94.31
450.662	109.31
450.883	109.31
451.104	134.31
451.324	129.31
451.545	101.31
451.766	80.31
451.986	93.31
452.207	100.31
452.428	97.31
452.648	115.31
452.869	148.31
453.089	132.31
453.31	147.31
453.53	115.31
453.751	98.31
453.971	118.31
454.192	113.31
454.412	95.31
454.633	78.31
454.853	81.31
455.073	95.31
455.294	97.31
455.514	117.31
455.734	96.31
455.955	89.31
456.175	83.31
456.395	84.31
456.616	92.31
456.836	100.31
457.056	89.31
457.276	81.31
457.497	90.31
457.717	92.31
457.937	86.31
458.157	103.31
458.377	101.31
458.598	122.31
458.818	186.31
459.038	212.31
459.258	133.31
459.478	89.31
459.698	87.31
459.918	84.31
460.138	96.31
460.358	95.31
460.578	83.31
460.798	81.31
461.018	95.31
461.238	86.31
461.458	98.31
461.678	97.31
461.898	83.31
462.118	90.31
462.338	72.31
462.558	90.31
462.777	95.31
462.997	83.31
463.217	82.31
463.437	89.31
463.657	88.31
463.876	93.31
464.096	106.31
464.316	95.31
464.536	88.31
464.755	97.31
464.975	128.31
465.195	224.31
465.414	217.31
465.634	106.31
465.854	93.31
466.073	99.31
466.293	86.31
466.512	95.31
466.732	97.31
466.951	98.31
467.171	89.31
467.391	104.31
467.61	130.31
467.829	160.31
468.049	376.31
468.268	571.31
468.488	158.31
468.707	108.31
468.927	86.31
469.146	100.31
469.365	87.31
469.585	90.31
469.804	101.31
470.023	94.31
470.243	87.31
470.462	111.31
470.681	138.31
470.901	105.31
471.12	82.31
471.339	99.31
471.558	118.31
471.777	143.31
471.997	228.31
472.216	715.31
472.435	1654.31
472.654	409.31
472.873	128.31
473.092	97.31
473.311	91.31
473.53	105.31
473.749	84.31
473.968	98.31
474.187	133.31
474.406	104.31
474.625	82.31
474.844	100.31
475.063	85.31
475.282	97.31
475.501	82.31
475.72	100.31
475.939	102.31
476.158	95.31
476.377	91.31
476.596	118.31
476.814	95.31
477.033	110.31
477.252	101.31
477.471	91.31
477.69	78.31
477.908	93.31
478.127	96.31
478.346	98.31
478.564	99.31
478.783	101.31
479.002	109.31
479.22	107.31
479.439	102.31
479.658	127.31
479.876	114.31
480.095	108.31
480.313	120.31
480.532	134.31
480.751	243.31
480.969	695.31
481.188	2817.31
481.406	1648.31
481.624	269.31
481.843	122.31
482.061	95.31
482.28	99.31
482.498	93.31
482.717	87.31
482.935	91.31
483.153	96.31
483.372	88.31
483.59	82.31
483.808	92.31
484.027	91.31
484.245	104.31
484.463	86.31
484.681	91.31
484.9	98.31
485.118	100.31
485.336	110.31
485.554	94.31
485.772	97.31
485.99	119.31
486.209	115.31
486.427	105.31
486.645	131.31
486.863	128.31
487.081	110.31
487.299	91.31
487.517	108.31
487.735	104.31
487.953	112.31
488.171	103.31
488.389	105.31
488.607	101.31
488.825	87.31
489.043	87.31
489.261	97.31
489.479	85.31
489.696	103.31
489.914	104.31
490.132	82.31
490.35	79.31
490.568	95.31
490.786	96.31
491.003	93.31
491.221	111.31
491.439	94.31
491.657	105.31
491.874	89.31
492.092	102.31
492.31	90.31
492.527	96.31
492.745	86.31
492.963	93.31
493.18	105.31
493.398	90.31
493.615	99.31
493.833	93.31
494.05	94.31
494.268	85.31
494.485	93.31
494.703	102.31
494.92	96.31
495.138	88.31
495.355	90.31
495.573	91.31
495.79	91.31
496.008	99.31
496.225	85.31
496.442	94.31
496.66	79.31
496.877	105.31
497.094	91.31
497.312	89.31
497.529	93.31
497.746	87.31
497.963	73.31
498.181	81.31
498.398	100.31
498.615	135.31
498.832	118.31
499.049	87.31
499.267	103.31
499.484	90.31
499.701	81.31
499.918	98.31
500.135	102.31
500.352	83.31
500.569	101.31
500.786	94.31
501.003	82.31
501.22	81.31
501.437	95.31
501.654	125.31
501.871	129.31
502.088	81.31
502.305	91.31
502.522	91.31
502.739	98.31
502.956	94.31
503.172	118.31
503.389	104.31
503.606	127.31
503.823	111.31
504.04	95.31
504.256	97.31
504.473	77.31
504.69	102.31
504.907	94.31
505.123	82.31
505.34	93.31
505.557	88.31
505.773	106.31
505.99	92.31
506.207	82.31
506.423	103.31
506.64	101.31
506.856	75.31
507.073	104.31
507.289	85.31
507.506	99.31
507.722	119.31
507.939	123.31
508.155	99.31
508.372	95.31
508.588	93.31
508.805	101.31
509.021	112.31
509.238	107.31
509.454	95.31
509.67	96.31
509.887	106.31
510.103	128.31
510.319	242.31
510.536	870.31
510.752	3076.31
510.968	807.31
511.184	163.31
511.401	125.31
511.617	113.31
511.833	77.31
512.049	85.31
512.265	94.31
512.481	87.31
512.698	104.31
512.914	97.31
513.13	90.31
513.346	103.31
513.562	121.31
513.778	92.31
513.994	113.31
514.21	119.31
514.426	130.31
514.642	162.31
514.858	151.31
515.074	203.31
515.29	625.31
515.506	2285.31
515.721	810.31
515.937	196.31
516.153	130.31
516.369	108.31
516.585	97.31
516.801	105.31
517.016	101.31
517.232	100.31
517.448	88.31
517.664	107.31
517.879	94.31
518.095	109.31
518.311	96.31
518.527	103.31
518.742	105.31
518.958	97.31
519.173	99.31
519.389	96.31
519.605	95.31
519.82	93.31
520.036	94.31
520.251	118.31
520.467	121.31
520.682	109.31
520.898	126.31
521.113	144.31
521.329	177.31
521.544	257.31
521.76	801.31
521.975	3830.31
522.19	2245.31
522.406	455.31
522.621	153.31
522.836	122.31
523.052	120.31
523.267	102.31
523.482	118.31
523.698	125.31
523.913	128.31
524.128	114.31
524.343	95.31
524.559	96.31
524.774	103.31
524.989	115.31
525.204	123.31
525.419	113.31
525.634	90.31
525.849	96.31
526.064	101.31
526.28	106.31
526.495	93.31
526.71	104.31
526.925	80.31
527.14	94.31
527.355	89.31
527.57	104.31
527.785	101.31
527.999	104.31
528.214	96.31
528.429	98.31
528.644	98.31
528.859	95.31
529.074	91.31
529.289	139.31
529.503	277.31
529.718	116.31
529.933	100.31
530.148	101.31
530.363	89.31
530.577	100.31
530.792	96.31
531.007	96.31
531.221	82.31
531.436	94.31
531.651	95.31
531.865	94.31
532.08	90.31
532.295	114.31
532.509	95.31
532.724	87.31
532.938	88.31
533.153	86.31
533.367	96.31
533.582	81.31
533.796	99.31
534.011	81.31
534.225	100.31
534.44	94.31
534.654	86.31
534.868	85.31
535.083	97.31
535.297	95.31
535.511	104.31
535.726	115.31
535.94	106.31
536.154	99.31
536.369	94.31
536.583	94.31
536.797	86.31
537.011	95.31
537.225	93.31
537.44	87.31
537.654	96.31
537.868	90.31
538.082	95.31
538.296	99.31
538.51	90.31
538.724	95.31
538.938	101.31
539.153	104.31
539.367	119.31
539.581	118.31
539.795	99.31
540.009	87.31
540.222	98.31
540.436	106.31
540.65	84.31
540.864	93.31
541.078	105.31
541.292	96.31
541.506	98.31
541.72	87.31
541.934	85.31
542.147	96.31
542.361	89.31
542.575	87.31
542.789	100.31
543.002	97.31
543.216	107.31
543.43	100.31
543.644	89.31
543.857	100.31
544.071	85.31
544.285	91.31
544.498	94.31
544.712	101.31
544.925	107.31
545.139	88.31
545.352	81.31
545.566	97.31
545.779	93.31
545.993	110.31
546.206	100.31
546.42	91.31
546.633	86.31
546.847	84.31
547.06	93.31
547.274	111.31
547.487	98.31
547.7	90.31
547.914	97.31
548.127	95.31
548.34	99.31
548.554	86.31
548.767	90.31
548.98	92.31
549.193	80.31
549.407	81.31
549.62	75.31
549.833	83.31
550.046	93.31
550.259	98.31
550.473	105.31
550.686	84.31
550.899	105.31
551.112	98.31
551.325	99.31
551.538	95.31
551.751	75.31
551.964	101.31
552.177	86.31
552.39	102.31
552.603	87.31
552.816	89.31
553.029	97.31
553.242	94.31
553.455	111.31
553.667	117.31
553.88	109.31
554.093	113.31
554.306	112.31
554.519	107.31
554.732	95.31
554.944	89.31
555.157	97.31
555.37	98.31
555.583	92.31
555.795	88.31
556.008	91.31
556.221	100.31
556.433	95.31
556.646	99.31
556.859	88.31
557.071	91.31
557.284	101.31
557.496	95.31
557.709	89.31
557.921	96.31
558.134	102.31
558.346	73.31
558.559	84.31
558.771	86.31
558.984	89.31
559.196	95.31
559.409	82.31
559.621	88.31
559.833	97.31
560.046	103.31
560.258	109.31
560.47	113.31
560.683	82.31
560.895	95.31
561.107	93.31
561.32	85.31
561.532	95.31
561.744	93.31
561.956	98.31
562.168	98.31
562.381	85.31
562.593	99.31
562.805	102.31
563.017	89.31
563.229	98.31
563.441	104.31
563.653	86.31
563.865	83.31
564.077	83.31
564.289	106.31
564.501	97.31
564.713	89.31
564.925	89.31
565.137	114.31
565.349	93.31
565.561	96.31
565.773	90.31
565.985	84.31
566.197	88.31
566.408	92.31
566.62	80.31
566.832	89.31
567.044	88.31
567.255	83.31
567.467	88.31
567.679	85.31
567.891	86.31
568.102	91.31
568.314	80.31
568.526	94.31
568.737	90.31
568.949	90.31
569.161	86.31
569.372	87.31
569.584	78.31
569.795	99.31
570.007	120.31
570.218	281.31
570.43	126.31
570.641	105.31
570.853	81.31
571.064	83.31
571.276	91.31
571.487	98.31
571.698	94.31
571.91	79.31
572.121	73.31
572.333	93.31
572.544	97.31
572.755	95.31
572.966	91.31
573.178	85.31
573.389	106.31
573.6	89.31
573.811	76.31
574.023	82.31
574.234	85.31
574.445	87.31
574.656	82.31
574.867	89.31
575.078	87.31
575.289	83.31
575.501	92.31
575.712	91.31
575.923	89.31
576.134	85.31
576.345	101.31
576.556	99.31
576.767	99.31
576.978	94.31
577.188	84.31
577.399	99.31
577.61	96.31
577.821	106.31
578.032	120.31
578.243	314.31
578.454	898.31
578.665	240.31
578.875	99.31
579.086	98.31
579.297	102.31
579.508	94.31
579.718	89.31
579.929	89.31
580.14	80.31
580.35	79.31
580.561	83.31
580.772	91.31
580.982	94.31
581.193	95.31
581.403	80.31
581.614	86.31
581.825	85.31
582.035	82.31
582.246	99.31
582.456	88.31
582.667	90.31
582.877	90.31
583.087	91.31
583.298	103.31
583.508	94.31
583.719	83.31
583.929	98.31
584.139	92.31
584.35	94.31
584.56	77.31
584.77	96.31
584.981	84.31
585.191	82.31
585.401	91.31
585.611	93.31
585.821	88.31
586.032	87.31
586.242	102.31
586.452	74.31
586.662	83.31
586.872	81.31
587.082	92.31
587.292	88.31
587.502	100.31
587.713	89.31
587.923	91.31
588.133	91.31
588.343	83.31
588.553	83.31
588.762	90.31
588.972	110.31
589.182	260.31
589.392	155.31
589.602	113.31
589.812	188.31
590.022	112.31
590.232	92.31
590.441	95.31
590.651	90.31
590.861	92.31
591.071	89.31
591.281	81.31
591.49	88.31
591.7	75.31
591.91	102.31
592.119	88.31
592.329	98.31
592.539	93.31
592.748	93.31
592.958	90.31
593.167	68.31
593.377	87.31
593.587	95.31
593.796	85.31
594.006	89.31
594.215	93.31
594.424	91.31
594.634	95.31
594.843	87.31
595.053	98.31
595.262	89.31
595.472	83.31
595.681	97.31
595.89	95.31
596.1	86.31
596.309	87.31
596.518	90.31
596.727	94.31
596.937	80.31
597.146	92.31
597.355	94.31
597.564	90.31
597.774	102.31
597.983	87.31
598.192	82.31
598.401	93.31
598.61	98.31
598.819	93.31
599.028	92.31
599.237	78.31
599.446	87.31
599.655	71.31
599.864	87.31
600.073	86.31
600.282	92.31
600.491	83.31
600.7	95.31
600.909	88.31
601.118	104.31
601.327	101.31
601.536	99.31
601.745	84.31
601.953	100.31
602.162	95.31
602.371	106.31
602.58	88.31
602.789	93.31
602.997	87.31
603.206	80.31
603.415	91.31
603.623	73.31
603.832	85.31
604.041	99.31
604.249	80.31
604.458	85.31
604.666	87.31
604.875	84.31
605.084	93.31
605.292	73.31
605.501	87.31
605.709	87.31
605.918	96.31
606.126	87.31
606.334	85.31
606.543	83.31
606.751	96.31
606.96	91.31
607.168	86.31
607.376	87.31
607.585	90.31
607.793	77.31
608.001	73.31
608.21	82.31
608.418	87.31
608.626	88.31
608.834	87.31
609.043	75.31
609.251	100.31
609.459	89.31
609.667	75.31
609.875	92.31
610.083	97.31
610.291	87.31
610.499	106.31
610.707	90.31
610.916	81.31
611.124	88.31
611.332	78.31
611.54	85.31
611.748	97.31
611.955	81.31
612.163	97.31
612.371	89.31
612.579	80.31
612.787	97.31
612.995	89.31
613.203	98.31
613.411	83.31
613.618	84.31
613.826	81.31
614.034	97.31
614.242	78.31
614.449	90.31
614.657	96.31
614.865	91.31
615.072	92.31
615.28	93.31
615.488	90.31
615.695	89.31
615.903	103.31
616.111	90.31
616.318	99.31
616.526	93.31
616.733	101.31
616.941	97.31
617.148	89.31
617.356	90.31
617.563	89.31
617.771	95.31
617.978	91.31
618.185	89.31
618.393	78.31
618.6	81.31
618.807	78.31
619.015	102.31
619.222	83.31
619.429	89.31
619.637	96.31
619.844	80.31
620.051	82.31
620.258	84.31
620.466	83.31
620.673	89.31
620.88	91.31
621.087	83.31
621.294	88.31
621.501	87.31
621.708	87.31
621.915	85.31
622.122	90.31
622.329	95.31
622.536	80.31
622.743	63.31
622.95	71.31
623.157	93.31
623.364	90.31
623.571	89.31
623.778	79.31
623.985	70.31
624.192	86.31
624.399	81.31
624.606	77.31
624.812	98.31
625.019	91.31
625.226	86.31
625.433	87.31
625.639	105.31
625.846	94.31
626.053	89.31
626.259	78.31
626.466	87.31
626.673	94.31
626.879	93.31
627.086	84.31
627.293	77.31
627.499	77.31
627.706	84.31
627.912	85.31
628.119	84.31
628.325	90.31
628.532	91.31
628.738	85.31
628.945	84.31
629.151	84.31
629.357	80.31
629.564	102.31
629.77	81.31
629.976	89.31
630.183	87.31
630.389	94.31
630.595	84.31
630.802	86.31
631.008	77.31
631.214	88.31
631.42	87.31
631.627	83.31
631.833	73.31
632.039	95.31
632.245	78.31
632.451	77.31
632.657	78.31
632.863	81.31
633.069	82.31
633.275	94.31
633.481	93.31
633.688	89.31
633.893	83.31
634.099	73.31
634.305	83.31
634.511	92.31
634.717	97.31
634.923	83.31
635.129	89.31
635.335	81.31
635.541	71.31
635.747	97.31
635.952	89.31
636.158	105.31
636.364	275.31
636.57	229.31
636.775	102.31
636.981	83.31
637.187	96.31
637.392	81.31
637.598	94.31
637.804	93.31
638.009	88.31
638.215	80.31
638.421	84.31
638.626	87.31
638.832	95.31
639.037	91.31
639.243	80.31
639.448	82.31
639.654	71.31
639.859	84.31
640.065	71.31
640.27	91.31
640.475	74.31
640.681	79.31
640.886	83.31
641.091	95.31
641.297	90.31
641.502	87.31
641.707	90.31
641.913	94.31
642.118	89.31
642.323	89.31
642.528	68.31
642.733	77.31
642.939	83.31
643.144	106.31
643.349	79.31
643.554	85.31
643.759	66.31
643.964	87.31
644.169	89.31
644.374	77.31
644.579	85.31
644.784	102.31
644.989	71.31
645.194	84.31
645.399	91.31
645.604	79.31
645.809	90.31
646.014	88.31
646.219	86.31
646.423	87.31
646.628	82.31
646.833	89.31
647.038	87.31
647.243	83.31
647.447	83.31
647.652	80.31
647.857	68.31
648.062	93.31
648.266	89.31
648.471	88.31
648.676	110.31
648.88	93.31
649.085	95.31
649.289	83.31
649.494	107.31
649.698	138.31
649.903	97.31
650.107	94.31
650.312	94.31
650.516	74.31
650.721	97.31
650.925	75.31
651.13	74.31
651.334	94.31
651.539	84.31
651.743	90.31
651.947	82.31
652.152	88.31
652.356	96.31
652.56	79.31
652.764	85.31
652.969	90.31
653.173	84.31
653.377	88.31
653.581	88.31
653.785	90.31
653.99	79.31
654.194	83.31
654.398	94.31
654.602	91.31
654.806	72.31
655.01	88.31
655.214	94.31
655.418	105.31
655.622	77.31
655.826	91.31
656.03	77.31
656.234	95.31
656.438	97.31
656.642	94.31
656.846	103.31
657.049	98.31
657.253	95.31
657.457	75.31
657.661	77.31
657.865	82.31
658.068	86.31
658.272	83.31
658.476	86.31
658.68	89.31
658.883	78.31
659.087	96.31
659.291	87.31
659.494	97.31
659.698	82.31
659.901	85.31
660.105	82.31
660.309	77.31
660.512	88.31
660.716	74.31
660.919	73.31
661.123	80.31
661.326	101.31
661.53	87.31
661.733	82.31
661.936	87.31
662.14	77.31
662.343	82.31
662.546	89.31
662.75	82.31
662.953	88.31
663.156	89.31
663.36	83.31
663.563	94.31
663.766	89.31
663.969	79.31
664.173	80.31
664.376	92.31
664.579	92.31
664.782	72.31
664.985	79.31
665.188	67.31
665.391	88.31
665.594	81.31
665.797	86.31
666	69.31
666.203	81.31
666.406	72.31
666.609	82.31
666.812	78.31
667.015	77.31
667.218	66.31
667.421	87.31
667.624	85.31
667.827	96.31
668.03	89.31
668.232	92.31
668.435	79.31
668.638	81.31
668.841	84.31
669.043	70.31
669.246	80.31
669.449	81.31
669.651	81.31
669.854	98.31
670.057	75.31
670.259	74.31
670.462	85.31
670.665	93.31
670.867	80.31
671.07	83.31
671.272	89.31
671.475	85.31
671.677	78.31
671.88	81.31
672.082	70.31
672.284	73.31
672.487	83.31
672.689	63.31
672.892	85.31
