Data from Circ_1987_H10_HRD10591_00097.txt Node
Date: Wed Jan 03 12:10:52 EST 2024
User: Yrep
Spectrometer: HR+D1059
Trigger mode: 1
Integration Time (sec): 1.000000E-1
Scans to average: 1
Electric dark correction enabled: true
Nonlinearity correction enabled: false
Boxcar width: 0
XAxis mode: Wavelengths
Number of Pixels in Spectrum: 2048
>>>>>Begin Spectral Data<<<<<
223.165	-13.19
223.4	-13.19
223.635	-13.19
223.869	-15.19
224.104	-18.19
224.338	-21.19
224.573	-20.19
224.808	-13.19
225.042	0.81
225.277	-18.19
225.511	0.81
225.746	6.81
225.98	4.81
226.215	7.81
226.449	26.81
226.683	8.81
226.918	20.81
227.152	41.81
227.387	36.81
227.621	30.81
227.856	32.81
228.09	45.81
228.324	46.81
228.559	57.81
228.793	56.81
229.027	56.81
229.262	71.81
229.496	77.81
229.73	92.81
229.964	80.81
230.199	78.81
230.433	65.81
230.667	72.81
230.901	74.81
231.136	70.81
231.37	80.81
231.604	78.81
231.838	93.81
232.072	77.81
232.306	79.81
232.541	84.81
232.775	82.81
233.009	76.81
233.243	83.81
233.477	87.81
233.711	82.81
233.945	79.81
234.179	64.81
234.413	78.81
234.647	94.81
234.881	78.81
235.115	84.81
235.349	82.81
235.583	79.81
235.817	77.81
236.051	77.81
236.285	73.81
236.519	73.81
236.753	86.81
236.987	87.81
237.221	82.81
237.455	101.81
237.689	81.81
237.922	83.81
238.156	79.81
238.39	86.81
238.624	79.81
238.858	78.81
239.091	83.81
239.325	85.81
239.559	81.81
239.793	96.81
240.027	78.81
240.26	81.81
240.494	99.81
240.728	77.81
240.961	80.81
241.195	79.81
241.429	79.81
241.662	81.81
241.896	67.81
242.13	86.81
242.363	84.81
242.597	78.81
242.83	76.81
243.064	77.81
243.298	98.81
243.531	81.81
243.765	88.81
243.998	84.81
244.232	89.81
244.465	87.81
244.699	88.81
244.932	78.81
245.166	87.81
245.399	80.81
245.633	74.81
245.866	76.81
246.099	71.81
246.333	103.81
246.566	67.81
246.8	88.81
247.033	70.81
247.266	76.81
247.5	79.81
247.733	87.81
247.966	81.81
248.2	77.81
248.433	86.81
248.666	84.81
248.899	76.81
249.133	93.81
249.366	89.81
249.599	104.81
249.832	103.81
250.066	71.81
250.299	90.81
250.532	96.81
250.765	84.81
250.998	82.81
251.231	67.81
251.465	84.81
251.698	84.81
251.931	82.81
252.164	80.81
252.397	88.81
252.63	77.81
252.863	75.81
253.096	95.81
253.329	68.81
253.562	90.81
253.795	66.81
254.028	85.81
254.261	88.81
254.494	82.81
254.727	85.81
254.96	78.81
255.193	76.81
255.426	80.81
255.659	94.81
255.892	84.81
256.124	110.81
256.357	88.81
256.59	84.81
256.823	87.81
257.056	88.81
257.289	81.81
257.521	83.81
257.754	100.81
257.987	81.81
258.22	92.81
258.452	94.81
258.685	93.81
258.918	95.81
259.151	71.81
259.383	93.81
259.616	78.81
259.849	79.81
260.081	100.81
260.314	88.81
260.547	103.81
260.779	95.81
261.012	125.81
261.244	103.81
261.477	88.81
261.71	92.81
261.942	126.81
262.175	133.81
262.407	88.81
262.64	87.81
262.872	75.81
263.105	81.81
263.337	84.81
263.57	83.81
263.802	88.81
264.035	72.81
264.267	93.81
264.499	88.81
264.732	104.81
264.964	80.81
265.197	71.81
265.429	78.81
265.661	68.81
265.894	90.81
266.126	95.81
266.358	94.81
266.591	85.81
266.823	97.81
267.055	95.81
267.287	93.81
267.52	88.81
267.752	80.81
267.984	80.81
268.216	80.81
268.448	78.81
268.681	97.81
268.913	76.81
269.145	80.81
269.377	97.81
269.609	78.81
269.841	91.81
270.073	75.81
270.306	89.81
270.538	90.81
270.77	94.81
271.002	76.81
271.234	94.81
271.466	89.81
271.698	96.81
271.93	84.81
272.162	89.81
272.394	99.81
272.626	92.81
272.858	77.81
273.09	73.81
273.322	91.81
273.553	78.81
273.785	94.81
274.017	86.81
274.249	91.81
274.481	78.81
274.713	93.81
274.945	101.81
275.176	92.81
275.408	108.81
275.64	114.81
275.872	130.81
276.104	118.81
276.335	121.81
276.567	123.81
276.799	157.81
277.031	192.81
277.262	224.81
277.494	169.81
277.726	103.81
277.957	97.81
278.189	83.81
278.421	102.81
278.652	98.81
278.884	99.81
279.115	95.81
279.347	99.81
279.579	110.81
279.81	139.81
280.042	225.81
280.273	312.81
280.505	229.81
280.736	108.81
280.968	94.81
281.199	86.81
281.431	90.81
281.662	90.81
281.894	94.81
282.125	102.81
282.356	142.81
282.588	181.81
282.819	143.81
283.051	94.81
283.282	95.81
283.513	97.81
283.745	88.81
283.976	80.81
284.207	97.81
284.439	88.81
284.67	83.81
284.901	82.81
285.132	96.81
285.364	86.81
285.595	88.81
285.826	105.81
286.057	88.81
286.288	89.81
286.52	87.81
286.751	83.81
286.982	73.81
287.213	101.81
287.444	87.81
287.675	100.81
287.906	83.81
288.138	97.81
288.369	100.81
288.6	97.81
288.831	80.81
289.062	75.81
289.293	82.81
289.524	97.81
289.755	94.81
289.986	98.81
290.217	87.81
290.448	95.81
290.679	88.81
290.91	79.81
291.141	87.81
291.371	87.81
291.602	96.81
291.833	78.81
292.064	83.81
292.295	86.81
292.526	86.81
292.757	97.81
292.987	93.81
293.218	87.81
293.449	92.81
293.68	68.81
293.91	88.81
294.141	94.81
294.372	94.81
294.603	89.81
294.833	81.81
295.064	79.81
295.295	71.81
295.525	78.81
295.756	118.81
295.987	130.81
296.217	165.81
296.448	140.81
296.679	111.81
296.909	80.81
297.14	91.81
297.37	95.81
297.601	92.81
297.831	92.81
298.062	85.81
298.292	89.81
298.523	95.81
298.753	103.81
298.984	88.81
299.214	92.81
299.445	99.81
299.675	106.81
299.905	107.81
300.136	104.81
300.366	99.81
300.597	92.81
300.827	95.81
301.057	110.81
301.288	105.81
301.518	84.81
301.748	97.81
301.979	109.81
302.209	100.81
302.439	97.81
302.669	96.81
302.9	102.81
303.13	103.81
303.36	105.81
303.59	145.81
303.82	157.81
304.051	114.81
304.281	103.81
304.511	99.81
304.741	105.81
304.971	89.81
305.201	90.81
305.431	92.81
305.661	90.81
305.891	97.81
306.121	106.81
306.352	122.81
306.582	121.81
306.812	97.81
307.042	133.81
307.272	173.81
307.502	214.81
307.731	170.81
307.961	136.81
308.191	99.81
308.421	91.81
308.651	87.81
308.881	84.81
309.111	97.81
309.341	91.81
309.571	101.81
309.8	101.81
310.03	103.81
310.26	102.81
310.49	103.81
310.72	103.81
310.949	127.81
311.179	121.81
311.409	89.81
311.639	98.81
311.868	105.81
312.098	110.81
312.328	115.81
312.557	105.81
312.787	132.81
313.017	116.81
313.246	98.81
313.476	100.81
313.706	96.81
313.935	99.81
314.165	112.81
314.394	132.81
314.624	120.81
314.853	114.81
315.083	94.81
315.312	101.81
315.542	94.81
315.771	101.81
316.001	95.81
316.23	92.81
316.46	97.81
316.689	106.81
316.919	94.81
317.148	101.81
317.377	103.81
317.607	109.81
317.836	103.81
318.065	84.81
318.295	82.81
318.524	93.81
318.753	97.81
318.983	89.81
319.212	112.81
319.441	116.81
319.67	110.81
319.9	98.81
320.129	101.81
320.358	103.81
320.587	119.81
320.816	115.81
321.046	109.81
321.275	104.81
321.504	110.81
321.733	94.81
321.962	105.81
322.191	123.81
322.42	115.81
322.649	126.81
322.878	119.81
323.108	157.81
323.337	146.81
323.566	161.81
323.795	176.81
324.024	226.81
324.253	439.81
324.482	923.81
324.71	1849.81
324.939	2458.81
325.168	945.81
325.397	279.81
325.626	178.81
325.855	144.81
326.084	146.81
326.313	141.81
326.542	167.81
326.77	249.81
326.999	455.81
327.228	951.81
327.457	1712.81
327.686	1404.81
327.914	544.81
328.143	583.81
328.372	822.81
328.6	438.81
328.829	193.81
329.058	198.81
329.287	211.81
329.515	207.81
329.744	289.81
329.972	546.81
330.201	1175.81
330.43	1793.81
330.658	798.81
330.887	340.81
331.115	216.81
331.344	138.81
331.572	133.81
331.801	130.81
332.03	134.81
332.258	120.81
332.486	101.81
332.715	124.81
332.943	116.81
333.172	125.81
333.4	141.81
333.629	168.81
333.857	245.81
334.085	496.81
334.314	1070.81
334.542	2214.81
334.771	2070.81
334.999	509.81
335.227	204.81
335.455	118.81
335.684	112.81
335.912	120.81
336.14	110.81
336.369	105.81
336.597	120.81
336.825	110.81
337.053	93.81
337.281	102.81
337.51	104.81
337.738	109.81
337.966	108.81
338.194	108.81
338.422	104.81
338.65	88.81
338.878	95.81
339.106	102.81
339.334	100.81
339.562	94.81
339.79	97.81
340.018	89.81
340.246	95.81
340.474	93.81
340.702	104.81
340.93	94.81
341.158	105.81
341.386	100.81
341.614	100.81
341.842	93.81
342.07	96.81
342.298	94.81
342.526	85.81
342.754	86.81
342.981	88.81
343.209	89.81
343.437	96.81
343.665	96.81
343.893	110.81
344.12	98.81
344.348	84.81
344.576	79.81
344.804	120.81
345.031	109.81
345.259	103.81
345.487	102.81
345.714	96.81
345.942	102.81
346.17	103.81
346.397	106.81
346.625	101.81
346.853	87.81
347.08	90.81
347.308	100.81
347.535	104.81
347.763	113.81
347.99	116.81
348.218	125.81
348.445	131.81
348.673	117.81
348.9	100.81
349.128	92.81
349.355	104.81
349.583	98.81
349.81	100.81
350.037	97.81
350.265	109.81
350.492	87.81
350.72	92.81
350.947	97.81
351.174	112.81
351.402	125.81
351.629	116.81
351.856	108.81
352.083	105.81
352.311	129.81
352.538	127.81
352.765	130.81
352.992	120.81
353.22	127.81
353.447	122.81
353.674	102.81
353.901	108.81
354.128	106.81
354.355	93.81
354.583	97.81
354.81	111.81
355.037	103.81
355.264	90.81
355.491	94.81
355.718	87.81
355.945	83.81
356.172	95.81
356.399	99.81
356.626	96.81
356.853	90.81
357.08	93.81
357.307	93.81
357.534	86.81
357.761	89.81
357.988	102.81
358.215	92.81
358.441	100.81
358.668	89.81
358.895	84.81
359.122	87.81
359.349	78.81
359.576	100.81
359.802	135.81
360.029	131.81
360.256	146.81
360.483	120.81
360.709	96.81
360.936	105.81
361.163	97.81
361.39	94.81
361.616	94.81
361.843	96.81
362.07	119.81
362.296	124.81
362.523	118.81
362.749	116.81
362.976	102.81
363.203	104.81
363.429	94.81
363.656	111.81
363.882	91.81
364.109	94.81
364.335	94.81
364.562	69.81
364.788	92.81
365.015	94.81
365.241	125.81
365.468	118.81
365.694	119.81
365.92	113.81
366.147	106.81
366.373	97.81
366.599	88.81
366.826	83.81
367.052	85.81
367.278	104.81
367.505	96.81
367.731	97.81
367.957	98.81
368.184	98.81
368.41	91.81
368.636	127.81
368.862	129.81
369.089	126.81
369.315	97.81
369.541	92.81
369.767	73.81
369.993	98.81
370.219	103.81
370.445	94.81
370.672	94.81
370.898	92.81
371.124	89.81
371.35	94.81
371.576	80.81
371.802	88.81
372.028	90.81
372.254	102.81
372.48	103.81
372.706	96.81
372.932	89.81
373.158	97.81
373.384	90.81
373.61	88.81
373.835	92.81
374.061	94.81
374.287	84.81
374.513	92.81
374.739	99.81
374.965	91.81
375.191	79.81
375.416	92.81
375.642	85.81
375.868	92.81
376.094	96.81
376.319	92.81
376.545	79.81
376.771	101.81
376.997	77.81
377.222	94.81
377.448	81.81
377.674	103.81
377.899	105.81
378.125	87.81
378.35	94.81
378.576	80.81
378.802	88.81
379.027	102.81
379.253	96.81
379.478	91.81
379.704	90.81
379.929	103.81
380.155	103.81
380.38	98.81
380.606	112.81
380.831	89.81
381.057	108.81
381.282	79.81
381.507	94.81
381.733	105.81
381.958	84.81
382.184	103.81
382.409	104.81
382.634	110.81
382.86	101.81
383.085	107.81
383.31	99.81
383.535	92.81
383.761	108.81
383.986	84.81
384.211	99.81
384.436	103.81
384.662	106.81
384.887	99.81
385.112	95.81
385.337	106.81
385.562	98.81
385.787	101.81
386.013	124.81
386.238	121.81
386.463	95.81
386.688	110.81
386.913	94.81
387.138	103.81
387.363	107.81
387.588	95.81
387.813	109.81
388.038	103.81
388.263	103.81
388.488	100.81
388.713	105.81
388.938	87.81
389.163	110.81
389.387	98.81
389.612	86.81
389.837	88.81
390.062	102.81
390.287	80.81
390.512	101.81
390.736	76.81
390.961	94.81
391.186	99.81
391.411	99.81
391.636	89.81
391.86	96.81
392.085	84.81
392.31	80.81
392.534	94.81
392.759	89.81
392.984	89.81
393.208	100.81
393.433	89.81
393.658	89.81
393.882	90.81
394.107	83.81
394.331	82.81
394.556	97.81
394.78	99.81
395.005	86.81
395.229	87.81
395.454	112.81
395.678	82.81
395.903	92.81
396.127	80.81
396.352	89.81
396.576	97.81
396.801	100.81
397.025	85.81
397.249	100.81
397.474	95.81
397.698	84.81
397.922	87.81
398.147	82.81
398.371	70.81
398.595	87.81
398.82	76.81
399.044	97.81
399.268	86.81
399.492	86.81
399.717	90.81
399.941	85.81
400.165	91.81
400.389	97.81
400.613	90.81
400.837	80.81
401.062	88.81
401.286	94.81
401.51	96.81
401.734	107.81
401.958	124.81
402.182	141.81
402.406	188.81
402.63	143.81
402.854	118.81
403.078	105.81
403.302	100.81
403.526	104.81
403.75	85.81
403.974	79.81
404.198	88.81
404.422	82.81
404.645	104.81
404.869	100.81
405.093	133.81
405.317	164.81
405.541	149.81
405.765	126.81
405.988	146.81
406.212	211.81
406.436	332.81
406.66	227.81
406.883	132.81
407.107	98.81
407.331	112.81
407.555	121.81
407.778	98.81
408.002	79.81
408.226	90.81
408.449	95.81
408.673	96.81
408.896	98.81
409.12	88.81
409.344	83.81
409.567	86.81
409.791	85.81
410.014	106.81
410.238	95.81
410.461	98.81
410.685	96.81
410.908	100.81
411.132	106.81
411.355	105.81
411.578	80.81
411.802	95.81
412.025	87.81
412.249	98.81
412.472	119.81
412.695	149.81
412.919	109.81
413.142	106.81
413.365	92.81
413.589	90.81
413.812	98.81
414.035	85.81
414.258	97.81
414.482	92.81
414.705	83.81
414.928	93.81
415.151	96.81
415.374	99.81
415.597	96.81
415.821	84.81
416.044	89.81
416.267	94.81
416.49	80.81
416.713	84.81
416.936	90.81
417.159	89.81
417.382	105.81
417.605	101.81
417.828	100.81
418.051	96.81
418.274	100.81
418.497	86.81
418.72	85.81
418.943	92.81
419.166	94.81
419.389	82.81
419.611	96.81
419.834	84.81
420.057	95.81
420.28	96.81
420.503	91.81
420.726	82.81
420.948	105.81
421.171	113.81
421.394	103.81
421.617	102.81
421.839	84.81
422.062	110.81
422.285	99.81
422.507	89.81
422.73	108.81
422.953	91.81
423.175	94.81
423.398	98.81
423.621	94.81
423.843	86.81
424.066	77.81
424.288	84.81
424.511	100.81
424.733	122.81
424.956	116.81
425.178	111.81
425.401	129.81
425.623	100.81
425.846	106.81
426.068	100.81
426.291	89.81
426.513	114.81
426.735	115.81
426.958	90.81
427.18	120.81
427.402	170.81
427.625	275.81
427.847	271.81
428.069	225.81
428.292	133.81
428.514	109.81
428.736	105.81
428.958	98.81
429.181	85.81
429.403	91.81
429.625	90.81
429.847	90.81
430.069	105.81
430.292	100.81
430.514	95.81
430.736	93.81
430.958	100.81
431.18	88.81
431.402	78.81
431.624	100.81
431.846	76.81
432.068	92.81
432.29	89.81
432.512	98.81
432.734	90.81
432.956	89.81
433.178	99.81
433.4	97.81
433.622	82.81
433.844	81.81
434.066	80.81
434.287	95.81
434.509	93.81
434.731	94.81
434.953	94.81
435.175	97.81
435.397	94.81
435.618	99.81
435.84	119.81
436.062	148.81
436.284	137.81
436.505	109.81
436.727	119.81
436.949	95.81
437.17	90.81
437.392	94.81
437.614	116.81
437.835	125.81
438.057	174.81
438.278	137.81
438.5	138.81
438.721	155.81
438.943	117.81
439.165	100.81
439.386	90.81
439.608	87.81
439.829	124.81
440.05	154.81
440.272	198.81
440.493	118.81
440.715	92.81
440.936	104.81
441.158	102.81
441.379	103.81
441.6	102.81
441.822	107.81
442.043	102.81
442.264	142.81
442.486	123.81
442.707	97.81
442.928	113.81
443.149	171.81
443.371	174.81
443.592	137.81
443.813	145.81
444.034	127.81
444.255	102.81
444.476	92.81
444.698	96.81
444.919	100.81
445.14	142.81
445.361	131.81
445.582	158.81
445.803	183.81
446.024	196.81
446.245	171.81
446.466	129.81
446.687	103.81
446.908	87.81
447.129	98.81
447.35	102.81
447.571	103.81
447.792	102.81
448.013	98.81
448.234	115.81
448.455	110.81
448.675	138.81
448.896	141.81
449.117	98.81
449.338	118.81
449.559	161.81
449.779	156.81
450	111.81
450.221	98.81
450.442	101.81
450.662	116.81
450.883	125.81
451.104	140.81
451.324	93.81
451.545	82.81
451.766	103.81
451.986	84.81
452.207	94.81
452.428	101.81
452.648	106.81
452.869	134.81
453.089	123.81
453.31	151.81
453.53	98.81
453.751	105.81
453.971	122.81
454.192	158.81
454.412	89.81
454.633	91.81
454.853	98.81
455.073	100.81
455.294	97.81
455.514	111.81
455.734	98.81
455.955	93.81
456.175	92.81
456.395	81.81
456.616	83.81
456.836	82.81
457.056	83.81
457.276	76.81
457.497	96.81
457.717	92.81
457.937	82.81
458.157	90.81
458.377	97.81
458.598	134.81
458.818	212.81
459.038	250.81
459.258	161.81
459.478	106.81
459.698	89.81
459.918	79.81
460.138	85.81
460.358	88.81
460.578	102.81
460.798	104.81
461.018	93.81
461.238	90.81
461.458	74.81
461.678	84.81
461.898	99.81
462.118	87.81
462.338	90.81
462.558	91.81
462.777	95.81
462.997	94.81
463.217	110.81
463.437	105.81
463.657	96.81
463.876	101.81
464.096	105.81
464.316	94.81
464.536	81.81
464.755	110.81
464.975	126.81
465.195	261.81
465.414	258.81
465.634	107.81
465.854	95.81
466.073	91.81
466.293	90.81
466.512	88.81
466.732	84.81
466.951	87.81
467.171	68.81
467.391	128.81
467.61	168.81
467.829	222.81
468.049	653.81
468.268	1004.81
468.488	250.81
468.707	109.81
468.927	105.81
469.146	98.81
469.365	96.81
469.585	92.81
469.804	100.81
470.023	104.81
470.243	118.81
470.462	107.81
470.681	127.81
470.901	118.81
471.12	103.81
471.339	99.81
471.558	125.81
471.777	178.81
471.997	342.81
472.216	1232.81
472.435	2990.81
472.654	672.81
472.873	185.81
473.092	121.81
473.311	109.81
473.53	109.81
473.749	95.81
473.968	105.81
474.187	132.81
474.406	121.81
474.625	89.81
474.844	104.81
475.063	95.81
475.282	92.81
475.501	76.81
475.72	103.81
475.939	90.81
476.158	91.81
476.377	93.81
476.596	92.81
476.814	95.81
477.033	107.81
477.252	79.81
477.471	101.81
477.69	91.81
477.908	86.81
478.127	102.81
478.346	87.81
478.564	100.81
478.783	101.81
479.002	94.81
479.22	122.81
479.439	130.81
479.658	140.81
479.876	125.81
480.095	118.81
480.313	134.81
480.532	169.81
480.751	316.81
480.969	1080.81
481.188	4998.81
481.406	2893.81
481.624	412.81
481.843	145.81
482.061	124.81
482.28	110.81
482.498	103.81
482.717	99.81
482.935	101.81
483.153	109.81
483.372	100.81
483.59	84.81
483.808	89.81
484.027	93.81
484.245	98.81
484.463	100.81
484.681	103.81
484.9	87.81
485.118	102.81
485.336	95.81
485.554	102.81
485.772	102.81
485.99	110.81
486.209	102.81
486.427	111.81
486.645	114.81
486.863	142.81
487.081	110.81
487.299	101.81
487.517	97.81
487.735	92.81
487.953	101.81
488.171	100.81
488.389	91.81
488.607	81.81
488.825	105.81
489.043	96.81
489.261	90.81
489.479	108.81
489.696	92.81
489.914	87.81
490.132	88.81
490.35	93.81
490.568	89.81
490.786	100.81
491.003	106.81
491.221	97.81
491.439	105.81
491.657	113.81
491.874	97.81
492.092	84.81
492.31	113.81
492.527	102.81
492.745	117.81
492.963	100.81
493.18	95.81
493.398	94.81
493.615	102.81
493.833	86.81
494.05	97.81
494.268	80.81
494.485	97.81
494.703	86.81
494.92	85.81
495.138	94.81
495.355	89.81
495.573	92.81
495.79	79.81
496.008	88.81
496.225	86.81
496.442	93.81
496.66	97.81
496.877	82.81
497.094	85.81
497.312	88.81
497.529	82.81
497.746	85.81
497.963	99.81
498.181	94.81
498.398	96.81
498.615	106.81
498.832	120.81
499.049	93.81
499.267	94.81
499.484	96.81
499.701	89.81
499.918	97.81
500.135	92.81
500.352	78.81
500.569	84.81
500.786	109.81
501.003	90.81
501.22	99.81
501.437	90.81
501.654	105.81
501.871	136.81
502.088	96.81
502.305	109.81
502.522	83.81
502.739	95.81
502.956	73.81
503.172	107.81
503.389	112.81
503.606	124.81
503.823	102.81
504.04	105.81
504.256	81.81
504.473	93.81
504.69	95.81
504.907	93.81
505.123	88.81
505.34	92.81
505.557	102.81
505.773	97.81
505.99	106.81
506.207	95.81
506.423	84.81
506.64	98.81
506.856	95.81
507.073	92.81
507.289	96.81
507.506	107.81
507.722	148.81
507.939	145.81
508.155	101.81
508.372	95.81
508.588	93.81
508.805	104.81
509.021	105.81
509.238	106.81
509.454	103.81
509.67	103.81
509.887	111.81
510.103	128.81
510.319	238.81
510.536	873.81
510.752	3102.81
510.968	820.81
511.184	186.81
511.401	129.81
511.617	120.81
511.833	120.81
512.049	102.81
512.265	88.81
512.481	106.81
512.698	111.81
512.914	92.81
513.13	92.81
513.346	107.81
513.562	113.81
513.778	111.81
513.994	111.81
514.21	137.81
514.426	169.81
514.642	189.81
514.858	161.81
515.074	229.81
515.29	748.81
515.506	2678.81
515.721	934.81
515.937	223.81
516.153	148.81
516.369	116.81
516.585	113.81
516.801	126.81
517.016	101.81
517.232	97.81
517.448	109.81
517.664	105.81
517.879	105.81
518.095	100.81
518.311	110.81
518.527	117.81
518.742	94.81
518.958	98.81
519.173	120.81
519.389	103.81
519.605	103.81
519.82	102.81
520.036	110.81
520.251	152.81
520.467	138.81
520.682	121.81
520.898	127.81
521.113	136.81
521.329	184.81
521.544	325.81
521.76	980.81
521.975	4497.81
522.19	2630.81
522.406	535.81
522.621	174.81
522.836	129.81
523.052	97.81
523.267	91.81
523.482	104.81
523.698	111.81
523.913	163.81
524.128	125.81
524.343	98.81
524.559	96.81
524.774	93.81
524.989	112.81
525.204	115.81
525.419	109.81
525.634	102.81
525.849	86.81
526.064	98.81
526.28	102.81
526.495	92.81
526.71	90.81
526.925	92.81
527.14	98.81
527.355	103.81
527.57	96.81
527.785	83.81
527.999	105.81
528.214	94.81
528.429	97.81
528.644	104.81
528.859	95.81
529.074	89.81
529.289	153.81
529.503	304.81
529.718	122.81
529.933	93.81
530.148	90.81
530.363	88.81
530.577	85.81
530.792	92.81
531.007	98.81
531.221	105.81
531.436	103.81
531.651	95.81
531.865	100.81
532.08	92.81
532.295	100.81
532.509	115.81
532.724	105.81
532.938	89.81
533.153	91.81
533.367	93.81
533.582	90.81
533.796	92.81
534.011	111.81
534.225	94.81
534.44	95.81
534.654	99.81
534.868	96.81
535.083	92.81
535.297	103.81
535.511	111.81
535.726	113.81
535.94	118.81
536.154	102.81
536.369	102.81
536.583	95.81
536.797	96.81
537.011	85.81
537.225	101.81
537.44	95.81
537.654	101.81
537.868	82.81
538.082	94.81
538.296	100.81
538.51	87.81
538.724	83.81
538.938	98.81
539.153	103.81
539.367	127.81
539.581	101.81
539.795	98.81
540.009	98.81
540.222	92.81
540.436	87.81
540.65	82.81
540.864	81.81
541.078	98.81
541.292	90.81
541.506	104.81
541.72	96.81
541.934	93.81
542.147	90.81
542.361	89.81
542.575	99.81
542.789	101.81
543.002	105.81
543.216	91.81
543.43	100.81
543.644	95.81
543.857	104.81
544.071	97.81
544.285	90.81
544.498	80.81
544.712	84.81
544.925	70.81
545.139	99.81
545.352	88.81
545.566	96.81
545.779	90.81
545.993	86.81
546.206	83.81
546.42	108.81
546.633	95.81
546.847	93.81
547.06	80.81
547.274	95.81
547.487	86.81
547.7	79.81
547.914	95.81
548.127	84.81
548.34	93.81
548.554	83.81
548.767	88.81
548.98	78.81
549.193	92.81
549.407	89.81
549.62	90.81
549.833	94.81
550.046	76.81
550.259	86.81
550.473	86.81
550.686	101.81
550.899	104.81
551.112	102.81
551.325	82.81
551.538	101.81
551.751	98.81
551.964	104.81
552.177	108.81
552.39	94.81
552.603	84.81
552.816	93.81
553.029	88.81
553.242	102.81
553.455	107.81
553.667	127.81
553.88	106.81
554.093	102.81
554.306	127.81
554.519	136.81
554.732	97.81
554.944	92.81
555.157	89.81
555.37	96.81
555.583	93.81
555.795	104.81
556.008	78.81
556.221	88.81
556.433	93.81
556.646	101.81
556.859	94.81
557.071	89.81
557.284	83.81
557.496	90.81
557.709	86.81
557.921	96.81
558.134	82.81
558.346	81.81
558.559	84.81
558.771	97.81
558.984	94.81
559.196	100.81
559.409	88.81
559.621	80.81
559.833	94.81
560.046	97.81
560.258	135.81
560.47	130.81
560.683	99.81
560.895	97.81
561.107	96.81
561.32	98.81
561.532	105.81
561.744	83.81
561.956	93.81
562.168	87.81
562.381	93.81
562.593	94.81
562.805	90.81
563.017	107.81
563.229	88.81
563.441	86.81
563.653	96.81
563.865	96.81
564.077	85.81
564.289	96.81
564.501	105.81
564.713	100.81
564.925	95.81
565.137	109.81
565.349	104.81
565.561	87.81
565.773	84.81
565.985	93.81
566.197	102.81
566.408	85.81
566.62	72.81
566.832	88.81
567.044	76.81
567.255	92.81
567.467	80.81
567.679	90.81
567.891	104.81
568.102	73.81
568.314	94.81
568.526	82.81
568.737	100.81
568.949	86.81
569.161	76.81
569.372	84.81
569.584	89.81
569.795	97.81
570.007	107.81
570.218	291.81
570.43	153.81
570.641	92.81
570.853	86.81
571.064	81.81
571.276	73.81
571.487	83.81
571.698	89.81
571.91	69.81
572.121	76.81
572.333	86.81
572.544	84.81
572.755	85.81
572.966	101.81
573.178	94.81
573.389	94.81
573.6	98.81
573.811	73.81
574.023	93.81
574.234	86.81
574.445	61.81
574.656	91.81
574.867	93.81
575.078	91.81
575.289	79.81
575.501	82.81
575.712	95.81
575.923	107.81
576.134	95.81
576.345	79.81
576.556	72.81
576.767	89.81
576.978	87.81
577.188	91.81
577.399	89.81
577.61	84.81
577.821	83.81
578.032	126.81
578.243	297.81
578.454	945.81
578.665	245.81
578.875	105.81
579.086	93.81
579.297	93.81
579.508	97.81
579.718	85.81
579.929	92.81
580.14	79.81
580.35	91.81
580.561	98.81
580.772	86.81
580.982	79.81
581.193	95.81
581.403	80.81
581.614	92.81
581.825	89.81
582.035	90.81
582.246	89.81
582.456	94.81
582.667	94.81
582.877	80.81
583.087	89.81
583.298	93.81
583.508	90.81
583.719	100.81
583.929	89.81
584.139	89.81
584.35	88.81
584.56	90.81
584.77	84.81
584.981	93.81
585.191	90.81
585.401	84.81
585.611	83.81
585.821	77.81
586.032	86.81
586.242	96.81
586.452	82.81
586.662	86.81
586.872	86.81
587.082	87.81
587.292	92.81
587.502	79.81
587.713	84.81
587.923	107.81
588.133	94.81
588.343	98.81
588.553	85.81
588.762	103.81
588.972	94.81
589.182	144.81
589.392	111.81
589.602	96.81
589.812	115.81
590.022	108.81
590.232	94.81
590.441	89.81
590.651	85.81
590.861	93.81
591.071	90.81
591.281	88.81
591.49	73.81
591.7	84.81
591.91	84.81
592.119	90.81
592.329	75.81
592.539	104.81
592.748	85.81
592.958	110.81
593.167	92.81
593.377	82.81
593.587	77.81
593.796	90.81
594.006	85.81
594.215	80.81
594.424	90.81
594.634	97.81
594.843	79.81
595.053	82.81
595.262	73.81
595.472	95.81
595.681	80.81
595.89	81.81
596.1	86.81
596.309	79.81
596.518	81.81
596.727	88.81
596.937	86.81
597.146	81.81
597.355	97.81
597.564	88.81
597.774	87.81
597.983	90.81
598.192	87.81
598.401	88.81
598.61	78.81
598.819	84.81
599.028	79.81
599.237	90.81
599.446	81.81
599.655	94.81
599.864	83.81
600.073	77.81
600.282	81.81
600.491	86.81
600.7	112.81
600.909	92.81
601.118	90.81
601.327	82.81
601.536	96.81
601.745	87.81
601.953	81.81
602.162	89.81
602.371	100.81
602.58	98.81
602.789	90.81
602.997	81.81
603.206	92.81
603.415	95.81
603.623	89.81
603.832	80.81
604.041	83.81
604.249	81.81
604.458	90.81
604.666	85.81
604.875	87.81
605.084	82.81
605.292	84.81
605.501	89.81
605.709	90.81
605.918	91.81
606.126	86.81
606.334	83.81
606.543	92.81
606.751	93.81
606.96	89.81
607.168	84.81
607.376	93.81
607.585	94.81
607.793	100.81
608.001	92.81
608.21	82.81
608.418	83.81
608.626	94.81
608.834	92.81
609.043	83.81
609.251	90.81
609.459	89.81
609.667	66.81
609.875	92.81
610.083	76.81
610.291	88.81
610.499	90.81
610.707	80.81
610.916	87.81
611.124	90.81
611.332	76.81
611.54	96.81
611.748	94.81
611.955	88.81
612.163	80.81
612.371	86.81
612.579	82.81
612.787	72.81
612.995	80.81
613.203	89.81
613.411	78.81
613.618	91.81
613.826	80.81
614.034	76.81
614.242	86.81
614.449	93.81
614.657	90.81
614.865	94.81
615.072	80.81
615.28	74.81
615.488	80.81
615.695	94.81
615.903	106.81
616.111	103.81
616.318	98.81
616.526	84.81
616.733	91.81
616.941	84.81
617.148	83.81
617.356	90.81
617.563	100.81
617.771	82.81
617.978	84.81
618.185	92.81
618.393	77.81
618.6	89.81
618.807	71.81
619.015	90.81
619.222	79.81
619.429	92.81
619.637	88.81
619.844	101.81
620.051	88.81
620.258	76.81
620.466	87.81
620.673	88.81
620.88	84.81
621.087	77.81
621.294	80.81
621.501	69.81
621.708	87.81
621.915	98.81
622.122	80.81
622.329	79.81
622.536	78.81
622.743	85.81
622.95	79.81
623.157	79.81
623.364	85.81
623.571	96.81
623.778	85.81
623.985	82.81
624.192	93.81
624.399	70.81
624.606	101.81
624.812	77.81
625.019	80.81
625.226	81.81
625.433	87.81
625.639	89.81
625.846	89.81
626.053	84.81
626.259	85.81
626.466	87.81
626.673	100.81
626.879	72.81
627.086	78.81
627.293	90.81
627.499	89.81
627.706	95.81
627.912	81.81
628.119	88.81
628.325	83.81
628.532	89.81
628.738	76.81
628.945	80.81
629.151	82.81
629.357	94.81
629.564	86.81
629.77	94.81
629.976	87.81
630.183	73.81
630.389	99.81
630.595	101.81
630.802	83.81
631.008	97.81
631.214	91.81
631.42	79.81
631.627	65.81
631.833	70.81
632.039	76.81
632.245	87.81
632.451	82.81
632.657	69.81
632.863	87.81
633.069	82.81
633.275	69.81
633.481	84.81
633.688	86.81
633.893	78.81
634.099	80.81
634.305	80.81
634.511	73.81
634.717	92.81
634.923	96.81
635.129	95.81
635.335	87.81
635.541	94.81
635.747	102.81
635.952	116.81
636.158	143.81
636.364	437.81
636.57	383.81
636.775	153.81
636.981	98.81
637.187	89.81
637.392	81.81
637.598	87.81
637.804	77.81
638.009	73.81
638.215	78.81
638.421	82.81
638.626	86.81
638.832	84.81
639.037	79.81
639.243	88.81
639.448	78.81
639.654	75.81
639.859	89.81
640.065	72.81
640.27	97.81
640.475	82.81
640.681	92.81
640.886	88.81
641.091	80.81
641.297	85.81
641.502	96.81
641.707	87.81
641.913	88.81
642.118	93.81
642.323	84.81
642.528	95.81
642.733	91.81
642.939	95.81
643.144	85.81
643.349	89.81
643.554	84.81
643.759	101.81
643.964	78.81
644.169	88.81
644.374	86.81
644.579	81.81
644.784	80.81
644.989	86.81
645.194	81.81
645.399	78.81
645.604	96.81
645.809	95.81
646.014	83.81
646.219	82.81
646.423	84.81
646.628	87.81
646.833	97.81
647.038	85.81
647.243	81.81
647.447	85.81
647.652	80.81
647.857	80.81
648.062	85.81
648.266	78.81
648.471	80.81
648.676	85.81
648.88	88.81
649.085	95.81
649.289	79.81
649.494	117.81
649.698	140.81
649.903	99.81
650.107	107.81
650.312	78.81
650.516	79.81
650.721	92.81
650.925	77.81
651.13	80.81
651.334	92.81
651.539	88.81
651.743	77.81
651.947	91.81
652.152	82.81
652.356	82.81
652.56	82.81
652.764	81.81
652.969	82.81
653.173	81.81
653.377	89.81
653.581	85.81
653.785	68.81
653.99	74.81
654.194	87.81
654.398	69.81
654.602	82.81
654.806	85.81
655.01	100.81
655.214	92.81
655.418	88.81
655.622	86.81
655.826	86.81
656.03	99.81
656.234	88.81
656.438	88.81
656.642	78.81
656.846	80.81
657.049	81.81
657.253	92.81
657.457	99.81
657.661	71.81
657.865	82.81
658.068	94.81
658.272	102.81
658.476	82.81
658.68	102.81
658.883	71.81
659.087	90.81
659.291	83.81
659.494	81.81
659.698	85.81
659.901	89.81
660.105	89.81
660.309	83.81
660.512	79.81
660.716	88.81
660.919	89.81
661.123	90.81
661.326	80.81
661.53	79.81
661.733	86.81
661.936	80.81
662.14	68.81
662.343	72.81
662.546	82.81
662.75	87.81
662.953	84.81
663.156	95.81
663.36	72.81
663.563	64.81
663.766	64.81
663.969	86.81
664.173	77.81
664.376	82.81
664.579	80.81
664.782	72.81
664.985	79.81
665.188	86.81
665.391	80.81
665.594	57.81
665.797	89.81
666	78.81
666.203	93.81
666.406	81.81
666.609	67.81
666.812	67.81
667.015	72.81
667.218	73.81
667.421	87.81
667.624	83.81
667.827	80.81
668.03	81.81
668.232	83.81
668.435	87.81
668.638	77.81
668.841	83.81
669.043	77.81
669.246	96.81
669.449	89.81
669.651	82.81
669.854	76.81
670.057	82.81
670.259	85.81
670.462	76.81
670.665	73.81
670.867	90.81
671.07	82.81
671.272	81.81
671.475	72.81
671.677	79.81
671.88	80.81
672.082	84.81
672.284	84.81
672.487	73.81
672.689	76.81
672.892	80.81
