Data from Circ_1987_H10_HRD10591_00082.txt Node
Date: Wed Jan 03 12:10:49 EST 2024
User: Yrep
Spectrometer: HR+D1059
Trigger mode: 1
Integration Time (sec): 1.000000E-1
Scans to average: 1
Electric dark correction enabled: true
Nonlinearity correction enabled: false
Boxcar width: 0
XAxis mode: Wavelengths
Number of Pixels in Spectrum: 2048
>>>>>Begin Spectral Data<<<<<
223.165	-32.31
223.4	-32.31
223.635	-32.31
223.869	-31.31
224.104	-18.31
224.338	-8.31
224.573	-20.31
224.808	-10.31
225.042	-2.31
225.277	-4.31
225.511	0.69
225.746	-8.31
225.98	6.69
226.215	1.69
226.449	26.69
226.683	27.69
226.918	23.69
227.152	48.69
227.387	32.69
227.621	39.69
227.856	39.69
228.09	34.69
228.324	38.69
228.559	61.69
228.793	67.69
229.027	80.69
229.262	77.69
229.496	74.69
229.73	98.69
229.964	103.69
230.199	91.69
230.433	66.69
230.667	81.69
230.901	81.69
231.136	83.69
231.37	72.69
231.604	75.69
231.838	83.69
232.072	68.69
232.306	81.69
232.541	65.69
232.775	78.69
233.009	71.69
233.243	81.69
233.477	89.69
233.711	69.69
233.945	72.69
234.179	78.69
234.413	93.69
234.647	79.69
234.881	80.69
235.115	63.69
235.349	85.69
235.583	81.69
235.817	75.69
236.051	77.69
236.285	71.69
236.519	72.69
236.753	89.69
236.987	80.69
237.221	113.69
237.455	95.69
237.689	93.69
237.922	79.69
238.156	64.69
238.39	82.69
238.624	79.69
238.858	68.69
239.091	77.69
239.325	72.69
239.559	80.69
239.793	95.69
240.027	70.69
240.26	78.69
240.494	89.69
240.728	80.69
240.961	68.69
241.195	83.69
241.429	84.69
241.662	85.69
241.896	71.69
242.13	65.69
242.363	61.69
242.597	81.69
242.83	63.69
243.064	93.69
243.298	88.69
243.531	88.69
243.765	85.69
243.998	73.69
244.232	86.69
244.465	93.69
244.699	82.69
244.932	90.69
245.166	69.69
245.399	89.69
245.633	101.69
245.866	85.69
246.099	80.69
246.333	84.69
246.566	91.69
246.8	80.69
247.033	76.69
247.266	88.69
247.5	82.69
247.733	79.69
247.966	80.69
248.2	77.69
248.433	86.69
248.666	79.69
248.899	73.69
249.133	102.69
249.366	103.69
249.599	118.69
249.832	93.69
250.066	83.69
250.299	103.69
250.532	85.69
250.765	87.69
250.998	95.69
251.231	78.69
251.465	73.69
251.698	92.69
251.931	92.69
252.164	87.69
252.397	78.69
252.63	69.69
252.863	76.69
253.096	87.69
253.329	84.69
253.562	89.69
253.795	80.69
254.028	87.69
254.261	85.69
254.494	84.69
254.727	73.69
254.96	92.69
255.193	106.69
255.426	86.69
255.659	82.69
255.892	99.69
256.124	108.69
256.357	96.69
256.59	85.69
256.823	81.69
257.056	84.69
257.289	87.69
257.521	94.69
257.754	87.69
257.987	96.69
258.22	97.69
258.452	109.69
258.685	104.69
258.918	93.69
259.151	101.69
259.383	79.69
259.616	89.69
259.849	88.69
260.081	77.69
260.314	91.69
260.547	81.69
260.779	104.69
261.012	97.69
261.244	116.69
261.477	122.69
261.71	125.69
261.942	172.69
262.175	172.69
262.407	106.69
262.64	92.69
262.872	90.69
263.105	87.69
263.337	95.69
263.57	81.69
263.802	78.69
264.035	85.69
264.267	84.69
264.499	97.69
264.732	81.69
264.964	83.69
265.197	93.69
265.429	82.69
265.661	81.69
265.894	71.69
266.126	84.69
266.358	91.69
266.591	91.69
266.823	88.69
267.055	85.69
267.287	75.69
267.52	93.69
267.752	83.69
267.984	79.69
268.216	81.69
268.448	86.69
268.681	97.69
268.913	95.69
269.145	79.69
269.377	76.69
269.609	84.69
269.841	94.69
270.073	86.69
270.306	103.69
270.538	93.69
270.77	84.69
271.002	81.69
271.234	90.69
271.466	96.69
271.698	90.69
271.93	96.69
272.162	93.69
272.394	89.69
272.626	101.69
272.858	89.69
273.09	77.69
273.322	81.69
273.553	69.69
273.785	87.69
274.017	93.69
274.249	85.69
274.481	85.69
274.713	80.69
274.945	107.69
275.176	85.69
275.408	102.69
275.64	135.69
275.872	129.69
276.104	111.69
276.335	118.69
276.567	146.69
276.799	183.69
277.031	219.69
277.262	252.69
277.494	187.69
277.726	121.69
277.957	107.69
278.189	88.69
278.421	100.69
278.652	87.69
278.884	95.69
279.115	89.69
279.347	109.69
279.579	117.69
279.81	156.69
280.042	253.69
280.273	366.69
280.505	233.69
280.736	128.69
280.968	101.69
281.199	91.69
281.431	91.69
281.662	110.69
281.894	92.69
282.125	118.69
282.356	153.69
282.588	218.69
282.819	157.69
283.051	93.69
283.282	74.69
283.513	95.69
283.745	90.69
283.976	84.69
284.207	93.69
284.439	87.69
284.67	88.69
284.901	83.69
285.132	93.69
285.364	94.69
285.595	93.69
285.826	81.69
286.057	93.69
286.288	97.69
286.52	94.69
286.751	92.69
286.982	101.69
287.213	90.69
287.444	88.69
287.675	81.69
287.906	78.69
288.138	89.69
288.369	97.69
288.6	96.69
288.831	90.69
289.062	93.69
289.293	90.69
289.524	88.69
289.755	84.69
289.986	75.69
290.217	84.69
290.448	85.69
290.679	84.69
290.91	80.69
291.141	78.69
291.371	89.69
291.602	75.69
291.833	83.69
292.064	88.69
292.295	102.69
292.526	91.69
292.757	101.69
292.987	93.69
293.218	99.69
293.449	87.69
293.68	98.69
293.91	87.69
294.141	86.69
294.372	86.69
294.603	77.69
294.833	97.69
295.064	87.69
295.295	76.69
295.525	94.69
295.756	117.69
295.987	134.69
296.217	183.69
296.448	167.69
296.679	95.69
296.909	95.69
297.14	82.69
297.37	91.69
297.601	85.69
297.831	99.69
298.062	102.69
298.292	103.69
298.523	101.69
298.753	99.69
298.984	111.69
299.214	112.69
299.445	112.69
299.675	87.69
299.905	95.69
300.136	101.69
300.366	86.69
300.597	87.69
300.827	108.69
301.057	110.69
301.288	122.69
301.518	91.69
301.748	92.69
301.979	115.69
302.209	106.69
302.439	102.69
302.669	105.69
302.9	91.69
303.13	99.69
303.36	114.69
303.59	160.69
303.82	175.69
304.051	131.69
304.281	108.69
304.511	106.69
304.741	95.69
304.971	95.69
305.201	90.69
305.431	96.69
305.661	85.69
305.891	90.69
306.121	96.69
306.352	112.69
306.582	119.69
306.812	116.69
307.042	145.69
307.272	182.69
307.502	213.69
307.731	211.69
307.961	131.69
308.191	93.69
308.421	90.69
308.651	94.69
308.881	88.69
309.111	103.69
309.341	105.69
309.571	116.69
309.8	100.69
310.03	115.69
310.26	120.69
310.49	115.69
310.72	121.69
310.949	142.69
311.179	126.69
311.409	109.69
311.639	115.69
311.868	132.69
312.098	100.69
312.328	118.69
312.557	132.69
312.787	145.69
313.017	118.69
313.246	94.69
313.476	84.69
313.706	105.69
313.935	109.69
314.165	133.69
314.394	140.69
314.624	129.69
314.853	115.69
315.083	109.69
315.312	96.69
315.542	94.69
315.771	97.69
316.001	92.69
316.23	78.69
316.46	91.69
316.689	93.69
316.919	86.69
317.148	115.69
317.377	116.69
317.607	111.69
317.836	110.69
318.065	87.69
318.295	83.69
318.524	92.69
318.753	102.69
318.983	104.69
319.212	110.69
319.441	132.69
319.67	117.69
319.9	100.69
320.129	110.69
320.358	97.69
320.587	120.69
320.816	123.69
321.046	110.69
321.275	99.69
321.504	103.69
321.733	110.69
321.962	109.69
322.191	105.69
322.42	113.69
322.649	126.69
322.878	136.69
323.108	145.69
323.337	179.69
323.566	182.69
323.795	214.69
324.024	285.69
324.253	555.69
324.482	1235.69
324.71	2599.69
324.939	3489.69
325.168	1263.69
325.397	345.69
325.626	198.69
325.855	166.69
326.084	159.69
326.313	175.69
326.542	207.69
326.77	292.69
326.999	606.69
327.228	1272.69
327.457	2425.69
327.686	1958.69
327.914	707.69
328.143	706.69
328.372	966.69
328.6	527.69
328.829	256.69
329.058	255.69
329.287	276.69
329.515	235.69
329.744	317.69
329.972	671.69
330.201	1449.69
330.43	2149.69
330.658	923.69
330.887	407.69
331.115	240.69
331.344	155.69
331.572	132.69
331.801	163.69
332.03	155.69
332.258	135.69
332.486	124.69
332.715	116.69
332.943	131.69
333.172	130.69
333.4	155.69
333.629	196.69
333.857	297.69
334.085	599.69
334.314	1325.69
334.542	2611.69
334.771	2463.69
334.999	611.69
335.227	241.69
335.455	155.69
335.684	127.69
335.912	112.69
336.14	131.69
336.369	120.69
336.597	133.69
336.825	125.69
337.053	88.69
337.281	96.69
337.51	108.69
337.738	118.69
337.966	113.69
338.194	114.69
338.422	118.69
338.65	112.69
338.878	105.69
339.106	92.69
339.334	92.69
339.562	95.69
339.79	109.69
340.018	95.69
340.246	101.69
340.474	111.69
340.702	101.69
340.93	102.69
341.158	105.69
341.386	97.69
341.614	123.69
341.842	101.69
342.07	96.69
342.298	95.69
342.526	80.69
342.754	89.69
342.981	97.69
343.209	91.69
343.437	107.69
343.665	88.69
343.893	83.69
344.12	95.69
344.348	86.69
344.576	95.69
344.804	97.69
345.031	115.69
345.259	116.69
345.487	116.69
345.714	96.69
345.942	87.69
346.17	108.69
346.397	98.69
346.625	83.69
346.853	108.69
347.08	95.69
347.308	91.69
347.535	134.69
347.763	128.69
347.99	114.69
348.218	116.69
348.445	124.69
348.673	128.69
348.9	108.69
349.128	103.69
349.355	100.69
349.583	99.69
349.81	111.69
350.037	110.69
350.265	107.69
350.492	101.69
350.72	105.69
350.947	108.69
351.174	131.69
351.402	131.69
351.629	115.69
351.856	115.69
352.083	117.69
352.311	142.69
352.538	143.69
352.765	125.69
352.992	137.69
353.22	129.69
353.447	111.69
353.674	98.69
353.901	104.69
354.128	92.69
354.355	95.69
354.583	100.69
354.81	94.69
355.037	100.69
355.264	104.69
355.491	69.69
355.718	79.69
355.945	85.69
356.172	98.69
356.399	100.69
356.626	85.69
356.853	100.69
357.08	83.69
357.307	81.69
357.534	92.69
357.761	94.69
357.988	108.69
358.215	97.69
358.441	83.69
358.668	99.69
358.895	97.69
359.122	104.69
359.349	96.69
359.576	105.69
359.802	113.69
360.029	165.69
360.256	164.69
360.483	134.69
360.709	102.69
360.936	114.69
361.163	118.69
361.39	118.69
361.616	115.69
361.843	91.69
362.07	115.69
362.296	113.69
362.523	110.69
362.749	97.69
362.976	105.69
363.203	89.69
363.429	88.69
363.656	102.69
363.882	87.69
364.109	98.69
364.335	97.69
364.562	104.69
364.788	101.69
365.015	95.69
365.241	112.69
365.468	112.69
365.694	136.69
365.92	124.69
366.147	105.69
366.373	96.69
366.599	85.69
366.826	101.69
367.052	93.69
367.278	101.69
367.505	105.69
367.731	93.69
367.957	92.69
368.184	102.69
368.41	124.69
368.636	147.69
368.862	159.69
369.089	135.69
369.315	125.69
369.541	93.69
369.767	108.69
369.993	99.69
370.219	89.69
370.445	96.69
370.672	94.69
370.898	81.69
371.124	86.69
371.35	92.69
371.576	89.69
371.802	91.69
372.028	85.69
372.254	92.69
372.48	88.69
372.706	76.69
372.932	77.69
373.158	95.69
373.384	99.69
373.61	106.69
373.835	88.69
374.061	100.69
374.287	99.69
374.513	99.69
374.739	98.69
374.965	87.69
375.191	91.69
375.416	96.69
375.642	95.69
375.868	89.69
376.094	90.69
376.319	83.69
376.545	94.69
376.771	98.69
376.997	82.69
377.222	95.69
377.448	93.69
377.674	66.69
377.899	91.69
378.125	89.69
378.35	89.69
378.576	90.69
378.802	95.69
379.027	78.69
379.253	92.69
379.478	95.69
379.704	85.69
379.929	95.69
380.155	99.69
380.38	93.69
380.606	90.69
380.831	85.69
381.057	91.69
381.282	100.69
381.507	95.69
381.733	94.69
381.958	103.69
382.184	94.69
382.409	99.69
382.634	105.69
382.86	90.69
383.085	101.69
383.31	102.69
383.535	86.69
383.761	96.69
383.986	93.69
384.211	92.69
384.436	98.69
384.662	104.69
384.887	93.69
385.112	101.69
385.337	100.69
385.562	117.69
385.787	91.69
386.013	111.69
386.238	122.69
386.463	121.69
386.688	122.69
386.913	96.69
387.138	106.69
387.363	88.69
387.588	87.69
387.813	81.69
388.038	88.69
388.263	96.69
388.488	95.69
388.713	91.69
388.938	106.69
389.163	96.69
389.387	102.69
389.612	94.69
389.837	88.69
390.062	92.69
390.287	93.69
390.512	92.69
390.736	72.69
390.961	99.69
391.186	85.69
391.411	99.69
391.636	103.69
391.86	81.69
392.085	90.69
392.31	94.69
392.534	90.69
392.759	107.69
392.984	84.69
393.208	87.69
393.433	95.69
393.658	83.69
393.882	94.69
394.107	94.69
394.331	101.69
394.556	70.69
394.78	85.69
395.005	106.69
395.229	81.69
395.454	88.69
395.678	105.69
395.903	90.69
396.127	90.69
396.352	84.69
396.576	88.69
396.801	82.69
397.025	90.69
397.249	91.69
397.474	92.69
397.698	100.69
397.922	101.69
398.147	80.69
398.371	105.69
398.595	89.69
398.82	83.69
399.044	84.69
399.268	85.69
399.492	66.69
399.717	82.69
399.941	101.69
400.165	102.69
400.389	100.69
400.613	90.69
400.837	94.69
401.062	79.69
401.286	96.69
401.51	94.69
401.734	105.69
401.958	119.69
402.182	166.69
402.406	229.69
402.63	187.69
402.854	131.69
403.078	102.69
403.302	97.69
403.526	110.69
403.75	87.69
403.974	94.69
404.198	106.69
404.422	87.69
404.645	97.69
404.869	107.69
405.093	143.69
405.317	158.69
405.541	150.69
405.765	153.69
405.988	137.69
406.212	261.69
406.436	398.69
406.66	261.69
406.883	151.69
407.107	107.69
407.331	111.69
407.555	125.69
407.778	105.69
408.002	102.69
408.226	107.69
408.449	103.69
408.673	92.69
408.896	105.69
409.12	114.69
409.344	97.69
409.567	93.69
409.791	86.69
410.014	95.69
410.238	95.69
410.461	88.69
410.685	96.69
410.908	102.69
411.132	102.69
411.355	95.69
411.578	102.69
411.802	88.69
412.025	89.69
412.249	92.69
412.472	126.69
412.695	159.69
412.919	130.69
413.142	93.69
413.365	96.69
413.589	96.69
413.812	89.69
414.035	93.69
414.258	108.69
414.482	92.69
414.705	91.69
414.928	78.69
415.151	82.69
415.374	89.69
415.597	89.69
415.821	72.69
416.044	83.69
416.267	96.69
416.49	93.69
416.713	92.69
416.936	84.69
417.159	91.69
417.382	104.69
417.605	128.69
417.828	112.69
418.051	108.69
418.274	84.69
418.497	94.69
418.72	96.69
418.943	95.69
419.166	92.69
419.389	89.69
419.611	94.69
419.834	96.69
420.057	100.69
420.28	85.69
420.503	92.69
420.726	103.69
420.948	96.69
421.171	108.69
421.394	92.69
421.617	86.69
421.839	78.69
422.062	80.69
422.285	110.69
422.507	127.69
422.73	108.69
422.953	105.69
423.175	96.69
423.398	81.69
423.621	95.69
423.843	99.69
424.066	85.69
424.288	106.69
424.511	100.69
424.733	100.69
424.956	129.69
425.178	122.69
425.401	135.69
425.623	117.69
425.846	103.69
426.068	110.69
426.291	108.69
426.513	96.69
426.735	92.69
426.958	107.69
427.18	136.69
427.402	228.69
427.625	331.69
427.847	316.69
428.069	271.69
428.292	169.69
428.514	103.69
428.736	95.69
428.958	94.69
429.181	101.69
429.403	85.69
429.625	95.69
429.847	110.69
430.069	101.69
430.292	86.69
430.514	91.69
430.736	82.69
430.958	91.69
431.18	92.69
431.402	94.69
431.624	91.69
431.846	83.69
432.068	76.69
432.29	87.69
432.512	98.69
432.734	89.69
432.956	89.69
433.178	103.69
433.4	104.69
433.622	115.69
433.844	96.69
434.066	77.69
434.287	78.69
434.509	102.69
434.731	81.69
434.953	96.69
435.175	88.69
435.397	87.69
435.618	98.69
435.84	121.69
436.062	159.69
436.284	144.69
436.505	105.69
436.727	102.69
436.949	82.69
437.17	91.69
437.392	91.69
437.614	108.69
437.835	139.69
438.057	195.69
438.278	151.69
438.5	135.69
438.721	157.69
438.943	111.69
439.165	91.69
439.386	90.69
439.608	117.69
439.829	142.69
440.05	183.69
440.272	214.69
440.493	127.69
440.715	97.69
440.936	86.69
441.158	95.69
441.379	86.69
441.6	108.69
441.822	114.69
442.043	109.69
442.264	134.69
442.486	127.69
442.707	118.69
442.928	140.69
443.149	215.69
443.371	206.69
443.592	142.69
443.813	151.69
444.034	133.69
444.255	98.69
444.476	91.69
444.698	88.69
444.919	103.69
445.14	145.69
445.361	160.69
445.582	159.69
445.803	241.69
446.024	219.69
446.245	207.69
446.466	141.69
446.687	117.69
446.908	94.69
447.129	77.69
447.35	104.69
447.571	115.69
447.792	92.69
448.013	127.69
448.234	124.69
448.455	114.69
448.675	140.69
448.896	160.69
449.117	119.69
449.338	129.69
449.559	155.69
449.779	177.69
450	113.69
450.221	99.69
450.442	104.69
450.662	105.69
450.883	141.69
451.104	171.69
451.324	115.69
451.545	92.69
451.766	97.69
451.986	88.69
452.207	83.69
452.428	123.69
452.648	101.69
452.869	141.69
453.089	157.69
453.31	176.69
453.53	121.69
453.751	126.69
453.971	137.69
454.192	187.69
454.412	113.69
454.633	100.69
454.853	83.69
455.073	94.69
455.294	92.69
455.514	124.69
455.734	109.69
455.955	89.69
456.175	76.69
456.395	82.69
456.616	87.69
456.836	94.69
457.056	85.69
457.276	97.69
457.497	103.69
457.717	90.69
457.937	96.69
458.157	86.69
458.377	116.69
458.598	153.69
458.818	290.69
459.038	293.69
459.258	179.69
459.478	108.69
459.698	100.69
459.918	101.69
460.138	94.69
460.358	99.69
460.578	90.69
460.798	105.69
461.018	105.69
461.238	96.69
461.458	84.69
461.678	78.69
461.898	81.69
462.118	93.69
462.338	105.69
462.558	88.69
462.777	88.69
462.997	95.69
463.217	123.69
463.437	109.69
463.657	97.69
463.876	97.69
464.096	88.69
464.316	108.69
464.536	114.69
464.755	118.69
464.975	156.69
465.195	310.69
465.414	340.69
465.634	131.69
465.854	104.69
466.073	91.69
466.293	75.69
466.512	85.69
466.732	93.69
466.951	88.69
467.171	104.69
467.391	120.69
467.61	177.69
467.829	257.69
468.049	770.69
468.268	1217.69
468.488	265.69
468.707	134.69
468.927	101.69
469.146	98.69
469.365	73.69
469.585	105.69
469.804	96.69
470.023	121.69
470.243	135.69
470.462	136.69
470.681	161.69
470.901	117.69
471.12	115.69
471.339	123.69
471.558	141.69
471.777	178.69
471.997	378.69
472.216	1453.69
472.435	3541.69
472.654	795.69
472.873	190.69
473.092	127.69
473.311	100.69
473.53	83.69
473.749	107.69
473.968	118.69
474.187	135.69
474.406	110.69
474.625	77.69
474.844	99.69
475.063	94.69
475.282	104.69
475.501	95.69
475.72	98.69
475.939	86.69
476.158	102.69
476.377	103.69
476.596	108.69
476.814	128.69
477.033	117.69
477.252	109.69
477.471	84.69
477.69	88.69
477.908	87.69
478.127	93.69
478.346	95.69
478.564	100.69
478.783	113.69
479.002	115.69
479.22	114.69
479.439	148.69
479.658	171.69
479.876	152.69
480.095	148.69
480.313	161.69
480.532	192.69
480.751	363.69
480.969	1321.69
481.188	5953.69
481.406	3408.69
481.624	491.69
481.843	169.69
482.061	139.69
482.28	101.69
482.498	101.69
482.717	98.69
482.935	97.69
483.153	100.69
483.372	101.69
483.59	108.69
483.808	101.69
484.027	93.69
484.245	75.69
484.463	104.69
484.681	105.69
484.9	96.69
485.118	85.69
485.336	79.69
485.554	109.69
485.772	105.69
485.99	113.69
486.209	104.69
486.427	133.69
486.645	129.69
486.863	141.69
487.081	120.69
487.299	97.69
487.517	103.69
487.735	100.69
487.953	83.69
488.171	96.69
488.389	110.69
488.607	108.69
488.825	96.69
489.043	83.69
489.261	92.69
489.479	90.69
489.696	102.69
489.914	94.69
490.132	89.69
490.35	90.69
490.568	97.69
490.786	87.69
491.003	97.69
491.221	90.69
491.439	101.69
491.657	102.69
491.874	88.69
492.092	97.69
492.31	89.69
492.527	103.69
492.745	92.69
492.963	101.69
493.18	95.69
493.398	94.69
493.615	93.69
493.833	82.69
494.05	83.69
494.268	89.69
494.485	77.69
494.703	70.69
494.92	82.69
495.138	85.69
495.355	84.69
495.573	95.69
495.79	105.69
496.008	84.69
496.225	94.69
496.442	94.69
496.66	78.69
496.877	95.69
497.094	93.69
497.312	84.69
497.529	94.69
497.746	100.69
497.963	92.69
498.181	102.69
498.398	107.69
498.615	126.69
498.832	113.69
499.049	104.69
499.267	103.69
499.484	94.69
499.701	90.69
499.918	107.69
500.135	75.69
500.352	82.69
500.569	108.69
500.786	94.69
501.003	92.69
501.22	88.69
501.437	100.69
501.654	110.69
501.871	141.69
502.088	87.69
502.305	81.69
502.522	94.69
502.739	90.69
502.956	100.69
503.172	102.69
503.389	103.69
503.606	145.69
503.823	107.69
504.04	94.69
504.256	92.69
504.473	97.69
504.69	87.69
504.907	93.69
505.123	102.69
505.34	102.69
505.557	96.69
505.773	105.69
505.99	97.69
506.207	94.69
506.423	72.69
506.64	93.69
506.856	82.69
507.073	82.69
507.289	105.69
507.506	108.69
507.722	164.69
507.939	161.69
508.155	111.69
508.372	100.69
508.588	109.69
508.805	111.69
509.021	111.69
509.238	128.69
509.454	117.69
509.67	111.69
509.887	107.69
510.103	160.69
510.319	258.69
510.536	1102.69
510.752	4017.69
510.968	1016.69
511.184	201.69
511.401	147.69
511.617	131.69
511.833	115.69
512.049	111.69
512.265	105.69
512.481	95.69
512.698	94.69
512.914	102.69
513.13	107.69
513.346	97.69
513.562	104.69
513.778	105.69
513.994	112.69
514.21	144.69
514.426	169.69
514.642	232.69
514.858	219.69
515.074	308.69
515.29	1001.69
515.506	3677.69
515.721	1213.69
515.937	303.69
516.153	155.69
516.369	101.69
516.585	115.69
516.801	126.69
517.016	118.69
517.232	100.69
517.448	99.69
517.664	103.69
517.879	100.69
518.095	107.69
518.311	110.69
518.527	132.69
518.742	110.69
518.958	93.69
519.173	96.69
519.389	91.69
519.605	104.69
519.82	111.69
520.036	122.69
520.251	181.69
520.467	157.69
520.682	147.69
520.898	135.69
521.113	153.69
521.329	226.69
521.544	424.69
521.76	1336.69
521.975	6088.69
522.19	3569.69
522.406	682.69
522.621	218.69
522.836	134.69
523.052	113.69
523.267	98.69
523.482	97.69
523.698	139.69
523.913	171.69
524.128	135.69
524.343	103.69
524.559	88.69
524.774	100.69
524.989	102.69
525.204	144.69
525.419	110.69
525.634	109.69
525.849	87.69
526.064	93.69
526.28	88.69
526.495	104.69
526.71	87.69
526.925	86.69
527.14	79.69
527.355	106.69
527.57	97.69
527.785	95.69
527.999	89.69
528.214	104.69
528.429	92.69
528.644	110.69
528.859	86.69
529.074	118.69
529.289	191.69
529.503	386.69
529.718	153.69
529.933	104.69
530.148	93.69
530.363	89.69
530.577	93.69
530.792	92.69
531.007	84.69
531.221	91.69
531.436	92.69
531.651	103.69
531.865	96.69
532.08	94.69
532.295	93.69
532.509	90.69
532.724	83.69
532.938	99.69
533.153	99.69
533.367	85.69
533.582	90.69
533.796	97.69
534.011	87.69
534.225	99.69
534.44	94.69
534.654	89.69
534.868	95.69
535.083	98.69
535.297	92.69
535.511	115.69
535.726	132.69
535.94	99.69
536.154	103.69
536.369	86.69
536.583	89.69
536.797	95.69
537.011	89.69
537.225	84.69
537.44	95.69
537.654	105.69
537.868	91.69
538.082	101.69
538.296	93.69
538.51	84.69
538.724	93.69
538.938	108.69
539.153	108.69
539.367	137.69
539.581	106.69
539.795	98.69
540.009	105.69
540.222	87.69
540.436	100.69
540.65	85.69
540.864	103.69
541.078	93.69
541.292	93.69
541.506	102.69
541.72	95.69
541.934	94.69
542.147	82.69
542.361	85.69
542.575	90.69
542.789	100.69
543.002	88.69
543.216	105.69
543.43	120.69
543.644	92.69
543.857	95.69
544.071	99.69
544.285	95.69
544.498	80.69
544.712	93.69
544.925	83.69
545.139	84.69
545.352	104.69
545.566	96.69
545.779	94.69
545.993	91.69
546.206	83.69
546.42	86.69
546.633	93.69
546.847	87.69
547.06	93.69
547.274	88.69
547.487	87.69
547.7	101.69
547.914	95.69
548.127	91.69
548.34	105.69
548.554	99.69
548.767	101.69
548.98	98.69
549.193	77.69
549.407	92.69
549.62	76.69
549.833	87.69
550.046	91.69
550.259	104.69
550.473	94.69
550.686	84.69
550.899	79.69
551.112	92.69
551.325	93.69
551.538	101.69
551.751	94.69
551.964	97.69
552.177	84.69
552.39	91.69
552.603	92.69
552.816	91.69
553.029	96.69
553.242	106.69
553.455	125.69
553.667	135.69
553.88	139.69
554.093	105.69
554.306	118.69
554.519	131.69
554.732	104.69
554.944	88.69
555.157	85.69
555.37	85.69
555.583	91.69
555.795	90.69
556.008	102.69
556.221	83.69
556.433	93.69
556.646	84.69
556.859	93.69
557.071	86.69
557.284	89.69
557.496	79.69
557.709	97.69
557.921	108.69
558.134	89.69
558.346	77.69
558.559	79.69
558.771	90.69
558.984	87.69
559.196	72.69
559.409	95.69
559.621	76.69
559.833	82.69
560.046	77.69
560.258	129.69
560.47	142.69
560.683	113.69
560.895	91.69
561.107	92.69
561.32	89.69
561.532	86.69
561.744	93.69
561.956	91.69
562.168	100.69
562.381	95.69
562.593	83.69
562.805	94.69
563.017	91.69
563.229	89.69
563.441	101.69
563.653	96.69
563.865	85.69
564.077	94.69
564.289	100.69
564.501	88.69
564.713	104.69
564.925	96.69
565.137	125.69
565.349	99.69
565.561	88.69
565.773	85.69
565.985	84.69
566.197	98.69
566.408	82.69
566.62	82.69
566.832	85.69
567.044	85.69
567.255	85.69
567.467	89.69
567.679	96.69
567.891	84.69
568.102	83.69
568.314	87.69
568.526	93.69
568.737	91.69
568.949	84.69
569.161	88.69
569.372	79.69
569.584	87.69
569.795	105.69
570.007	137.69
570.218	340.69
570.43	160.69
570.641	104.69
570.853	102.69
571.064	91.69
571.276	99.69
571.487	75.69
571.698	86.69
571.91	79.69
572.121	88.69
572.333	75.69
572.544	99.69
572.755	83.69
572.966	89.69
573.178	83.69
573.389	96.69
573.6	91.69
573.811	83.69
574.023	76.69
574.234	81.69
574.445	89.69
574.656	91.69
574.867	88.69
575.078	89.69
575.289	79.69
575.501	89.69
575.712	88.69
575.923	80.69
576.134	83.69
576.345	89.69
576.556	83.69
576.767	95.69
576.978	95.69
577.188	95.69
577.399	80.69
577.61	95.69
577.821	94.69
578.032	130.69
578.243	383.69
578.454	1251.69
578.665	301.69
578.875	113.69
579.086	84.69
579.297	95.69
579.508	93.69
579.718	88.69
579.929	85.69
580.14	84.69
580.35	86.69
580.561	87.69
580.772	93.69
580.982	95.69
581.193	87.69
581.403	88.69
581.614	95.69
581.825	98.69
582.035	89.69
582.246	84.69
582.456	68.69
582.667	94.69
582.877	85.69
583.087	96.69
583.298	78.69
583.508	84.69
583.719	83.69
583.929	91.69
584.139	82.69
584.35	87.69
584.56	75.69
584.77	56.69
584.981	65.69
585.191	87.69
585.401	91.69
585.611	96.69
585.821	88.69
586.032	83.69
586.242	88.69
586.452	94.69
586.662	76.69
586.872	86.69
587.082	79.69
587.292	68.69
587.502	100.69
587.713	87.69
587.923	89.69
588.133	78.69
588.343	90.69
588.553	102.69
588.762	93.69
588.972	100.69
589.182	201.69
589.392	123.69
589.602	118.69
589.812	164.69
590.022	107.69
590.232	81.69
590.441	88.69
590.651	71.69
590.861	81.69
591.071	86.69
591.281	87.69
591.49	95.69
591.7	81.69
591.91	84.69
592.119	95.69
592.329	89.69
592.539	90.69
592.748	90.69
592.958	87.69
593.167	72.69
593.377	87.69
593.587	92.69
593.796	79.69
594.006	88.69
594.215	67.69
594.424	69.69
594.634	88.69
594.843	83.69
595.053	82.69
595.262	84.69
595.472	78.69
595.681	85.69
595.89	95.69
596.1	80.69
596.309	86.69
596.518	89.69
596.727	98.69
596.937	101.69
597.146	82.69
597.355	90.69
597.564	83.69
597.774	85.69
597.983	88.69
598.192	100.69
598.401	71.69
598.61	87.69
598.819	93.69
599.028	91.69
599.237	86.69
599.446	81.69
599.655	80.69
599.864	65.69
600.073	77.69
600.282	79.69
600.491	76.69
600.7	89.69
600.909	98.69
601.118	95.69
601.327	82.69
601.536	86.69
601.745	83.69
601.953	76.69
602.162	79.69
602.371	103.69
602.58	88.69
602.789	92.69
602.997	83.69
603.206	82.69
603.415	68.69
603.623	96.69
603.832	88.69
604.041	68.69
604.249	87.69
604.458	87.69
604.666	78.69
604.875	90.69
605.084	90.69
605.292	86.69
605.501	74.69
605.709	78.69
605.918	89.69
606.126	90.69
606.334	81.69
606.543	96.69
606.751	81.69
606.96	77.69
607.168	78.69
607.376	93.69
607.585	87.69
607.793	96.69
608.001	79.69
608.21	85.69
608.418	89.69
608.626	77.69
608.834	89.69
609.043	95.69
609.251	91.69
609.459	84.69
609.667	88.69
609.875	82.69
610.083	80.69
610.291	98.69
610.499	100.69
610.707	95.69
610.916	80.69
611.124	79.69
611.332	86.69
611.54	73.69
611.748	84.69
611.955	92.69
612.163	79.69
612.371	91.69
612.579	92.69
612.787	91.69
612.995	77.69
613.203	79.69
613.411	93.69
613.618	75.69
613.826	84.69
614.034	102.69
614.242	95.69
614.449	92.69
614.657	94.69
614.865	77.69
615.072	66.69
615.28	87.69
615.488	89.69
615.695	84.69
615.903	80.69
616.111	93.69
616.318	91.69
616.526	93.69
616.733	91.69
616.941	93.69
617.148	95.69
617.356	90.69
617.563	75.69
617.771	84.69
617.978	94.69
618.185	85.69
618.393	89.69
618.6	83.69
618.807	94.69
619.015	82.69
619.222	95.69
619.429	79.69
619.637	87.69
619.844	73.69
620.051	63.69
620.258	92.69
620.466	90.69
620.673	89.69
620.88	77.69
621.087	77.69
621.294	80.69
621.501	77.69
621.708	80.69
621.915	91.69
622.122	85.69
622.329	81.69
622.536	98.69
622.743	89.69
622.95	89.69
623.157	84.69
623.364	78.69
623.571	64.69
623.778	81.69
623.985	79.69
624.192	88.69
624.399	97.69
624.606	95.69
624.812	85.69
625.019	91.69
625.226	85.69
625.433	90.69
625.639	78.69
625.846	91.69
626.053	78.69
626.259	79.69
626.466	79.69
626.673	95.69
626.879	77.69
627.086	92.69
627.293	76.69
627.499	79.69
627.706	78.69
627.912	84.69
628.119	78.69
628.325	85.69
628.532	87.69
628.738	85.69
628.945	81.69
629.151	96.69
629.357	77.69
629.564	80.69
629.77	90.69
629.976	82.69
630.183	83.69
630.389	75.69
630.595	88.69
630.802	88.69
631.008	74.69
631.214	85.69
631.42	90.69
631.627	87.69
631.833	89.69
632.039	93.69
632.245	91.69
632.451	83.69
632.657	88.69
632.863	95.69
633.069	79.69
633.275	86.69
633.481	96.69
633.688	89.69
633.893	101.69
634.099	77.69
634.305	87.69
634.511	95.69
634.717	78.69
634.923	85.69
635.129	92.69
635.335	84.69
635.541	88.69
635.747	94.69
635.952	111.69
636.158	163.69
636.364	491.69
636.57	451.69
636.775	174.69
636.981	114.69
637.187	102.69
637.392	87.69
637.598	94.69
637.804	98.69
638.009	89.69
638.215	100.69
638.421	77.69
638.626	89.69
638.832	92.69
639.037	88.69
639.243	86.69
639.448	97.69
639.654	84.69
639.859	103.69
640.065	85.69
640.27	81.69
640.475	86.69
640.681	76.69
640.886	69.69
641.091	89.69
641.297	92.69
641.502	69.69
641.707	87.69
641.913	77.69
642.118	100.69
642.323	87.69
642.528	95.69
642.733	78.69
642.939	87.69
643.144	80.69
643.349	84.69
643.554	61.69
643.759	75.69
643.964	84.69
644.169	82.69
644.374	77.69
644.579	80.69
644.784	77.69
644.989	92.69
645.194	81.69
645.399	79.69
645.604	88.69
645.809	80.69
646.014	75.69
646.219	88.69
646.423	95.69
646.628	67.69
646.833	88.69
647.038	80.69
647.243	93.69
647.447	88.69
647.652	103.69
647.857	73.69
648.062	84.69
648.266	93.69
648.471	84.69
648.676	89.69
648.88	103.69
649.085	80.69
649.289	95.69
649.494	103.69
649.698	145.69
649.903	100.69
650.107	99.69
650.312	93.69
650.516	70.69
650.721	77.69
650.925	80.69
651.13	101.69
651.334	87.69
651.539	79.69
651.743	81.69
651.947	76.69
652.152	83.69
652.356	77.69
652.56	84.69
652.764	84.69
652.969	92.69
653.173	93.69
653.377	79.69
653.581	83.69
653.785	86.69
653.99	91.69
654.194	88.69
654.398	80.69
654.602	91.69
654.806	97.69
655.01	108.69
655.214	95.69
655.418	98.69
655.622	86.69
655.826	78.69
656.03	84.69
656.234	61.69
656.438	76.69
656.642	89.69
656.846	79.69
657.049	98.69
657.253	98.69
657.457	94.69
657.661	77.69
657.865	89.69
658.068	84.69
658.272	84.69
658.476	76.69
658.68	96.69
658.883	80.69
659.087	81.69
659.291	77.69
659.494	67.69
659.698	77.69
659.901	80.69
660.105	75.69
660.309	69.69
660.512	82.69
660.716	94.69
660.919	90.69
661.123	91.69
661.326	69.69
661.53	72.69
661.733	81.69
661.936	74.69
662.14	72.69
662.343	87.69
662.546	77.69
662.75	80.69
662.953	104.69
663.156	87.69
663.36	72.69
663.563	82.69
663.766	80.69
663.969	75.69
664.173	90.69
664.376	86.69
664.579	84.69
664.782	71.69
664.985	88.69
665.188	75.69
665.391	87.69
665.594	91.69
665.797	88.69
666	79.69
666.203	68.69
666.406	73.69
666.609	89.69
666.812	77.69
667.015	92.69
667.218	83.69
667.421	70.69
667.624	63.69
667.827	80.69
668.03	89.69
668.232	75.69
668.435	82.69
668.638	62.69
668.841	73.69
669.043	89.69
669.246	95.69
669.449	77.69
669.651	82.69
669.854	83.69
670.057	85.69
670.259	92.69
670.462	67.69
670.665	85.69
670.867	78.69
671.07	88.69
671.272	83.69
671.475	78.69
671.677	78.69
671.88	68.69
672.082	77.69
672.284	79.69
672.487	65.69
672.689	75.69
672.892	83.69
