Data from Uncirc_2000_H10_HRD10591_00010.txt Node
Date: Wed Jan 03 10:48:19 EST 2024
User: Yrep
Spectrometer: HR+D1059
Trigger mode: 1
Integration Time (sec): 1.000000E-1
Scans to average: 1
Electric dark correction enabled: true
Nonlinearity correction enabled: false
Boxcar width: 0
XAxis mode: Wavelengths
Number of Pixels in Spectrum: 2048
>>>>>Begin Spectral Data<<<<<
223.165	-24.25
223.4	-24.25
223.635	-24.25
223.869	-31.25
224.104	-9.25
224.338	-23.25
224.573	-17.25
224.808	-24.25
225.042	-10.25
225.277	-2.25
225.511	3.75
225.746	9.75
225.98	13.75
226.215	10.75
226.449	17.75
226.683	22.75
226.918	27.75
227.152	35.75
227.387	44.75
227.621	36.75
227.856	49.75
228.09	45.75
228.324	57.75
228.559	52.75
228.793	62.75
229.027	55.75
229.262	64.75
229.496	74.75
229.73	94.75
229.964	76.75
230.199	75.75
230.433	85.75
230.667	81.75
230.901	71.75
231.136	85.75
231.37	74.75
231.604	85.75
231.838	85.75
232.072	89.75
232.306	80.75
232.541	75.75
232.775	86.75
233.009	81.75
233.243	76.75
233.477	83.75
233.711	79.75
233.945	81.75
234.179	89.75
234.413	81.75
234.647	80.75
234.881	75.75
235.115	87.75
235.349	92.75
235.583	75.75
235.817	81.75
236.051	69.75
236.285	90.75
236.519	79.75
236.753	77.75
236.987	80.75
237.221	79.75
237.455	87.75
237.689	82.75
237.922	70.75
238.156	77.75
238.39	81.75
238.624	77.75
238.858	71.75
239.091	79.75
239.325	88.75
239.559	86.75
239.793	76.75
240.027	88.75
240.26	80.75
240.494	90.75
240.728	86.75
240.961	84.75
241.195	83.75
241.429	71.75
241.662	84.75
241.896	68.75
242.13	71.75
242.363	70.75
242.597	89.75
242.83	82.75
243.064	69.75
243.298	81.75
243.531	84.75
243.765	70.75
243.998	94.75
244.232	93.75
244.465	85.75
244.699	69.75
244.932	78.75
245.166	70.75
245.399	69.75
245.633	84.75
245.866	83.75
246.099	71.75
246.333	86.75
246.566	80.75
246.8	83.75
247.033	87.75
247.266	71.75
247.5	83.75
247.733	89.75
247.966	83.75
248.2	90.75
248.433	79.75
248.666	75.75
248.899	82.75
249.133	85.75
249.366	84.75
249.599	89.75
249.832	91.75
250.066	83.75
250.299	85.75
250.532	86.75
250.765	82.75
250.998	79.75
251.231	75.75
251.465	88.75
251.698	85.75
251.931	71.75
252.164	95.75
252.397	100.75
252.63	90.75
252.863	79.75
253.096	81.75
253.329	72.75
253.562	69.75
253.795	86.75
254.028	74.75
254.261	81.75
254.494	86.75
254.727	88.75
254.96	87.75
255.193	81.75
255.426	75.75
255.659	92.75
255.892	75.75
256.124	86.75
256.357	93.75
256.59	76.75
256.823	83.75
257.056	78.75
257.289	80.75
257.521	81.75
257.754	89.75
257.987	73.75
258.22	93.75
258.452	78.75
258.685	79.75
258.918	83.75
259.151	74.75
259.383	85.75
259.616	80.75
259.849	72.75
260.081	92.75
260.314	95.75
260.547	83.75
260.779	84.75
261.012	81.75
261.244	74.75
261.477	93.75
261.71	96.75
261.942	105.75
262.175	112.75
262.407	96.75
262.64	94.75
262.872	63.75
263.105	78.75
263.337	80.75
263.57	74.75
263.802	93.75
264.035	88.75
264.267	80.75
264.499	87.75
264.732	89.75
264.964	88.75
265.197	86.75
265.429	93.75
265.661	79.75
265.894	75.75
266.126	83.75
266.358	87.75
266.591	72.75
266.823	73.75
267.055	71.75
267.287	77.75
267.52	86.75
267.752	79.75
267.984	73.75
268.216	90.75
268.448	101.75
268.681	88.75
268.913	63.75
269.145	85.75
269.377	86.75
269.609	72.75
269.841	83.75
270.073	75.75
270.306	83.75
270.538	86.75
270.77	75.75
271.002	91.75
271.234	85.75
271.466	75.75
271.698	96.75
271.93	84.75
272.162	80.75
272.394	75.75
272.626	96.75
272.858	81.75
273.09	84.75
273.322	92.75
273.553	76.75
273.785	83.75
274.017	78.75
274.249	85.75
274.481	91.75
274.713	88.75
274.945	85.75
275.176	82.75
275.408	96.75
275.64	81.75
275.872	100.75
276.104	83.75
276.335	97.75
276.567	104.75
276.799	95.75
277.031	104.75
277.262	90.75
277.494	92.75
277.726	111.75
277.957	94.75
278.189	86.75
278.421	81.75
278.652	82.75
278.884	71.75
279.115	86.75
279.347	79.75
279.579	89.75
279.81	87.75
280.042	89.75
280.273	87.75
280.505	85.75
280.736	88.75
280.968	82.75
281.199	90.75
281.431	96.75
281.662	97.75
281.894	80.75
282.125	89.75
282.356	102.75
282.588	128.75
282.819	103.75
283.051	91.75
283.282	91.75
283.513	74.75
283.745	75.75
283.976	84.75
284.207	91.75
284.439	92.75
284.67	76.75
284.901	85.75
285.132	79.75
285.364	87.75
285.595	83.75
285.826	88.75
286.057	86.75
286.288	85.75
286.52	83.75
286.751	101.75
286.982	89.75
287.213	87.75
287.444	80.75
287.675	96.75
287.906	79.75
288.138	89.75
288.369	91.75
288.6	94.75
288.831	74.75
289.062	99.75
289.293	84.75
289.524	96.75
289.755	97.75
289.986	100.75
290.217	103.75
290.448	83.75
290.679	91.75
290.91	84.75
291.141	75.75
291.371	104.75
291.602	103.75
291.833	99.75
292.064	85.75
292.295	91.75
292.526	85.75
292.757	96.75
292.987	86.75
293.218	93.75
293.449	103.75
293.68	99.75
293.91	86.75
294.141	79.75
294.372	91.75
294.603	91.75
294.833	78.75
295.064	94.75
295.295	91.75
295.525	94.75
295.756	100.75
295.987	110.75
296.217	119.75
296.448	103.75
296.679	79.75
296.909	88.75
297.14	91.75
297.37	87.75
297.601	79.75
297.831	92.75
298.062	96.75
298.292	97.75
298.523	86.75
298.753	102.75
298.984	92.75
299.214	83.75
299.445	98.75
299.675	102.75
299.905	105.75
300.136	101.75
300.366	79.75
300.597	91.75
300.827	101.75
301.057	96.75
301.288	95.75
301.518	92.75
301.748	83.75
301.979	98.75
302.209	101.75
302.439	84.75
302.669	91.75
302.9	77.75
303.13	96.75
303.36	88.75
303.59	108.75
303.82	102.75
304.051	95.75
304.281	97.75
304.511	98.75
304.741	83.75
304.971	87.75
305.201	93.75
305.431	81.75
305.661	93.75
305.891	105.75
306.121	101.75
306.352	100.75
306.582	88.75
306.812	115.75
307.042	81.75
307.272	95.75
307.502	96.75
307.731	101.75
307.961	94.75
308.191	89.75
308.421	92.75
308.651	91.75
308.881	89.75
309.111	93.75
309.341	88.75
309.571	87.75
309.8	97.75
310.03	111.75
310.26	83.75
310.49	103.75
310.72	108.75
310.949	101.75
311.179	97.75
311.409	95.75
311.639	91.75
311.868	102.75
312.098	98.75
312.328	81.75
312.557	86.75
312.787	94.75
313.017	102.75
313.246	87.75
313.476	107.75
313.706	92.75
313.935	92.75
314.165	95.75
314.394	100.75
314.624	85.75
314.853	94.75
315.083	80.75
315.312	90.75
315.542	97.75
315.771	95.75
316.001	89.75
316.23	108.75
316.46	112.75
316.689	89.75
316.919	75.75
317.148	82.75
317.377	82.75
317.607	99.75
317.836	96.75
318.065	96.75
318.295	87.75
318.524	88.75
318.753	92.75
318.983	101.75
319.212	88.75
319.441	109.75
319.67	93.75
319.9	89.75
320.129	81.75
320.358	101.75
320.587	84.75
320.816	95.75
321.046	93.75
321.275	112.75
321.504	99.75
321.733	85.75
321.962	105.75
322.191	100.75
322.42	87.75
322.649	121.75
322.878	109.75
323.108	112.75
323.337	97.75
323.566	116.75
323.795	139.75
324.024	199.75
324.253	349.75
324.482	721.75
324.71	1434.75
324.939	1834.75
325.168	716.75
325.397	229.75
325.626	130.75
325.855	107.75
326.084	129.75
326.313	129.75
326.542	143.75
326.77	216.75
326.999	410.75
327.228	843.75
327.457	1504.75
327.686	1149.75
327.914	306.75
328.143	167.75
328.372	139.75
328.6	92.75
328.829	121.75
329.058	102.75
329.287	112.75
329.515	115.75
329.744	104.75
329.972	93.75
330.201	110.75
330.43	95.75
330.658	114.75
330.887	121.75
331.115	103.75
331.344	95.75
331.572	102.75
331.801	111.75
332.03	95.75
332.258	88.75
332.486	105.75
332.715	99.75
332.943	101.75
333.172	103.75
333.4	105.75
333.629	110.75
333.857	107.75
334.085	116.75
334.314	89.75
334.542	97.75
334.771	95.75
334.999	95.75
335.227	98.75
335.455	91.75
335.684	99.75
335.912	103.75
336.14	96.75
336.369	104.75
336.597	96.75
336.825	94.75
337.053	88.75
337.281	89.75
337.51	111.75
337.738	92.75
337.966	95.75
338.194	95.75
338.422	95.75
338.65	100.75
338.878	105.75
339.106	93.75
339.334	112.75
339.562	89.75
339.79	88.75
340.018	94.75
340.246	86.75
340.474	80.75
340.702	94.75
340.93	79.75
341.158	95.75
341.386	95.75
341.614	103.75
341.842	93.75
342.07	92.75
342.298	101.75
342.526	97.75
342.754	92.75
342.981	91.75
343.209	106.75
343.437	97.75
343.665	98.75
343.893	84.75
344.12	95.75
344.348	82.75
344.576	85.75
344.804	85.75
345.031	100.75
345.259	84.75
345.487	104.75
345.714	95.75
345.942	87.75
346.17	93.75
346.397	87.75
346.625	84.75
346.853	94.75
347.08	101.75
347.308	90.75
347.535	93.75
347.763	110.75
347.99	99.75
348.218	95.75
348.445	94.75
348.673	85.75
348.9	104.75
349.128	88.75
349.355	103.75
349.583	97.75
349.81	104.75
350.037	99.75
350.265	90.75
350.492	99.75
350.72	92.75
350.947	103.75
351.174	121.75
351.402	93.75
351.629	91.75
351.856	113.75
352.083	110.75
352.311	98.75
352.538	105.75
352.765	112.75
352.992	125.75
353.22	105.75
353.447	116.75
353.674	101.75
353.901	106.75
354.128	104.75
354.355	109.75
354.583	91.75
354.81	103.75
355.037	95.75
355.264	94.75
355.491	88.75
355.718	104.75
355.945	104.75
356.172	95.75
356.399	74.75
356.626	103.75
356.853	88.75
357.08	94.75
357.307	110.75
357.534	102.75
357.761	90.75
357.988	93.75
358.215	97.75
358.441	105.75
358.668	83.75
358.895	76.75
359.122	102.75
359.349	88.75
359.576	96.75
359.802	95.75
360.029	100.75
360.256	104.75
360.483	93.75
360.709	97.75
360.936	78.75
361.163	86.75
361.39	95.75
361.616	95.75
361.843	85.75
362.07	86.75
362.296	79.75
362.523	80.75
362.749	94.75
362.976	102.75
363.203	90.75
363.429	94.75
363.656	104.75
363.882	95.75
364.109	86.75
364.335	83.75
364.562	93.75
364.788	88.75
365.015	98.75
365.241	87.75
365.468	97.75
365.694	92.75
365.92	79.75
366.147	83.75
366.373	77.75
366.599	94.75
366.826	94.75
367.052	93.75
367.278	87.75
367.505	89.75
367.731	90.75
367.957	95.75
368.184	99.75
368.41	101.75
368.636	102.75
368.862	107.75
369.089	107.75
369.315	97.75
369.541	91.75
369.767	94.75
369.993	100.75
370.219	85.75
370.445	102.75
370.672	93.75
370.898	103.75
371.124	87.75
371.35	100.75
371.576	90.75
371.802	89.75
372.028	78.75
372.254	93.75
372.48	99.75
372.706	96.75
372.932	85.75
373.158	98.75
373.384	97.75
373.61	99.75
373.835	87.75
374.061	86.75
374.287	88.75
374.513	84.75
374.739	77.75
374.965	85.75
375.191	91.75
375.416	99.75
375.642	81.75
375.868	94.75
376.094	98.75
376.319	101.75
376.545	96.75
376.771	94.75
376.997	88.75
377.222	92.75
377.448	91.75
377.674	105.75
377.899	100.75
378.125	101.75
378.35	102.75
378.576	103.75
378.802	95.75
379.027	80.75
379.253	101.75
379.478	96.75
379.704	94.75
379.929	95.75
380.155	98.75
380.38	104.75
380.606	88.75
380.831	97.75
381.057	110.75
381.282	94.75
381.507	94.75
381.733	94.75
381.958	95.75
382.184	106.75
382.409	95.75
382.634	111.75
382.86	101.75
383.085	116.75
383.31	101.75
383.535	110.75
383.761	106.75
383.986	102.75
384.211	106.75
384.436	95.75
384.662	125.75
384.887	118.75
385.112	132.75
385.337	102.75
385.562	101.75
385.787	116.75
386.013	117.75
386.238	121.75
386.463	111.75
386.688	116.75
386.913	107.75
387.138	113.75
387.363	96.75
387.588	99.75
387.813	109.75
388.038	111.75
388.263	111.75
388.488	104.75
388.713	91.75
388.938	100.75
389.163	111.75
389.387	107.75
389.612	106.75
389.837	94.75
390.062	99.75
390.287	82.75
390.512	92.75
390.736	96.75
390.961	107.75
391.186	85.75
391.411	99.75
391.636	97.75
391.86	92.75
392.085	83.75
392.31	93.75
392.534	89.75
392.759	94.75
392.984	97.75
393.208	112.75
393.433	104.75
393.658	101.75
393.882	83.75
394.107	96.75
394.331	96.75
394.556	96.75
394.78	90.75
395.005	93.75
395.229	79.75
395.454	91.75
395.678	80.75
395.903	79.75
396.127	101.75
396.352	90.75
396.576	93.75
396.801	90.75
397.025	105.75
397.249	89.75
397.474	81.75
397.698	85.75
397.922	90.75
398.147	87.75
398.371	78.75
398.595	86.75
398.82	72.75
399.044	88.75
399.268	93.75
399.492	90.75
399.717	93.75
399.941	93.75
400.165	88.75
400.389	88.75
400.613	92.75
400.837	86.75
401.062	83.75
401.286	102.75
401.51	90.75
401.734	97.75
401.958	96.75
402.182	118.75
402.406	134.75
402.63	115.75
402.854	97.75
403.078	84.75
403.302	86.75
403.526	97.75
403.75	87.75
403.974	91.75
404.198	85.75
404.422	79.75
404.645	92.75
404.869	95.75
405.093	79.75
405.317	92.75
405.541	92.75
405.765	91.75
405.988	107.75
406.212	144.75
406.436	181.75
406.66	140.75
406.883	88.75
407.107	85.75
407.331	91.75
407.555	86.75
407.778	103.75
408.002	94.75
408.226	99.75
408.449	104.75
408.673	84.75
408.896	91.75
409.12	101.75
409.344	93.75
409.567	85.75
409.791	87.75
410.014	93.75
410.238	94.75
410.461	91.75
410.685	109.75
410.908	88.75
411.132	95.75
411.355	84.75
411.578	75.75
411.802	90.75
412.025	102.75
412.249	92.75
412.472	103.75
412.695	89.75
412.919	92.75
413.142	90.75
413.365	88.75
413.589	88.75
413.812	101.75
414.035	83.75
414.258	91.75
414.482	94.75
414.705	92.75
414.928	90.75
415.151	99.75
415.374	99.75
415.597	91.75
415.821	94.75
416.044	89.75
416.267	86.75
416.49	98.75
416.713	97.75
416.936	91.75
417.159	78.75
417.382	71.75
417.605	97.75
417.828	89.75
418.051	93.75
418.274	101.75
418.497	92.75
418.72	90.75
418.943	80.75
419.166	79.75
419.389	95.75
419.611	86.75
419.834	92.75
420.057	103.75
420.28	94.75
420.503	93.75
420.726	81.75
420.948	89.75
421.171	98.75
421.394	111.75
421.617	103.75
421.839	92.75
422.062	96.75
422.285	88.75
422.507	88.75
422.73	90.75
422.953	99.75
423.175	98.75
423.398	96.75
423.621	88.75
423.843	78.75
424.066	96.75
424.288	87.75
424.511	89.75
424.733	91.75
424.956	97.75
425.178	109.75
425.401	94.75
425.623	87.75
425.846	105.75
426.068	105.75
426.291	86.75
426.513	83.75
426.735	94.75
426.958	94.75
427.18	110.75
427.402	134.75
427.625	134.75
427.847	119.75
428.069	108.75
428.292	100.75
428.514	84.75
428.736	86.75
428.958	71.75
429.181	79.75
429.403	89.75
429.625	91.75
429.847	92.75
430.069	95.75
430.292	84.75
430.514	91.75
430.736	95.75
430.958	82.75
431.18	91.75
431.402	71.75
431.624	100.75
431.846	86.75
432.068	94.75
432.29	88.75
432.512	96.75
432.734	90.75
432.956	79.75
433.178	87.75
433.4	91.75
433.622	86.75
433.844	83.75
434.066	94.75
434.287	85.75
434.509	76.75
434.731	97.75
434.953	92.75
435.175	84.75
435.397	98.75
435.618	76.75
435.84	115.75
436.062	118.75
436.284	107.75
436.505	94.75
436.727	106.75
436.949	96.75
437.17	94.75
437.392	93.75
437.614	89.75
437.835	104.75
438.057	110.75
438.278	91.75
438.5	89.75
438.721	120.75
438.943	94.75
439.165	98.75
439.386	85.75
439.608	79.75
439.829	79.75
440.05	93.75
440.272	124.75
440.493	95.75
440.715	97.75
440.936	83.75
441.158	89.75
441.379	77.75
441.6	86.75
441.822	96.75
442.043	94.75
442.264	97.75
442.486	94.75
442.707	87.75
442.928	92.75
443.149	115.75
443.371	105.75
443.592	102.75
443.813	111.75
444.034	90.75
444.255	96.75
444.476	95.75
444.698	89.75
444.919	102.75
445.14	129.75
445.361	124.75
445.582	111.75
445.803	115.75
446.024	111.75
446.245	115.75
446.466	94.75
446.687	83.75
446.908	92.75
447.129	99.75
447.35	101.75
447.571	93.75
447.792	112.75
448.013	103.75
448.234	104.75
448.455	101.75
448.675	108.75
448.896	109.75
449.117	106.75
449.338	99.75
449.559	110.75
449.779	124.75
450	91.75
450.221	75.75
450.442	96.75
450.662	93.75
450.883	101.75
451.104	98.75
451.324	102.75
451.545	98.75
451.766	93.75
451.986	94.75
452.207	87.75
452.428	107.75
452.648	108.75
452.869	100.75
453.089	101.75
453.31	98.75
453.53	96.75
453.751	83.75
453.971	99.75
454.192	105.75
454.412	89.75
454.633	94.75
454.853	88.75
455.073	87.75
455.294	96.75
455.514	95.75
455.734	85.75
455.955	91.75
456.175	83.75
456.395	75.75
456.616	89.75
456.836	92.75
457.056	87.75
457.276	89.75
457.497	90.75
457.717	89.75
457.937	91.75
458.157	104.75
458.377	93.75
458.598	91.75
458.818	122.75
459.038	121.75
459.258	103.75
459.478	94.75
459.698	90.75
459.918	83.75
460.138	75.75
460.358	85.75
460.578	91.75
460.798	92.75
461.018	83.75
461.238	80.75
461.458	80.75
461.678	82.75
461.898	96.75
462.118	89.75
462.338	91.75
462.558	89.75
462.777	83.75
462.997	83.75
463.217	86.75
463.437	80.75
463.657	91.75
463.876	81.75
464.096	100.75
464.316	83.75
464.536	82.75
464.755	82.75
464.975	100.75
465.195	141.75
465.414	128.75
465.634	93.75
465.854	99.75
466.073	95.75
466.293	100.75
466.512	72.75
466.732	94.75
466.951	65.75
467.171	94.75
467.391	97.75
467.61	100.75
467.829	99.75
468.049	88.75
468.268	101.75
468.488	82.75
468.707	89.75
468.927	91.75
469.146	97.75
469.365	83.75
469.585	95.75
469.804	89.75
470.023	107.75
470.243	101.75
470.462	92.75
470.681	110.75
470.901	83.75
471.12	73.75
471.339	89.75
471.558	90.75
471.777	86.75
471.997	86.75
472.216	92.75
472.435	101.75
472.654	89.75
472.873	78.75
473.092	86.75
473.311	89.75
473.53	97.75
473.749	92.75
473.968	103.75
474.187	101.75
474.406	95.75
474.625	83.75
474.844	95.75
475.063	75.75
475.282	86.75
475.501	83.75
475.72	98.75
475.939	87.75
476.158	90.75
476.377	76.75
476.596	88.75
476.814	93.75
477.033	88.75
477.252	91.75
477.471	97.75
477.69	95.75
477.908	93.75
478.127	83.75
478.346	91.75
478.564	91.75
478.783	96.75
479.002	105.75
479.22	104.75
479.439	89.75
479.658	81.75
479.876	87.75
480.095	78.75
480.313	66.75
480.532	88.75
480.751	93.75
480.969	88.75
481.188	94.75
481.406	107.75
481.624	88.75
481.843	84.75
482.061	96.75
482.28	83.75
482.498	102.75
482.717	100.75
482.935	88.75
483.153	88.75
483.372	100.75
483.59	96.75
483.808	96.75
484.027	109.75
484.245	90.75
484.463	93.75
484.681	98.75
484.9	101.75
485.118	92.75
485.336	94.75
485.554	87.75
485.772	85.75
485.99	107.75
486.209	108.75
486.427	111.75
486.645	113.75
486.863	110.75
487.081	106.75
487.299	96.75
487.517	103.75
487.735	87.75
487.953	106.75
488.171	95.75
488.389	92.75
488.607	115.75
488.825	105.75
489.043	94.75
489.261	102.75
489.479	86.75
489.696	88.75
489.914	97.75
490.132	88.75
490.35	90.75
490.568	103.75
490.786	92.75
491.003	85.75
491.221	90.75
491.439	87.75
491.657	93.75
491.874	90.75
492.092	89.75
492.31	92.75
492.527	86.75
492.745	77.75
492.963	103.75
493.18	89.75
493.398	81.75
493.615	85.75
493.833	86.75
494.05	86.75
494.268	84.75
494.485	78.75
494.703	83.75
494.92	101.75
495.138	101.75
495.355	100.75
495.573	93.75
495.79	98.75
496.008	110.75
496.225	92.75
496.442	94.75
496.66	104.75
496.877	94.75
497.094	95.75
497.312	93.75
497.529	87.75
497.746	97.75
497.963	93.75
498.181	87.75
498.398	94.75
498.615	108.75
498.832	102.75
499.049	91.75
499.267	98.75
499.484	88.75
499.701	96.75
499.918	87.75
500.135	73.75
500.352	92.75
500.569	92.75
500.786	84.75
501.003	79.75
501.22	89.75
501.437	95.75
501.654	94.75
501.871	111.75
502.088	99.75
502.305	100.75
502.522	97.75
502.739	97.75
502.956	101.75
503.172	80.75
503.389	84.75
503.606	91.75
503.823	97.75
504.04	101.75
504.256	110.75
504.473	103.75
504.69	77.75
504.907	94.75
505.123	94.75
505.34	104.75
505.557	85.75
505.773	84.75
505.99	106.75
506.207	94.75
506.423	90.75
506.64	87.75
506.856	85.75
507.073	95.75
507.289	91.75
507.506	91.75
507.722	95.75
507.939	110.75
508.155	85.75
508.372	92.75
508.588	90.75
508.805	107.75
509.021	102.75
509.238	102.75
509.454	111.75
509.67	98.75
509.887	94.75
510.103	127.75
510.319	173.75
510.536	577.75
510.752	1772.75
510.968	506.75
511.184	135.75
511.401	108.75
511.617	109.75
511.833	87.75
512.049	91.75
512.265	104.75
512.481	101.75
512.698	81.75
512.914	92.75
513.13	99.75
513.346	98.75
513.562	88.75
513.778	82.75
513.994	112.75
514.21	102.75
514.426	118.75
514.642	117.75
514.858	116.75
515.074	138.75
515.29	345.75
515.506	1020.75
515.721	408.75
515.937	135.75
516.153	91.75
516.369	99.75
516.585	95.75
516.801	100.75
517.016	103.75
517.232	99.75
517.448	94.75
517.664	92.75
517.879	109.75
518.095	95.75
518.311	92.75
518.527	97.75
518.742	97.75
518.958	99.75
519.173	107.75
519.389	104.75
519.605	102.75
519.82	99.75
520.036	98.75
520.251	118.75
520.467	91.75
520.682	96.75
520.898	107.75
521.113	125.75
521.329	132.75
521.544	170.75
521.76	413.75
521.975	1689.75
522.19	1024.75
522.406	255.75
522.621	112.75
522.836	99.75
523.052	103.75
523.267	102.75
523.482	90.75
523.698	113.75
523.913	112.75
524.128	98.75
524.343	91.75
524.559	98.75
524.774	100.75
524.989	108.75
525.204	106.75
525.419	96.75
525.634	91.75
525.849	91.75
526.064	101.75
526.28	102.75
526.495	95.75
526.71	96.75
526.925	90.75
527.14	93.75
527.355	87.75
527.57	83.75
527.785	84.75
527.999	87.75
528.214	99.75
528.429	92.75
528.644	91.75
528.859	103.75
529.074	91.75
529.289	120.75
529.503	155.75
529.718	94.75
529.933	97.75
530.148	105.75
530.363	93.75
530.577	87.75
530.792	103.75
531.007	94.75
531.221	92.75
531.436	95.75
531.651	84.75
531.865	94.75
532.08	80.75
532.295	102.75
532.509	96.75
532.724	98.75
532.938	81.75
533.153	86.75
533.367	96.75
533.582	103.75
533.796	102.75
534.011	101.75
534.225	89.75
534.44	96.75
534.654	106.75
534.868	86.75
535.083	102.75
535.297	94.75
535.511	89.75
535.726	93.75
535.94	103.75
536.154	94.75
536.369	89.75
536.583	110.75
536.797	73.75
537.011	96.75
537.225	94.75
537.44	101.75
537.654	115.75
537.868	91.75
538.082	100.75
538.296	96.75
538.51	73.75
538.724	79.75
538.938	75.75
539.153	94.75
539.367	103.75
539.581	88.75
539.795	85.75
540.009	102.75
540.222	97.75
540.436	87.75
540.65	97.75
540.864	110.75
541.078	89.75
541.292	98.75
541.506	85.75
541.72	104.75
541.934	86.75
542.147	92.75
542.361	100.75
542.575	81.75
542.789	88.75
543.002	102.75
543.216	89.75
543.43	94.75
543.644	78.75
543.857	85.75
544.071	87.75
544.285	90.75
544.498	102.75
544.712	107.75
544.925	80.75
545.139	95.75
545.352	78.75
545.566	89.75
545.779	83.75
545.993	84.75
546.206	76.75
546.42	86.75
546.633	88.75
546.847	85.75
547.06	96.75
547.274	95.75
547.487	96.75
547.7	72.75
547.914	82.75
548.127	88.75
548.34	92.75
548.554	77.75
548.767	106.75
548.98	90.75
549.193	98.75
549.407	95.75
549.62	82.75
549.833	93.75
550.046	99.75
550.259	83.75
550.473	88.75
550.686	86.75
550.899	88.75
551.112	88.75
551.325	73.75
551.538	83.75
551.751	102.75
551.964	97.75
552.177	90.75
552.39	84.75
552.603	101.75
552.816	92.75
553.029	88.75
553.242	94.75
553.455	94.75
553.667	100.75
553.88	103.75
554.093	92.75
554.306	94.75
554.519	91.75
554.732	100.75
554.944	91.75
555.157	93.75
555.37	95.75
555.583	103.75
555.795	98.75
556.008	84.75
556.221	90.75
556.433	93.75
556.646	87.75
556.859	92.75
557.071	99.75
557.284	87.75
557.496	92.75
557.709	89.75
557.921	85.75
558.134	88.75
558.346	105.75
558.559	97.75
558.771	87.75
558.984	88.75
559.196	99.75
559.409	97.75
559.621	105.75
559.833	89.75
560.046	86.75
560.258	90.75
560.47	88.75
560.683	93.75
560.895	96.75
561.107	88.75
561.32	87.75
561.532	81.75
561.744	91.75
561.956	103.75
562.168	97.75
562.381	99.75
562.593	81.75
562.805	109.75
563.017	98.75
563.229	84.75
563.441	99.75
563.653	103.75
563.865	86.75
564.077	93.75
564.289	71.75
564.501	77.75
564.713	89.75
564.925	93.75
565.137	84.75
565.349	96.75
565.561	91.75
565.773	90.75
565.985	86.75
566.197	97.75
566.408	100.75
566.62	75.75
566.832	85.75
567.044	87.75
567.255	88.75
567.467	88.75
567.679	79.75
567.891	92.75
568.102	103.75
568.314	85.75
568.526	84.75
568.737	96.75
568.949	99.75
569.161	94.75
569.372	81.75
569.584	90.75
569.795	87.75
570.007	112.75
570.218	217.75
570.43	136.75
570.641	96.75
570.853	84.75
571.064	93.75
571.276	94.75
571.487	75.75
571.698	84.75
571.91	85.75
572.121	85.75
572.333	93.75
572.544	100.75
572.755	104.75
572.966	97.75
573.178	96.75
573.389	93.75
573.6	95.75
573.811	91.75
574.023	94.75
574.234	83.75
574.445	100.75
574.656	95.75
574.867	87.75
575.078	105.75
575.289	93.75
575.501	83.75
575.712	96.75
575.923	93.75
576.134	96.75
576.345	103.75
576.556	91.75
576.767	96.75
576.978	96.75
577.188	95.75
577.399	87.75
577.61	107.75
577.821	106.75
578.032	110.75
578.243	248.75
578.454	597.75
578.665	186.75
578.875	103.75
579.086	94.75
579.297	91.75
579.508	85.75
579.718	96.75
579.929	104.75
580.14	81.75
580.35	106.75
580.561	94.75
580.772	97.75
580.982	85.75
581.193	77.75
581.403	99.75
581.614	96.75
581.825	92.75
582.035	87.75
582.246	98.75
582.456	89.75
582.667	90.75
582.877	92.75
583.087	101.75
583.298	94.75
583.508	100.75
583.719	90.75
583.929	89.75
584.139	89.75
584.35	86.75
584.56	87.75
584.77	102.75
584.981	88.75
585.191	91.75
585.401	86.75
585.611	83.75
585.821	84.75
586.032	94.75
586.242	87.75
586.452	99.75
586.662	90.75
586.872	83.75
587.082	96.75
587.292	82.75
587.502	86.75
587.713	84.75
587.923	90.75
588.133	98.75
588.343	79.75
588.553	89.75
588.762	92.75
588.972	108.75
589.182	91.75
589.392	96.75
589.602	96.75
589.812	96.75
590.022	84.75
590.232	76.75
590.441	86.75
590.651	83.75
590.861	83.75
591.071	100.75
591.281	100.75
591.49	87.75
591.7	85.75
591.91	105.75
592.119	101.75
592.329	85.75
592.539	87.75
592.748	79.75
592.958	86.75
593.167	81.75
593.377	97.75
593.587	95.75
593.796	96.75
594.006	90.75
594.215	86.75
594.424	89.75
594.634	82.75
594.843	97.75
595.053	98.75
595.262	73.75
595.472	67.75
595.681	97.75
595.89	89.75
596.1	91.75
596.309	95.75
596.518	92.75
596.727	84.75
596.937	94.75
597.146	101.75
597.355	83.75
597.564	80.75
597.774	85.75
597.983	86.75
598.192	98.75
598.401	105.75
598.61	97.75
598.819	92.75
599.028	90.75
599.237	88.75
599.446	96.75
599.655	97.75
599.864	88.75
600.073	93.75
600.282	84.75
600.491	92.75
600.7	79.75
600.909	91.75
601.118	95.75
601.327	96.75
601.536	96.75
601.745	86.75
601.953	84.75
602.162	92.75
602.371	101.75
602.58	92.75
602.789	102.75
602.997	86.75
603.206	98.75
603.415	96.75
603.623	86.75
603.832	74.75
604.041	83.75
604.249	88.75
604.458	99.75
604.666	89.75
604.875	86.75
605.084	108.75
605.292	79.75
605.501	91.75
605.709	87.75
605.918	92.75
606.126	101.75
606.334	75.75
606.543	96.75
606.751	94.75
606.96	94.75
607.168	88.75
607.376	100.75
607.585	93.75
607.793	94.75
608.001	81.75
608.21	81.75
608.418	92.75
608.626	99.75
608.834	77.75
609.043	91.75
609.251	94.75
609.459	89.75
609.667	95.75
609.875	83.75
610.083	95.75
610.291	94.75
610.499	97.75
610.707	97.75
610.916	91.75
611.124	97.75
611.332	87.75
611.54	91.75
611.748	89.75
611.955	77.75
612.163	88.75
612.371	87.75
612.579	102.75
612.787	92.75
612.995	83.75
613.203	92.75
613.411	81.75
613.618	87.75
613.826	95.75
614.034	87.75
614.242	97.75
614.449	85.75
614.657	88.75
614.865	90.75
615.072	89.75
615.28	95.75
615.488	89.75
615.695	100.75
615.903	104.75
616.111	109.75
616.318	111.75
616.526	108.75
616.733	90.75
616.941	101.75
617.148	84.75
617.356	97.75
617.563	73.75
617.771	93.75
617.978	91.75
618.185	77.75
618.393	88.75
618.6	89.75
618.807	98.75
619.015	69.75
619.222	81.75
619.429	100.75
619.637	86.75
619.844	95.75
620.051	87.75
620.258	98.75
620.466	85.75
620.673	86.75
620.88	91.75
621.087	77.75
621.294	94.75
621.501	90.75
621.708	91.75
621.915	88.75
622.122	85.75
622.329	96.75
622.536	90.75
622.743	94.75
622.95	83.75
623.157	84.75
623.364	87.75
623.571	92.75
623.778	97.75
623.985	77.75
624.192	92.75
624.399	84.75
624.606	87.75
624.812	76.75
625.019	89.75
625.226	87.75
625.433	86.75
625.639	79.75
625.846	84.75
626.053	80.75
626.259	80.75
626.466	79.75
626.673	81.75
626.879	97.75
627.086	90.75
627.293	81.75
627.499	88.75
627.706	84.75
627.912	100.75
628.119	83.75
628.325	85.75
628.532	94.75
628.738	91.75
628.945	95.75
629.151	92.75
629.357	90.75
629.564	88.75
629.77	87.75
629.976	98.75
630.183	81.75
630.389	93.75
630.595	79.75
630.802	103.75
631.008	92.75
631.214	75.75
631.42	94.75
631.627	100.75
631.833	93.75
632.039	91.75
632.245	78.75
632.451	89.75
632.657	96.75
632.863	94.75
633.069	83.75
633.275	80.75
633.481	83.75
633.688	87.75
633.893	80.75
634.099	84.75
634.305	74.75
634.511	91.75
634.717	90.75
634.923	89.75
635.129	75.75
635.335	84.75
635.541	87.75
635.747	96.75
635.952	81.75
636.158	95.75
636.364	85.75
636.57	78.75
636.775	82.75
636.981	97.75
637.187	77.75
637.392	88.75
637.598	97.75
637.804	93.75
638.009	101.75
638.215	93.75
638.421	86.75
638.626	92.75
638.832	91.75
639.037	77.75
639.243	88.75
639.448	92.75
639.654	93.75
639.859	90.75
640.065	75.75
640.27	95.75
640.475	79.75
640.681	84.75
640.886	95.75
641.091	87.75
641.297	95.75
641.502	91.75
641.707	91.75
641.913	83.75
642.118	102.75
642.323	97.75
642.528	100.75
642.733	90.75
642.939	87.75
643.144	88.75
643.349	80.75
643.554	100.75
643.759	73.75
643.964	84.75
644.169	78.75
644.374	97.75
644.579	101.75
644.784	86.75
644.989	86.75
645.194	94.75
645.399	83.75
645.604	90.75
645.809	95.75
646.014	82.75
646.219	93.75
646.423	78.75
646.628	96.75
646.833	88.75
647.038	93.75
647.243	93.75
647.447	87.75
647.652	81.75
647.857	93.75
648.062	100.75
648.266	92.75
648.471	112.75
648.676	93.75
648.88	101.75
649.085	111.75
649.289	82.75
649.494	111.75
649.698	127.75
649.903	109.75
650.107	95.75
650.312	89.75
650.516	85.75
650.721	77.75
650.925	83.75
651.13	84.75
651.334	89.75
651.539	94.75
651.743	89.75
651.947	102.75
652.152	82.75
652.356	84.75
652.56	95.75
652.764	82.75
652.969	77.75
653.173	97.75
653.377	72.75
653.581	69.75
653.785	87.75
653.99	81.75
654.194	92.75
654.398	76.75
654.602	88.75
654.806	84.75
655.01	94.75
655.214	95.75
655.418	92.75
655.622	91.75
655.826	99.75
656.03	89.75
656.234	88.75
656.438	84.75
656.642	104.75
656.846	77.75
657.049	94.75
657.253	80.75
657.457	92.75
657.661	94.75
657.865	96.75
658.068	99.75
658.272	86.75
658.476	84.75
658.68	89.75
658.883	77.75
659.087	89.75
659.291	87.75
659.494	74.75
659.698	78.75
659.901	87.75
660.105	86.75
660.309	87.75
660.512	83.75
660.716	96.75
660.919	83.75
661.123	85.75
661.326	86.75
661.53	94.75
661.733	89.75
661.936	85.75
662.14	89.75
662.343	78.75
662.546	73.75
662.75	99.75
662.953	94.75
663.156	91.75
663.36	90.75
663.563	75.75
663.766	80.75
663.969	84.75
664.173	84.75
664.376	89.75
664.579	78.75
664.782	83.75
664.985	79.75
665.188	88.75
665.391	80.75
665.594	86.75
665.797	85.75
666	86.75
666.203	87.75
666.406	91.75
666.609	90.75
666.812	77.75
667.015	75.75
667.218	85.75
667.421	91.75
667.624	88.75
667.827	84.75
668.03	83.75
668.232	89.75
668.435	80.75
668.638	97.75
668.841	88.75
669.043	82.75
669.246	72.75
669.449	84.75
669.651	82.75
669.854	93.75
670.057	86.75
670.259	79.75
670.462	82.75
670.665	95.75
670.867	72.75
671.07	77.75
671.272	75.75
671.475	80.75
671.677	93.75
671.88	91.75
672.082	86.75
672.284	84.75
672.487	75.75
672.689	71.75
672.892	77.75
