Data from Uncirc_2000_H10_HRD10591_00031.txt Node
Date: Wed Jan 03 10:48:23 EST 2024
User: Yrep
Spectrometer: HR+D1059
Trigger mode: 1
Integration Time (sec): 1.000000E-1
Scans to average: 1
Electric dark correction enabled: true
Nonlinearity correction enabled: false
Boxcar width: 0
XAxis mode: Wavelengths
Number of Pixels in Spectrum: 2048
>>>>>Begin Spectral Data<<<<<
223.165	-2.25
223.4	-2.25
223.635	-2.25
223.869	-12.25
224.104	-18.25
224.338	-19.25
224.573	-13.25
224.808	-5.25
225.042	-23.25
225.277	4.75
225.511	-5.25
225.746	-2.25
225.98	2.75
226.215	9.75
226.449	12.75
226.683	25.75
226.918	14.75
227.152	30.75
227.387	43.75
227.621	33.75
227.856	56.75
228.09	51.75
228.324	38.75
228.559	57.75
228.793	55.75
229.027	52.75
229.262	70.75
229.496	75.75
229.73	71.75
229.964	66.75
230.199	81.75
230.433	77.75
230.667	71.75
230.901	92.75
231.136	82.75
231.37	76.75
231.604	83.75
231.838	83.75
232.072	89.75
232.306	86.75
232.541	73.75
232.775	62.75
233.009	89.75
233.243	75.75
233.477	79.75
233.711	84.75
233.945	76.75
234.179	83.75
234.413	93.75
234.647	80.75
234.881	72.75
235.115	80.75
235.349	97.75
235.583	79.75
235.817	75.75
236.051	85.75
236.285	83.75
236.519	83.75
236.753	79.75
236.987	92.75
237.221	95.75
237.455	90.75
237.689	81.75
237.922	71.75
238.156	88.75
238.39	75.75
238.624	73.75
238.858	81.75
239.091	75.75
239.325	73.75
239.559	93.75
239.793	80.75
240.027	76.75
240.26	84.75
240.494	73.75
240.728	72.75
240.961	70.75
241.195	71.75
241.429	63.75
241.662	83.75
241.896	69.75
242.13	71.75
242.363	73.75
242.597	77.75
242.83	82.75
243.064	84.75
243.298	89.75
243.531	74.75
243.765	77.75
243.998	83.75
244.232	75.75
244.465	90.75
244.699	84.75
244.932	73.75
245.166	89.75
245.399	94.75
245.633	85.75
245.866	78.75
246.099	77.75
246.333	85.75
246.566	73.75
246.8	80.75
247.033	71.75
247.266	77.75
247.5	77.75
247.733	75.75
247.966	91.75
248.2	99.75
248.433	94.75
248.666	84.75
248.899	79.75
249.133	96.75
249.366	84.75
249.599	99.75
249.832	95.75
250.066	81.75
250.299	89.75
250.532	70.75
250.765	88.75
250.998	96.75
251.231	84.75
251.465	67.75
251.698	83.75
251.931	75.75
252.164	86.75
252.397	95.75
252.63	80.75
252.863	75.75
253.096	74.75
253.329	79.75
253.562	95.75
253.795	92.75
254.028	77.75
254.261	79.75
254.494	76.75
254.727	83.75
254.96	78.75
255.193	82.75
255.426	76.75
255.659	89.75
255.892	92.75
256.124	82.75
256.357	79.75
256.59	81.75
256.823	78.75
257.056	80.75
257.289	94.75
257.521	89.75
257.754	83.75
257.987	87.75
258.22	93.75
258.452	87.75
258.685	78.75
258.918	74.75
259.151	86.75
259.383	98.75
259.616	81.75
259.849	87.75
260.081	85.75
260.314	88.75
260.547	92.75
260.779	94.75
261.012	76.75
261.244	67.75
261.477	90.75
261.71	78.75
261.942	114.75
262.175	108.75
262.407	101.75
262.64	74.75
262.872	74.75
263.105	92.75
263.337	82.75
263.57	86.75
263.802	84.75
264.035	83.75
264.267	91.75
264.499	81.75
264.732	81.75
264.964	83.75
265.197	78.75
265.429	92.75
265.661	76.75
265.894	83.75
266.126	90.75
266.358	94.75
266.591	87.75
266.823	79.75
267.055	74.75
267.287	86.75
267.52	81.75
267.752	85.75
267.984	91.75
268.216	87.75
268.448	86.75
268.681	97.75
268.913	82.75
269.145	83.75
269.377	81.75
269.609	86.75
269.841	83.75
270.073	98.75
270.306	91.75
270.538	79.75
270.77	89.75
271.002	89.75
271.234	67.75
271.466	92.75
271.698	97.75
271.93	82.75
272.162	88.75
272.394	86.75
272.626	86.75
272.858	95.75
273.09	88.75
273.322	91.75
273.553	85.75
273.785	87.75
274.017	89.75
274.249	84.75
274.481	87.75
274.713	91.75
274.945	91.75
275.176	101.75
275.408	81.75
275.64	85.75
275.872	87.75
276.104	100.75
276.335	83.75
276.567	94.75
276.799	99.75
277.031	107.75
277.262	87.75
277.494	79.75
277.726	90.75
277.957	89.75
278.189	81.75
278.421	94.75
278.652	93.75
278.884	88.75
279.115	79.75
279.347	86.75
279.579	89.75
279.81	83.75
280.042	90.75
280.273	94.75
280.505	98.75
280.736	99.75
280.968	77.75
281.199	65.75
281.431	86.75
281.662	91.75
281.894	91.75
282.125	81.75
282.356	94.75
282.588	122.75
282.819	114.75
283.051	92.75
283.282	99.75
283.513	97.75
283.745	90.75
283.976	80.75
284.207	81.75
284.439	87.75
284.67	82.75
284.901	86.75
285.132	94.75
285.364	80.75
285.595	96.75
285.826	89.75
286.057	91.75
286.288	93.75
286.52	84.75
286.751	91.75
286.982	92.75
287.213	82.75
287.444	86.75
287.675	91.75
287.906	95.75
288.138	101.75
288.369	98.75
288.6	98.75
288.831	101.75
289.062	94.75
289.293	91.75
289.524	98.75
289.755	93.75
289.986	93.75
290.217	82.75
290.448	85.75
290.679	93.75
290.91	85.75
291.141	80.75
291.371	88.75
291.602	78.75
291.833	84.75
292.064	72.75
292.295	95.75
292.526	83.75
292.757	92.75
292.987	91.75
293.218	75.75
293.449	103.75
293.68	67.75
293.91	91.75
294.141	92.75
294.372	88.75
294.603	95.75
294.833	78.75
295.064	87.75
295.295	87.75
295.525	97.75
295.756	105.75
295.987	116.75
296.217	117.75
296.448	112.75
296.679	89.75
296.909	101.75
297.14	91.75
297.37	82.75
297.601	80.75
297.831	99.75
298.062	110.75
298.292	107.75
298.523	103.75
298.753	86.75
298.984	82.75
299.214	86.75
299.445	89.75
299.675	89.75
299.905	89.75
300.136	93.75
300.366	104.75
300.597	97.75
300.827	94.75
301.057	91.75
301.288	103.75
301.518	92.75
301.748	93.75
301.979	93.75
302.209	85.75
302.439	79.75
302.669	100.75
302.9	103.75
303.13	99.75
303.36	87.75
303.59	103.75
303.82	104.75
304.051	92.75
304.281	93.75
304.511	95.75
304.741	93.75
304.971	96.75
305.201	95.75
305.431	88.75
305.661	76.75
305.891	86.75
306.121	101.75
306.352	110.75
306.582	101.75
306.812	111.75
307.042	90.75
307.272	79.75
307.502	100.75
307.731	90.75
307.961	89.75
308.191	86.75
308.421	101.75
308.651	104.75
308.881	86.75
309.111	85.75
309.341	104.75
309.571	91.75
309.8	94.75
310.03	94.75
310.26	97.75
310.49	104.75
310.72	101.75
310.949	104.75
311.179	97.75
311.409	98.75
311.639	101.75
311.868	99.75
312.098	107.75
312.328	104.75
312.557	102.75
312.787	97.75
313.017	99.75
313.246	94.75
313.476	85.75
313.706	85.75
313.935	87.75
314.165	98.75
314.394	98.75
314.624	107.75
314.853	96.75
315.083	78.75
315.312	107.75
315.542	84.75
315.771	98.75
316.001	100.75
316.23	96.75
316.46	95.75
316.689	85.75
316.919	109.75
317.148	94.75
317.377	91.75
317.607	91.75
317.836	102.75
318.065	92.75
318.295	100.75
318.524	94.75
318.753	94.75
318.983	98.75
319.212	105.75
319.441	114.75
319.67	100.75
319.9	89.75
320.129	86.75
320.358	101.75
320.587	98.75
320.816	99.75
321.046	96.75
321.275	82.75
321.504	101.75
321.733	93.75
321.962	84.75
322.191	105.75
322.42	108.75
322.649	104.75
322.878	109.75
323.108	115.75
323.337	103.75
323.566	129.75
323.795	149.75
324.024	198.75
324.253	360.75
324.482	764.75
324.71	1538.75
324.939	1997.75
325.168	727.75
325.397	225.75
325.626	147.75
325.855	133.75
326.084	116.75
326.313	128.75
326.542	145.75
326.77	213.75
326.999	430.75
327.228	878.75
327.457	1549.75
327.686	1230.75
327.914	337.75
328.143	173.75
328.372	141.75
328.6	115.75
328.829	102.75
329.058	118.75
329.287	123.75
329.515	100.75
329.744	110.75
329.972	99.75
330.201	99.75
330.43	103.75
330.658	111.75
330.887	135.75
331.115	106.75
331.344	93.75
331.572	100.75
331.801	95.75
332.03	99.75
332.258	95.75
332.486	89.75
332.715	83.75
332.943	90.75
333.172	81.75
333.4	96.75
333.629	107.75
333.857	105.75
334.085	94.75
334.314	84.75
334.542	92.75
334.771	102.75
334.999	110.75
335.227	81.75
335.455	112.75
335.684	100.75
335.912	97.75
336.14	109.75
336.369	88.75
336.597	93.75
336.825	94.75
337.053	99.75
337.281	106.75
337.51	102.75
337.738	90.75
337.966	79.75
338.194	111.75
338.422	94.75
338.65	94.75
338.878	100.75
339.106	101.75
339.334	93.75
339.562	94.75
339.79	87.75
340.018	83.75
340.246	103.75
340.474	95.75
340.702	77.75
340.93	89.75
341.158	96.75
341.386	97.75
341.614	103.75
341.842	91.75
342.07	94.75
342.298	90.75
342.526	92.75
342.754	76.75
342.981	83.75
343.209	91.75
343.437	93.75
343.665	88.75
343.893	90.75
344.12	92.75
344.348	103.75
344.576	103.75
344.804	89.75
345.031	98.75
345.259	100.75
345.487	96.75
345.714	88.75
345.942	98.75
346.17	102.75
346.397	85.75
346.625	109.75
346.853	92.75
347.08	90.75
347.308	100.75
347.535	89.75
347.763	92.75
347.99	104.75
348.218	88.75
348.445	96.75
348.673	101.75
348.9	93.75
349.128	93.75
349.355	92.75
349.583	90.75
349.81	100.75
350.037	105.75
350.265	101.75
350.492	106.75
350.72	96.75
350.947	103.75
351.174	93.75
351.402	101.75
351.629	106.75
351.856	101.75
352.083	96.75
352.311	93.75
352.538	85.75
352.765	105.75
352.992	104.75
353.22	103.75
353.447	104.75
353.674	98.75
353.901	102.75
354.128	109.75
354.355	100.75
354.583	90.75
354.81	93.75
355.037	87.75
355.264	87.75
355.491	99.75
355.718	96.75
355.945	95.75
356.172	94.75
356.399	102.75
356.626	106.75
356.853	105.75
357.08	100.75
357.307	92.75
357.534	89.75
357.761	105.75
357.988	103.75
358.215	93.75
358.441	92.75
358.668	91.75
358.895	92.75
359.122	79.75
359.349	86.75
359.576	82.75
359.802	93.75
360.029	104.75
360.256	116.75
360.483	91.75
360.709	86.75
360.936	97.75
361.163	99.75
361.39	79.75
361.616	103.75
361.843	96.75
362.07	101.75
362.296	103.75
362.523	91.75
362.749	81.75
362.976	94.75
363.203	105.75
363.429	93.75
363.656	78.75
363.882	95.75
364.109	85.75
364.335	98.75
364.562	98.75
364.788	98.75
365.015	88.75
365.241	107.75
365.468	107.75
365.694	109.75
365.92	105.75
366.147	88.75
366.373	91.75
366.599	74.75
366.826	101.75
367.052	95.75
367.278	91.75
367.505	101.75
367.731	95.75
367.957	94.75
368.184	89.75
368.41	105.75
368.636	110.75
368.862	117.75
369.089	93.75
369.315	92.75
369.541	82.75
369.767	82.75
369.993	94.75
370.219	89.75
370.445	95.75
370.672	86.75
370.898	94.75
371.124	75.75
371.35	94.75
371.576	81.75
371.802	92.75
372.028	73.75
372.254	94.75
372.48	82.75
372.706	70.75
372.932	85.75
373.158	99.75
373.384	92.75
373.61	91.75
373.835	90.75
374.061	112.75
374.287	99.75
374.513	101.75
374.739	96.75
374.965	94.75
375.191	93.75
375.416	106.75
375.642	88.75
375.868	87.75
376.094	95.75
376.319	92.75
376.545	92.75
376.771	89.75
376.997	78.75
377.222	93.75
377.448	86.75
377.674	95.75
377.899	89.75
378.125	91.75
378.35	86.75
378.576	84.75
378.802	84.75
379.027	96.75
379.253	86.75
379.478	88.75
379.704	107.75
379.929	86.75
380.155	79.75
380.38	98.75
380.606	98.75
380.831	94.75
381.057	114.75
381.282	100.75
381.507	106.75
381.733	87.75
381.958	93.75
382.184	100.75
382.409	89.75
382.634	109.75
382.86	83.75
383.085	99.75
383.31	105.75
383.535	94.75
383.761	107.75
383.986	106.75
384.211	99.75
384.436	94.75
384.662	106.75
384.887	98.75
385.112	98.75
385.337	105.75
385.562	108.75
385.787	99.75
386.013	101.75
386.238	113.75
386.463	96.75
386.688	110.75
386.913	108.75
387.138	114.75
387.363	122.75
387.588	106.75
387.813	99.75
388.038	98.75
388.263	101.75
388.488	109.75
388.713	94.75
388.938	109.75
389.163	103.75
389.387	101.75
389.612	102.75
389.837	94.75
390.062	108.75
390.287	100.75
390.512	107.75
390.736	102.75
390.961	100.75
391.186	90.75
391.411	102.75
391.636	106.75
391.86	98.75
392.085	89.75
392.31	83.75
392.534	77.75
392.759	90.75
392.984	96.75
393.208	88.75
393.433	95.75
393.658	91.75
393.882	78.75
394.107	77.75
394.331	81.75
394.556	76.75
394.78	98.75
395.005	75.75
395.229	81.75
395.454	101.75
395.678	98.75
395.903	80.75
396.127	86.75
396.352	88.75
396.576	78.75
396.801	86.75
397.025	88.75
397.249	84.75
397.474	86.75
397.698	90.75
397.922	102.75
398.147	82.75
398.371	82.75
398.595	88.75
398.82	81.75
399.044	97.75
399.268	88.75
399.492	85.75
399.717	83.75
399.941	98.75
400.165	94.75
400.389	98.75
400.613	92.75
400.837	85.75
401.062	98.75
401.286	99.75
401.51	91.75
401.734	102.75
401.958	96.75
402.182	126.75
402.406	148.75
402.63	116.75
402.854	95.75
403.078	99.75
403.302	86.75
403.526	72.75
403.75	78.75
403.974	95.75
404.198	90.75
404.422	90.75
404.645	99.75
404.869	91.75
405.093	84.75
405.317	107.75
405.541	98.75
405.765	93.75
405.988	116.75
406.212	152.75
406.436	209.75
406.66	124.75
406.883	94.75
407.107	82.75
407.331	103.75
407.555	94.75
407.778	99.75
408.002	82.75
408.226	94.75
408.449	95.75
408.673	85.75
408.896	90.75
409.12	97.75
409.344	86.75
409.567	87.75
409.791	96.75
410.014	90.75
410.238	85.75
410.461	93.75
410.685	92.75
410.908	94.75
411.132	129.75
411.355	97.75
411.578	91.75
411.802	82.75
412.025	89.75
412.249	83.75
412.472	89.75
412.695	81.75
412.919	91.75
413.142	87.75
413.365	78.75
413.589	106.75
413.812	89.75
414.035	81.75
414.258	91.75
414.482	76.75
414.705	96.75
414.928	102.75
415.151	94.75
415.374	84.75
415.597	95.75
415.821	73.75
416.044	90.75
416.267	93.75
416.49	91.75
416.713	99.75
416.936	92.75
417.159	85.75
417.382	85.75
417.605	97.75
417.828	95.75
418.051	102.75
418.274	91.75
418.497	73.75
418.72	89.75
418.943	97.75
419.166	98.75
419.389	83.75
419.611	84.75
419.834	94.75
420.057	92.75
420.28	95.75
420.503	90.75
420.726	94.75
420.948	92.75
421.171	78.75
421.394	94.75
421.617	91.75
421.839	87.75
422.062	90.75
422.285	110.75
422.507	89.75
422.73	99.75
422.953	110.75
423.175	95.75
423.398	90.75
423.621	81.75
423.843	93.75
424.066	95.75
424.288	103.75
424.511	99.75
424.733	99.75
424.956	108.75
425.178	99.75
425.401	105.75
425.623	96.75
425.846	81.75
426.068	89.75
426.291	82.75
426.513	83.75
426.735	102.75
426.958	87.75
427.18	103.75
427.402	134.75
427.625	157.75
427.847	122.75
428.069	107.75
428.292	85.75
428.514	71.75
428.736	95.75
428.958	89.75
429.181	79.75
429.403	76.75
429.625	98.75
429.847	92.75
430.069	92.75
430.292	77.75
430.514	91.75
430.736	77.75
430.958	91.75
431.18	88.75
431.402	93.75
431.624	83.75
431.846	90.75
432.068	93.75
432.29	84.75
432.512	99.75
432.734	86.75
432.956	94.75
433.178	91.75
433.4	94.75
433.622	94.75
433.844	92.75
434.066	103.75
434.287	97.75
434.509	90.75
434.731	94.75
434.953	73.75
435.175	87.75
435.397	89.75
435.618	82.75
435.84	110.75
436.062	119.75
436.284	112.75
436.505	92.75
436.727	102.75
436.949	87.75
437.17	93.75
437.392	87.75
437.614	101.75
437.835	114.75
438.057	102.75
438.278	116.75
438.5	99.75
438.721	116.75
438.943	100.75
439.165	93.75
439.386	96.75
439.608	90.75
439.829	105.75
440.05	115.75
440.272	131.75
440.493	91.75
440.715	85.75
440.936	84.75
441.158	92.75
441.379	100.75
441.6	106.75
441.822	91.75
442.043	88.75
442.264	116.75
442.486	91.75
442.707	84.75
442.928	98.75
443.149	119.75
443.371	122.75
443.592	112.75
443.813	122.75
444.034	105.75
444.255	100.75
444.476	81.75
444.698	99.75
444.919	83.75
445.14	131.75
445.361	123.75
445.582	120.75
445.803	125.75
446.024	130.75
446.245	131.75
446.466	120.75
446.687	91.75
446.908	84.75
447.129	83.75
447.35	83.75
447.571	90.75
447.792	97.75
448.013	85.75
448.234	102.75
448.455	96.75
448.675	103.75
448.896	116.75
449.117	90.75
449.338	92.75
449.559	129.75
449.779	136.75
450	105.75
450.221	90.75
450.442	83.75
450.662	87.75
450.883	113.75
451.104	107.75
451.324	92.75
451.545	104.75
451.766	94.75
451.986	93.75
452.207	85.75
452.428	92.75
452.648	106.75
452.869	89.75
453.089	97.75
453.31	113.75
453.53	98.75
453.751	86.75
453.971	89.75
454.192	104.75
454.412	98.75
454.633	91.75
454.853	95.75
455.073	83.75
455.294	90.75
455.514	109.75
455.734	91.75
455.955	92.75
456.175	90.75
456.395	79.75
456.616	87.75
456.836	100.75
457.056	107.75
457.276	97.75
457.497	85.75
457.717	79.75
457.937	85.75
458.157	101.75
458.377	83.75
458.598	100.75
458.818	134.75
459.038	133.75
459.258	97.75
459.478	89.75
459.698	82.75
459.918	94.75
460.138	86.75
460.358	87.75
460.578	88.75
460.798	85.75
461.018	85.75
461.238	84.75
461.458	91.75
461.678	98.75
461.898	77.75
462.118	76.75
462.338	82.75
462.558	85.75
462.777	82.75
462.997	74.75
463.217	80.75
463.437	88.75
463.657	81.75
463.876	94.75
464.096	101.75
464.316	109.75
464.536	99.75
464.755	90.75
464.975	99.75
465.195	143.75
465.414	152.75
465.634	93.75
465.854	94.75
466.073	78.75
466.293	76.75
466.512	93.75
466.732	99.75
466.951	103.75
467.171	81.75
467.391	88.75
467.61	106.75
467.829	105.75
468.049	91.75
468.268	87.75
468.488	93.75
468.707	79.75
468.927	102.75
469.146	87.75
469.365	82.75
469.585	81.75
469.804	77.75
470.023	93.75
470.243	79.75
470.462	95.75
470.681	100.75
470.901	99.75
471.12	94.75
471.339	84.75
471.558	93.75
471.777	86.75
471.997	99.75
472.216	85.75
472.435	90.75
472.654	86.75
472.873	91.75
473.092	89.75
473.311	95.75
473.53	93.75
473.749	91.75
473.968	88.75
474.187	105.75
474.406	96.75
474.625	94.75
474.844	105.75
475.063	93.75
475.282	77.75
475.501	93.75
475.72	107.75
475.939	87.75
476.158	81.75
476.377	97.75
476.596	81.75
476.814	92.75
477.033	88.75
477.252	90.75
477.471	97.75
477.69	82.75
477.908	84.75
478.127	102.75
478.346	81.75
478.564	98.75
478.783	105.75
479.002	91.75
479.22	81.75
479.439	107.75
479.658	93.75
479.876	86.75
480.095	82.75
480.313	90.75
480.532	87.75
480.751	90.75
480.969	102.75
481.188	112.75
481.406	95.75
481.624	93.75
481.843	86.75
482.061	83.75
482.28	91.75
482.498	104.75
482.717	78.75
482.935	94.75
483.153	87.75
483.372	99.75
483.59	82.75
483.808	105.75
484.027	79.75
484.245	94.75
484.463	92.75
484.681	87.75
484.9	90.75
485.118	89.75
485.336	97.75
485.554	99.75
485.772	95.75
485.99	101.75
486.209	111.75
486.427	99.75
486.645	110.75
486.863	113.75
487.081	94.75
487.299	109.75
487.517	99.75
487.735	105.75
487.953	104.75
488.171	95.75
488.389	105.75
488.607	114.75
488.825	102.75
489.043	75.75
489.261	94.75
489.479	94.75
489.696	102.75
489.914	91.75
490.132	87.75
490.35	92.75
490.568	93.75
490.786	79.75
491.003	85.75
491.221	91.75
491.439	93.75
491.657	92.75
491.874	89.75
492.092	91.75
492.31	96.75
492.527	90.75
492.745	85.75
492.963	85.75
493.18	87.75
493.398	90.75
493.615	86.75
493.833	102.75
494.05	86.75
494.268	98.75
494.485	73.75
494.703	98.75
494.92	93.75
495.138	96.75
495.355	83.75
495.573	86.75
495.79	88.75
496.008	84.75
496.225	101.75
496.442	85.75
496.66	93.75
496.877	94.75
497.094	92.75
497.312	103.75
497.529	108.75
497.746	92.75
497.963	91.75
498.181	98.75
498.398	87.75
498.615	113.75
498.832	108.75
499.049	92.75
499.267	99.75
499.484	77.75
499.701	79.75
499.918	96.75
500.135	93.75
500.352	87.75
500.569	87.75
500.786	114.75
501.003	98.75
501.22	99.75
501.437	95.75
501.654	84.75
501.871	105.75
502.088	100.75
502.305	91.75
502.522	92.75
502.739	91.75
502.956	83.75
503.172	103.75
503.389	100.75
503.606	117.75
503.823	108.75
504.04	86.75
504.256	105.75
504.473	83.75
504.69	91.75
504.907	105.75
505.123	104.75
505.34	92.75
505.557	94.75
505.773	83.75
505.99	103.75
506.207	99.75
506.423	90.75
506.64	109.75
506.856	94.75
507.073	93.75
507.289	90.75
507.506	91.75
507.722	109.75
507.939	97.75
508.155	102.75
508.372	89.75
508.588	85.75
508.805	92.75
509.021	101.75
509.238	101.75
509.454	111.75
509.67	89.75
509.887	93.75
510.103	122.75
510.319	207.75
510.536	691.75
510.752	2165.75
510.968	619.75
511.184	149.75
511.401	108.75
511.617	96.75
511.833	91.75
512.049	96.75
512.265	86.75
512.481	90.75
512.698	113.75
512.914	99.75
513.13	91.75
513.346	90.75
513.562	95.75
513.778	108.75
513.994	116.75
514.21	87.75
514.426	118.75
514.642	115.75
514.858	123.75
515.074	156.75
515.29	389.75
515.506	1256.75
515.721	481.75
515.937	155.75
516.153	114.75
516.369	98.75
516.585	96.75
516.801	93.75
517.016	104.75
517.232	103.75
517.448	95.75
517.664	115.75
517.879	94.75
518.095	93.75
518.311	112.75
518.527	89.75
518.742	99.75
518.958	93.75
519.173	91.75
519.389	97.75
519.605	91.75
519.82	85.75
520.036	108.75
520.251	112.75
520.467	110.75
520.682	103.75
520.898	105.75
521.113	95.75
521.329	117.75
521.544	184.75
521.76	461.75
521.975	2005.75
522.19	1235.75
522.406	275.75
522.621	129.75
522.836	97.75
523.052	102.75
523.267	89.75
523.482	77.75
523.698	113.75
523.913	121.75
524.128	112.75
524.343	85.75
524.559	114.75
524.774	81.75
524.989	95.75
525.204	118.75
525.419	91.75
525.634	93.75
525.849	93.75
526.064	85.75
526.28	95.75
526.495	84.75
526.71	93.75
526.925	88.75
527.14	83.75
527.355	93.75
527.57	107.75
527.785	108.75
527.999	89.75
528.214	95.75
528.429	86.75
528.644	106.75
528.859	98.75
529.074	85.75
529.289	123.75
529.503	167.75
529.718	105.75
529.933	93.75
530.148	95.75
530.363	95.75
530.577	109.75
530.792	92.75
531.007	97.75
531.221	99.75
531.436	90.75
531.651	99.75
531.865	96.75
532.08	87.75
532.295	74.75
532.509	95.75
532.724	92.75
532.938	95.75
533.153	100.75
533.367	90.75
533.582	79.75
533.796	93.75
534.011	89.75
534.225	81.75
534.44	84.75
534.654	86.75
534.868	95.75
535.083	98.75
535.297	86.75
535.511	94.75
535.726	92.75
535.94	93.75
536.154	105.75
536.369	110.75
536.583	93.75
536.797	100.75
537.011	90.75
537.225	98.75
537.44	86.75
537.654	84.75
537.868	101.75
538.082	98.75
538.296	96.75
538.51	97.75
538.724	90.75
538.938	87.75
539.153	88.75
539.367	99.75
539.581	109.75
539.795	96.75
540.009	94.75
540.222	95.75
540.436	82.75
540.65	101.75
540.864	84.75
541.078	99.75
541.292	100.75
541.506	82.75
541.72	88.75
541.934	91.75
542.147	93.75
542.361	91.75
542.575	93.75
542.789	76.75
543.002	95.75
543.216	100.75
543.43	105.75
543.644	89.75
543.857	92.75
544.071	85.75
544.285	90.75
544.498	94.75
544.712	81.75
544.925	101.75
545.139	100.75
545.352	91.75
545.566	89.75
545.779	84.75
545.993	102.75
546.206	104.75
546.42	87.75
546.633	101.75
546.847	101.75
547.06	95.75
547.274	91.75
547.487	84.75
547.7	107.75
547.914	89.75
548.127	91.75
548.34	81.75
548.554	85.75
548.767	92.75
548.98	77.75
549.193	88.75
549.407	87.75
549.62	88.75
549.833	88.75
550.046	85.75
550.259	83.75
550.473	85.75
550.686	106.75
550.899	93.75
551.112	97.75
551.325	91.75
551.538	93.75
551.751	90.75
551.964	84.75
552.177	89.75
552.39	71.75
552.603	84.75
552.816	92.75
553.029	100.75
553.242	89.75
553.455	101.75
553.667	111.75
553.88	104.75
554.093	95.75
554.306	87.75
554.519	83.75
554.732	84.75
554.944	90.75
555.157	86.75
555.37	94.75
555.583	94.75
555.795	89.75
556.008	90.75
556.221	86.75
556.433	90.75
556.646	90.75
556.859	107.75
557.071	97.75
557.284	95.75
557.496	100.75
557.709	85.75
557.921	90.75
558.134	101.75
558.346	94.75
558.559	83.75
558.771	85.75
558.984	89.75
559.196	78.75
559.409	80.75
559.621	90.75
559.833	106.75
560.046	97.75
560.258	101.75
560.47	86.75
560.683	95.75
560.895	95.75
561.107	97.75
561.32	84.75
561.532	94.75
561.744	95.75
561.956	91.75
562.168	84.75
562.381	99.75
562.593	90.75
562.805	95.75
563.017	90.75
563.229	94.75
563.441	85.75
563.653	95.75
563.865	85.75
564.077	82.75
564.289	86.75
564.501	91.75
564.713	95.75
564.925	106.75
565.137	110.75
565.349	103.75
565.561	104.75
565.773	102.75
565.985	90.75
566.197	78.75
566.408	92.75
566.62	90.75
566.832	88.75
567.044	89.75
567.255	81.75
567.467	91.75
567.679	90.75
567.891	99.75
568.102	92.75
568.314	96.75
568.526	101.75
568.737	94.75
568.949	77.75
569.161	95.75
569.372	86.75
569.584	94.75
569.795	104.75
570.007	108.75
570.218	244.75
570.43	145.75
570.641	84.75
570.853	85.75
571.064	84.75
571.276	83.75
571.487	88.75
571.698	90.75
571.91	90.75
572.121	93.75
572.333	82.75
572.544	85.75
572.755	89.75
572.966	81.75
573.178	90.75
573.389	93.75
573.6	95.75
573.811	86.75
574.023	89.75
574.234	87.75
574.445	87.75
574.656	109.75
574.867	85.75
575.078	90.75
575.289	90.75
575.501	94.75
575.712	103.75
575.923	92.75
576.134	78.75
576.345	89.75
576.556	94.75
576.767	106.75
576.978	85.75
577.188	90.75
577.399	91.75
577.61	96.75
577.821	106.75
578.032	122.75
578.243	265.75
578.454	724.75
578.665	213.75
578.875	101.75
579.086	93.75
579.297	83.75
579.508	91.75
579.718	81.75
579.929	89.75
580.14	94.75
580.35	81.75
580.561	88.75
580.772	91.75
580.982	86.75
581.193	101.75
581.403	91.75
581.614	85.75
581.825	84.75
582.035	86.75
582.246	92.75
582.456	100.75
582.667	101.75
582.877	84.75
583.087	81.75
583.298	95.75
583.508	92.75
583.719	89.75
583.929	83.75
584.139	94.75
584.35	83.75
584.56	86.75
584.77	84.75
584.981	81.75
585.191	91.75
585.401	78.75
585.611	85.75
585.821	87.75
586.032	91.75
586.242	83.75
586.452	85.75
586.662	91.75
586.872	90.75
587.082	97.75
587.292	86.75
587.502	95.75
587.713	92.75
587.923	73.75
588.133	89.75
588.343	97.75
588.553	76.75
588.762	98.75
588.972	87.75
589.182	107.75
589.392	91.75
589.602	74.75
589.812	93.75
590.022	93.75
590.232	101.75
590.441	92.75
590.651	95.75
590.861	84.75
591.071	84.75
591.281	87.75
591.49	83.75
591.7	80.75
591.91	88.75
592.119	76.75
592.329	106.75
592.539	102.75
592.748	92.75
592.958	82.75
593.167	100.75
593.377	98.75
593.587	95.75
593.796	85.75
594.006	95.75
594.215	92.75
594.424	90.75
594.634	91.75
594.843	90.75
595.053	95.75
595.262	92.75
595.472	93.75
595.681	66.75
595.89	89.75
596.1	87.75
596.309	97.75
596.518	99.75
596.727	85.75
596.937	82.75
597.146	100.75
597.355	94.75
597.564	88.75
597.774	89.75
597.983	87.75
598.192	91.75
598.401	95.75
598.61	89.75
598.819	85.75
599.028	95.75
599.237	76.75
599.446	83.75
599.655	90.75
599.864	86.75
600.073	81.75
600.282	91.75
600.491	86.75
600.7	99.75
600.909	79.75
601.118	111.75
601.327	105.75
601.536	105.75
601.745	77.75
601.953	92.75
602.162	84.75
602.371	90.75
602.58	84.75
602.789	83.75
602.997	88.75
603.206	85.75
603.415	88.75
603.623	96.75
603.832	85.75
604.041	103.75
604.249	104.75
604.458	94.75
604.666	80.75
604.875	83.75
605.084	93.75
605.292	80.75
605.501	90.75
605.709	76.75
605.918	90.75
606.126	82.75
606.334	84.75
606.543	75.75
606.751	87.75
606.96	89.75
607.168	78.75
607.376	70.75
607.585	81.75
607.793	87.75
608.001	90.75
608.21	90.75
608.418	84.75
608.626	92.75
608.834	84.75
609.043	93.75
609.251	86.75
609.459	93.75
609.667	79.75
609.875	102.75
610.083	76.75
610.291	82.75
610.499	94.75
610.707	86.75
610.916	83.75
611.124	85.75
611.332	72.75
611.54	79.75
611.748	91.75
611.955	103.75
612.163	69.75
612.371	84.75
612.579	68.75
612.787	83.75
612.995	101.75
613.203	77.75
613.411	91.75
613.618	102.75
613.826	97.75
614.034	75.75
614.242	96.75
614.449	92.75
614.657	75.75
614.865	83.75
615.072	91.75
615.28	86.75
615.488	87.75
615.695	84.75
615.903	86.75
616.111	97.75
616.318	106.75
616.526	113.75
616.733	102.75
616.941	106.75
617.148	84.75
617.356	87.75
617.563	92.75
617.771	91.75
617.978	84.75
618.185	88.75
618.393	85.75
618.6	82.75
618.807	86.75
619.015	79.75
619.222	79.75
619.429	87.75
619.637	93.75
619.844	84.75
620.051	81.75
620.258	79.75
620.466	88.75
620.673	77.75
620.88	95.75
621.087	93.75
621.294	101.75
621.501	100.75
621.708	90.75
621.915	82.75
622.122	79.75
622.329	96.75
622.536	92.75
622.743	95.75
622.95	89.75
623.157	87.75
623.364	90.75
623.571	83.75
623.778	77.75
623.985	88.75
624.192	70.75
624.399	83.75
624.606	81.75
624.812	89.75
625.019	84.75
625.226	89.75
625.433	83.75
625.639	95.75
625.846	88.75
626.053	80.75
626.259	79.75
626.466	87.75
626.673	80.75
626.879	88.75
627.086	99.75
627.293	87.75
627.499	95.75
627.706	93.75
627.912	81.75
628.119	98.75
628.325	81.75
628.532	89.75
628.738	91.75
628.945	75.75
629.151	90.75
629.357	86.75
629.564	102.75
629.77	94.75
629.976	76.75
630.183	85.75
630.389	86.75
630.595	88.75
630.802	85.75
631.008	89.75
631.214	83.75
631.42	86.75
631.627	93.75
631.833	79.75
632.039	87.75
632.245	85.75
632.451	87.75
632.657	79.75
632.863	74.75
633.069	93.75
633.275	101.75
633.481	95.75
633.688	79.75
633.893	90.75
634.099	82.75
634.305	84.75
634.511	85.75
634.717	70.75
634.923	81.75
635.129	79.75
635.335	98.75
635.541	90.75
635.747	94.75
635.952	92.75
636.158	90.75
636.364	86.75
636.57	90.75
636.775	85.75
636.981	77.75
637.187	97.75
637.392	83.75
637.598	88.75
637.804	84.75
638.009	87.75
638.215	84.75
638.421	83.75
638.626	81.75
638.832	94.75
639.037	77.75
639.243	74.75
639.448	81.75
639.654	78.75
639.859	66.75
640.065	93.75
640.27	95.75
640.475	89.75
640.681	84.75
640.886	80.75
641.091	82.75
641.297	98.75
641.502	78.75
641.707	81.75
641.913	81.75
642.118	88.75
642.323	94.75
642.528	90.75
642.733	82.75
642.939	92.75
643.144	87.75
643.349	82.75
643.554	90.75
643.759	86.75
643.964	79.75
644.169	100.75
644.374	70.75
644.579	77.75
644.784	82.75
644.989	88.75
645.194	104.75
645.399	92.75
645.604	96.75
645.809	90.75
646.014	86.75
646.219	92.75
646.423	77.75
646.628	84.75
646.833	70.75
647.038	80.75
647.243	89.75
647.447	77.75
647.652	75.75
647.857	105.75
648.062	90.75
648.266	77.75
648.471	100.75
648.676	103.75
648.88	93.75
649.085	91.75
649.289	97.75
649.494	106.75
649.698	115.75
649.903	102.75
650.107	109.75
650.312	86.75
650.516	97.75
650.721	79.75
650.925	81.75
651.13	83.75
651.334	78.75
651.539	78.75
651.743	89.75
651.947	93.75
652.152	99.75
652.356	88.75
652.56	75.75
652.764	86.75
652.969	86.75
653.173	71.75
653.377	92.75
653.581	69.75
653.785	77.75
653.99	78.75
654.194	77.75
654.398	83.75
654.602	77.75
654.806	79.75
655.01	97.75
655.214	114.75
655.418	89.75
655.622	97.75
655.826	96.75
656.03	91.75
656.234	81.75
656.438	87.75
656.642	84.75
656.846	99.75
657.049	78.75
657.253	78.75
657.457	87.75
657.661	93.75
657.865	70.75
658.068	82.75
658.272	79.75
658.476	91.75
658.68	78.75
658.883	93.75
659.087	98.75
659.291	85.75
659.494	75.75
659.698	84.75
659.901	78.75
660.105	79.75
660.309	81.75
660.512	85.75
660.716	73.75
660.919	80.75
661.123	88.75
661.326	76.75
661.53	83.75
661.733	87.75
661.936	75.75
662.14	79.75
662.343	74.75
662.546	85.75
662.75	80.75
662.953	87.75
663.156	77.75
663.36	83.75
663.563	77.75
663.766	78.75
663.969	85.75
664.173	83.75
664.376	86.75
664.579	79.75
664.782	75.75
664.985	83.75
665.188	86.75
665.391	84.75
665.594	84.75
665.797	73.75
666	94.75
666.203	87.75
666.406	82.75
666.609	71.75
666.812	76.75
667.015	98.75
667.218	86.75
667.421	93.75
667.624	76.75
667.827	88.75
668.03	72.75
668.232	84.75
668.435	94.75
668.638	88.75
668.841	94.75
669.043	99.75
669.246	76.75
669.449	79.75
669.651	94.75
669.854	78.75
670.057	74.75
670.259	79.75
670.462	93.75
670.665	74.75
670.867	70.75
671.07	83.75
671.272	79.75
671.475	84.75
671.677	83.75
671.88	75.75
672.082	90.75
672.284	92.75
672.487	84.75
672.689	81.75
672.892	86.75
