Data from Uncirc_2000_H10_HRD10591_00085.txt Node
Date: Wed Jan 03 10:48:34 EST 2024
User: Yrep
Spectrometer: HR+D1059
Trigger mode: 1
Integration Time (sec): 1.000000E-1
Scans to average: 1
Electric dark correction enabled: true
Nonlinearity correction enabled: false
Boxcar width: 0
XAxis mode: Wavelengths
Number of Pixels in Spectrum: 2048
>>>>>Begin Spectral Data<<<<<
223.165	-13.88
223.4	-13.88
223.635	-13.88
223.869	-20.88
224.104	-5.88
224.338	-3.88
224.573	-17.88
224.808	-23.88
225.042	-9.88
225.277	-12.88
225.511	7.12
225.746	11.12
225.98	5.12
226.215	6.12
226.449	13.12
226.683	30.12
226.918	9.12
227.152	27.12
227.387	34.12
227.621	33.12
227.856	49.12
228.09	71.12
228.324	54.12
228.559	59.12
228.793	62.12
229.027	65.12
229.262	57.12
229.496	85.12
229.73	83.12
229.964	83.12
230.199	88.12
230.433	81.12
230.667	79.12
230.901	81.12
231.136	92.12
231.37	74.12
231.604	80.12
231.838	67.12
232.072	88.12
232.306	103.12
232.541	87.12
232.775	81.12
233.009	80.12
233.243	87.12
233.477	74.12
233.711	93.12
233.945	86.12
234.179	75.12
234.413	75.12
234.647	93.12
234.881	76.12
235.115	85.12
235.349	86.12
235.583	89.12
235.817	76.12
236.051	85.12
236.285	70.12
236.519	88.12
236.753	67.12
236.987	86.12
237.221	105.12
237.455	88.12
237.689	96.12
237.922	70.12
238.156	85.12
238.39	75.12
238.624	66.12
238.858	81.12
239.091	70.12
239.325	70.12
239.559	87.12
239.793	89.12
240.027	88.12
240.26	83.12
240.494	71.12
240.728	68.12
240.961	65.12
241.195	95.12
241.429	94.12
241.662	81.12
241.896	81.12
242.13	84.12
242.363	95.12
242.597	75.12
242.83	83.12
243.064	80.12
243.298	70.12
243.531	68.12
243.765	81.12
243.998	79.12
244.232	85.12
244.465	79.12
244.699	82.12
244.932	92.12
245.166	81.12
245.399	82.12
245.633	91.12
245.866	73.12
246.099	87.12
246.333	64.12
246.566	84.12
246.8	84.12
247.033	82.12
247.266	91.12
247.5	68.12
247.733	67.12
247.966	85.12
248.2	73.12
248.433	76.12
248.666	91.12
248.899	87.12
249.133	81.12
249.366	85.12
249.599	102.12
249.832	78.12
250.066	91.12
250.299	77.12
250.532	91.12
250.765	85.12
250.998	85.12
251.231	94.12
251.465	88.12
251.698	72.12
251.931	88.12
252.164	79.12
252.397	102.12
252.63	88.12
252.863	90.12
253.096	93.12
253.329	88.12
253.562	64.12
253.795	94.12
254.028	71.12
254.261	87.12
254.494	86.12
254.727	84.12
254.96	70.12
255.193	83.12
255.426	66.12
255.659	91.12
255.892	70.12
256.124	71.12
256.357	79.12
256.59	82.12
256.823	80.12
257.056	79.12
257.289	80.12
257.521	71.12
257.754	90.12
257.987	85.12
258.22	94.12
258.452	92.12
258.685	95.12
258.918	83.12
259.151	84.12
259.383	76.12
259.616	84.12
259.849	91.12
260.081	77.12
260.314	87.12
260.547	80.12
260.779	96.12
261.012	79.12
261.244	81.12
261.477	93.12
261.71	93.12
261.942	96.12
262.175	119.12
262.407	87.12
262.64	79.12
262.872	77.12
263.105	85.12
263.337	83.12
263.57	89.12
263.802	95.12
264.035	99.12
264.267	78.12
264.499	97.12
264.732	88.12
264.964	85.12
265.197	80.12
265.429	86.12
265.661	80.12
265.894	82.12
266.126	96.12
266.358	95.12
266.591	75.12
266.823	79.12
267.055	80.12
267.287	101.12
267.52	84.12
267.752	85.12
267.984	100.12
268.216	83.12
268.448	91.12
268.681	103.12
268.913	88.12
269.145	83.12
269.377	100.12
269.609	98.12
269.841	89.12
270.073	88.12
270.306	88.12
270.538	84.12
270.77	89.12
271.002	92.12
271.234	84.12
271.466	89.12
271.698	87.12
271.93	92.12
272.162	87.12
272.394	96.12
272.626	93.12
272.858	91.12
273.09	87.12
273.322	80.12
273.553	93.12
273.785	94.12
274.017	81.12
274.249	70.12
274.481	93.12
274.713	85.12
274.945	89.12
275.176	85.12
275.408	79.12
275.64	89.12
275.872	97.12
276.104	95.12
276.335	104.12
276.567	89.12
276.799	115.12
277.031	101.12
277.262	96.12
277.494	81.12
277.726	77.12
277.957	78.12
278.189	94.12
278.421	104.12
278.652	98.12
278.884	74.12
279.115	77.12
279.347	89.12
279.579	88.12
279.81	78.12
280.042	97.12
280.273	89.12
280.505	80.12
280.736	78.12
280.968	73.12
281.199	85.12
281.431	97.12
281.662	99.12
281.894	70.12
282.125	112.12
282.356	123.12
282.588	143.12
282.819	109.12
283.051	106.12
283.282	99.12
283.513	88.12
283.745	87.12
283.976	98.12
284.207	73.12
284.439	94.12
284.67	66.12
284.901	87.12
285.132	80.12
285.364	83.12
285.595	80.12
285.826	90.12
286.057	93.12
286.288	97.12
286.52	108.12
286.751	88.12
286.982	83.12
287.213	76.12
287.444	100.12
287.675	86.12
287.906	85.12
288.138	92.12
288.369	90.12
288.6	99.12
288.831	94.12
289.062	82.12
289.293	78.12
289.524	103.12
289.755	104.12
289.986	85.12
290.217	88.12
290.448	87.12
290.679	94.12
290.91	90.12
291.141	82.12
291.371	98.12
291.602	86.12
291.833	101.12
292.064	102.12
292.295	101.12
292.526	101.12
292.757	87.12
292.987	90.12
293.218	99.12
293.449	85.12
293.68	89.12
293.91	92.12
294.141	100.12
294.372	97.12
294.603	81.12
294.833	101.12
295.064	86.12
295.295	101.12
295.525	98.12
295.756	106.12
295.987	128.12
296.217	136.12
296.448	126.12
296.679	97.12
296.909	109.12
297.14	104.12
297.37	88.12
297.601	95.12
297.831	86.12
298.062	79.12
298.292	93.12
298.523	93.12
298.753	77.12
298.984	89.12
299.214	90.12
299.445	95.12
299.675	92.12
299.905	89.12
300.136	85.12
300.366	99.12
300.597	89.12
300.827	94.12
301.057	101.12
301.288	91.12
301.518	101.12
301.748	78.12
301.979	110.12
302.209	107.12
302.439	100.12
302.669	98.12
302.9	88.12
303.13	105.12
303.36	89.12
303.59	100.12
303.82	110.12
304.051	110.12
304.281	101.12
304.511	94.12
304.741	93.12
304.971	83.12
305.201	88.12
305.431	72.12
305.661	88.12
305.891	101.12
306.121	105.12
306.352	112.12
306.582	102.12
306.812	89.12
307.042	90.12
307.272	93.12
307.502	78.12
307.731	94.12
307.961	89.12
308.191	87.12
308.421	97.12
308.651	84.12
308.881	93.12
309.111	106.12
309.341	103.12
309.571	110.12
309.8	101.12
310.03	106.12
310.26	98.12
310.49	106.12
310.72	91.12
310.949	98.12
311.179	92.12
311.409	87.12
311.639	106.12
311.868	96.12
312.098	99.12
312.328	91.12
312.557	97.12
312.787	89.12
313.017	111.12
313.246	97.12
313.476	88.12
313.706	85.12
313.935	100.12
314.165	110.12
314.394	99.12
314.624	94.12
314.853	101.12
315.083	96.12
315.312	107.12
315.542	106.12
315.771	87.12
316.001	88.12
316.23	94.12
316.46	108.12
316.689	92.12
316.919	98.12
317.148	100.12
317.377	89.12
317.607	107.12
317.836	97.12
318.065	99.12
318.295	89.12
318.524	87.12
318.753	99.12
318.983	102.12
319.212	115.12
319.441	108.12
319.67	129.12
319.9	102.12
320.129	92.12
320.358	93.12
320.587	98.12
320.816	101.12
321.046	114.12
321.275	94.12
321.504	107.12
321.733	96.12
321.962	107.12
322.191	96.12
322.42	109.12
322.649	106.12
322.878	123.12
323.108	126.12
323.337	136.12
323.566	141.12
323.795	134.12
324.024	201.12
324.253	393.12
324.482	823.12
324.71	1675.12
324.939	2209.12
325.168	839.12
325.397	245.12
325.626	145.12
325.855	136.12
326.084	128.12
326.313	119.12
326.542	168.12
326.77	243.12
326.999	456.12
327.228	971.12
327.457	1727.12
327.686	1318.12
327.914	352.12
328.143	179.12
328.372	132.12
328.6	125.12
328.829	127.12
329.058	125.12
329.287	121.12
329.515	102.12
329.744	94.12
329.972	94.12
330.201	110.12
330.43	117.12
330.658	118.12
330.887	119.12
331.115	107.12
331.344	101.12
331.572	82.12
331.801	101.12
332.03	100.12
332.258	95.12
332.486	93.12
332.715	97.12
332.943	91.12
333.172	89.12
333.4	85.12
333.629	100.12
333.857	113.12
334.085	113.12
334.314	89.12
334.542	96.12
334.771	106.12
334.999	100.12
335.227	100.12
335.455	96.12
335.684	92.12
335.912	103.12
336.14	99.12
336.369	106.12
336.597	94.12
336.825	102.12
337.053	83.12
337.281	84.12
337.51	99.12
337.738	97.12
337.966	105.12
338.194	100.12
338.422	75.12
338.65	84.12
338.878	104.12
339.106	91.12
339.334	96.12
339.562	103.12
339.79	89.12
340.018	91.12
340.246	107.12
340.474	96.12
340.702	77.12
340.93	96.12
341.158	90.12
341.386	96.12
341.614	98.12
341.842	100.12
342.07	83.12
342.298	95.12
342.526	96.12
342.754	101.12
342.981	99.12
343.209	104.12
343.437	102.12
343.665	84.12
343.893	88.12
344.12	97.12
344.348	89.12
344.576	95.12
344.804	91.12
345.031	90.12
345.259	103.12
345.487	96.12
345.714	99.12
345.942	91.12
346.17	105.12
346.397	94.12
346.625	93.12
346.853	103.12
347.08	103.12
347.308	97.12
347.535	100.12
347.763	97.12
347.99	100.12
348.218	100.12
348.445	116.12
348.673	101.12
348.9	101.12
349.128	91.12
349.355	108.12
349.583	101.12
349.81	91.12
350.037	105.12
350.265	97.12
350.492	97.12
350.72	114.12
350.947	105.12
351.174	105.12
351.402	106.12
351.629	102.12
351.856	96.12
352.083	99.12
352.311	102.12
352.538	100.12
352.765	115.12
352.992	120.12
353.22	126.12
353.447	106.12
353.674	119.12
353.901	103.12
354.128	99.12
354.355	96.12
354.583	95.12
354.81	95.12
355.037	86.12
355.264	110.12
355.491	108.12
355.718	96.12
355.945	96.12
356.172	102.12
356.399	103.12
356.626	108.12
356.853	88.12
357.08	102.12
357.307	102.12
357.534	101.12
357.761	104.12
357.988	71.12
358.215	102.12
358.441	111.12
358.668	80.12
358.895	90.12
359.122	73.12
359.349	77.12
359.576	104.12
359.802	99.12
360.029	115.12
360.256	110.12
360.483	92.12
360.709	92.12
360.936	109.12
361.163	98.12
361.39	93.12
361.616	82.12
361.843	87.12
362.07	93.12
362.296	101.12
362.523	103.12
362.749	103.12
362.976	87.12
363.203	89.12
363.429	95.12
363.656	84.12
363.882	92.12
364.109	100.12
364.335	105.12
364.562	93.12
364.788	103.12
365.015	83.12
365.241	94.12
365.468	99.12
365.694	101.12
365.92	103.12
366.147	96.12
366.373	95.12
366.599	93.12
366.826	102.12
367.052	91.12
367.278	90.12
367.505	97.12
367.731	89.12
367.957	96.12
368.184	92.12
368.41	85.12
368.636	106.12
368.862	113.12
369.089	105.12
369.315	99.12
369.541	108.12
369.767	101.12
369.993	107.12
370.219	93.12
370.445	88.12
370.672	103.12
370.898	77.12
371.124	88.12
371.35	81.12
371.576	88.12
371.802	87.12
372.028	71.12
372.254	94.12
372.48	92.12
372.706	92.12
372.932	87.12
373.158	108.12
373.384	88.12
373.61	99.12
373.835	90.12
374.061	90.12
374.287	96.12
374.513	85.12
374.739	84.12
374.965	87.12
375.191	85.12
375.416	102.12
375.642	92.12
375.868	83.12
376.094	95.12
376.319	95.12
376.545	88.12
376.771	91.12
376.997	103.12
377.222	93.12
377.448	102.12
377.674	73.12
377.899	95.12
378.125	83.12
378.35	100.12
378.576	86.12
378.802	84.12
379.027	96.12
379.253	111.12
379.478	88.12
379.704	107.12
379.929	99.12
380.155	85.12
380.38	97.12
380.606	81.12
380.831	106.12
381.057	92.12
381.282	105.12
381.507	99.12
381.733	103.12
381.958	93.12
382.184	93.12
382.409	103.12
382.634	111.12
382.86	106.12
383.085	117.12
383.31	106.12
383.535	101.12
383.761	102.12
383.986	91.12
384.211	92.12
384.436	96.12
384.662	98.12
384.887	92.12
385.112	96.12
385.337	108.12
385.562	100.12
385.787	97.12
386.013	109.12
386.238	105.12
386.463	98.12
386.688	111.12
386.913	107.12
387.138	105.12
387.363	107.12
387.588	100.12
387.813	93.12
388.038	115.12
388.263	113.12
388.488	99.12
388.713	106.12
388.938	101.12
389.163	97.12
389.387	90.12
389.612	84.12
389.837	100.12
390.062	99.12
390.287	97.12
390.512	99.12
390.736	98.12
390.961	112.12
391.186	99.12
391.411	94.12
391.636	106.12
391.86	84.12
392.085	91.12
392.31	76.12
392.534	84.12
392.759	89.12
392.984	91.12
393.208	90.12
393.433	75.12
393.658	84.12
393.882	95.12
394.107	97.12
394.331	95.12
394.556	94.12
394.78	87.12
395.005	86.12
395.229	84.12
395.454	96.12
395.678	96.12
395.903	86.12
396.127	96.12
396.352	84.12
396.576	96.12
396.801	87.12
397.025	81.12
397.249	83.12
397.474	97.12
397.698	101.12
397.922	88.12
398.147	93.12
398.371	77.12
398.595	88.12
398.82	82.12
399.044	85.12
399.268	92.12
399.492	93.12
399.717	90.12
399.941	96.12
400.165	88.12
400.389	83.12
400.613	89.12
400.837	94.12
401.062	86.12
401.286	80.12
401.51	87.12
401.734	78.12
401.958	108.12
402.182	135.12
402.406	161.12
402.63	125.12
402.854	83.12
403.078	88.12
403.302	97.12
403.526	102.12
403.75	95.12
403.974	96.12
404.198	85.12
404.422	76.12
404.645	94.12
404.869	94.12
405.093	96.12
405.317	96.12
405.541	89.12
405.765	93.12
405.988	127.12
406.212	169.12
406.436	237.12
406.66	136.12
406.883	97.12
407.107	87.12
407.331	94.12
407.555	92.12
407.778	95.12
408.002	98.12
408.226	100.12
408.449	97.12
408.673	100.12
408.896	110.12
409.12	92.12
409.344	96.12
409.567	99.12
409.791	83.12
410.014	88.12
410.238	99.12
410.461	95.12
410.685	91.12
410.908	93.12
411.132	118.12
411.355	103.12
411.578	93.12
411.802	93.12
412.025	95.12
412.249	88.12
412.472	91.12
412.695	87.12
412.919	90.12
413.142	85.12
413.365	102.12
413.589	96.12
413.812	88.12
414.035	89.12
414.258	100.12
414.482	80.12
414.705	91.12
414.928	103.12
415.151	95.12
415.374	102.12
415.597	112.12
415.821	102.12
416.044	95.12
416.267	87.12
416.49	90.12
416.713	88.12
416.936	86.12
417.159	101.12
417.382	101.12
417.605	89.12
417.828	87.12
418.051	86.12
418.274	101.12
418.497	91.12
418.72	83.12
418.943	93.12
419.166	104.12
419.389	84.12
419.611	100.12
419.834	96.12
420.057	101.12
420.28	83.12
420.503	82.12
420.726	96.12
420.948	85.12
421.171	77.12
421.394	97.12
421.617	72.12
421.839	89.12
422.062	93.12
422.285	96.12
422.507	94.12
422.73	99.12
422.953	96.12
423.175	86.12
423.398	94.12
423.621	80.12
423.843	81.12
424.066	72.12
424.288	84.12
424.511	88.12
424.733	110.12
424.956	105.12
425.178	99.12
425.401	108.12
425.623	101.12
425.846	89.12
426.068	81.12
426.291	100.12
426.513	92.12
426.735	96.12
426.958	105.12
427.18	91.12
427.402	127.12
427.625	157.12
427.847	117.12
428.069	100.12
428.292	81.12
428.514	82.12
428.736	78.12
428.958	84.12
429.181	79.12
429.403	101.12
429.625	96.12
429.847	87.12
430.069	102.12
430.292	100.12
430.514	94.12
430.736	83.12
430.958	86.12
431.18	72.12
431.402	92.12
431.624	96.12
431.846	85.12
432.068	104.12
432.29	89.12
432.512	94.12
432.734	97.12
432.956	92.12
433.178	98.12
433.4	91.12
433.622	102.12
433.844	99.12
434.066	87.12
434.287	100.12
434.509	78.12
434.731	83.12
434.953	90.12
435.175	99.12
435.397	93.12
435.618	95.12
435.84	101.12
436.062	109.12
436.284	119.12
436.505	95.12
436.727	85.12
436.949	93.12
437.17	91.12
437.392	83.12
437.614	88.12
437.835	100.12
438.057	92.12
438.278	113.12
438.5	97.12
438.721	107.12
438.943	95.12
439.165	103.12
439.386	92.12
439.608	93.12
439.829	90.12
440.05	115.12
440.272	126.12
440.493	99.12
440.715	87.12
440.936	102.12
441.158	100.12
441.379	100.12
441.6	92.12
441.822	85.12
442.043	98.12
442.264	95.12
442.486	110.12
442.707	95.12
442.928	108.12
443.149	126.12
443.371	126.12
443.592	100.12
443.813	118.12
444.034	106.12
444.255	97.12
444.476	92.12
444.698	89.12
444.919	82.12
445.14	123.12
445.361	124.12
445.582	111.12
445.803	123.12
446.024	122.12
446.245	124.12
446.466	100.12
446.687	96.12
446.908	87.12
447.129	91.12
447.35	89.12
447.571	95.12
447.792	88.12
448.013	97.12
448.234	105.12
448.455	99.12
448.675	112.12
448.896	110.12
449.117	89.12
449.338	111.12
449.559	121.12
449.779	123.12
450	106.12
450.221	91.12
450.442	91.12
450.662	96.12
450.883	92.12
451.104	110.12
451.324	111.12
451.545	87.12
451.766	87.12
451.986	82.12
452.207	80.12
452.428	99.12
452.648	95.12
452.869	105.12
453.089	120.12
453.31	108.12
453.53	108.12
453.751	98.12
453.971	107.12
454.192	99.12
454.412	105.12
454.633	92.12
454.853	82.12
455.073	81.12
455.294	110.12
455.514	92.12
455.734	83.12
455.955	80.12
456.175	86.12
456.395	82.12
456.616	79.12
456.836	90.12
457.056	80.12
457.276	94.12
457.497	82.12
457.717	77.12
457.937	97.12
458.157	88.12
458.377	86.12
458.598	95.12
458.818	139.12
459.038	168.12
459.258	114.12
459.478	81.12
459.698	85.12
459.918	102.12
460.138	91.12
460.358	93.12
460.578	94.12
460.798	89.12
461.018	101.12
461.238	88.12
461.458	93.12
461.678	85.12
461.898	82.12
462.118	85.12
462.338	92.12
462.558	86.12
462.777	84.12
462.997	97.12
463.217	84.12
463.437	76.12
463.657	81.12
463.876	98.12
464.096	88.12
464.316	88.12
464.536	94.12
464.755	97.12
464.975	103.12
465.195	142.12
465.414	140.12
465.634	90.12
465.854	86.12
466.073	92.12
466.293	96.12
466.512	97.12
466.732	79.12
466.951	92.12
467.171	94.12
467.391	104.12
467.61	85.12
467.829	102.12
468.049	108.12
468.268	89.12
468.488	94.12
468.707	81.12
468.927	87.12
469.146	79.12
469.365	92.12
469.585	94.12
469.804	92.12
470.023	92.12
470.243	96.12
470.462	87.12
470.681	102.12
470.901	71.12
471.12	73.12
471.339	83.12
471.558	83.12
471.777	89.12
471.997	89.12
472.216	90.12
472.435	85.12
472.654	77.12
472.873	79.12
473.092	94.12
473.311	87.12
473.53	65.12
473.749	96.12
473.968	104.12
474.187	105.12
474.406	94.12
474.625	85.12
474.844	90.12
475.063	83.12
475.282	90.12
475.501	87.12
475.72	94.12
475.939	97.12
476.158	94.12
476.377	88.12
476.596	77.12
476.814	92.12
477.033	80.12
477.252	94.12
477.471	78.12
477.69	94.12
477.908	91.12
478.127	89.12
478.346	80.12
478.564	73.12
478.783	94.12
479.002	83.12
479.22	85.12
479.439	92.12
479.658	107.12
479.876	91.12
480.095	96.12
480.313	94.12
480.532	97.12
480.751	86.12
480.969	93.12
481.188	94.12
481.406	96.12
481.624	79.12
481.843	102.12
482.061	91.12
482.28	91.12
482.498	93.12
482.717	88.12
482.935	94.12
483.153	87.12
483.372	87.12
483.59	103.12
483.808	97.12
484.027	89.12
484.245	96.12
484.463	97.12
484.681	91.12
484.9	92.12
485.118	86.12
485.336	86.12
485.554	91.12
485.772	103.12
485.99	96.12
486.209	114.12
486.427	95.12
486.645	107.12
486.863	107.12
487.081	114.12
487.299	104.12
487.517	97.12
487.735	79.12
487.953	87.12
488.171	95.12
488.389	82.12
488.607	87.12
488.825	100.12
489.043	96.12
489.261	87.12
489.479	90.12
489.696	90.12
489.914	88.12
490.132	84.12
490.35	77.12
490.568	88.12
490.786	94.12
491.003	88.12
491.221	85.12
491.439	101.12
491.657	76.12
491.874	89.12
492.092	89.12
492.31	89.12
492.527	86.12
492.745	70.12
492.963	85.12
493.18	104.12
493.398	96.12
493.615	106.12
493.833	77.12
494.05	86.12
494.268	87.12
494.485	98.12
494.703	88.12
494.92	96.12
495.138	102.12
495.355	96.12
495.573	88.12
495.79	92.12
496.008	101.12
496.225	100.12
496.442	91.12
496.66	105.12
496.877	81.12
497.094	91.12
497.312	92.12
497.529	89.12
497.746	104.12
497.963	97.12
498.181	107.12
498.398	99.12
498.615	115.12
498.832	108.12
499.049	92.12
499.267	86.12
499.484	87.12
499.701	80.12
499.918	79.12
500.135	93.12
500.352	88.12
500.569	83.12
500.786	92.12
501.003	84.12
501.22	88.12
501.437	90.12
501.654	85.12
501.871	108.12
502.088	91.12
502.305	80.12
502.522	85.12
502.739	104.12
502.956	95.12
503.172	101.12
503.389	106.12
503.606	104.12
503.823	94.12
504.04	96.12
504.256	102.12
504.473	99.12
504.69	95.12
504.907	90.12
505.123	89.12
505.34	90.12
505.557	89.12
505.773	89.12
505.99	99.12
506.207	84.12
506.423	87.12
506.64	88.12
506.856	84.12
507.073	99.12
507.289	107.12
507.506	85.12
507.722	116.12
507.939	109.12
508.155	95.12
508.372	101.12
508.588	99.12
508.805	97.12
509.021	105.12
509.238	92.12
509.454	100.12
509.67	93.12
509.887	108.12
510.103	133.12
510.319	228.12
510.536	745.12
510.752	2382.12
510.968	670.12
511.184	153.12
511.401	128.12
511.617	97.12
511.833	97.12
512.049	104.12
512.265	100.12
512.481	78.12
512.698	93.12
512.914	95.12
513.13	104.12
513.346	89.12
513.562	92.12
513.778	92.12
513.994	114.12
514.21	99.12
514.426	118.12
514.642	118.12
514.858	138.12
515.074	150.12
515.29	420.12
515.506	1388.12
515.721	501.12
515.937	143.12
516.153	115.12
516.369	105.12
516.585	104.12
516.801	97.12
517.016	76.12
517.232	114.12
517.448	94.12
517.664	102.12
517.879	96.12
518.095	91.12
518.311	97.12
518.527	90.12
518.742	98.12
518.958	95.12
519.173	91.12
519.389	104.12
519.605	96.12
519.82	88.12
520.036	120.12
520.251	100.12
520.467	100.12
520.682	100.12
520.898	98.12
521.113	115.12
521.329	134.12
521.544	187.12
521.76	545.12
521.975	2300.12
522.19	1375.12
522.406	316.12
522.621	123.12
522.836	99.12
523.052	91.12
523.267	85.12
523.482	102.12
523.698	98.12
523.913	120.12
524.128	97.12
524.343	93.12
524.559	96.12
524.774	94.12
524.989	90.12
525.204	99.12
525.419	85.12
525.634	93.12
525.849	81.12
526.064	110.12
526.28	97.12
526.495	100.12
526.71	97.12
526.925	98.12
527.14	97.12
527.355	92.12
527.57	90.12
527.785	92.12
527.999	89.12
528.214	107.12
528.429	107.12
528.644	92.12
528.859	101.12
529.074	88.12
529.289	119.12
529.503	161.12
529.718	104.12
529.933	94.12
530.148	94.12
530.363	94.12
530.577	84.12
530.792	100.12
531.007	90.12
531.221	105.12
531.436	86.12
531.651	94.12
531.865	99.12
532.08	106.12
532.295	101.12
532.509	102.12
532.724	96.12
532.938	101.12
533.153	108.12
533.367	89.12
533.582	104.12
533.796	91.12
534.011	107.12
534.225	102.12
534.44	97.12
534.654	96.12
534.868	97.12
535.083	85.12
535.297	116.12
535.511	106.12
535.726	117.12
535.94	113.12
536.154	100.12
536.369	94.12
536.583	87.12
536.797	94.12
537.011	91.12
537.225	88.12
537.44	108.12
537.654	101.12
537.868	101.12
538.082	86.12
538.296	90.12
538.51	98.12
538.724	88.12
538.938	93.12
539.153	94.12
539.367	98.12
539.581	98.12
539.795	94.12
540.009	90.12
540.222	93.12
540.436	99.12
540.65	83.12
540.864	81.12
541.078	78.12
541.292	79.12
541.506	97.12
541.72	97.12
541.934	96.12
542.147	81.12
542.361	90.12
542.575	92.12
542.789	87.12
543.002	96.12
543.216	92.12
543.43	106.12
543.644	97.12
543.857	96.12
544.071	77.12
544.285	102.12
544.498	84.12
544.712	87.12
544.925	85.12
545.139	86.12
545.352	106.12
545.566	81.12
545.779	94.12
545.993	80.12
546.206	103.12
546.42	91.12
546.633	100.12
546.847	99.12
547.06	90.12
547.274	78.12
547.487	88.12
547.7	91.12
547.914	95.12
548.127	87.12
548.34	97.12
548.554	91.12
548.767	84.12
548.98	94.12
549.193	95.12
549.407	84.12
549.62	96.12
549.833	101.12
550.046	94.12
550.259	72.12
550.473	80.12
550.686	84.12
550.899	93.12
551.112	95.12
551.325	95.12
551.538	82.12
551.751	87.12
551.964	81.12
552.177	90.12
552.39	91.12
552.603	85.12
552.816	103.12
553.029	97.12
553.242	101.12
553.455	88.12
553.667	80.12
553.88	93.12
554.093	87.12
554.306	101.12
554.519	90.12
554.732	81.12
554.944	88.12
555.157	91.12
555.37	92.12
555.583	80.12
555.795	87.12
556.008	94.12
556.221	96.12
556.433	99.12
556.646	95.12
556.859	107.12
557.071	96.12
557.284	107.12
557.496	103.12
557.709	98.12
557.921	88.12
558.134	105.12
558.346	100.12
558.559	85.12
558.771	93.12
558.984	99.12
559.196	94.12
559.409	96.12
559.621	104.12
559.833	103.12
560.046	81.12
560.258	92.12
560.47	105.12
560.683	100.12
560.895	82.12
561.107	91.12
561.32	95.12
561.532	87.12
561.744	83.12
561.956	101.12
562.168	105.12
562.381	99.12
562.593	119.12
562.805	99.12
563.017	85.12
563.229	70.12
563.441	92.12
563.653	99.12
563.865	89.12
564.077	100.12
564.289	107.12
564.501	97.12
564.713	99.12
564.925	105.12
565.137	127.12
565.349	103.12
565.561	115.12
565.773	98.12
565.985	96.12
566.197	101.12
566.408	90.12
566.62	84.12
566.832	96.12
567.044	86.12
567.255	90.12
567.467	95.12
567.679	85.12
567.891	79.12
568.102	91.12
568.314	87.12
568.526	83.12
568.737	105.12
568.949	83.12
569.161	77.12
569.372	86.12
569.584	98.12
569.795	96.12
570.007	128.12
570.218	253.12
570.43	135.12
570.641	102.12
570.853	99.12
571.064	94.12
571.276	92.12
571.487	99.12
571.698	103.12
571.91	92.12
572.121	80.12
572.333	81.12
572.544	91.12
572.755	81.12
572.966	94.12
573.178	82.12
573.389	87.12
573.6	79.12
573.811	88.12
574.023	87.12
574.234	90.12
574.445	78.12
574.656	85.12
574.867	93.12
575.078	96.12
575.289	113.12
575.501	109.12
575.712	88.12
575.923	96.12
576.134	84.12
576.345	87.12
576.556	95.12
576.767	97.12
576.978	102.12
577.188	82.12
577.399	86.12
577.61	93.12
577.821	95.12
578.032	124.12
578.243	267.12
578.454	774.12
578.665	219.12
578.875	112.12
579.086	86.12
579.297	94.12
579.508	67.12
579.718	96.12
579.929	96.12
580.14	95.12
580.35	80.12
580.561	100.12
580.772	74.12
580.982	87.12
581.193	91.12
581.403	78.12
581.614	94.12
581.825	98.12
582.035	89.12
582.246	103.12
582.456	97.12
582.667	93.12
582.877	89.12
583.087	77.12
583.298	83.12
583.508	94.12
583.719	88.12
583.929	88.12
584.139	86.12
584.35	73.12
584.56	87.12
584.77	99.12
584.981	79.12
585.191	76.12
585.401	78.12
585.611	89.12
585.821	97.12
586.032	95.12
586.242	102.12
586.452	105.12
586.662	77.12
586.872	102.12
587.082	92.12
587.292	93.12
587.502	103.12
587.713	87.12
587.923	95.12
588.133	94.12
588.343	82.12
588.553	88.12
588.762	94.12
588.972	83.12
589.182	88.12
589.392	77.12
589.602	90.12
589.812	91.12
590.022	84.12
590.232	85.12
590.441	82.12
590.651	89.12
590.861	81.12
591.071	84.12
591.281	81.12
591.49	85.12
591.7	85.12
591.91	93.12
592.119	89.12
592.329	76.12
592.539	85.12
592.748	93.12
592.958	82.12
593.167	82.12
593.377	88.12
593.587	101.12
593.796	87.12
594.006	87.12
594.215	98.12
594.424	80.12
594.634	85.12
594.843	91.12
595.053	101.12
595.262	95.12
595.472	99.12
595.681	89.12
595.89	92.12
596.1	93.12
596.309	74.12
596.518	94.12
596.727	88.12
596.937	87.12
597.146	86.12
597.355	84.12
597.564	89.12
597.774	96.12
597.983	74.12
598.192	95.12
598.401	86.12
598.61	74.12
598.819	85.12
599.028	85.12
599.237	91.12
599.446	74.12
599.655	94.12
599.864	88.12
600.073	86.12
600.282	93.12
600.491	86.12
600.7	91.12
600.909	82.12
601.118	74.12
601.327	91.12
601.536	92.12
601.745	87.12
601.953	92.12
602.162	90.12
602.371	87.12
602.58	77.12
602.789	97.12
602.997	102.12
603.206	96.12
603.415	79.12
603.623	83.12
603.832	83.12
604.041	86.12
604.249	94.12
604.458	84.12
604.666	81.12
604.875	71.12
605.084	85.12
605.292	88.12
605.501	99.12
605.709	81.12
605.918	80.12
606.126	95.12
606.334	107.12
606.543	72.12
606.751	93.12
606.96	89.12
607.168	105.12
607.376	95.12
607.585	97.12
607.793	88.12
608.001	83.12
608.21	95.12
608.418	112.12
608.626	93.12
608.834	103.12
609.043	108.12
609.251	94.12
609.459	93.12
609.667	92.12
609.875	88.12
610.083	88.12
610.291	83.12
610.499	87.12
610.707	79.12
610.916	96.12
611.124	103.12
611.332	106.12
611.54	86.12
611.748	81.12
611.955	86.12
612.163	96.12
612.371	83.12
612.579	90.12
612.787	99.12
612.995	86.12
613.203	88.12
613.411	104.12
613.618	78.12
613.826	90.12
614.034	77.12
614.242	91.12
614.449	78.12
614.657	81.12
614.865	80.12
615.072	106.12
615.28	78.12
615.488	96.12
615.695	110.12
615.903	106.12
616.111	104.12
616.318	108.12
616.526	91.12
616.733	101.12
616.941	107.12
617.148	99.12
617.356	86.12
617.563	79.12
617.771	85.12
617.978	94.12
618.185	87.12
618.393	68.12
618.6	96.12
618.807	99.12
619.015	78.12
619.222	73.12
619.429	88.12
619.637	87.12
619.844	90.12
620.051	90.12
620.258	92.12
620.466	86.12
620.673	97.12
620.88	97.12
621.087	87.12
621.294	87.12
621.501	91.12
621.708	76.12
621.915	77.12
622.122	98.12
622.329	101.12
622.536	98.12
622.743	88.12
622.95	91.12
623.157	85.12
623.364	78.12
623.571	83.12
623.778	95.12
623.985	84.12
624.192	85.12
624.399	86.12
624.606	91.12
624.812	87.12
625.019	96.12
625.226	92.12
625.433	84.12
625.639	88.12
625.846	85.12
626.053	78.12
626.259	87.12
626.466	83.12
626.673	82.12
626.879	90.12
627.086	86.12
627.293	101.12
627.499	96.12
627.706	100.12
627.912	87.12
628.119	93.12
628.325	92.12
628.532	101.12
628.738	88.12
628.945	83.12
629.151	91.12
629.357	74.12
629.564	101.12
629.77	85.12
629.976	99.12
630.183	84.12
630.389	85.12
630.595	85.12
630.802	93.12
631.008	91.12
631.214	93.12
631.42	89.12
631.627	76.12
631.833	83.12
632.039	89.12
632.245	88.12
632.451	98.12
632.657	94.12
632.863	94.12
633.069	94.12
633.275	90.12
633.481	81.12
633.688	90.12
633.893	92.12
634.099	70.12
634.305	81.12
634.511	84.12
634.717	83.12
634.923	70.12
635.129	94.12
635.335	84.12
635.541	71.12
635.747	85.12
635.952	78.12
636.158	84.12
636.364	92.12
636.57	88.12
636.775	90.12
636.981	86.12
637.187	90.12
637.392	72.12
637.598	88.12
637.804	87.12
638.009	85.12
638.215	85.12
638.421	88.12
638.626	83.12
638.832	87.12
639.037	93.12
639.243	70.12
639.448	83.12
639.654	97.12
639.859	83.12
640.065	86.12
640.27	103.12
640.475	93.12
640.681	81.12
640.886	86.12
641.091	73.12
641.297	87.12
641.502	90.12
641.707	86.12
641.913	101.12
642.118	81.12
642.323	76.12
642.528	88.12
642.733	81.12
642.939	84.12
643.144	88.12
643.349	88.12
643.554	83.12
643.759	96.12
643.964	89.12
644.169	83.12
644.374	96.12
644.579	81.12
644.784	86.12
644.989	99.12
645.194	99.12
645.399	82.12
645.604	73.12
645.809	97.12
646.014	102.12
646.219	80.12
646.423	90.12
646.628	86.12
646.833	81.12
647.038	102.12
647.243	91.12
647.447	73.12
647.652	88.12
647.857	90.12
648.062	82.12
648.266	96.12
648.471	69.12
648.676	100.12
648.88	91.12
649.085	86.12
649.289	108.12
649.494	86.12
649.698	152.12
649.903	91.12
650.107	86.12
650.312	88.12
650.516	88.12
650.721	90.12
650.925	91.12
651.13	95.12
651.334	80.12
651.539	86.12
651.743	74.12
651.947	83.12
652.152	77.12
652.356	77.12
652.56	83.12
652.764	90.12
652.969	86.12
653.173	93.12
653.377	75.12
653.581	82.12
653.785	70.12
653.99	72.12
654.194	88.12
654.398	76.12
654.602	69.12
654.806	92.12
655.01	111.12
655.214	91.12
655.418	83.12
655.622	79.12
655.826	87.12
656.03	85.12
656.234	107.12
656.438	117.12
656.642	96.12
656.846	106.12
657.049	91.12
657.253	86.12
657.457	95.12
657.661	98.12
657.865	86.12
658.068	88.12
658.272	74.12
658.476	91.12
658.68	82.12
658.883	92.12
659.087	71.12
659.291	71.12
659.494	94.12
659.698	92.12
659.901	80.12
660.105	83.12
660.309	89.12
660.512	77.12
660.716	73.12
660.919	88.12
661.123	80.12
661.326	91.12
661.53	98.12
661.733	78.12
661.936	93.12
662.14	79.12
662.343	83.12
662.546	79.12
662.75	78.12
662.953	91.12
663.156	87.12
663.36	87.12
663.563	75.12
663.766	91.12
663.969	72.12
664.173	84.12
664.376	90.12
664.579	94.12
664.782	78.12
664.985	78.12
665.188	91.12
665.391	84.12
665.594	59.12
665.797	83.12
666	69.12
666.203	76.12
666.406	85.12
666.609	79.12
666.812	79.12
667.015	94.12
667.218	82.12
667.421	71.12
667.624	81.12
667.827	84.12
668.03	74.12
668.232	77.12
668.435	86.12
668.638	85.12
668.841	100.12
669.043	82.12
669.246	83.12
669.449	87.12
669.651	75.12
669.854	81.12
670.057	88.12
670.259	83.12
670.462	66.12
670.665	86.12
670.867	78.12
671.07	87.12
671.272	78.12
671.475	100.12
671.677	85.12
671.88	83.12
672.082	77.12
672.284	103.12
672.487	74.12
672.689	81.12
672.892	65.12
