Data from Uncirc_2000_H10_HRD10591_00040.txt Node
Date: Wed Jan 03 10:48:25 EST 2024
User: Yrep
Spectrometer: HR+D1059
Trigger mode: 1
Integration Time (sec): 1.000000E-1
Scans to average: 1
Electric dark correction enabled: true
Nonlinearity correction enabled: false
Boxcar width: 0
XAxis mode: Wavelengths
Number of Pixels in Spectrum: 2048
>>>>>Begin Spectral Data<<<<<
223.165	-11.62
223.4	-11.62
223.635	-11.62
223.869	-18.62
224.104	-23.62
224.338	-18.62
224.573	-19.62
224.808	-14.62
225.042	-8.62
225.277	6.38
225.511	-2.62
225.746	12.38
225.98	6.38
226.215	12.38
226.449	-3.62
226.683	22.38
226.918	28.38
227.152	33.38
227.387	33.38
227.621	43.38
227.856	60.38
228.09	50.38
228.324	44.38
228.559	50.38
228.793	60.38
229.027	55.38
229.262	64.38
229.496	76.38
229.73	75.38
229.964	82.38
230.199	63.38
230.433	71.38
230.667	78.38
230.901	86.38
231.136	73.38
231.37	84.38
231.604	71.38
231.838	78.38
232.072	73.38
232.306	82.38
232.541	79.38
232.775	69.38
233.009	86.38
233.243	75.38
233.477	83.38
233.711	86.38
233.945	75.38
234.179	66.38
234.413	74.38
234.647	80.38
234.881	89.38
235.115	83.38
235.349	85.38
235.583	87.38
235.817	84.38
236.051	65.38
236.285	69.38
236.519	84.38
236.753	89.38
236.987	81.38
237.221	95.38
237.455	95.38
237.689	79.38
237.922	69.38
238.156	77.38
238.39	64.38
238.624	82.38
238.858	88.38
239.091	81.38
239.325	82.38
239.559	79.38
239.793	88.38
240.027	94.38
240.26	77.38
240.494	75.38
240.728	84.38
240.961	93.38
241.195	87.38
241.429	69.38
241.662	75.38
241.896	76.38
242.13	85.38
242.363	66.38
242.597	86.38
242.83	72.38
243.064	75.38
243.298	75.38
243.531	78.38
243.765	81.38
243.998	64.38
244.232	92.38
244.465	78.38
244.699	80.38
244.932	81.38
245.166	80.38
245.399	73.38
245.633	95.38
245.866	84.38
246.099	64.38
246.333	72.38
246.566	57.38
246.8	80.38
247.033	64.38
247.266	74.38
247.5	82.38
247.733	89.38
247.966	84.38
248.2	72.38
248.433	86.38
248.666	74.38
248.899	76.38
249.133	84.38
249.366	89.38
249.599	101.38
249.832	80.38
250.066	77.38
250.299	69.38
250.532	72.38
250.765	80.38
250.998	85.38
251.231	83.38
251.465	86.38
251.698	85.38
251.931	83.38
252.164	83.38
252.397	87.38
252.63	77.38
252.863	97.38
253.096	81.38
253.329	70.38
253.562	85.38
253.795	85.38
254.028	80.38
254.261	108.38
254.494	59.38
254.727	72.38
254.96	76.38
255.193	84.38
255.426	74.38
255.659	79.38
255.892	71.38
256.124	77.38
256.357	76.38
256.59	80.38
256.823	85.38
257.056	84.38
257.289	81.38
257.521	80.38
257.754	85.38
257.987	79.38
258.22	78.38
258.452	90.38
258.685	78.38
258.918	70.38
259.151	71.38
259.383	84.38
259.616	91.38
259.849	93.38
260.081	98.38
260.314	92.38
260.547	77.38
260.779	83.38
261.012	99.38
261.244	85.38
261.477	82.38
261.71	97.38
261.942	109.38
262.175	116.38
262.407	83.38
262.64	83.38
262.872	86.38
263.105	80.38
263.337	69.38
263.57	102.38
263.802	77.38
264.035	86.38
264.267	85.38
264.499	81.38
264.732	83.38
264.964	94.38
265.197	82.38
265.429	85.38
265.661	74.38
265.894	77.38
266.126	95.38
266.358	88.38
266.591	82.38
266.823	81.38
267.055	91.38
267.287	86.38
267.52	80.38
267.752	99.38
267.984	79.38
268.216	79.38
268.448	94.38
268.681	72.38
268.913	90.38
269.145	95.38
269.377	93.38
269.609	86.38
269.841	68.38
270.073	90.38
270.306	89.38
270.538	83.38
270.77	81.38
271.002	87.38
271.234	85.38
271.466	98.38
271.698	72.38
271.93	84.38
272.162	88.38
272.394	86.38
272.626	82.38
272.858	82.38
273.09	76.38
273.322	85.38
273.553	93.38
273.785	88.38
274.017	93.38
274.249	91.38
274.481	94.38
274.713	86.38
274.945	85.38
275.176	83.38
275.408	85.38
275.64	89.38
275.872	81.38
276.104	97.38
276.335	91.38
276.567	88.38
276.799	92.38
277.031	81.38
277.262	89.38
277.494	89.38
277.726	104.38
277.957	93.38
278.189	84.38
278.421	88.38
278.652	85.38
278.884	92.38
279.115	83.38
279.347	87.38
279.579	87.38
279.81	93.38
280.042	83.38
280.273	91.38
280.505	76.38
280.736	91.38
280.968	84.38
281.199	84.38
281.431	84.38
281.662	85.38
281.894	93.38
282.125	97.38
282.356	125.38
282.588	137.38
282.819	99.38
283.051	85.38
283.282	78.38
283.513	80.38
283.745	85.38
283.976	79.38
284.207	88.38
284.439	88.38
284.67	78.38
284.901	81.38
285.132	92.38
285.364	96.38
285.595	85.38
285.826	95.38
286.057	97.38
286.288	101.38
286.52	85.38
286.751	97.38
286.982	105.38
287.213	86.38
287.444	100.38
287.675	88.38
287.906	81.38
288.138	91.38
288.369	84.38
288.6	85.38
288.831	91.38
289.062	89.38
289.293	98.38
289.524	80.38
289.755	95.38
289.986	94.38
290.217	86.38
290.448	82.38
290.679	86.38
290.91	94.38
291.141	80.38
291.371	85.38
291.602	79.38
291.833	99.38
292.064	102.38
292.295	75.38
292.526	92.38
292.757	86.38
292.987	90.38
293.218	75.38
293.449	83.38
293.68	89.38
293.91	83.38
294.141	92.38
294.372	76.38
294.603	91.38
294.833	90.38
295.064	88.38
295.295	77.38
295.525	85.38
295.756	89.38
295.987	106.38
296.217	150.38
296.448	128.38
296.679	95.38
296.909	85.38
297.14	74.38
297.37	91.38
297.601	86.38
297.831	97.38
298.062	92.38
298.292	84.38
298.523	96.38
298.753	92.38
298.984	90.38
299.214	91.38
299.445	96.38
299.675	92.38
299.905	109.38
300.136	95.38
300.366	84.38
300.597	96.38
300.827	101.38
301.057	105.38
301.288	112.38
301.518	93.38
301.748	101.38
301.979	100.38
302.209	90.38
302.439	85.38
302.669	85.38
302.9	85.38
303.13	83.38
303.36	97.38
303.59	101.38
303.82	111.38
304.051	90.38
304.281	93.38
304.511	92.38
304.741	98.38
304.971	94.38
305.201	105.38
305.431	84.38
305.661	92.38
305.891	89.38
306.121	88.38
306.352	110.38
306.582	105.38
306.812	93.38
307.042	101.38
307.272	84.38
307.502	82.38
307.731	93.38
307.961	87.38
308.191	92.38
308.421	90.38
308.651	78.38
308.881	91.38
309.111	98.38
309.341	91.38
309.571	84.38
309.8	84.38
310.03	97.38
310.26	100.38
310.49	91.38
310.72	98.38
310.949	104.38
311.179	94.38
311.409	98.38
311.639	106.38
311.868	110.38
312.098	94.38
312.328	91.38
312.557	96.38
312.787	102.38
313.017	95.38
313.246	94.38
313.476	93.38
313.706	83.38
313.935	96.38
314.165	101.38
314.394	90.38
314.624	106.38
314.853	110.38
315.083	99.38
315.312	86.38
315.542	100.38
315.771	101.38
316.001	97.38
316.23	100.38
316.46	88.38
316.689	88.38
316.919	91.38
317.148	92.38
317.377	76.38
317.607	92.38
317.836	94.38
318.065	81.38
318.295	92.38
318.524	88.38
318.753	107.38
318.983	98.38
319.212	88.38
319.441	102.38
319.67	107.38
319.9	93.38
320.129	89.38
320.358	86.38
320.587	97.38
320.816	83.38
321.046	89.38
321.275	109.38
321.504	87.38
321.733	94.38
321.962	91.38
322.191	98.38
322.42	104.38
322.649	117.38
322.878	106.38
323.108	125.38
323.337	123.38
323.566	143.38
323.795	135.38
324.024	203.38
324.253	383.38
324.482	792.38
324.71	1631.38
324.939	2102.38
325.168	792.38
325.397	225.38
325.626	147.38
325.855	119.38
326.084	132.38
326.313	129.38
326.542	143.38
326.77	234.38
326.999	453.38
327.228	920.38
327.457	1652.38
327.686	1287.38
327.914	371.38
328.143	203.38
328.372	154.38
328.6	119.38
328.829	122.38
329.058	131.38
329.287	118.38
329.515	105.38
329.744	104.38
329.972	104.38
330.201	98.38
330.43	124.38
330.658	127.38
330.887	124.38
331.115	104.38
331.344	100.38
331.572	99.38
331.801	92.38
332.03	104.38
332.258	99.38
332.486	89.38
332.715	82.38
332.943	86.38
333.172	97.38
333.4	99.38
333.629	95.38
333.857	104.38
334.085	102.38
334.314	87.38
334.542	86.38
334.771	83.38
334.999	94.38
335.227	80.38
335.455	92.38
335.684	94.38
335.912	96.38
336.14	102.38
336.369	103.38
336.597	106.38
336.825	92.38
337.053	83.38
337.281	85.38
337.51	90.38
337.738	93.38
337.966	89.38
338.194	102.38
338.422	96.38
338.65	97.38
338.878	96.38
339.106	83.38
339.334	82.38
339.562	100.38
339.79	102.38
340.018	100.38
340.246	95.38
340.474	90.38
340.702	105.38
340.93	91.38
341.158	100.38
341.386	106.38
341.614	89.38
341.842	80.38
342.07	94.38
342.298	84.38
342.526	75.38
342.754	101.38
342.981	101.38
343.209	78.38
343.437	106.38
343.665	102.38
343.893	100.38
344.12	105.38
344.348	103.38
344.576	101.38
344.804	89.38
345.031	89.38
345.259	101.38
345.487	101.38
345.714	90.38
345.942	98.38
346.17	100.38
346.397	85.38
346.625	88.38
346.853	86.38
347.08	79.38
347.308	86.38
347.535	94.38
347.763	106.38
347.99	101.38
348.218	84.38
348.445	105.38
348.673	96.38
348.9	97.38
349.128	106.38
349.355	88.38
349.583	89.38
349.81	93.38
350.037	95.38
350.265	89.38
350.492	82.38
350.72	95.38
350.947	104.38
351.174	103.38
351.402	110.38
351.629	93.38
351.856	106.38
352.083	98.38
352.311	101.38
352.538	106.38
352.765	112.38
352.992	116.38
353.22	120.38
353.447	99.38
353.674	100.38
353.901	96.38
354.128	84.38
354.355	88.38
354.583	101.38
354.81	93.38
355.037	85.38
355.264	85.38
355.491	94.38
355.718	88.38
355.945	83.38
356.172	87.38
356.399	89.38
356.626	93.38
356.853	103.38
357.08	97.38
357.307	89.38
357.534	95.38
357.761	96.38
357.988	109.38
358.215	99.38
358.441	74.38
358.668	78.38
358.895	102.38
359.122	86.38
359.349	89.38
359.576	92.38
359.802	84.38
360.029	112.38
360.256	104.38
360.483	103.38
360.709	95.38
360.936	92.38
361.163	80.38
361.39	85.38
361.616	90.38
361.843	78.38
362.07	87.38
362.296	89.38
362.523	106.38
362.749	97.38
362.976	81.38
363.203	84.38
363.429	99.38
363.656	86.38
363.882	97.38
364.109	88.38
364.335	92.38
364.562	92.38
364.788	90.38
365.015	90.38
365.241	92.38
365.468	102.38
365.694	94.38
365.92	102.38
366.147	92.38
366.373	91.38
366.599	89.38
366.826	86.38
367.052	96.38
367.278	89.38
367.505	94.38
367.731	92.38
367.957	98.38
368.184	90.38
368.41	92.38
368.636	118.38
368.862	108.38
369.089	113.38
369.315	102.38
369.541	81.38
369.767	92.38
369.993	94.38
370.219	89.38
370.445	106.38
370.672	80.38
370.898	79.38
371.124	96.38
371.35	102.38
371.576	103.38
371.802	93.38
372.028	93.38
372.254	83.38
372.48	93.38
372.706	81.38
372.932	98.38
373.158	83.38
373.384	95.38
373.61	81.38
373.835	88.38
374.061	95.38
374.287	99.38
374.513	94.38
374.739	89.38
374.965	89.38
375.191	95.38
375.416	83.38
375.642	92.38
375.868	86.38
376.094	87.38
376.319	98.38
376.545	104.38
376.771	82.38
376.997	84.38
377.222	90.38
377.448	83.38
377.674	78.38
377.899	85.38
378.125	82.38
378.35	92.38
378.576	93.38
378.802	85.38
379.027	85.38
379.253	77.38
379.478	90.38
379.704	83.38
379.929	83.38
380.155	104.38
380.38	106.38
380.606	104.38
380.831	100.38
381.057	98.38
381.282	92.38
381.507	92.38
381.733	72.38
381.958	89.38
382.184	93.38
382.409	85.38
382.634	107.38
382.86	88.38
383.085	122.38
383.31	95.38
383.535	102.38
383.761	101.38
383.986	103.38
384.211	92.38
384.436	107.38
384.662	109.38
384.887	81.38
385.112	91.38
385.337	108.38
385.562	102.38
385.787	87.38
386.013	92.38
386.238	107.38
386.463	94.38
386.688	112.38
386.913	92.38
387.138	109.38
387.363	98.38
387.588	86.38
387.813	107.38
388.038	94.38
388.263	115.38
388.488	98.38
388.713	101.38
388.938	94.38
389.163	90.38
389.387	112.38
389.612	96.38
389.837	89.38
390.062	96.38
390.287	93.38
390.512	99.38
390.736	101.38
390.961	90.38
391.186	94.38
391.411	98.38
391.636	86.38
391.86	89.38
392.085	93.38
392.31	93.38
392.534	90.38
392.759	80.38
392.984	93.38
393.208	89.38
393.433	88.38
393.658	98.38
393.882	94.38
394.107	84.38
394.331	77.38
394.556	101.38
394.78	86.38
395.005	80.38
395.229	88.38
395.454	86.38
395.678	89.38
395.903	86.38
396.127	96.38
396.352	91.38
396.576	90.38
396.801	85.38
397.025	94.38
397.249	86.38
397.474	104.38
397.698	98.38
397.922	85.38
398.147	94.38
398.371	83.38
398.595	92.38
398.82	88.38
399.044	85.38
399.268	88.38
399.492	99.38
399.717	79.38
399.941	75.38
400.165	95.38
400.389	99.38
400.613	87.38
400.837	90.38
401.062	77.38
401.286	78.38
401.51	91.38
401.734	108.38
401.958	93.38
402.182	119.38
402.406	140.38
402.63	115.38
402.854	89.38
403.078	89.38
403.302	85.38
403.526	81.38
403.75	88.38
403.974	87.38
404.198	86.38
404.422	96.38
404.645	80.38
404.869	91.38
405.093	100.38
405.317	100.38
405.541	109.38
405.765	103.38
405.988	115.38
406.212	169.38
406.436	205.38
406.66	141.38
406.883	101.38
407.107	98.38
407.331	94.38
407.555	92.38
407.778	88.38
408.002	91.38
408.226	91.38
408.449	92.38
408.673	74.38
408.896	79.38
409.12	91.38
409.344	97.38
409.567	93.38
409.791	74.38
410.014	102.38
410.238	89.38
410.461	86.38
410.685	109.38
410.908	116.38
411.132	109.38
411.355	95.38
411.578	100.38
411.802	104.38
412.025	88.38
412.249	85.38
412.472	91.38
412.695	96.38
412.919	95.38
413.142	97.38
413.365	73.38
413.589	92.38
413.812	83.38
414.035	91.38
414.258	98.38
414.482	100.38
414.705	91.38
414.928	72.38
415.151	77.38
415.374	76.38
415.597	100.38
415.821	103.38
416.044	85.38
416.267	90.38
416.49	91.38
416.713	83.38
416.936	99.38
417.159	105.38
417.382	91.38
417.605	94.38
417.828	84.38
418.051	85.38
418.274	86.38
418.497	106.38
418.72	88.38
418.943	96.38
419.166	83.38
419.389	95.38
419.611	93.38
419.834	97.38
420.057	90.38
420.28	84.38
420.503	83.38
420.726	90.38
420.948	85.38
421.171	93.38
421.394	109.38
421.617	90.38
421.839	94.38
422.062	86.38
422.285	92.38
422.507	105.38
422.73	104.38
422.953	90.38
423.175	88.38
423.398	97.38
423.621	85.38
423.843	90.38
424.066	103.38
424.288	84.38
424.511	86.38
424.733	102.38
424.956	100.38
425.178	99.38
425.401	89.38
425.623	97.38
425.846	88.38
426.068	110.38
426.291	101.38
426.513	90.38
426.735	94.38
426.958	90.38
427.18	97.38
427.402	120.38
427.625	149.38
427.847	119.38
428.069	92.38
428.292	78.38
428.514	82.38
428.736	83.38
428.958	85.38
429.181	79.38
429.403	83.38
429.625	87.38
429.847	107.38
430.069	101.38
430.292	92.38
430.514	83.38
430.736	78.38
430.958	67.38
431.18	82.38
431.402	95.38
431.624	95.38
431.846	87.38
432.068	89.38
432.29	90.38
432.512	91.38
432.734	85.38
432.956	91.38
433.178	105.38
433.4	112.38
433.622	105.38
433.844	98.38
434.066	96.38
434.287	99.38
434.509	83.38
434.731	87.38
434.953	89.38
435.175	96.38
435.397	98.38
435.618	108.38
435.84	112.38
436.062	128.38
436.284	121.38
436.505	80.38
436.727	98.38
436.949	86.38
437.17	90.38
437.392	85.38
437.614	104.38
437.835	102.38
438.057	101.38
438.278	112.38
438.5	100.38
438.721	124.38
438.943	99.38
439.165	89.38
439.386	88.38
439.608	90.38
439.829	102.38
440.05	112.38
440.272	125.38
440.493	99.38
440.715	80.38
440.936	84.38
441.158	98.38
441.379	93.38
441.6	91.38
441.822	98.38
442.043	79.38
442.264	98.38
442.486	93.38
442.707	91.38
442.928	93.38
443.149	129.38
443.371	130.38
443.592	104.38
443.813	101.38
444.034	105.38
444.255	77.38
444.476	93.38
444.698	82.38
444.919	86.38
445.14	111.38
445.361	93.38
445.582	114.38
445.803	118.38
446.024	117.38
446.245	123.38
446.466	120.38
446.687	76.38
446.908	88.38
447.129	77.38
447.35	96.38
447.571	106.38
447.792	92.38
448.013	96.38
448.234	112.38
448.455	88.38
448.675	103.38
448.896	109.38
449.117	99.38
449.338	114.38
449.559	113.38
449.779	119.38
450	88.38
450.221	88.38
450.442	87.38
450.662	90.38
450.883	98.38
451.104	104.38
451.324	97.38
451.545	86.38
451.766	90.38
451.986	76.38
452.207	86.38
452.428	77.38
452.648	103.38
452.869	91.38
453.089	100.38
453.31	105.38
453.53	83.38
453.751	85.38
453.971	106.38
454.192	101.38
454.412	94.38
454.633	90.38
454.853	97.38
455.073	106.38
455.294	81.38
455.514	83.38
455.734	83.38
455.955	82.38
456.175	85.38
456.395	92.38
456.616	82.38
456.836	72.38
457.056	103.38
457.276	83.38
457.497	70.38
457.717	90.38
457.937	79.38
458.157	83.38
458.377	89.38
458.598	100.38
458.818	151.38
459.038	158.38
459.258	105.38
459.478	88.38
459.698	92.38
459.918	69.38
460.138	81.38
460.358	104.38
460.578	89.38
460.798	88.38
461.018	94.38
461.238	80.38
461.458	102.38
461.678	84.38
461.898	86.38
462.118	75.38
462.338	72.38
462.558	82.38
462.777	89.38
462.997	93.38
463.217	97.38
463.437	92.38
463.657	84.38
463.876	88.38
464.096	82.38
464.316	89.38
464.536	88.38
464.755	92.38
464.975	100.38
465.195	150.38
465.414	152.38
465.634	85.38
465.854	90.38
466.073	80.38
466.293	80.38
466.512	89.38
466.732	92.38
466.951	76.38
467.171	89.38
467.391	80.38
467.61	101.38
467.829	89.38
468.049	88.38
468.268	88.38
468.488	79.38
468.707	89.38
468.927	89.38
469.146	88.38
469.365	86.38
469.585	94.38
469.804	97.38
470.023	98.38
470.243	85.38
470.462	104.38
470.681	108.38
470.901	85.38
471.12	88.38
471.339	80.38
471.558	75.38
471.777	101.38
471.997	94.38
472.216	87.38
472.435	77.38
472.654	91.38
472.873	90.38
473.092	82.38
473.311	91.38
473.53	89.38
473.749	97.38
473.968	96.38
474.187	99.38
474.406	76.38
474.625	80.38
474.844	90.38
475.063	90.38
475.282	89.38
475.501	78.38
475.72	97.38
475.939	93.38
476.158	82.38
476.377	80.38
476.596	81.38
476.814	85.38
477.033	82.38
477.252	84.38
477.471	84.38
477.69	87.38
477.908	96.38
478.127	70.38
478.346	78.38
478.564	87.38
478.783	91.38
479.002	76.38
479.22	87.38
479.439	98.38
479.658	104.38
479.876	86.38
480.095	78.38
480.313	73.38
480.532	82.38
480.751	78.38
480.969	81.38
481.188	108.38
481.406	93.38
481.624	101.38
481.843	93.38
482.061	94.38
482.28	91.38
482.498	96.38
482.717	93.38
482.935	91.38
483.153	83.38
483.372	77.38
483.59	68.38
483.808	101.38
484.027	97.38
484.245	97.38
484.463	81.38
484.681	99.38
484.9	93.38
485.118	86.38
485.336	99.38
485.554	87.38
485.772	104.38
485.99	105.38
486.209	87.38
486.427	105.38
486.645	109.38
486.863	110.38
487.081	89.38
487.299	98.38
487.517	91.38
487.735	101.38
487.953	89.38
488.171	89.38
488.389	98.38
488.607	91.38
488.825	84.38
489.043	88.38
489.261	101.38
489.479	101.38
489.696	99.38
489.914	96.38
490.132	94.38
490.35	93.38
490.568	102.38
490.786	98.38
491.003	89.38
491.221	88.38
491.439	66.38
491.657	82.38
491.874	84.38
492.092	74.38
492.31	80.38
492.527	102.38
492.745	103.38
492.963	94.38
493.18	88.38
493.398	98.38
493.615	93.38
493.833	106.38
494.05	80.38
494.268	96.38
494.485	87.38
494.703	97.38
494.92	98.38
495.138	93.38
495.355	97.38
495.573	94.38
495.79	94.38
496.008	95.38
496.225	100.38
496.442	87.38
496.66	91.38
496.877	89.38
497.094	91.38
497.312	86.38
497.529	97.38
497.746	95.38
497.963	95.38
498.181	92.38
498.398	106.38
498.615	104.38
498.832	113.38
499.049	82.38
499.267	93.38
499.484	69.38
499.701	86.38
499.918	99.38
500.135	80.38
500.352	80.38
500.569	99.38
500.786	92.38
501.003	89.38
501.22	90.38
501.437	87.38
501.654	96.38
501.871	94.38
502.088	101.38
502.305	102.38
502.522	99.38
502.739	99.38
502.956	86.38
503.172	90.38
503.389	99.38
503.606	90.38
503.823	99.38
504.04	90.38
504.256	103.38
504.473	104.38
504.69	97.38
504.907	84.38
505.123	79.38
505.34	89.38
505.557	86.38
505.773	90.38
505.99	90.38
506.207	105.38
506.423	99.38
506.64	87.38
506.856	87.38
507.073	83.38
507.289	77.38
507.506	99.38
507.722	102.38
507.939	112.38
508.155	80.38
508.372	100.38
508.588	86.38
508.805	87.38
509.021	94.38
509.238	103.38
509.454	107.38
509.67	106.38
509.887	94.38
510.103	119.38
510.319	205.38
510.536	755.38
510.752	2321.38
510.968	640.38
511.184	148.38
511.401	108.38
511.617	105.38
511.833	93.38
512.049	102.38
512.265	100.38
512.481	93.38
512.698	89.38
512.914	94.38
513.13	94.38
513.346	103.38
513.562	104.38
513.778	99.38
513.994	97.38
514.21	111.38
514.426	111.38
514.642	117.38
514.858	121.38
515.074	157.38
515.29	403.38
515.506	1335.38
515.721	492.38
515.937	153.38
516.153	106.38
516.369	109.38
516.585	85.38
516.801	100.38
517.016	76.38
517.232	86.38
517.448	95.38
517.664	96.38
517.879	86.38
518.095	98.38
518.311	105.38
518.527	98.38
518.742	92.38
518.958	87.38
519.173	98.38
519.389	94.38
519.605	99.38
519.82	90.38
520.036	98.38
520.251	129.38
520.467	118.38
520.682	112.38
520.898	113.38
521.113	116.38
521.329	133.38
521.544	199.38
521.76	528.38
521.975	2200.38
522.19	1356.38
522.406	292.38
522.621	122.38
522.836	98.38
523.052	99.38
523.267	96.38
523.482	101.38
523.698	115.38
523.913	106.38
524.128	105.38
524.343	99.38
524.559	91.38
524.774	105.38
524.989	108.38
525.204	106.38
525.419	100.38
525.634	91.38
525.849	89.38
526.064	93.38
526.28	77.38
526.495	101.38
526.71	101.38
526.925	97.38
527.14	95.38
527.355	96.38
527.57	90.38
527.785	81.38
527.999	86.38
528.214	96.38
528.429	89.38
528.644	100.38
528.859	95.38
529.074	103.38
529.289	111.38
529.503	163.38
529.718	114.38
529.933	81.38
530.148	83.38
530.363	97.38
530.577	83.38
530.792	95.38
531.007	84.38
531.221	71.38
531.436	84.38
531.651	94.38
531.865	78.38
532.08	103.38
532.295	98.38
532.509	97.38
532.724	102.38
532.938	94.38
533.153	104.38
533.367	88.38
533.582	97.38
533.796	85.38
534.011	92.38
534.225	97.38
534.44	88.38
534.654	89.38
534.868	102.38
535.083	83.38
535.297	88.38
535.511	99.38
535.726	101.38
535.94	115.38
536.154	99.38
536.369	90.38
536.583	80.38
536.797	89.38
537.011	89.38
537.225	89.38
537.44	83.38
537.654	86.38
537.868	86.38
538.082	99.38
538.296	96.38
538.51	88.38
538.724	81.38
538.938	88.38
539.153	94.38
539.367	104.38
539.581	91.38
539.795	89.38
540.009	82.38
540.222	92.38
540.436	98.38
540.65	98.38
540.864	97.38
541.078	99.38
541.292	98.38
541.506	85.38
541.72	95.38
541.934	93.38
542.147	87.38
542.361	89.38
542.575	80.38
542.789	85.38
543.002	80.38
543.216	93.38
543.43	104.38
543.644	93.38
543.857	86.38
544.071	95.38
544.285	100.38
544.498	81.38
544.712	96.38
544.925	88.38
545.139	92.38
545.352	83.38
545.566	94.38
545.779	78.38
545.993	98.38
546.206	83.38
546.42	85.38
546.633	92.38
546.847	96.38
547.06	86.38
547.274	75.38
547.487	85.38
547.7	91.38
547.914	80.38
548.127	84.38
548.34	76.38
548.554	90.38
548.767	82.38
548.98	106.38
549.193	93.38
549.407	91.38
549.62	86.38
549.833	93.38
550.046	86.38
550.259	87.38
550.473	90.38
550.686	80.38
550.899	85.38
551.112	99.38
551.325	109.38
551.538	90.38
551.751	93.38
551.964	94.38
552.177	85.38
552.39	93.38
552.603	85.38
552.816	81.38
553.029	97.38
553.242	90.38
553.455	110.38
553.667	100.38
553.88	81.38
554.093	95.38
554.306	96.38
554.519	96.38
554.732	87.38
554.944	94.38
555.157	86.38
555.37	92.38
555.583	84.38
555.795	93.38
556.008	98.38
556.221	94.38
556.433	110.38
556.646	90.38
556.859	94.38
557.071	106.38
557.284	101.38
557.496	84.38
557.709	91.38
557.921	94.38
558.134	98.38
558.346	94.38
558.559	96.38
558.771	92.38
558.984	92.38
559.196	107.38
559.409	91.38
559.621	93.38
559.833	75.38
560.046	111.38
560.258	77.38
560.47	91.38
560.683	74.38
560.895	98.38
561.107	91.38
561.32	87.38
561.532	93.38
561.744	94.38
561.956	94.38
562.168	102.38
562.381	82.38
562.593	106.38
562.805	99.38
563.017	91.38
563.229	102.38
563.441	97.38
563.653	89.38
563.865	80.38
564.077	88.38
564.289	93.38
564.501	92.38
564.713	100.38
564.925	86.38
565.137	99.38
565.349	101.38
565.561	85.38
565.773	83.38
565.985	97.38
566.197	88.38
566.408	86.38
566.62	91.38
566.832	80.38
567.044	79.38
567.255	82.38
567.467	87.38
567.679	79.38
567.891	96.38
568.102	82.38
568.314	94.38
568.526	82.38
568.737	77.38
568.949	90.38
569.161	78.38
569.372	105.38
569.584	79.38
569.795	84.38
570.007	113.38
570.218	231.38
570.43	133.38
570.641	92.38
570.853	72.38
571.064	85.38
571.276	109.38
571.487	80.38
571.698	89.38
571.91	99.38
572.121	88.38
572.333	76.38
572.544	92.38
572.755	75.38
572.966	90.38
573.178	84.38
573.389	89.38
573.6	93.38
573.811	83.38
574.023	86.38
574.234	99.38
574.445	88.38
574.656	78.38
574.867	83.38
575.078	94.38
575.289	89.38
575.501	97.38
575.712	99.38
575.923	96.38
576.134	102.38
576.345	105.38
576.556	99.38
576.767	87.38
576.978	98.38
577.188	99.38
577.399	90.38
577.61	88.38
577.821	104.38
578.032	103.38
578.243	264.38
578.454	761.38
578.665	220.38
578.875	111.38
579.086	101.38
579.297	73.38
579.508	87.38
579.718	95.38
579.929	86.38
580.14	83.38
580.35	87.38
580.561	94.38
580.772	101.38
580.982	94.38
581.193	90.38
581.403	96.38
581.614	73.38
581.825	87.38
582.035	86.38
582.246	99.38
582.456	91.38
582.667	87.38
582.877	93.38
583.087	74.38
583.298	92.38
583.508	91.38
583.719	87.38
583.929	82.38
584.139	98.38
584.35	90.38
584.56	92.38
584.77	89.38
584.981	83.38
585.191	90.38
585.401	100.38
585.611	91.38
585.821	76.38
586.032	85.38
586.242	92.38
586.452	90.38
586.662	91.38
586.872	85.38
587.082	93.38
587.292	86.38
587.502	78.38
587.713	96.38
587.923	96.38
588.133	90.38
588.343	84.38
588.553	74.38
588.762	82.38
588.972	78.38
589.182	100.38
589.392	84.38
589.602	75.38
589.812	85.38
590.022	85.38
590.232	75.38
590.441	98.38
590.651	84.38
590.861	84.38
591.071	92.38
591.281	99.38
591.49	75.38
591.7	89.38
591.91	93.38
592.119	81.38
592.329	78.38
592.539	89.38
592.748	83.38
592.958	88.38
593.167	97.38
593.377	95.38
593.587	89.38
593.796	97.38
594.006	87.38
594.215	93.38
594.424	84.38
594.634	86.38
594.843	98.38
595.053	101.38
595.262	91.38
595.472	89.38
595.681	84.38
595.89	91.38
596.1	84.38
596.309	95.38
596.518	94.38
596.727	87.38
596.937	93.38
597.146	81.38
597.355	84.38
597.564	71.38
597.774	92.38
597.983	84.38
598.192	97.38
598.401	75.38
598.61	92.38
598.819	81.38
599.028	78.38
599.237	82.38
599.446	80.38
599.655	80.38
599.864	76.38
600.073	77.38
600.282	89.38
600.491	95.38
600.7	92.38
600.909	92.38
601.118	88.38
601.327	80.38
601.536	83.38
601.745	94.38
601.953	83.38
602.162	97.38
602.371	100.38
602.58	91.38
602.789	105.38
602.997	89.38
603.206	82.38
603.415	87.38
603.623	95.38
603.832	91.38
604.041	96.38
604.249	88.38
604.458	83.38
604.666	84.38
604.875	93.38
605.084	99.38
605.292	76.38
605.501	80.38
605.709	83.38
605.918	99.38
606.126	85.38
606.334	90.38
606.543	83.38
606.751	82.38
606.96	87.38
607.168	96.38
607.376	99.38
607.585	101.38
607.793	102.38
608.001	82.38
608.21	84.38
608.418	82.38
608.626	72.38
608.834	84.38
609.043	82.38
609.251	93.38
609.459	97.38
609.667	78.38
609.875	82.38
610.083	98.38
610.291	82.38
610.499	97.38
610.707	85.38
610.916	80.38
611.124	98.38
611.332	68.38
611.54	77.38
611.748	84.38
611.955	80.38
612.163	96.38
612.371	74.38
612.579	82.38
612.787	96.38
612.995	77.38
613.203	102.38
613.411	90.38
613.618	89.38
613.826	72.38
614.034	90.38
614.242	85.38
614.449	98.38
614.657	88.38
614.865	87.38
615.072	85.38
615.28	90.38
615.488	89.38
615.695	94.38
615.903	95.38
616.111	90.38
616.318	91.38
616.526	93.38
616.733	106.38
616.941	98.38
617.148	98.38
617.356	101.38
617.563	88.38
617.771	89.38
617.978	92.38
618.185	89.38
618.393	87.38
618.6	81.38
618.807	74.38
619.015	85.38
619.222	81.38
619.429	80.38
619.637	96.38
619.844	82.38
620.051	88.38
620.258	84.38
620.466	91.38
620.673	98.38
620.88	88.38
621.087	106.38
621.294	77.38
621.501	82.38
621.708	89.38
621.915	86.38
622.122	89.38
622.329	84.38
622.536	73.38
622.743	84.38
622.95	93.38
623.157	96.38
623.364	93.38
623.571	87.38
623.778	87.38
623.985	95.38
624.192	102.38
624.399	84.38
624.606	85.38
624.812	75.38
625.019	79.38
625.226	76.38
625.433	103.38
625.639	92.38
625.846	90.38
626.053	88.38
626.259	93.38
626.466	93.38
626.673	87.38
626.879	59.38
627.086	74.38
627.293	84.38
627.499	89.38
627.706	78.38
627.912	89.38
628.119	75.38
628.325	77.38
628.532	88.38
628.738	69.38
628.945	81.38
629.151	83.38
629.357	80.38
629.564	85.38
629.77	81.38
629.976	86.38
630.183	94.38
630.389	89.38
630.595	95.38
630.802	70.38
631.008	79.38
631.214	86.38
631.42	88.38
631.627	85.38
631.833	83.38
632.039	97.38
632.245	93.38
632.451	74.38
632.657	88.38
632.863	81.38
633.069	94.38
633.275	82.38
633.481	71.38
633.688	87.38
633.893	89.38
634.099	88.38
634.305	81.38
634.511	87.38
634.717	79.38
634.923	74.38
635.129	88.38
635.335	96.38
635.541	75.38
635.747	96.38
635.952	78.38
636.158	78.38
636.364	96.38
636.57	62.38
636.775	91.38
636.981	84.38
637.187	95.38
637.392	88.38
637.598	81.38
637.804	86.38
638.009	91.38
638.215	88.38
638.421	81.38
638.626	87.38
638.832	97.38
639.037	84.38
639.243	78.38
639.448	80.38
639.654	91.38
639.859	81.38
640.065	95.38
640.27	80.38
640.475	104.38
640.681	85.38
640.886	84.38
641.091	94.38
641.297	81.38
641.502	82.38
641.707	80.38
641.913	88.38
642.118	92.38
642.323	79.38
642.528	93.38
642.733	77.38
642.939	82.38
643.144	100.38
643.349	79.38
643.554	76.38
643.759	94.38
643.964	71.38
644.169	84.38
644.374	82.38
644.579	83.38
644.784	79.38
644.989	81.38
645.194	85.38
645.399	85.38
645.604	91.38
645.809	93.38
646.014	93.38
646.219	92.38
646.423	83.38
646.628	79.38
646.833	80.38
647.038	81.38
647.243	87.38
647.447	99.38
647.652	82.38
647.857	100.38
648.062	86.38
648.266	92.38
648.471	94.38
648.676	88.38
648.88	89.38
649.085	81.38
649.289	90.38
649.494	111.38
649.698	148.38
649.903	100.38
650.107	95.38
650.312	87.38
650.516	87.38
650.721	95.38
650.925	88.38
651.13	90.38
651.334	86.38
651.539	86.38
651.743	72.38
651.947	70.38
652.152	90.38
652.356	88.38
652.56	100.38
652.764	84.38
652.969	89.38
653.173	82.38
653.377	85.38
653.581	85.38
653.785	85.38
653.99	76.38
654.194	101.38
654.398	83.38
654.602	91.38
654.806	90.38
655.01	93.38
655.214	82.38
655.418	82.38
655.622	70.38
655.826	102.38
656.03	78.38
656.234	81.38
656.438	94.38
656.642	98.38
656.846	93.38
657.049	88.38
657.253	90.38
657.457	97.38
657.661	85.38
657.865	92.38
658.068	88.38
658.272	89.38
658.476	76.38
658.68	86.38
658.883	77.38
659.087	76.38
659.291	65.38
659.494	88.38
659.698	83.38
659.901	90.38
660.105	75.38
660.309	74.38
660.512	65.38
660.716	91.38
660.919	87.38
661.123	73.38
661.326	85.38
661.53	77.38
661.733	87.38
661.936	88.38
662.14	74.38
662.343	77.38
662.546	84.38
662.75	90.38
662.953	74.38
663.156	78.38
663.36	81.38
663.563	68.38
663.766	83.38
663.969	77.38
664.173	86.38
664.376	77.38
664.579	72.38
664.782	85.38
664.985	71.38
665.188	89.38
665.391	73.38
665.594	82.38
665.797	84.38
666	78.38
666.203	76.38
666.406	73.38
666.609	88.38
666.812	86.38
667.015	86.38
667.218	91.38
667.421	74.38
667.624	80.38
667.827	80.38
668.03	74.38
668.232	89.38
668.435	89.38
668.638	91.38
668.841	77.38
669.043	72.38
669.246	77.38
669.449	85.38
669.651	76.38
669.854	81.38
670.057	70.38
670.259	84.38
670.462	84.38
670.665	72.38
670.867	95.38
671.07	83.38
671.272	84.38
671.475	85.38
671.677	70.38
671.88	69.38
672.082	80.38
672.284	88.38
672.487	79.38
672.689	83.38
672.892	89.38
