Data from Uncirc_2000_H10_HRD10591_00099.txt Node
Date: Wed Jan 03 10:48:37 EST 2024
User: Yrep
Spectrometer: HR+D1059
Trigger mode: 1
Integration Time (sec): 1.000000E-1
Scans to average: 1
Electric dark correction enabled: true
Nonlinearity correction enabled: false
Boxcar width: 0
XAxis mode: Wavelengths
Number of Pixels in Spectrum: 2048
>>>>>Begin Spectral Data<<<<<
223.165	-6.38
223.4	-6.38
223.635	-6.38
223.869	-22.38
224.104	-19.38
224.338	-21.38
224.573	-20.38
224.808	-21.38
225.042	-6.38
225.277	-9.38
225.511	5.62
225.746	11.62
225.98	12.62
226.215	10.62
226.449	16.62
226.683	19.62
226.918	22.62
227.152	27.62
227.387	38.62
227.621	42.62
227.856	36.62
228.09	28.62
228.324	64.62
228.559	58.62
228.793	69.62
229.027	63.62
229.262	59.62
229.496	66.62
229.73	79.62
229.964	82.62
230.199	70.62
230.433	79.62
230.667	70.62
230.901	76.62
231.136	59.62
231.37	73.62
231.604	82.62
231.838	74.62
232.072	74.62
232.306	76.62
232.541	73.62
232.775	70.62
233.009	86.62
233.243	87.62
233.477	72.62
233.711	69.62
233.945	58.62
234.179	73.62
234.413	72.62
234.647	83.62
234.881	91.62
235.115	62.62
235.349	82.62
235.583	76.62
235.817	78.62
236.051	71.62
236.285	67.62
236.519	64.62
236.753	85.62
236.987	75.62
237.221	76.62
237.455	88.62
237.689	74.62
237.922	76.62
238.156	64.62
238.39	81.62
238.624	83.62
238.858	93.62
239.091	80.62
239.325	70.62
239.559	69.62
239.793	85.62
240.027	90.62
240.26	78.62
240.494	83.62
240.728	77.62
240.961	67.62
241.195	86.62
241.429	76.62
241.662	76.62
241.896	72.62
242.13	75.62
242.363	66.62
242.597	75.62
242.83	77.62
243.064	72.62
243.298	85.62
243.531	69.62
243.765	76.62
243.998	71.62
244.232	73.62
244.465	88.62
244.699	71.62
244.932	85.62
245.166	74.62
245.399	82.62
245.633	86.62
245.866	81.62
246.099	74.62
246.333	67.62
246.566	80.62
246.8	57.62
247.033	69.62
247.266	82.62
247.5	72.62
247.733	85.62
247.966	67.62
248.2	78.62
248.433	72.62
248.666	76.62
248.899	86.62
249.133	72.62
249.366	92.62
249.599	84.62
249.832	76.62
250.066	84.62
250.299	62.62
250.532	86.62
250.765	73.62
250.998	79.62
251.231	75.62
251.465	78.62
251.698	81.62
251.931	66.62
252.164	74.62
252.397	72.62
252.63	95.62
252.863	68.62
253.096	83.62
253.329	85.62
253.562	87.62
253.795	96.62
254.028	92.62
254.261	78.62
254.494	75.62
254.727	73.62
254.96	74.62
255.193	84.62
255.426	74.62
255.659	73.62
255.892	91.62
256.124	69.62
256.357	79.62
256.59	84.62
256.823	85.62
257.056	74.62
257.289	88.62
257.521	82.62
257.754	95.62
257.987	72.62
258.22	86.62
258.452	66.62
258.685	82.62
258.918	83.62
259.151	71.62
259.383	76.62
259.616	73.62
259.849	84.62
260.081	91.62
260.314	80.62
260.547	84.62
260.779	73.62
261.012	85.62
261.244	74.62
261.477	87.62
261.71	99.62
261.942	112.62
262.175	111.62
262.407	89.62
262.64	87.62
262.872	80.62
263.105	71.62
263.337	77.62
263.57	76.62
263.802	93.62
264.035	69.62
264.267	84.62
264.499	97.62
264.732	79.62
264.964	74.62
265.197	75.62
265.429	75.62
265.661	80.62
265.894	90.62
266.126	85.62
266.358	87.62
266.591	94.62
266.823	72.62
267.055	87.62
267.287	75.62
267.52	94.62
267.752	81.62
267.984	88.62
268.216	77.62
268.448	81.62
268.681	68.62
268.913	74.62
269.145	94.62
269.377	86.62
269.609	71.62
269.841	88.62
270.073	65.62
270.306	83.62
270.538	88.62
270.77	80.62
271.002	73.62
271.234	59.62
271.466	79.62
271.698	90.62
271.93	86.62
272.162	80.62
272.394	72.62
272.626	87.62
272.858	63.62
273.09	73.62
273.322	85.62
273.553	78.62
273.785	78.62
274.017	84.62
274.249	79.62
274.481	90.62
274.713	77.62
274.945	96.62
275.176	86.62
275.408	90.62
275.64	86.62
275.872	80.62
276.104	94.62
276.335	88.62
276.567	90.62
276.799	111.62
277.031	91.62
277.262	82.62
277.494	76.62
277.726	81.62
277.957	101.62
278.189	91.62
278.421	90.62
278.652	90.62
278.884	92.62
279.115	77.62
279.347	88.62
279.579	92.62
279.81	87.62
280.042	78.62
280.273	58.62
280.505	83.62
280.736	79.62
280.968	80.62
281.199	87.62
281.431	87.62
281.662	97.62
281.894	95.62
282.125	107.62
282.356	105.62
282.588	131.62
282.819	99.62
283.051	95.62
283.282	88.62
283.513	89.62
283.745	82.62
283.976	98.62
284.207	83.62
284.439	89.62
284.67	73.62
284.901	89.62
285.132	75.62
285.364	90.62
285.595	74.62
285.826	81.62
286.057	80.62
286.288	81.62
286.52	82.62
286.751	73.62
286.982	97.62
287.213	87.62
287.444	88.62
287.675	79.62
287.906	89.62
288.138	95.62
288.369	95.62
288.6	86.62
288.831	85.62
289.062	81.62
289.293	86.62
289.524	86.62
289.755	94.62
289.986	92.62
290.217	90.62
290.448	80.62
290.679	79.62
290.91	90.62
291.141	78.62
291.371	89.62
291.602	88.62
291.833	85.62
292.064	82.62
292.295	92.62
292.526	88.62
292.757	90.62
292.987	89.62
293.218	74.62
293.449	96.62
293.68	99.62
293.91	80.62
294.141	86.62
294.372	97.62
294.603	86.62
294.833	79.62
295.064	80.62
295.295	82.62
295.525	82.62
295.756	95.62
295.987	110.62
296.217	119.62
296.448	132.62
296.679	100.62
296.909	88.62
297.14	76.62
297.37	92.62
297.601	103.62
297.831	90.62
298.062	90.62
298.292	92.62
298.523	81.62
298.753	86.62
298.984	73.62
299.214	94.62
299.445	89.62
299.675	85.62
299.905	90.62
300.136	76.62
300.366	82.62
300.597	89.62
300.827	102.62
301.057	86.62
301.288	98.62
301.518	96.62
301.748	80.62
301.979	82.62
302.209	88.62
302.439	97.62
302.669	82.62
302.9	90.62
303.13	90.62
303.36	86.62
303.59	99.62
303.82	105.62
304.051	88.62
304.281	88.62
304.511	87.62
304.741	84.62
304.971	89.62
305.201	90.62
305.431	73.62
305.661	95.62
305.891	84.62
306.121	95.62
306.352	100.62
306.582	103.62
306.812	82.62
307.042	91.62
307.272	93.62
307.502	82.62
307.731	98.62
307.961	99.62
308.191	83.62
308.421	90.62
308.651	81.62
308.881	75.62
309.111	97.62
309.341	105.62
309.571	102.62
309.8	99.62
310.03	105.62
310.26	94.62
310.49	88.62
310.72	92.62
310.949	102.62
311.179	102.62
311.409	75.62
311.639	100.62
311.868	96.62
312.098	82.62
312.328	90.62
312.557	97.62
312.787	99.62
313.017	116.62
313.246	99.62
313.476	74.62
313.706	104.62
313.935	95.62
314.165	97.62
314.394	96.62
314.624	95.62
314.853	79.62
315.083	86.62
315.312	106.62
315.542	82.62
315.771	84.62
316.001	79.62
316.23	108.62
316.46	89.62
316.689	84.62
316.919	88.62
317.148	106.62
317.377	89.62
317.607	96.62
317.836	93.62
318.065	96.62
318.295	100.62
318.524	97.62
318.753	76.62
318.983	87.62
319.212	94.62
319.441	98.62
319.67	106.62
319.9	87.62
320.129	92.62
320.358	96.62
320.587	99.62
320.816	108.62
321.046	111.62
321.275	109.62
321.504	96.62
321.733	85.62
321.962	98.62
322.191	87.62
322.42	104.62
322.649	112.62
322.878	114.62
323.108	122.62
323.337	127.62
323.566	134.62
323.795	140.62
324.024	201.62
324.253	416.62
324.482	838.62
324.71	1759.62
324.939	2278.62
325.168	857.62
325.397	263.62
325.626	160.62
325.855	135.62
326.084	126.62
326.313	132.62
326.542	150.62
326.77	230.62
326.999	457.62
327.228	976.62
327.457	1778.62
327.686	1410.62
327.914	374.62
328.143	198.62
328.372	133.62
328.6	119.62
328.829	122.62
329.058	123.62
329.287	133.62
329.515	122.62
329.744	98.62
329.972	95.62
330.201	98.62
330.43	94.62
330.658	119.62
330.887	142.62
331.115	132.62
331.344	103.62
331.572	110.62
331.801	82.62
332.03	99.62
332.258	90.62
332.486	80.62
332.715	76.62
332.943	92.62
333.172	79.62
333.4	99.62
333.629	101.62
333.857	112.62
334.085	103.62
334.314	110.62
334.542	86.62
334.771	97.62
334.999	92.62
335.227	96.62
335.455	100.62
335.684	97.62
335.912	84.62
336.14	92.62
336.369	100.62
336.597	106.62
336.825	97.62
337.053	93.62
337.281	100.62
337.51	87.62
337.738	97.62
337.966	91.62
338.194	86.62
338.422	87.62
338.65	97.62
338.878	88.62
339.106	92.62
339.334	73.62
339.562	89.62
339.79	79.62
340.018	92.62
340.246	90.62
340.474	92.62
340.702	99.62
340.93	98.62
341.158	94.62
341.386	90.62
341.614	83.62
341.842	87.62
342.07	90.62
342.298	80.62
342.526	91.62
342.754	88.62
342.981	78.62
343.209	100.62
343.437	102.62
343.665	90.62
343.893	74.62
344.12	102.62
344.348	74.62
344.576	79.62
344.804	85.62
345.031	90.62
345.259	76.62
345.487	90.62
345.714	79.62
345.942	76.62
346.17	89.62
346.397	80.62
346.625	88.62
346.853	83.62
347.08	104.62
347.308	82.62
347.535	99.62
347.763	102.62
347.99	103.62
348.218	96.62
348.445	102.62
348.673	94.62
348.9	98.62
349.128	88.62
349.355	90.62
349.583	84.62
349.81	104.62
350.037	98.62
350.265	100.62
350.492	92.62
350.72	105.62
350.947	94.62
351.174	103.62
351.402	109.62
351.629	98.62
351.856	93.62
352.083	90.62
352.311	103.62
352.538	87.62
352.765	103.62
352.992	109.62
353.22	111.62
353.447	106.62
353.674	80.62
353.901	96.62
354.128	81.62
354.355	97.62
354.583	96.62
354.81	94.62
355.037	88.62
355.264	90.62
355.491	86.62
355.718	93.62
355.945	110.62
356.172	93.62
356.399	91.62
356.626	94.62
356.853	82.62
357.08	100.62
357.307	94.62
357.534	90.62
357.761	84.62
357.988	87.62
358.215	97.62
358.441	79.62
358.668	95.62
358.895	94.62
359.122	84.62
359.349	90.62
359.576	91.62
359.802	101.62
360.029	105.62
360.256	105.62
360.483	70.62
360.709	84.62
360.936	84.62
361.163	106.62
361.39	95.62
361.616	99.62
361.843	91.62
362.07	95.62
362.296	92.62
362.523	96.62
362.749	86.62
362.976	102.62
363.203	91.62
363.429	77.62
363.656	97.62
363.882	83.62
364.109	91.62
364.335	103.62
364.562	79.62
364.788	82.62
365.015	97.62
365.241	92.62
365.468	110.62
365.694	111.62
365.92	104.62
366.147	88.62
366.373	93.62
366.599	83.62
366.826	76.62
367.052	84.62
367.278	95.62
367.505	83.62
367.731	101.62
367.957	81.62
368.184	81.62
368.41	98.62
368.636	99.62
368.862	98.62
369.089	108.62
369.315	83.62
369.541	91.62
369.767	98.62
369.993	82.62
370.219	84.62
370.445	79.62
370.672	79.62
370.898	69.62
371.124	80.62
371.35	94.62
371.576	84.62
371.802	70.62
372.028	87.62
372.254	80.62
372.48	79.62
372.706	85.62
372.932	91.62
373.158	79.62
373.384	90.62
373.61	82.62
373.835	88.62
374.061	82.62
374.287	75.62
374.513	77.62
374.739	84.62
374.965	87.62
375.191	91.62
375.416	84.62
375.642	76.62
375.868	102.62
376.094	89.62
376.319	85.62
376.545	88.62
376.771	89.62
376.997	94.62
377.222	85.62
377.448	89.62
377.674	88.62
377.899	78.62
378.125	97.62
378.35	89.62
378.576	85.62
378.802	90.62
379.027	91.62
379.253	102.62
379.478	82.62
379.704	86.62
379.929	79.62
380.155	76.62
380.38	96.62
380.606	79.62
380.831	86.62
381.057	97.62
381.282	85.62
381.507	95.62
381.733	96.62
381.958	91.62
382.184	81.62
382.409	108.62
382.634	93.62
382.86	102.62
383.085	104.62
383.31	84.62
383.535	95.62
383.761	96.62
383.986	92.62
384.211	88.62
384.436	99.62
384.662	78.62
384.887	81.62
385.112	97.62
385.337	92.62
385.562	98.62
385.787	97.62
386.013	98.62
386.238	101.62
386.463	108.62
386.688	100.62
386.913	99.62
387.138	86.62
387.363	96.62
387.588	90.62
387.813	96.62
388.038	104.62
388.263	98.62
388.488	100.62
388.713	97.62
388.938	75.62
389.163	101.62
389.387	88.62
389.612	98.62
389.837	83.62
390.062	103.62
390.287	95.62
390.512	81.62
390.736	87.62
390.961	92.62
391.186	92.62
391.411	99.62
391.636	102.62
391.86	76.62
392.085	94.62
392.31	91.62
392.534	106.62
392.759	89.62
392.984	89.62
393.208	84.62
393.433	72.62
393.658	75.62
393.882	86.62
394.107	99.62
394.331	80.62
394.556	82.62
394.78	99.62
395.005	98.62
395.229	82.62
395.454	97.62
395.678	80.62
395.903	89.62
396.127	88.62
396.352	92.62
396.576	84.62
396.801	84.62
397.025	84.62
397.249	89.62
397.474	85.62
397.698	83.62
397.922	95.62
398.147	89.62
398.371	70.62
398.595	90.62
398.82	102.62
399.044	92.62
399.268	80.62
399.492	74.62
399.717	86.62
399.941	91.62
400.165	84.62
400.389	77.62
400.613	72.62
400.837	69.62
401.062	83.62
401.286	96.62
401.51	92.62
401.734	86.62
401.958	89.62
402.182	126.62
402.406	154.62
402.63	119.62
402.854	91.62
403.078	79.62
403.302	95.62
403.526	89.62
403.75	84.62
403.974	71.62
404.198	85.62
404.422	74.62
404.645	72.62
404.869	83.62
405.093	98.62
405.317	86.62
405.541	86.62
405.765	97.62
405.988	106.62
406.212	142.62
406.436	220.62
406.66	142.62
406.883	105.62
407.107	81.62
407.331	89.62
407.555	89.62
407.778	93.62
408.002	94.62
408.226	98.62
408.449	77.62
408.673	85.62
408.896	85.62
409.12	94.62
409.344	96.62
409.567	79.62
409.791	83.62
410.014	99.62
410.238	88.62
410.461	80.62
410.685	86.62
410.908	99.62
411.132	87.62
411.355	92.62
411.578	84.62
411.802	84.62
412.025	83.62
412.249	88.62
412.472	95.62
412.695	90.62
412.919	74.62
413.142	89.62
413.365	70.62
413.589	82.62
413.812	98.62
414.035	106.62
414.258	80.62
414.482	86.62
414.705	82.62
414.928	78.62
415.151	89.62
415.374	77.62
415.597	90.62
415.821	71.62
416.044	87.62
416.267	85.62
416.49	85.62
416.713	77.62
416.936	92.62
417.159	85.62
417.382	79.62
417.605	83.62
417.828	95.62
418.051	96.62
418.274	98.62
418.497	85.62
418.72	80.62
418.943	84.62
419.166	103.62
419.389	64.62
419.611	100.62
419.834	89.62
420.057	85.62
420.28	86.62
420.503	88.62
420.726	91.62
420.948	73.62
421.171	86.62
421.394	99.62
421.617	74.62
421.839	100.62
422.062	96.62
422.285	82.62
422.507	103.62
422.73	88.62
422.953	88.62
423.175	90.62
423.398	91.62
423.621	82.62
423.843	89.62
424.066	78.62
424.288	82.62
424.511	97.62
424.733	96.62
424.956	97.62
425.178	79.62
425.401	88.62
425.623	101.62
425.846	104.62
426.068	88.62
426.291	86.62
426.513	80.62
426.735	98.62
426.958	101.62
427.18	94.62
427.402	136.62
427.625	157.62
427.847	118.62
428.069	100.62
428.292	95.62
428.514	79.62
428.736	87.62
428.958	94.62
429.181	64.62
429.403	87.62
429.625	93.62
429.847	80.62
430.069	89.62
430.292	99.62
430.514	82.62
430.736	72.62
430.958	80.62
431.18	80.62
431.402	79.62
431.624	90.62
431.846	90.62
432.068	81.62
432.29	84.62
432.512	83.62
432.734	96.62
432.956	85.62
433.178	79.62
433.4	95.62
433.622	82.62
433.844	88.62
434.066	97.62
434.287	88.62
434.509	81.62
434.731	86.62
434.953	75.62
435.175	81.62
435.397	79.62
435.618	94.62
435.84	89.62
436.062	124.62
436.284	100.62
436.505	84.62
436.727	96.62
436.949	97.62
437.17	98.62
437.392	85.62
437.614	68.62
437.835	115.62
438.057	103.62
438.278	111.62
438.5	86.62
438.721	112.62
438.943	100.62
439.165	82.62
439.386	71.62
439.608	96.62
439.829	86.62
440.05	102.62
440.272	128.62
440.493	105.62
440.715	81.62
440.936	90.62
441.158	97.62
441.379	86.62
441.6	90.62
441.822	85.62
442.043	97.62
442.264	92.62
442.486	88.62
442.707	95.62
442.928	104.62
443.149	132.62
443.371	116.62
443.592	113.62
443.813	122.62
444.034	102.62
444.255	90.62
444.476	98.62
444.698	95.62
444.919	88.62
445.14	124.62
445.361	127.62
445.582	111.62
445.803	138.62
446.024	127.62
446.245	134.62
446.466	102.62
446.687	96.62
446.908	80.62
447.129	84.62
447.35	93.62
447.571	84.62
447.792	88.62
448.013	107.62
448.234	80.62
448.455	102.62
448.675	113.62
448.896	110.62
449.117	91.62
449.338	101.62
449.559	130.62
449.779	120.62
450	96.62
450.221	85.62
450.442	82.62
450.662	86.62
450.883	104.62
451.104	106.62
451.324	92.62
451.545	86.62
451.766	90.62
451.986	86.62
452.207	96.62
452.428	94.62
452.648	88.62
452.869	104.62
453.089	115.62
453.31	105.62
453.53	96.62
453.751	87.62
453.971	102.62
454.192	97.62
454.412	85.62
454.633	80.62
454.853	88.62
455.073	88.62
455.294	87.62
455.514	95.62
455.734	84.62
455.955	88.62
456.175	78.62
456.395	81.62
456.616	87.62
456.836	81.62
457.056	71.62
457.276	82.62
457.497	81.62
457.717	87.62
457.937	79.62
458.157	79.62
458.377	95.62
458.598	111.62
458.818	137.62
459.038	155.62
459.258	100.62
459.478	80.62
459.698	86.62
459.918	90.62
460.138	102.62
460.358	98.62
460.578	89.62
460.798	86.62
461.018	88.62
461.238	84.62
461.458	73.62
461.678	80.62
461.898	90.62
462.118	92.62
462.338	76.62
462.558	88.62
462.777	71.62
462.997	82.62
463.217	90.62
463.437	88.62
463.657	91.62
463.876	80.62
464.096	82.62
464.316	88.62
464.536	91.62
464.755	95.62
464.975	90.62
465.195	162.62
465.414	144.62
465.634	97.62
465.854	81.62
466.073	62.62
466.293	82.62
466.512	94.62
466.732	77.62
466.951	92.62
467.171	85.62
467.391	81.62
467.61	95.62
467.829	98.62
468.049	79.62
468.268	91.62
468.488	84.62
468.707	70.62
468.927	79.62
469.146	94.62
469.365	72.62
469.585	91.62
469.804	92.62
470.023	87.62
470.243	99.62
470.462	95.62
470.681	102.62
470.901	81.62
471.12	86.62
471.339	90.62
471.558	77.62
471.777	89.62
471.997	92.62
472.216	92.62
472.435	80.62
472.654	99.62
472.873	99.62
473.092	80.62
473.311	90.62
473.53	82.62
473.749	97.62
473.968	86.62
474.187	104.62
474.406	91.62
474.625	81.62
474.844	84.62
475.063	84.62
475.282	95.62
475.501	81.62
475.72	98.62
475.939	74.62
476.158	81.62
476.377	89.62
476.596	87.62
476.814	84.62
477.033	82.62
477.252	94.62
477.471	86.62
477.69	87.62
477.908	90.62
478.127	86.62
478.346	82.62
478.564	87.62
478.783	87.62
479.002	87.62
479.22	81.62
479.439	98.62
479.658	100.62
479.876	79.62
480.095	82.62
480.313	78.62
480.532	95.62
480.751	81.62
480.969	79.62
481.188	89.62
481.406	103.62
481.624	98.62
481.843	75.62
482.061	80.62
482.28	86.62
482.498	86.62
482.717	91.62
482.935	95.62
483.153	91.62
483.372	80.62
483.59	87.62
483.808	100.62
484.027	88.62
484.245	106.62
484.463	78.62
484.681	95.62
484.9	96.62
485.118	103.62
485.336	89.62
485.554	78.62
485.772	87.62
485.99	73.62
486.209	98.62
486.427	103.62
486.645	104.62
486.863	105.62
487.081	96.62
487.299	96.62
487.517	90.62
487.735	94.62
487.953	95.62
488.171	100.62
488.389	88.62
488.607	86.62
488.825	103.62
489.043	86.62
489.261	84.62
489.479	87.62
489.696	98.62
489.914	87.62
490.132	90.62
490.35	91.62
490.568	91.62
490.786	104.62
491.003	88.62
491.221	105.62
491.439	76.62
491.657	84.62
491.874	98.62
492.092	87.62
492.31	89.62
492.527	91.62
492.745	100.62
492.963	92.62
493.18	99.62
493.398	96.62
493.615	81.62
493.833	90.62
494.05	90.62
494.268	78.62
494.485	89.62
494.703	93.62
494.92	78.62
495.138	87.62
495.355	93.62
495.573	101.62
495.79	83.62
496.008	95.62
496.225	81.62
496.442	93.62
496.66	98.62
496.877	91.62
497.094	104.62
497.312	83.62
497.529	86.62
497.746	87.62
497.963	85.62
498.181	84.62
498.398	102.62
498.615	98.62
498.832	97.62
499.049	84.62
499.267	75.62
499.484	73.62
499.701	83.62
499.918	99.62
500.135	75.62
500.352	95.62
500.569	88.62
500.786	86.62
501.003	96.62
501.22	90.62
501.437	78.62
501.654	87.62
501.871	105.62
502.088	80.62
502.305	99.62
502.522	91.62
502.739	80.62
502.956	82.62
503.172	86.62
503.389	98.62
503.606	86.62
503.823	89.62
504.04	79.62
504.256	77.62
504.473	91.62
504.69	98.62
504.907	90.62
505.123	90.62
505.34	73.62
505.557	85.62
505.773	87.62
505.99	82.62
506.207	100.62
506.423	100.62
506.64	84.62
506.856	87.62
507.073	82.62
507.289	86.62
507.506	109.62
507.722	109.62
507.939	115.62
508.155	80.62
508.372	98.62
508.588	100.62
508.805	100.62
509.021	95.62
509.238	100.62
509.454	99.62
509.67	107.62
509.887	113.62
510.103	132.62
510.319	211.62
510.536	771.62
510.752	2514.62
510.968	683.62
511.184	154.62
511.401	105.62
511.617	92.62
511.833	86.62
512.049	87.62
512.265	88.62
512.481	97.62
512.698	100.62
512.914	88.62
513.13	89.62
513.346	90.62
513.562	94.62
513.778	104.62
513.994	99.62
514.21	110.62
514.426	115.62
514.642	111.62
514.858	126.62
515.074	161.62
515.29	460.62
515.506	1497.62
515.721	540.62
515.937	148.62
516.153	98.62
516.369	97.62
516.585	88.62
516.801	88.62
517.016	109.62
517.232	106.62
517.448	90.62
517.664	106.62
517.879	97.62
518.095	99.62
518.311	87.62
518.527	89.62
518.742	84.62
518.958	83.62
519.173	107.62
519.389	90.62
519.605	90.62
519.82	93.62
520.036	90.62
520.251	109.62
520.467	99.62
520.682	99.62
520.898	94.62
521.113	105.62
521.329	147.62
521.544	202.62
521.76	547.62
521.975	2481.62
522.19	1459.62
522.406	323.62
522.621	130.62
522.836	110.62
523.052	98.62
523.267	96.62
523.482	90.62
523.698	91.62
523.913	111.62
524.128	100.62
524.343	89.62
524.559	94.62
524.774	88.62
524.989	88.62
525.204	90.62
525.419	82.62
525.634	92.62
525.849	79.62
526.064	82.62
526.28	88.62
526.495	86.62
526.71	78.62
526.925	80.62
527.14	95.62
527.355	77.62
527.57	89.62
527.785	91.62
527.999	70.62
528.214	101.62
528.429	96.62
528.644	94.62
528.859	88.62
529.074	87.62
529.289	113.62
529.503	176.62
529.718	107.62
529.933	93.62
530.148	98.62
530.363	81.62
530.577	73.62
530.792	95.62
531.007	80.62
531.221	89.62
531.436	92.62
531.651	97.62
531.865	92.62
532.08	87.62
532.295	76.62
532.509	90.62
532.724	100.62
532.938	99.62
533.153	90.62
533.367	98.62
533.582	78.62
533.796	97.62
534.011	89.62
534.225	83.62
534.44	91.62
534.654	98.62
534.868	90.62
535.083	99.62
535.297	87.62
535.511	99.62
535.726	106.62
535.94	105.62
536.154	97.62
536.369	76.62
536.583	90.62
536.797	102.62
537.011	86.62
537.225	86.62
537.44	80.62
537.654	91.62
537.868	90.62
538.082	91.62
538.296	80.62
538.51	100.62
538.724	91.62
538.938	96.62
539.153	83.62
539.367	102.62
539.581	96.62
539.795	85.62
540.009	97.62
540.222	91.62
540.436	113.62
540.65	89.62
540.864	82.62
541.078	93.62
541.292	94.62
541.506	98.62
541.72	84.62
541.934	83.62
542.147	91.62
542.361	91.62
542.575	79.62
542.789	78.62
543.002	93.62
543.216	96.62
543.43	84.62
543.644	97.62
543.857	102.62
544.071	90.62
544.285	87.62
544.498	92.62
544.712	75.62
544.925	85.62
545.139	76.62
545.352	92.62
545.566	89.62
545.779	92.62
545.993	81.62
546.206	97.62
546.42	93.62
546.633	88.62
546.847	89.62
547.06	89.62
547.274	89.62
547.487	74.62
547.7	72.62
547.914	77.62
548.127	88.62
548.34	87.62
548.554	89.62
548.767	78.62
548.98	77.62
549.193	82.62
549.407	92.62
549.62	89.62
549.833	88.62
550.046	76.62
550.259	86.62
550.473	82.62
550.686	89.62
550.899	103.62
551.112	95.62
551.325	92.62
551.538	89.62
551.751	97.62
551.964	76.62
552.177	86.62
552.39	86.62
552.603	84.62
552.816	87.62
553.029	80.62
553.242	96.62
553.455	87.62
553.667	120.62
553.88	93.62
554.093	92.62
554.306	73.62
554.519	64.62
554.732	96.62
554.944	88.62
555.157	93.62
555.37	100.62
555.583	87.62
555.795	99.62
556.008	82.62
556.221	71.62
556.433	86.62
556.646	97.62
556.859	92.62
557.071	90.62
557.284	95.62
557.496	96.62
557.709	90.62
557.921	90.62
558.134	100.62
558.346	88.62
558.559	97.62
558.771	96.62
558.984	94.62
559.196	89.62
559.409	79.62
559.621	91.62
559.833	82.62
560.046	66.62
560.258	94.62
560.47	95.62
560.683	86.62
560.895	102.62
561.107	87.62
561.32	84.62
561.532	93.62
561.744	86.62
561.956	89.62
562.168	83.62
562.381	92.62
562.593	98.62
562.805	86.62
563.017	88.62
563.229	82.62
563.441	80.62
563.653	92.62
563.865	84.62
564.077	87.62
564.289	83.62
564.501	81.62
564.713	89.62
564.925	92.62
565.137	103.62
565.349	102.62
565.561	86.62
565.773	90.62
565.985	83.62
566.197	91.62
566.408	88.62
566.62	84.62
566.832	85.62
567.044	80.62
567.255	80.62
567.467	69.62
567.679	91.62
567.891	84.62
568.102	85.62
568.314	79.62
568.526	92.62
568.737	87.62
568.949	71.62
569.161	99.62
569.372	89.62
569.584	106.62
569.795	86.62
570.007	107.62
570.218	217.62
570.43	143.62
570.641	88.62
570.853	87.62
571.064	89.62
571.276	98.62
571.487	90.62
571.698	87.62
571.91	68.62
572.121	98.62
572.333	95.62
572.544	81.62
572.755	82.62
572.966	96.62
573.178	84.62
573.389	75.62
573.6	83.62
573.811	92.62
574.023	82.62
574.234	79.62
574.445	91.62
574.656	86.62
574.867	85.62
575.078	98.62
575.289	88.62
575.501	96.62
575.712	86.62
575.923	75.62
576.134	85.62
576.345	90.62
576.556	104.62
576.767	79.62
576.978	92.62
577.188	82.62
577.399	94.62
577.61	93.62
577.821	105.62
578.032	111.62
578.243	283.62
578.454	815.62
578.665	233.62
578.875	89.62
579.086	94.62
579.297	62.62
579.508	76.62
579.718	74.62
579.929	87.62
580.14	70.62
580.35	82.62
580.561	91.62
580.772	86.62
580.982	88.62
581.193	78.62
581.403	81.62
581.614	90.62
581.825	76.62
582.035	91.62
582.246	86.62
582.456	83.62
582.667	81.62
582.877	90.62
583.087	81.62
583.298	97.62
583.508	78.62
583.719	100.62
583.929	99.62
584.139	94.62
584.35	94.62
584.56	90.62
584.77	85.62
584.981	90.62
585.191	83.62
585.401	89.62
585.611	87.62
585.821	90.62
586.032	86.62
586.242	91.62
586.452	82.62
586.662	90.62
586.872	90.62
587.082	88.62
587.292	81.62
587.502	79.62
587.713	90.62
587.923	101.62
588.133	92.62
588.343	83.62
588.553	76.62
588.762	83.62
588.972	87.62
589.182	91.62
589.392	72.62
589.602	88.62
589.812	86.62
590.022	90.62
590.232	81.62
590.441	85.62
590.651	75.62
590.861	68.62
591.071	84.62
591.281	79.62
591.49	80.62
591.7	82.62
591.91	82.62
592.119	82.62
592.329	97.62
592.539	80.62
592.748	99.62
592.958	85.62
593.167	86.62
593.377	81.62
593.587	79.62
593.796	74.62
594.006	68.62
594.215	90.62
594.424	93.62
594.634	86.62
594.843	79.62
595.053	89.62
595.262	74.62
595.472	84.62
595.681	80.62
595.89	83.62
596.1	90.62
596.309	101.62
596.518	82.62
596.727	73.62
596.937	100.62
597.146	69.62
597.355	96.62
597.564	86.62
597.774	93.62
597.983	90.62
598.192	89.62
598.401	85.62
598.61	74.62
598.819	92.62
599.028	92.62
599.237	91.62
599.446	80.62
599.655	79.62
599.864	83.62
600.073	86.62
600.282	94.62
600.491	94.62
600.7	90.62
600.909	89.62
601.118	90.62
601.327	89.62
601.536	83.62
601.745	90.62
601.953	82.62
602.162	98.62
602.371	96.62
602.58	75.62
602.789	94.62
602.997	82.62
603.206	82.62
603.415	73.62
603.623	84.62
603.832	86.62
604.041	86.62
604.249	82.62
604.458	65.62
604.666	92.62
604.875	82.62
605.084	77.62
605.292	74.62
605.501	66.62
605.709	68.62
605.918	81.62
606.126	91.62
606.334	85.62
606.543	88.62
606.751	86.62
606.96	85.62
607.168	95.62
607.376	88.62
607.585	85.62
607.793	94.62
608.001	76.62
608.21	81.62
608.418	81.62
608.626	90.62
608.834	82.62
609.043	88.62
609.251	83.62
609.459	84.62
609.667	87.62
609.875	82.62
610.083	82.62
610.291	77.62
610.499	77.62
610.707	76.62
610.916	85.62
611.124	92.62
611.332	95.62
611.54	80.62
611.748	95.62
611.955	89.62
612.163	90.62
612.371	77.62
612.579	83.62
612.787	83.62
612.995	90.62
613.203	76.62
613.411	84.62
613.618	78.62
613.826	82.62
614.034	86.62
614.242	82.62
614.449	83.62
614.657	80.62
614.865	89.62
615.072	92.62
615.28	99.62
615.488	84.62
615.695	82.62
615.903	94.62
616.111	99.62
616.318	85.62
616.526	96.62
616.733	92.62
616.941	91.62
617.148	92.62
617.356	85.62
617.563	87.62
617.771	85.62
617.978	76.62
618.185	91.62
618.393	73.62
618.6	82.62
618.807	86.62
619.015	94.62
619.222	82.62
619.429	86.62
619.637	72.62
619.844	81.62
620.051	81.62
620.258	81.62
620.466	86.62
620.673	91.62
620.88	84.62
621.087	88.62
621.294	78.62
621.501	81.62
621.708	98.62
621.915	80.62
622.122	95.62
622.329	92.62
622.536	75.62
622.743	83.62
622.95	66.62
623.157	75.62
623.364	70.62
623.571	81.62
623.778	63.62
623.985	79.62
624.192	85.62
624.399	93.62
624.606	81.62
624.812	70.62
625.019	76.62
625.226	81.62
625.433	90.62
625.639	66.62
625.846	64.62
626.053	85.62
626.259	78.62
626.466	100.62
626.673	70.62
626.879	66.62
627.086	80.62
627.293	73.62
627.499	81.62
627.706	83.62
627.912	74.62
628.119	70.62
628.325	100.62
628.532	87.62
628.738	86.62
628.945	89.62
629.151	84.62
629.357	85.62
629.564	87.62
629.77	84.62
629.976	78.62
630.183	89.62
630.389	74.62
630.595	76.62
630.802	78.62
631.008	85.62
631.214	73.62
631.42	89.62
631.627	79.62
631.833	92.62
632.039	79.62
632.245	89.62
632.451	70.62
632.657	87.62
632.863	82.62
633.069	86.62
633.275	83.62
633.481	80.62
633.688	75.62
633.893	83.62
634.099	88.62
634.305	78.62
634.511	84.62
634.717	97.62
634.923	81.62
635.129	87.62
635.335	85.62
635.541	70.62
635.747	90.62
635.952	77.62
636.158	83.62
636.364	92.62
636.57	70.62
636.775	78.62
636.981	63.62
637.187	83.62
637.392	68.62
637.598	72.62
637.804	90.62
638.009	88.62
638.215	83.62
638.421	76.62
638.626	84.62
638.832	78.62
639.037	83.62
639.243	84.62
639.448	78.62
639.654	77.62
639.859	75.62
640.065	80.62
640.27	83.62
640.475	97.62
640.681	77.62
640.886	79.62
641.091	82.62
641.297	85.62
641.502	92.62
641.707	78.62
641.913	77.62
642.118	84.62
642.323	76.62
642.528	86.62
642.733	86.62
642.939	79.62
643.144	77.62
643.349	84.62
643.554	70.62
643.759	82.62
643.964	87.62
644.169	89.62
644.374	81.62
644.579	82.62
644.784	78.62
644.989	83.62
645.194	81.62
645.399	86.62
645.604	88.62
645.809	86.62
646.014	90.62
646.219	94.62
646.423	74.62
646.628	85.62
646.833	92.62
647.038	87.62
647.243	87.62
647.447	96.62
647.652	86.62
647.857	78.62
648.062	87.62
648.266	82.62
648.471	91.62
648.676	97.62
648.88	82.62
649.085	106.62
649.289	76.62
649.494	101.62
649.698	123.62
649.903	107.62
650.107	92.62
650.312	88.62
650.516	61.62
650.721	76.62
650.925	90.62
651.13	90.62
651.334	75.62
651.539	84.62
651.743	73.62
651.947	81.62
652.152	78.62
652.356	81.62
652.56	88.62
652.764	78.62
652.969	76.62
653.173	78.62
653.377	69.62
653.581	76.62
653.785	71.62
653.99	70.62
654.194	83.62
654.398	82.62
654.602	83.62
654.806	74.62
655.01	86.62
655.214	75.62
655.418	66.62
655.622	77.62
655.826	83.62
656.03	86.62
656.234	84.62
656.438	97.62
656.642	96.62
656.846	71.62
657.049	86.62
657.253	79.62
657.457	78.62
657.661	70.62
657.865	70.62
658.068	76.62
658.272	76.62
658.476	83.62
658.68	78.62
658.883	76.62
659.087	66.62
659.291	69.62
659.494	80.62
659.698	91.62
659.901	63.62
660.105	72.62
660.309	79.62
660.512	70.62
660.716	69.62
660.919	75.62
661.123	82.62
661.326	73.62
661.53	84.62
661.733	79.62
661.936	82.62
662.14	79.62
662.343	70.62
662.546	78.62
662.75	60.62
662.953	83.62
663.156	73.62
663.36	78.62
663.563	90.62
663.766	64.62
663.969	83.62
664.173	76.62
664.376	87.62
664.579	80.62
664.782	87.62
664.985	64.62
665.188	68.62
665.391	72.62
665.594	68.62
665.797	70.62
666	75.62
666.203	82.62
666.406	71.62
666.609	71.62
666.812	75.62
667.015	81.62
667.218	70.62
667.421	75.62
667.624	76.62
667.827	92.62
668.03	65.62
668.232	71.62
668.435	87.62
668.638	84.62
668.841	90.62
669.043	76.62
669.246	75.62
669.449	64.62
669.651	83.62
669.854	75.62
670.057	79.62
670.259	66.62
670.462	71.62
670.665	87.62
670.867	86.62
671.07	68.62
671.272	88.62
671.475	81.62
671.677	90.62
671.88	85.62
672.082	70.62
672.284	75.62
672.487	64.62
672.689	85.62
672.892	57.62
