Data from 15780_1_HRD10591_00039.txt Node
Date: Mon Jan 19 14:18:29 EST 2026
User: Yrep
Spectrometer: HR+D1059
Trigger mode: 1
Integration Time (sec): 1.000000E-1
Scans to average: 1
Electric dark correction enabled: true
Nonlinearity correction enabled: false
Boxcar width: 0
XAxis mode: Wavelengths
Number of Pixels in Spectrum: 2048
>>>>>Begin Spectral Data<<<<<
223.165	-18.5
223.4	-18.5
223.635	-18.5
223.869	-31.5
224.104	-18.5
224.338	-13.5
224.573	-0.5
224.808	-23.5
225.042	8.5
225.277	-14.5
225.511	-4.5
225.746	2.5
225.98	-3.5
226.215	18.5
226.449	9.5
226.683	24.5
226.918	29.5
227.152	35.5
227.387	41.5
227.621	36.5
227.856	43.5
228.09	48.5
228.324	62.5
228.559	65.5
228.793	56.5
229.027	67.5
229.262	62.5
229.496	77.5
229.73	67.5
229.964	66.5
230.199	76.5
230.433	76.5
230.667	74.5
230.901	82.5
231.136	76.5
231.37	72.5
231.604	83.5
231.838	90.5
232.072	85.5
232.306	77.5
232.541	82.5
232.775	85.5
233.009	86.5
233.243	71.5
233.477	72.5
233.711	77.5
233.945	92.5
234.179	82.5
234.413	89.5
234.647	83.5
234.881	84.5
235.115	77.5
235.349	78.5
235.583	81.5
235.817	80.5
236.051	77.5
236.285	64.5
236.519	61.5
236.753	77.5
236.987	81.5
237.221	75.5
237.455	72.5
237.689	72.5
237.922	60.5
238.156	82.5
238.39	76.5
238.624	74.5
238.858	81.5
239.091	60.5
239.325	77.5
239.559	82.5
239.793	73.5
240.027	86.5
240.26	72.5
240.494	76.5
240.728	85.5
240.961	62.5
241.195	69.5
241.429	71.5
241.662	57.5
241.896	80.5
242.13	71.5
242.363	72.5
242.597	78.5
242.83	71.5
243.064	76.5
243.298	85.5
243.531	88.5
243.765	82.5
243.998	84.5
244.232	81.5
244.465	89.5
244.699	83.5
244.932	72.5
245.166	68.5
245.399	95.5
245.633	88.5
245.866	63.5
246.099	70.5
246.333	70.5
246.566	69.5
246.8	69.5
247.033	78.5
247.266	68.5
247.5	76.5
247.733	85.5
247.966	80.5
248.2	83.5
248.433	83.5
248.666	74.5
248.899	69.5
249.133	85.5
249.366	82.5
249.599	75.5
249.832	79.5
250.066	82.5
250.299	84.5
250.532	85.5
250.765	72.5
250.998	92.5
251.231	84.5
251.465	86.5
251.698	91.5
251.931	86.5
252.164	87.5
252.397	72.5
252.63	58.5
252.863	79.5
253.096	81.5
253.329	99.5
253.562	83.5
253.795	68.5
254.028	80.5
254.261	70.5
254.494	66.5
254.727	89.5
254.96	90.5
255.193	77.5
255.426	90.5
255.659	64.5
255.892	81.5
256.124	67.5
256.357	95.5
256.59	86.5
256.823	79.5
257.056	90.5
257.289	87.5
257.521	93.5
257.754	70.5
257.987	84.5
258.22	88.5
258.452	62.5
258.685	66.5
258.918	84.5
259.151	100.5
259.383	75.5
259.616	84.5
259.849	89.5
260.081	88.5
260.314	83.5
260.547	75.5
260.779	75.5
261.012	79.5
261.244	91.5
261.477	87.5
261.71	92.5
261.942	78.5
262.175	81.5
262.407	72.5
262.64	82.5
262.872	86.5
263.105	90.5
263.337	72.5
263.57	86.5
263.802	84.5
264.035	67.5
264.267	84.5
264.499	82.5
264.732	93.5
264.964	89.5
265.197	74.5
265.429	83.5
265.661	106.5
265.894	91.5
266.126	82.5
266.358	77.5
266.591	68.5
266.823	72.5
267.055	91.5
267.287	92.5
267.52	83.5
267.752	89.5
267.984	88.5
268.216	86.5
268.448	89.5
268.681	80.5
268.913	75.5
269.145	81.5
269.377	79.5
269.609	82.5
269.841	79.5
270.073	92.5
270.306	98.5
270.538	82.5
270.77	70.5
271.002	81.5
271.234	74.5
271.466	77.5
271.698	81.5
271.93	84.5
272.162	90.5
272.394	89.5
272.626	83.5
272.858	88.5
273.09	83.5
273.322	76.5
273.553	85.5
273.785	84.5
274.017	76.5
274.249	82.5
274.481	89.5
274.713	87.5
274.945	98.5
275.176	84.5
275.408	84.5
275.64	86.5
275.872	80.5
276.104	73.5
276.335	79.5
276.567	68.5
276.799	103.5
277.031	91.5
277.262	80.5
277.494	88.5
277.726	80.5
277.957	90.5
278.189	77.5
278.421	86.5
278.652	78.5
278.884	91.5
279.115	87.5
279.347	87.5
279.579	85.5
279.81	80.5
280.042	88.5
280.273	82.5
280.505	82.5
280.736	98.5
280.968	89.5
281.199	83.5
281.431	78.5
281.662	86.5
281.894	83.5
282.125	81.5
282.356	93.5
282.588	77.5
282.819	78.5
283.051	93.5
283.282	78.5
283.513	103.5
283.745	89.5
283.976	90.5
284.207	84.5
284.439	106.5
284.67	97.5
284.901	82.5
285.132	86.5
285.364	84.5
285.595	86.5
285.826	79.5
286.057	74.5
286.288	94.5
286.52	86.5
286.751	87.5
286.982	79.5
287.213	84.5
287.444	75.5
287.675	76.5
287.906	86.5
288.138	85.5
288.369	92.5
288.6	82.5
288.831	69.5
289.062	82.5
289.293	105.5
289.524	96.5
289.755	90.5
289.986	69.5
290.217	72.5
290.448	80.5
290.679	89.5
290.91	87.5
291.141	93.5
291.371	100.5
291.602	79.5
291.833	88.5
292.064	85.5
292.295	84.5
292.526	92.5
292.757	81.5
292.987	78.5
293.218	90.5
293.449	92.5
293.68	85.5
293.91	90.5
294.141	90.5
294.372	77.5
294.603	87.5
294.833	92.5
295.064	86.5
295.295	90.5
295.525	88.5
295.756	91.5
295.987	86.5
296.217	85.5
296.448	85.5
296.679	82.5
296.909	92.5
297.14	76.5
297.37	76.5
297.601	88.5
297.831	88.5
298.062	98.5
298.292	86.5
298.523	92.5
298.753	88.5
298.984	92.5
299.214	99.5
299.445	99.5
299.675	86.5
299.905	82.5
300.136	108.5
300.366	97.5
300.597	79.5
300.827	77.5
301.057	92.5
301.288	96.5
301.518	74.5
301.748	89.5
301.979	112.5
302.209	107.5
302.439	92.5
302.669	83.5
302.9	85.5
303.13	86.5
303.36	77.5
303.59	88.5
303.82	90.5
304.051	90.5
304.281	101.5
304.511	82.5
304.741	79.5
304.971	81.5
305.201	91.5
305.431	67.5
305.661	101.5
305.891	86.5
306.121	89.5
306.352	85.5
306.582	77.5
306.812	97.5
307.042	100.5
307.272	82.5
307.502	96.5
307.731	89.5
307.961	104.5
308.191	85.5
308.421	87.5
308.651	91.5
308.881	105.5
309.111	103.5
309.341	96.5
309.571	89.5
309.8	86.5
310.03	104.5
310.26	84.5
310.49	78.5
310.72	80.5
310.949	72.5
311.179	84.5
311.409	87.5
311.639	88.5
311.868	89.5
312.098	105.5
312.328	82.5
312.557	98.5
312.787	97.5
313.017	90.5
313.246	88.5
313.476	78.5
313.706	90.5
313.935	87.5
314.165	100.5
314.394	91.5
314.624	83.5
314.853	89.5
315.083	86.5
315.312	86.5
315.542	90.5
315.771	81.5
316.001	108.5
316.23	86.5
316.46	96.5
316.689	83.5
316.919	80.5
317.148	91.5
317.377	86.5
317.607	83.5
317.836	96.5
318.065	108.5
318.295	104.5
318.524	99.5
318.753	94.5
318.983	80.5
319.212	76.5
319.441	81.5
319.67	90.5
319.9	88.5
320.129	91.5
320.358	89.5
320.587	88.5
320.816	79.5
321.046	88.5
321.275	83.5
321.504	92.5
321.733	73.5
321.962	101.5
322.191	84.5
322.42	84.5
322.649	89.5
322.878	94.5
323.108	91.5
323.337	94.5
323.566	92.5
323.795	98.5
324.024	89.5
324.253	100.5
324.482	96.5
324.71	101.5
324.939	99.5
325.168	79.5
325.397	82.5
325.626	76.5
325.855	68.5
326.084	89.5
326.313	86.5
326.542	81.5
326.77	94.5
326.999	84.5
327.228	86.5
327.457	78.5
327.686	97.5
327.914	90.5
328.143	85.5
328.372	90.5
328.6	86.5
328.829	97.5
329.058	68.5
329.287	96.5
329.515	84.5
329.744	82.5
329.972	83.5
330.201	100.5
330.43	81.5
330.658	93.5
330.887	92.5
331.115	91.5
331.344	83.5
331.572	102.5
331.801	80.5
332.03	73.5
332.258	88.5
332.486	69.5
332.715	82.5
332.943	83.5
333.172	96.5
333.4	90.5
333.629	93.5
333.857	73.5
334.085	88.5
334.314	90.5
334.542	93.5
334.771	93.5
334.999	105.5
335.227	93.5
335.455	84.5
335.684	84.5
335.912	92.5
336.14	104.5
336.369	90.5
336.597	95.5
336.825	87.5
337.053	94.5
337.281	99.5
337.51	78.5
337.738	86.5
337.966	86.5
338.194	81.5
338.422	100.5
338.65	73.5
338.878	96.5
339.106	91.5
339.334	90.5
339.562	83.5
339.79	70.5
340.018	93.5
340.246	89.5
340.474	88.5
340.702	78.5
340.93	83.5
341.158	92.5
341.386	78.5
341.614	82.5
341.842	94.5
342.07	77.5
342.298	77.5
342.526	87.5
342.754	75.5
342.981	85.5
343.209	98.5
343.437	91.5
343.665	89.5
343.893	84.5
344.12	93.5
344.348	94.5
344.576	95.5
344.804	77.5
345.031	81.5
345.259	72.5
345.487	84.5
345.714	92.5
345.942	86.5
346.17	81.5
346.397	76.5
346.625	87.5
346.853	96.5
347.08	86.5
347.308	86.5
347.535	78.5
347.763	72.5
347.99	81.5
348.218	83.5
348.445	86.5
348.673	75.5
348.9	84.5
349.128	95.5
349.355	83.5
349.583	96.5
349.81	97.5
350.037	94.5
350.265	83.5
350.492	96.5
350.72	90.5
350.947	80.5
351.174	81.5
351.402	85.5
351.629	93.5
351.856	90.5
352.083	77.5
352.311	89.5
352.538	74.5
352.765	84.5
352.992	96.5
353.22	78.5
353.447	93.5
353.674	97.5
353.901	84.5
354.128	74.5
354.355	84.5
354.583	91.5
354.81	84.5
355.037	85.5
355.264	73.5
355.491	87.5
355.718	98.5
355.945	76.5
356.172	87.5
356.399	89.5
356.626	84.5
356.853	100.5
357.08	99.5
357.307	91.5
357.534	91.5
357.761	100.5
357.988	91.5
358.215	82.5
358.441	96.5
358.668	97.5
358.895	88.5
359.122	67.5
359.349	85.5
359.576	87.5
359.802	79.5
360.029	89.5
360.256	81.5
360.483	84.5
360.709	78.5
360.936	100.5
361.163	96.5
361.39	84.5
361.616	94.5
361.843	97.5
362.07	106.5
362.296	96.5
362.523	89.5
362.749	80.5
362.976	104.5
363.203	106.5
363.429	98.5
363.656	96.5
363.882	91.5
364.109	99.5
364.335	92.5
364.562	109.5
364.788	104.5
365.015	96.5
365.241	94.5
365.468	85.5
365.694	92.5
365.92	93.5
366.147	76.5
366.373	76.5
366.599	90.5
366.826	79.5
367.052	92.5
367.278	90.5
367.505	91.5
367.731	81.5
367.957	79.5
368.184	87.5
368.41	101.5
368.636	90.5
368.862	78.5
369.089	83.5
369.315	92.5
369.541	83.5
369.767	81.5
369.993	79.5
370.219	88.5
370.445	86.5
370.672	97.5
370.898	98.5
371.124	111.5
371.35	72.5
371.576	90.5
371.802	86.5
372.028	105.5
372.254	84.5
372.48	84.5
372.706	79.5
372.932	81.5
373.158	100.5
373.384	105.5
373.61	116.5
373.835	114.5
374.061	98.5
374.287	98.5
374.513	98.5
374.739	101.5
374.965	86.5
375.191	105.5
375.416	92.5
375.642	85.5
375.868	95.5
376.094	90.5
376.319	91.5
376.545	96.5
376.771	76.5
376.997	83.5
377.222	92.5
377.448	92.5
377.674	73.5
377.899	80.5
378.125	72.5
378.35	91.5
378.576	76.5
378.802	72.5
379.027	77.5
379.253	100.5
379.478	92.5
379.704	91.5
379.929	68.5
380.155	89.5
380.38	76.5
380.606	84.5
380.831	92.5
381.057	93.5
381.282	89.5
381.507	90.5
381.733	89.5
381.958	90.5
382.184	105.5
382.409	97.5
382.634	108.5
382.86	106.5
383.085	103.5
383.31	85.5
383.535	108.5
383.761	88.5
383.986	85.5
384.211	94.5
384.436	85.5
384.662	91.5
384.887	81.5
385.112	100.5
385.337	88.5
385.562	88.5
385.787	101.5
386.013	105.5
386.238	101.5
386.463	78.5
386.688	86.5
386.913	97.5
387.138	92.5
387.363	92.5
387.588	102.5
387.813	84.5
388.038	109.5
388.263	102.5
388.488	88.5
388.713	91.5
388.938	89.5
389.163	86.5
389.387	88.5
389.612	82.5
389.837	102.5
390.062	78.5
390.287	94.5
390.512	85.5
390.736	94.5
390.961	78.5
391.186	84.5
391.411	84.5
391.636	86.5
391.86	88.5
392.085	90.5
392.31	81.5
392.534	89.5
392.759	134.5
392.984	181.5
393.208	327.5
393.433	489.5
393.658	372.5
393.882	158.5
394.107	96.5
394.331	126.5
394.556	122.5
394.78	112.5
395.005	115.5
395.229	75.5
395.454	101.5
395.678	93.5
395.903	132.5
396.127	160.5
396.352	183.5
396.576	212.5
396.801	311.5
397.025	386.5
397.249	193.5
397.474	98.5
397.698	102.5
397.922	91.5
398.147	100.5
398.371	101.5
398.595	88.5
398.82	96.5
399.044	84.5
399.268	85.5
399.492	77.5
399.717	89.5
399.941	89.5
400.165	76.5
400.389	79.5
400.613	72.5
400.837	75.5
401.062	87.5
401.286	82.5
401.51	90.5
401.734	70.5
401.958	90.5
402.182	86.5
402.406	92.5
402.63	76.5
402.854	73.5
403.078	85.5
403.302	73.5
403.526	84.5
403.75	83.5
403.974	87.5
404.198	114.5
404.422	144.5
404.645	145.5
404.869	122.5
405.093	114.5
405.317	82.5
405.541	94.5
405.765	98.5
405.988	94.5
406.212	98.5
406.436	88.5
406.66	71.5
406.883	104.5
407.107	85.5
407.331	85.5
407.555	104.5
407.778	107.5
408.002	102.5
408.226	93.5
408.449	78.5
408.673	88.5
408.896	90.5
409.12	102.5
409.344	84.5
409.567	105.5
409.791	96.5
410.014	105.5
410.238	84.5
410.461	77.5
410.685	97.5
410.908	104.5
411.132	81.5
411.355	75.5
411.578	98.5
411.802	73.5
412.025	74.5
412.249	74.5
412.472	78.5
412.695	86.5
412.919	98.5
413.142	89.5
413.365	86.5
413.589	81.5
413.812	84.5
414.035	86.5
414.258	91.5
414.482	69.5
414.705	81.5
414.928	84.5
415.151	83.5
415.374	89.5
415.597	93.5
415.821	83.5
416.044	88.5
416.267	81.5
416.49	83.5
416.713	95.5
416.936	83.5
417.159	73.5
417.382	77.5
417.605	88.5
417.828	88.5
418.051	91.5
418.274	84.5
418.497	89.5
418.72	93.5
418.943	79.5
419.166	73.5
419.389	87.5
419.611	84.5
419.834	92.5
420.057	90.5
420.28	96.5
420.503	83.5
420.726	92.5
420.948	85.5
421.171	86.5
421.394	94.5
421.617	105.5
421.839	112.5
422.062	109.5
422.285	142.5
422.507	251.5
422.73	438.5
422.953	401.5
423.175	158.5
423.398	114.5
423.621	97.5
423.843	88.5
424.066	88.5
424.288	97.5
424.511	82.5
424.733	81.5
424.956	90.5
425.178	85.5
425.401	84.5
425.623	76.5
425.846	84.5
426.068	85.5
426.291	87.5
426.513	93.5
426.735	88.5
426.958	85.5
427.18	100.5
427.402	84.5
427.625	94.5
427.847	94.5
428.069	88.5
428.292	121.5
428.514	146.5
428.736	104.5
428.958	143.5
429.181	122.5
429.403	101.5
429.625	110.5
429.847	130.5
430.069	192.5
430.292	199.5
430.514	180.5
430.736	128.5
430.958	148.5
431.18	98.5
431.402	87.5
431.624	97.5
431.846	122.5
432.068	146.5
432.29	105.5
432.512	100.5
432.734	92.5
432.956	90.5
433.178	76.5
433.4	86.5
433.622	83.5
433.844	100.5
434.066	89.5
434.287	78.5
434.509	84.5
434.731	89.5
434.953	84.5
435.175	94.5
435.397	81.5
435.618	86.5
435.84	94.5
436.062	89.5
436.284	72.5
436.505	84.5
436.727	89.5
436.949	84.5
437.17	82.5
437.392	86.5
437.614	92.5
437.835	84.5
438.057	94.5
438.278	88.5
438.5	83.5
438.721	86.5
438.943	92.5
439.165	84.5
439.386	98.5
439.608	81.5
439.829	74.5
440.05	68.5
440.272	93.5
440.493	92.5
440.715	95.5
440.936	94.5
441.158	88.5
441.379	81.5
441.6	80.5
441.822	82.5
442.043	92.5
442.264	96.5
442.486	121.5
442.707	166.5
442.928	123.5
443.149	100.5
443.371	155.5
443.592	232.5
443.813	205.5
444.034	107.5
444.255	100.5
444.476	84.5
444.698	94.5
444.919	94.5
445.14	188.5
445.361	210.5
445.582	304.5
445.803	249.5
446.024	117.5
446.245	92.5
446.466	72.5
446.687	89.5
446.908	76.5
447.129	88.5
447.35	71.5
447.571	90.5
447.792	78.5
448.013	77.5
448.234	90.5
448.455	84.5
448.675	84.5
448.896	79.5
449.117	75.5
449.338	80.5
449.559	72.5
449.779	89.5
450	84.5
450.221	93.5
450.442	82.5
450.662	82.5
450.883	89.5
451.104	82.5
451.324	71.5
451.545	84.5
451.766	94.5
451.986	82.5
452.207	93.5
452.428	85.5
452.648	90.5
452.869	96.5
453.089	74.5
453.31	88.5
453.53	91.5
453.751	85.5
453.971	89.5
454.192	75.5
454.412	84.5
454.633	93.5
454.853	98.5
455.073	89.5
455.294	87.5
455.514	86.5
455.734	90.5
455.955	76.5
456.175	94.5
456.395	105.5
456.616	81.5
456.836	84.5
457.056	78.5
457.276	82.5
457.497	81.5
457.717	88.5
457.937	107.5
458.157	99.5
458.377	107.5
458.598	103.5
458.818	114.5
459.038	104.5
459.258	84.5
459.478	81.5
459.698	88.5
459.918	91.5
460.138	81.5
460.358	84.5
460.578	98.5
460.798	120.5
461.018	108.5
461.238	90.5
461.458	78.5
461.678	92.5
461.898	80.5
462.118	90.5
462.338	81.5
462.558	65.5
462.777	85.5
462.997	74.5
463.217	90.5
463.437	84.5
463.657	108.5
463.876	86.5
464.096	85.5
464.316	75.5
464.536	68.5
464.755	84.5
464.975	89.5
465.195	85.5
465.414	79.5
465.634	79.5
465.854	68.5
466.073	82.5
466.293	86.5
466.512	82.5
466.732	87.5
466.951	96.5
467.171	73.5
467.391	86.5
467.61	86.5
467.829	88.5
468.049	70.5
468.268	67.5
468.488	93.5
468.707	82.5
468.927	89.5
469.146	64.5
469.365	93.5
469.585	101.5
469.804	87.5
470.023	87.5
470.243	72.5
470.462	86.5
470.681	79.5
470.901	88.5
471.12	89.5
471.339	90.5
471.558	81.5
471.777	85.5
471.997	92.5
472.216	85.5
472.435	88.5
472.654	92.5
472.873	90.5
473.092	86.5
473.311	99.5
473.53	83.5
473.749	83.5
473.968	85.5
474.187	82.5
474.406	92.5
474.625	96.5
474.844	83.5
475.063	84.5
475.282	78.5
475.501	83.5
475.72	77.5
475.939	93.5
476.158	83.5
476.377	75.5
476.596	97.5
476.814	106.5
477.033	90.5
477.252	90.5
477.471	74.5
477.69	73.5
477.908	93.5
478.127	78.5
478.346	92.5
478.564	82.5
478.783	89.5
479.002	78.5
479.22	77.5
479.439	82.5
479.658	92.5
479.876	95.5
480.095	81.5
480.313	72.5
480.532	88.5
480.751	92.5
480.969	94.5
481.188	94.5
481.406	84.5
481.624	72.5
481.843	79.5
482.061	78.5
482.28	94.5
482.498	81.5
482.717	84.5
482.935	87.5
483.153	91.5
483.372	93.5
483.59	87.5
483.808	78.5
484.027	92.5
484.245	82.5
484.463	90.5
484.681	94.5
484.9	81.5
485.118	86.5
485.336	99.5
485.554	90.5
485.772	86.5
485.99	86.5
486.209	85.5
486.427	91.5
486.645	94.5
486.863	70.5
487.081	101.5
487.299	92.5
487.517	64.5
487.735	101.5
487.953	152.5
488.171	133.5
488.389	94.5
488.607	91.5
488.825	92.5
489.043	94.5
489.261	95.5
489.479	84.5
489.696	80.5
489.914	84.5
490.132	93.5
490.35	91.5
490.568	76.5
490.786	83.5
491.003	80.5
491.221	83.5
491.439	86.5
491.657	73.5
491.874	73.5
492.092	86.5
492.31	93.5
492.527	98.5
492.745	92.5
492.963	88.5
493.18	92.5
493.398	102.5
493.615	101.5
493.833	82.5
494.05	88.5
494.268	87.5
494.485	93.5
494.703	84.5
494.92	86.5
495.138	78.5
495.355	78.5
495.573	90.5
495.79	96.5
496.008	115.5
496.225	86.5
496.442	96.5
496.66	89.5
496.877	98.5
497.094	72.5
497.312	92.5
497.529	92.5
497.746	88.5
497.963	80.5
498.181	97.5
498.398	100.5
498.615	84.5
498.832	97.5
499.049	102.5
499.267	107.5
499.484	90.5
499.701	83.5
499.918	97.5
500.135	101.5
500.352	92.5
500.569	87.5
500.786	105.5
501.003	85.5
501.22	89.5
501.437	91.5
501.654	81.5
501.871	87.5
502.088	90.5
502.305	96.5
502.522	96.5
502.739	83.5
502.956	77.5
503.172	84.5
503.389	80.5
503.606	78.5
503.823	92.5
504.04	100.5
504.256	125.5
504.473	105.5
504.69	103.5
504.907	81.5
505.123	106.5
505.34	90.5
505.557	87.5
505.773	93.5
505.99	92.5
506.207	88.5
506.423	86.5
506.64	78.5
506.856	87.5
507.073	82.5
507.289	92.5
507.506	91.5
507.722	89.5
507.939	98.5
508.155	99.5
508.372	87.5
508.588	75.5
508.805	78.5
509.021	78.5
509.238	85.5
509.454	91.5
509.67	91.5
509.887	78.5
510.103	82.5
510.319	87.5
510.536	92.5
510.752	74.5
510.968	81.5
511.184	98.5
511.401	75.5
511.617	100.5
511.833	78.5
512.049	106.5
512.265	87.5
512.481	101.5
512.698	83.5
512.914	89.5
513.13	82.5
513.346	91.5
513.562	89.5
513.778	87.5
513.994	88.5
514.21	72.5
514.426	74.5
514.642	88.5
514.858	98.5
515.074	88.5
515.29	86.5
515.506	88.5
515.721	69.5
515.937	86.5
516.153	84.5
516.369	91.5
516.585	91.5
516.801	94.5
517.016	86.5
517.232	85.5
517.448	106.5
517.664	102.5
517.879	93.5
518.095	86.5
518.311	96.5
518.527	106.5
518.742	109.5
518.958	117.5
519.173	150.5
519.389	96.5
519.605	90.5
519.82	90.5
520.036	72.5
520.251	92.5
520.467	96.5
520.682	84.5
520.898	83.5
521.113	100.5
521.329	89.5
521.544	78.5
521.76	84.5
521.975	96.5
522.19	89.5
522.406	109.5
522.621	84.5
522.836	93.5
523.052	85.5
523.267	97.5
523.482	89.5
523.698	88.5
523.913	78.5
524.128	90.5
524.343	92.5
524.559	84.5
524.774	95.5
524.989	86.5
525.204	92.5
525.419	93.5
525.634	89.5
525.849	98.5
526.064	117.5
526.28	173.5
526.495	235.5
526.71	269.5
526.925	198.5
527.14	268.5
527.355	218.5
527.57	114.5
527.785	110.5
527.999	91.5
528.214	94.5
528.429	81.5
528.644	74.5
528.859	88.5
529.074	87.5
529.289	88.5
529.503	79.5
529.718	107.5
529.933	80.5
530.148	79.5
530.363	89.5
530.577	89.5
530.792	89.5
531.007	93.5
531.221	90.5
531.436	90.5
531.651	89.5
531.865	98.5
532.08	76.5
532.295	94.5
532.509	95.5
532.724	92.5
532.938	98.5
533.153	85.5
533.367	94.5
533.582	91.5
533.796	86.5
534.011	94.5
534.225	102.5
534.44	108.5
534.654	93.5
534.868	103.5
535.083	139.5
535.297	118.5
535.511	91.5
535.726	88.5
535.94	74.5
536.154	78.5
536.369	97.5
536.583	96.5
536.797	96.5
537.011	82.5
537.225	88.5
537.44	89.5
537.654	98.5
537.868	92.5
538.082	88.5
538.296	85.5
538.51	90.5
538.724	93.5
538.938	91.5
539.153	90.5
539.367	92.5
539.581	93.5
539.795	106.5
540.009	90.5
540.222	83.5
540.436	88.5
540.65	96.5
540.864	84.5
541.078	102.5
541.292	86.5
541.506	81.5
541.72	84.5
541.934	87.5
542.147	97.5
542.361	93.5
542.575	97.5
542.789	82.5
543.002	86.5
543.216	100.5
543.43	78.5
543.644	102.5
543.857	95.5
544.071	91.5
544.285	99.5
544.498	89.5
544.712	104.5
544.925	91.5
545.139	83.5
545.352	101.5
545.566	90.5
545.779	100.5
545.993	88.5
546.206	92.5
546.42	96.5
546.633	97.5
546.847	95.5
547.06	106.5
547.274	116.5
547.487	121.5
547.7	123.5
547.914	124.5
548.127	121.5
548.34	116.5
548.554	99.5
548.767	112.5
548.98	110.5
549.193	128.5
549.407	108.5
549.62	106.5
549.833	118.5
550.046	137.5
550.259	129.5
550.473	121.5
550.686	128.5
550.899	136.5
551.112	123.5
551.325	140.5
551.538	178.5
551.751	156.5
551.964	140.5
552.177	142.5
552.39	134.5
552.603	121.5
552.816	124.5
553.029	124.5
553.242	136.5
553.455	141.5
553.667	140.5
553.88	150.5
554.093	149.5
554.306	143.5
554.519	132.5
554.732	126.5
554.944	127.5
555.157	122.5
555.37	134.5
555.583	141.5
555.795	130.5
556.008	115.5
556.221	116.5
556.433	120.5
556.646	108.5
556.859	114.5
557.071	109.5
557.284	114.5
557.496	105.5
557.709	119.5
557.921	109.5
558.134	124.5
558.346	135.5
558.559	124.5
558.771	126.5
558.984	293.5
559.196	344.5
559.409	182.5
559.621	275.5
559.833	210.5
560.046	242.5
560.258	194.5
560.47	183.5
560.683	116.5
560.895	107.5
561.107	89.5
561.32	79.5
561.532	99.5
561.744	98.5
561.956	103.5
562.168	90.5
562.381	85.5
562.593	93.5
562.805	79.5
563.017	78.5
563.229	101.5
563.441	98.5
563.653	78.5
563.865	90.5
564.077	77.5
564.289	77.5
564.501	91.5
564.713	96.5
564.925	76.5
565.137	82.5
565.349	96.5
565.561	96.5
565.773	82.5
565.985	95.5
566.197	76.5
566.408	89.5
566.62	85.5
566.832	99.5
567.044	82.5
567.255	78.5
567.467	77.5
567.679	88.5
567.891	102.5
568.102	94.5
568.314	73.5
568.526	102.5
568.737	106.5
568.949	97.5
569.161	109.5
569.372	102.5
569.584	94.5
569.795	93.5
570.007	95.5
570.218	96.5
570.43	92.5
570.641	92.5
570.853	96.5
571.064	92.5
571.276	89.5
571.487	87.5
571.698	76.5
571.91	84.5
572.121	84.5
572.333	82.5
572.544	93.5
572.755	88.5
572.966	79.5
573.178	87.5
573.389	85.5
573.6	84.5
573.811	98.5
574.023	68.5
574.234	84.5
574.445	105.5
574.656	96.5
574.867	79.5
575.078	83.5
575.289	86.5
575.501	98.5
575.712	86.5
575.923	75.5
576.134	79.5
576.345	92.5
576.556	104.5
576.767	95.5
576.978	94.5
577.188	108.5
577.399	92.5
577.61	81.5
577.821	104.5
578.032	93.5
578.243	85.5
578.454	109.5
578.665	101.5
578.875	97.5
579.086	91.5
579.297	81.5
579.508	87.5
579.718	89.5
579.929	100.5
580.14	96.5
580.35	100.5
580.561	107.5
580.772	104.5
580.982	113.5
581.193	104.5
581.403	74.5
581.614	77.5
581.825	95.5
582.035	89.5
582.246	85.5
582.456	86.5
582.667	88.5
582.877	81.5
583.087	95.5
583.298	82.5
583.508	85.5
583.719	97.5
583.929	93.5
584.139	102.5
584.35	84.5
584.56	103.5
584.77	98.5
584.981	86.5
585.191	89.5
585.401	84.5
585.611	108.5
585.821	138.5
586.032	207.5
586.242	117.5
586.452	94.5
586.662	102.5
586.872	91.5
587.082	96.5
587.292	105.5
587.502	72.5
587.713	100.5
587.923	91.5
588.133	105.5
588.343	112.5
588.553	104.5
588.762	143.5
588.972	245.5
589.182	642.5
589.392	436.5
589.602	284.5
589.812	560.5
590.022	276.5
590.232	131.5
590.441	107.5
590.651	109.5
590.861	98.5
591.071	95.5
591.281	79.5
591.49	88.5
591.7	92.5
591.91	99.5
592.119	92.5
592.329	98.5
592.539	103.5
592.748	106.5
592.958	109.5
593.167	110.5
593.377	82.5
593.587	104.5
593.796	94.5
594.006	103.5
594.215	110.5
594.424	93.5
594.634	92.5
594.843	102.5
595.053	83.5
595.262	103.5
595.472	103.5
595.681	108.5
595.89	102.5
596.1	106.5
596.309	114.5
596.518	114.5
596.727	105.5
596.937	112.5
597.146	130.5
597.355	122.5
597.564	121.5
597.774	108.5
597.983	112.5
598.192	112.5
598.401	116.5
598.61	125.5
598.819	104.5
599.028	113.5
599.237	110.5
599.446	118.5
599.655	109.5
599.864	114.5
600.073	110.5
600.282	117.5
600.491	99.5
600.7	118.5
600.909	109.5
601.118	114.5
601.327	103.5
601.536	109.5
601.745	107.5
601.953	107.5
602.162	100.5
602.371	120.5
602.58	106.5
602.789	112.5
602.997	108.5
603.206	101.5
603.415	100.5
603.623	114.5
603.832	119.5
604.041	107.5
604.249	112.5
604.458	125.5
604.666	112.5
604.875	118.5
605.084	128.5
605.292	125.5
605.501	143.5
605.709	121.5
605.918	123.5
606.126	125.5
606.334	123.5
606.543	128.5
606.751	120.5
606.96	131.5
607.168	135.5
607.376	119.5
607.585	117.5
607.793	120.5
608.001	126.5
608.21	128.5
608.418	117.5
608.626	134.5
608.834	136.5
609.043	123.5
609.251	147.5
609.459	132.5
609.667	148.5
609.875	134.5
610.083	134.5
610.291	141.5
610.499	209.5
610.707	147.5
610.916	130.5
611.124	124.5
611.332	129.5
611.54	142.5
611.748	132.5
611.955	130.5
612.163	145.5
612.371	273.5
612.579	247.5
612.787	159.5
612.995	142.5
613.203	137.5
613.411	143.5
613.618	127.5
613.826	132.5
614.034	138.5
614.242	140.5
614.449	134.5
614.657	134.5
614.865	120.5
615.072	142.5
615.28	126.5
615.488	133.5
615.695	130.5
615.903	132.5
616.111	153.5
616.318	285.5
616.526	341.5
616.733	198.5
616.941	168.5
617.148	214.5
617.356	164.5
617.563	137.5
617.771	127.5
617.978	120.5
618.185	127.5
618.393	125.5
618.6	116.5
618.807	118.5
619.015	124.5
619.222	108.5
619.429	136.5
619.637	117.5
619.844	116.5
620.051	119.5
620.258	117.5
620.466	115.5
620.673	124.5
620.88	117.5
621.087	126.5
621.294	127.5
621.501	106.5
621.708	122.5
621.915	114.5
622.122	115.5
622.329	126.5
622.536	138.5
622.743	120.5
622.95	116.5
623.157	119.5
623.364	116.5
623.571	122.5
623.778	107.5
623.985	128.5
624.192	117.5
624.399	122.5
624.606	136.5
624.812	122.5
625.019	138.5
625.226	146.5
625.433	131.5
625.639	128.5
625.846	121.5
626.053	112.5
626.259	119.5
626.466	126.5
626.673	124.5
626.879	120.5
627.086	119.5
627.293	121.5
627.499	126.5
627.706	122.5
627.912	105.5
628.119	98.5
628.325	108.5
628.532	102.5
628.738	106.5
628.945	88.5
629.151	84.5
629.357	95.5
629.564	93.5
629.77	88.5
629.976	101.5
630.183	85.5
630.389	91.5
630.595	105.5
630.802	84.5
631.008	77.5
631.214	92.5
631.42	82.5
631.627	97.5
631.833	91.5
632.039	86.5
632.245	85.5
632.451	92.5
632.657	96.5
632.863	94.5
633.069	88.5
633.275	90.5
633.481	84.5
633.688	89.5
633.893	102.5
634.099	94.5
634.305	99.5
634.511	93.5
634.717	92.5
634.923	113.5
635.129	84.5
635.335	91.5
635.541	100.5
635.747	83.5
635.952	93.5
636.158	96.5
636.364	79.5
636.57	88.5
636.775	100.5
636.981	86.5
637.187	85.5
637.392	90.5
637.598	102.5
637.804	86.5
638.009	96.5
638.215	90.5
638.421	78.5
638.626	85.5
638.832	84.5
639.037	85.5
639.243	95.5
639.448	84.5
639.654	91.5
639.859	93.5
640.065	97.5
640.27	104.5
640.475	95.5
640.681	90.5
640.886	89.5
641.091	92.5
641.297	81.5
641.502	85.5
641.707	95.5
641.913	86.5
642.118	81.5
642.323	81.5
642.528	87.5
642.733	95.5
642.939	107.5
643.144	71.5
643.349	91.5
643.554	94.5
643.759	89.5
643.964	114.5
644.169	193.5
644.374	104.5
644.579	99.5
644.784	87.5
644.989	84.5
645.194	114.5
645.399	105.5
645.604	87.5
645.809	89.5
646.014	83.5
646.219	101.5
646.423	172.5
646.628	131.5
646.833	88.5
647.038	94.5
647.243	97.5
647.447	98.5
647.652	87.5
647.857	84.5
648.062	71.5
648.266	85.5
648.471	76.5
648.676	96.5
648.88	94.5
649.085	86.5
649.289	86.5
649.494	105.5
649.698	108.5
649.903	95.5
650.107	104.5
650.312	88.5
650.516	88.5
650.721	78.5
650.925	100.5
651.13	86.5
651.334	94.5
651.539	75.5
651.743	67.5
651.947	90.5
652.152	91.5
652.356	71.5
652.56	82.5
652.764	96.5
652.969	87.5
653.173	70.5
653.377	75.5
653.581	91.5
653.785	62.5
653.99	88.5
654.194	76.5
654.398	62.5
654.602	85.5
654.806	78.5
655.01	82.5
655.214	89.5
655.418	80.5
655.622	79.5
655.826	75.5
656.03	65.5
656.234	79.5
656.438	74.5
656.642	80.5
656.846	75.5
657.049	75.5
657.253	84.5
657.457	80.5
657.661	84.5
657.865	105.5
658.068	82.5
658.272	74.5
658.476	88.5
658.68	87.5
658.883	73.5
659.087	73.5
659.291	84.5
659.494	74.5
659.698	84.5
659.901	76.5
660.105	68.5
660.309	81.5
660.512	84.5
660.716	82.5
660.919	85.5
661.123	82.5
661.326	79.5
661.53	76.5
661.733	89.5
661.936	88.5
662.14	72.5
662.343	80.5
662.546	89.5
662.75	82.5
662.953	81.5
663.156	84.5
663.36	88.5
663.563	81.5
663.766	84.5
663.969	83.5
664.173	96.5
664.376	77.5
664.579	81.5
664.782	85.5
664.985	89.5
665.188	72.5
665.391	79.5
665.594	85.5
665.797	88.5
666	90.5
666.203	66.5
666.406	71.5
666.609	76.5
666.812	77.5
667.015	87.5
667.218	94.5
667.421	68.5
667.624	92.5
667.827	76.5
668.03	74.5
668.232	77.5
668.435	64.5
668.638	84.5
668.841	88.5
669.043	79.5
669.246	84.5
669.449	79.5
669.651	93.5
669.854	92.5
670.057	77.5
670.259	82.5
670.462	85.5
670.665	77.5
670.867	74.5
671.07	75.5
671.272	84.5
671.475	87.5
671.677	80.5
671.88	83.5
672.082	77.5
672.284	68.5
672.487	74.5
672.689	72.5
672.892	85.5
