Data from 15780_1_HRD10591_00049.txt Node
Date: Mon Jan 19 14:18:34 EST 2026
User: Yrep
Spectrometer: HR+D1059
Trigger mode: 1
Integration Time (sec): 1.000000E-1
Scans to average: 1
Electric dark correction enabled: true
Nonlinearity correction enabled: false
Boxcar width: 0
XAxis mode: Wavelengths
Number of Pixels in Spectrum: 2048
>>>>>Begin Spectral Data<<<<<
223.165	-14.94
223.4	-14.94
223.635	-14.94
223.869	-14.94
224.104	1.06
224.338	-5.94
224.573	-24.94
224.808	-6.94
225.042	-4.94
225.277	-12.94
225.511	-3.94
225.746	-5.94
225.98	5.06
226.215	-1.94
226.449	9.06
226.683	26.06
226.918	20.06
227.152	36.06
227.387	39.06
227.621	36.06
227.856	54.06
228.09	50.06
228.324	53.06
228.559	53.06
228.793	77.06
229.027	69.06
229.262	62.06
229.496	69.06
229.73	83.06
229.964	84.06
230.199	65.06
230.433	57.06
230.667	81.06
230.901	83.06
231.136	70.06
231.37	75.06
231.604	85.06
231.838	78.06
232.072	85.06
232.306	91.06
232.541	69.06
232.775	83.06
233.009	93.06
233.243	70.06
233.477	87.06
233.711	87.06
233.945	87.06
234.179	84.06
234.413	92.06
234.647	78.06
234.881	79.06
235.115	76.06
235.349	78.06
235.583	74.06
235.817	68.06
236.051	87.06
236.285	76.06
236.519	75.06
236.753	84.06
236.987	80.06
237.221	91.06
237.455	61.06
237.689	84.06
237.922	76.06
238.156	81.06
238.39	62.06
238.624	59.06
238.858	87.06
239.091	74.06
239.325	88.06
239.559	75.06
239.793	79.06
240.027	79.06
240.26	70.06
240.494	76.06
240.728	72.06
240.961	85.06
241.195	71.06
241.429	75.06
241.662	81.06
241.896	95.06
242.13	79.06
242.363	68.06
242.597	77.06
242.83	81.06
243.064	90.06
243.298	83.06
243.531	80.06
243.765	77.06
243.998	79.06
244.232	79.06
244.465	80.06
244.699	70.06
244.932	77.06
245.166	68.06
245.399	82.06
245.633	88.06
245.866	89.06
246.099	71.06
246.333	68.06
246.566	82.06
246.8	65.06
247.033	86.06
247.266	85.06
247.5	75.06
247.733	83.06
247.966	78.06
248.2	81.06
248.433	91.06
248.666	74.06
248.899	77.06
249.133	83.06
249.366	83.06
249.599	66.06
249.832	78.06
250.066	73.06
250.299	59.06
250.532	83.06
250.765	91.06
250.998	75.06
251.231	70.06
251.465	84.06
251.698	72.06
251.931	80.06
252.164	85.06
252.397	80.06
252.63	86.06
252.863	78.06
253.096	71.06
253.329	96.06
253.562	80.06
253.795	83.06
254.028	80.06
254.261	80.06
254.494	82.06
254.727	78.06
254.96	80.06
255.193	85.06
255.426	87.06
255.659	93.06
255.892	78.06
256.124	91.06
256.357	73.06
256.59	77.06
256.823	77.06
257.056	77.06
257.289	83.06
257.521	76.06
257.754	88.06
257.987	96.06
258.22	86.06
258.452	74.06
258.685	82.06
258.918	88.06
259.151	79.06
259.383	66.06
259.616	84.06
259.849	81.06
260.081	87.06
260.314	83.06
260.547	64.06
260.779	80.06
261.012	78.06
261.244	89.06
261.477	98.06
261.71	81.06
261.942	76.06
262.175	78.06
262.407	82.06
262.64	71.06
262.872	73.06
263.105	70.06
263.337	76.06
263.57	83.06
263.802	79.06
264.035	77.06
264.267	78.06
264.499	77.06
264.732	84.06
264.964	91.06
265.197	86.06
265.429	72.06
265.661	84.06
265.894	87.06
266.126	85.06
266.358	84.06
266.591	78.06
266.823	83.06
267.055	77.06
267.287	77.06
267.52	66.06
267.752	86.06
267.984	79.06
268.216	93.06
268.448	79.06
268.681	73.06
268.913	89.06
269.145	88.06
269.377	93.06
269.609	84.06
269.841	79.06
270.073	77.06
270.306	69.06
270.538	94.06
270.77	74.06
271.002	75.06
271.234	78.06
271.466	86.06
271.698	78.06
271.93	70.06
272.162	92.06
272.394	93.06
272.626	82.06
272.858	98.06
273.09	93.06
273.322	84.06
273.553	99.06
273.785	93.06
274.017	73.06
274.249	73.06
274.481	85.06
274.713	100.06
274.945	94.06
275.176	90.06
275.408	87.06
275.64	88.06
275.872	80.06
276.104	91.06
276.335	85.06
276.567	95.06
276.799	92.06
277.031	75.06
277.262	86.06
277.494	88.06
277.726	83.06
277.957	87.06
278.189	85.06
278.421	90.06
278.652	93.06
278.884	88.06
279.115	107.06
279.347	83.06
279.579	80.06
279.81	84.06
280.042	94.06
280.273	76.06
280.505	90.06
280.736	87.06
280.968	84.06
281.199	95.06
281.431	80.06
281.662	87.06
281.894	73.06
282.125	77.06
282.356	77.06
282.588	76.06
282.819	91.06
283.051	77.06
283.282	73.06
283.513	93.06
283.745	86.06
283.976	84.06
284.207	91.06
284.439	86.06
284.67	86.06
284.901	76.06
285.132	86.06
285.364	89.06
285.595	89.06
285.826	91.06
286.057	87.06
286.288	86.06
286.52	95.06
286.751	80.06
286.982	97.06
287.213	76.06
287.444	88.06
287.675	97.06
287.906	91.06
288.138	62.06
288.369	90.06
288.6	77.06
288.831	73.06
289.062	83.06
289.293	76.06
289.524	95.06
289.755	93.06
289.986	82.06
290.217	90.06
290.448	88.06
290.679	78.06
290.91	81.06
291.141	64.06
291.371	80.06
291.602	92.06
291.833	87.06
292.064	92.06
292.295	77.06
292.526	95.06
292.757	82.06
292.987	87.06
293.218	93.06
293.449	91.06
293.68	75.06
293.91	66.06
294.141	82.06
294.372	91.06
294.603	85.06
294.833	84.06
295.064	78.06
295.295	80.06
295.525	91.06
295.756	83.06
295.987	87.06
296.217	98.06
296.448	86.06
296.679	80.06
296.909	87.06
297.14	86.06
297.37	79.06
297.601	100.06
297.831	73.06
298.062	95.06
298.292	92.06
298.523	79.06
298.753	80.06
298.984	84.06
299.214	57.06
299.445	85.06
299.675	90.06
299.905	86.06
300.136	83.06
300.366	80.06
300.597	83.06
300.827	90.06
301.057	90.06
301.288	98.06
301.518	92.06
301.748	92.06
301.979	95.06
302.209	101.06
302.439	96.06
302.669	74.06
302.9	80.06
303.13	85.06
303.36	93.06
303.59	94.06
303.82	80.06
304.051	79.06
304.281	103.06
304.511	94.06
304.741	90.06
304.971	95.06
305.201	84.06
305.431	85.06
305.661	82.06
305.891	86.06
306.121	83.06
306.352	99.06
306.582	99.06
306.812	76.06
307.042	81.06
307.272	77.06
307.502	73.06
307.731	92.06
307.961	83.06
308.191	78.06
308.421	106.06
308.651	72.06
308.881	79.06
309.111	78.06
309.341	103.06
309.571	97.06
309.8	79.06
310.03	82.06
310.26	75.06
310.49	102.06
310.72	71.06
310.949	78.06
311.179	81.06
311.409	83.06
311.639	80.06
311.868	97.06
312.098	79.06
312.328	87.06
312.557	83.06
312.787	82.06
313.017	87.06
313.246	76.06
313.476	85.06
313.706	77.06
313.935	80.06
314.165	77.06
314.394	78.06
314.624	91.06
314.853	86.06
315.083	72.06
315.312	91.06
315.542	86.06
315.771	95.06
316.001	93.06
316.23	97.06
316.46	92.06
316.689	90.06
316.919	100.06
317.148	90.06
317.377	97.06
317.607	106.06
317.836	94.06
318.065	101.06
318.295	101.06
318.524	85.06
318.753	88.06
318.983	85.06
319.212	87.06
319.441	86.06
319.67	90.06
319.9	105.06
320.129	91.06
320.358	85.06
320.587	82.06
320.816	86.06
321.046	93.06
321.275	86.06
321.504	80.06
321.733	85.06
321.962	90.06
322.191	83.06
322.42	76.06
322.649	90.06
322.878	85.06
323.108	89.06
323.337	94.06
323.566	85.06
323.795	89.06
324.024	102.06
324.253	73.06
324.482	89.06
324.71	95.06
324.939	77.06
325.168	97.06
325.397	93.06
325.626	98.06
325.855	86.06
326.084	86.06
326.313	85.06
326.542	86.06
326.77	97.06
326.999	85.06
327.228	84.06
327.457	92.06
327.686	93.06
327.914	82.06
328.143	93.06
328.372	86.06
328.6	80.06
328.829	80.06
329.058	82.06
329.287	70.06
329.515	73.06
329.744	93.06
329.972	99.06
330.201	97.06
330.43	86.06
330.658	77.06
330.887	85.06
331.115	85.06
331.344	88.06
331.572	89.06
331.801	86.06
332.03	90.06
332.258	97.06
332.486	73.06
332.715	100.06
332.943	98.06
333.172	90.06
333.4	79.06
333.629	97.06
333.857	91.06
334.085	87.06
334.314	91.06
334.542	87.06
334.771	100.06
334.999	93.06
335.227	97.06
335.455	82.06
335.684	89.06
335.912	101.06
336.14	87.06
336.369	106.06
336.597	85.06
336.825	85.06
337.053	83.06
337.281	84.06
337.51	73.06
337.738	99.06
337.966	85.06
338.194	76.06
338.422	85.06
338.65	89.06
338.878	78.06
339.106	83.06
339.334	82.06
339.562	104.06
339.79	88.06
340.018	89.06
340.246	84.06
340.474	86.06
340.702	97.06
340.93	91.06
341.158	88.06
341.386	91.06
341.614	79.06
341.842	84.06
342.07	85.06
342.298	83.06
342.526	99.06
342.754	81.06
342.981	73.06
343.209	82.06
343.437	95.06
343.665	78.06
343.893	85.06
344.12	102.06
344.348	87.06
344.576	89.06
344.804	76.06
345.031	96.06
345.259	87.06
345.487	88.06
345.714	84.06
345.942	78.06
346.17	78.06
346.397	74.06
346.625	97.06
346.853	73.06
347.08	73.06
347.308	76.06
347.535	90.06
347.763	81.06
347.99	85.06
348.218	81.06
348.445	101.06
348.673	82.06
348.9	101.06
349.128	84.06
349.355	79.06
349.583	89.06
349.81	76.06
350.037	83.06
350.265	99.06
350.492	65.06
350.72	84.06
350.947	92.06
351.174	88.06
351.402	91.06
351.629	81.06
351.856	71.06
352.083	73.06
352.311	93.06
352.538	63.06
352.765	85.06
352.992	96.06
353.22	77.06
353.447	93.06
353.674	89.06
353.901	96.06
354.128	90.06
354.355	86.06
354.583	61.06
354.81	73.06
355.037	87.06
355.264	74.06
355.491	77.06
355.718	94.06
355.945	87.06
356.172	94.06
356.399	80.06
356.626	85.06
356.853	97.06
357.08	101.06
357.307	95.06
357.534	86.06
357.761	94.06
357.988	98.06
358.215	83.06
358.441	101.06
358.668	87.06
358.895	93.06
359.122	82.06
359.349	85.06
359.576	94.06
359.802	86.06
360.029	95.06
360.256	82.06
360.483	84.06
360.709	88.06
360.936	92.06
361.163	84.06
361.39	84.06
361.616	79.06
361.843	63.06
362.07	78.06
362.296	92.06
362.523	93.06
362.749	93.06
362.976	97.06
363.203	91.06
363.429	87.06
363.656	81.06
363.882	83.06
364.109	80.06
364.335	92.06
364.562	100.06
364.788	98.06
365.015	89.06
365.241	87.06
365.468	89.06
365.694	84.06
365.92	100.06
366.147	80.06
366.373	87.06
366.599	89.06
366.826	85.06
367.052	103.06
367.278	87.06
367.505	89.06
367.731	101.06
367.957	91.06
368.184	82.06
368.41	81.06
368.636	98.06
368.862	97.06
369.089	87.06
369.315	81.06
369.541	85.06
369.767	85.06
369.993	84.06
370.219	103.06
370.445	89.06
370.672	91.06
370.898	114.06
371.124	94.06
371.35	91.06
371.576	88.06
371.802	102.06
372.028	87.06
372.254	91.06
372.48	80.06
372.706	83.06
372.932	93.06
373.158	105.06
373.384	106.06
373.61	103.06
373.835	98.06
374.061	78.06
374.287	87.06
374.513	106.06
374.739	98.06
374.965	89.06
375.191	101.06
375.416	87.06
375.642	88.06
375.868	91.06
376.094	81.06
376.319	70.06
376.545	82.06
376.771	85.06
376.997	78.06
377.222	90.06
377.448	93.06
377.674	96.06
377.899	91.06
378.125	91.06
378.35	98.06
378.576	85.06
378.802	75.06
379.027	97.06
379.253	86.06
379.478	89.06
379.704	86.06
379.929	91.06
380.155	80.06
380.38	85.06
380.606	82.06
380.831	85.06
381.057	92.06
381.282	80.06
381.507	87.06
381.733	99.06
381.958	83.06
382.184	82.06
382.409	90.06
382.634	86.06
382.86	92.06
383.085	91.06
383.31	89.06
383.535	92.06
383.761	96.06
383.986	86.06
384.211	93.06
384.436	79.06
384.662	72.06
384.887	108.06
385.112	88.06
385.337	84.06
385.562	88.06
385.787	100.06
386.013	98.06
386.238	106.06
386.463	90.06
386.688	92.06
386.913	86.06
387.138	84.06
387.363	90.06
387.588	90.06
387.813	88.06
388.038	85.06
388.263	92.06
388.488	92.06
388.713	90.06
388.938	85.06
389.163	89.06
389.387	72.06
389.612	93.06
389.837	93.06
390.062	98.06
390.287	84.06
390.512	93.06
390.736	91.06
390.961	82.06
391.186	91.06
391.411	82.06
391.636	84.06
391.86	90.06
392.085	90.06
392.31	92.06
392.534	100.06
392.759	109.06
392.984	156.06
393.208	277.06
393.433	425.06
393.658	311.06
393.882	133.06
394.107	107.06
394.331	99.06
394.556	122.06
394.78	95.06
395.005	87.06
395.229	100.06
395.454	89.06
395.678	94.06
395.903	119.06
396.127	121.06
396.352	151.06
396.576	170.06
396.801	299.06
397.025	318.06
397.249	170.06
397.474	119.06
397.698	105.06
397.922	79.06
398.147	79.06
398.371	98.06
398.595	77.06
398.82	99.06
399.044	85.06
399.268	87.06
399.492	71.06
399.717	85.06
399.941	78.06
400.165	82.06
400.389	93.06
400.613	77.06
400.837	78.06
401.062	95.06
401.286	84.06
401.51	92.06
401.734	95.06
401.958	73.06
402.182	94.06
402.406	78.06
402.63	89.06
402.854	74.06
403.078	73.06
403.302	87.06
403.526	94.06
403.75	80.06
403.974	87.06
404.198	91.06
404.422	113.06
404.645	116.06
404.869	107.06
405.093	79.06
405.317	84.06
405.541	83.06
405.765	82.06
405.988	75.06
406.212	91.06
406.436	99.06
406.66	85.06
406.883	70.06
407.107	84.06
407.331	83.06
407.555	99.06
407.778	116.06
408.002	102.06
408.226	82.06
408.449	101.06
408.673	91.06
408.896	72.06
409.12	70.06
409.344	101.06
409.567	81.06
409.791	91.06
410.014	92.06
410.238	77.06
410.461	95.06
410.685	93.06
410.908	91.06
411.132	84.06
411.355	69.06
411.578	85.06
411.802	92.06
412.025	82.06
412.249	87.06
412.472	94.06
412.695	88.06
412.919	91.06
413.142	87.06
413.365	75.06
413.589	76.06
413.812	81.06
414.035	99.06
414.258	96.06
414.482	95.06
414.705	87.06
414.928	99.06
415.151	87.06
415.374	60.06
415.597	79.06
415.821	94.06
416.044	74.06
416.267	68.06
416.49	79.06
416.713	93.06
416.936	88.06
417.159	97.06
417.382	78.06
417.605	84.06
417.828	81.06
418.051	79.06
418.274	99.06
418.497	79.06
418.72	91.06
418.943	95.06
419.166	78.06
419.389	73.06
419.611	85.06
419.834	88.06
420.057	75.06
420.28	90.06
420.503	86.06
420.726	94.06
420.948	91.06
421.171	90.06
421.394	99.06
421.617	91.06
421.839	102.06
422.062	103.06
422.285	127.06
422.507	216.06
422.73	341.06
422.953	297.06
423.175	131.06
423.398	82.06
423.621	92.06
423.843	82.06
424.066	91.06
424.288	88.06
424.511	83.06
424.733	91.06
424.956	81.06
425.178	86.06
425.401	88.06
425.623	84.06
425.846	76.06
426.068	97.06
426.291	77.06
426.513	82.06
426.735	96.06
426.958	87.06
427.18	77.06
427.402	89.06
427.625	77.06
427.847	90.06
428.069	107.06
428.292	105.06
428.514	113.06
428.736	93.06
428.958	95.06
429.181	106.06
429.403	79.06
429.625	86.06
429.847	98.06
430.069	122.06
430.292	166.06
430.514	128.06
430.736	104.06
430.958	117.06
431.18	83.06
431.402	91.06
431.624	107.06
431.846	108.06
432.068	124.06
432.29	92.06
432.512	83.06
432.734	89.06
432.956	98.06
433.178	101.06
433.4	82.06
433.622	85.06
433.844	76.06
434.066	85.06
434.287	86.06
434.509	90.06
434.731	84.06
434.953	84.06
435.175	83.06
435.397	82.06
435.618	79.06
435.84	70.06
436.062	76.06
436.284	86.06
436.505	76.06
436.727	93.06
436.949	75.06
437.17	82.06
437.392	59.06
437.614	81.06
437.835	56.06
438.057	85.06
438.278	74.06
438.5	91.06
438.721	93.06
438.943	88.06
439.165	88.06
439.386	77.06
439.608	79.06
439.829	79.06
440.05	91.06
440.272	97.06
440.493	81.06
440.715	97.06
440.936	99.06
441.158	89.06
441.379	77.06
441.6	81.06
441.822	69.06
442.043	77.06
442.264	98.06
442.486	115.06
442.707	117.06
442.928	110.06
443.149	77.06
443.371	120.06
443.592	169.06
443.813	155.06
444.034	107.06
444.255	83.06
444.476	100.06
444.698	81.06
444.919	93.06
445.14	177.06
445.361	161.06
445.582	199.06
445.803	151.06
446.024	108.06
446.245	101.06
446.466	87.06
446.687	85.06
446.908	83.06
447.129	77.06
447.35	95.06
447.571	83.06
447.792	77.06
448.013	96.06
448.234	108.06
448.455	94.06
448.675	91.06
448.896	91.06
449.117	95.06
449.338	89.06
449.559	78.06
449.779	79.06
450	93.06
450.221	93.06
450.442	64.06
450.662	89.06
450.883	77.06
451.104	80.06
451.324	94.06
451.545	81.06
451.766	87.06
451.986	95.06
452.207	86.06
452.428	95.06
452.648	89.06
452.869	97.06
453.089	81.06
453.31	79.06
453.53	90.06
453.751	97.06
453.971	77.06
454.192	87.06
454.412	85.06
454.633	82.06
454.853	91.06
455.073	98.06
455.294	85.06
455.514	89.06
455.734	86.06
455.955	83.06
456.175	77.06
456.395	66.06
456.616	81.06
456.836	89.06
457.056	77.06
457.276	86.06
457.497	86.06
457.717	78.06
457.937	86.06
458.157	91.06
458.377	95.06
458.598	84.06
458.818	87.06
459.038	93.06
459.258	87.06
459.478	80.06
459.698	88.06
459.918	95.06
460.138	83.06
460.358	75.06
460.578	93.06
460.798	101.06
461.018	110.06
461.238	95.06
461.458	79.06
461.678	74.06
461.898	91.06
462.118	86.06
462.338	86.06
462.558	84.06
462.777	91.06
462.997	91.06
463.217	86.06
463.437	76.06
463.657	89.06
463.876	85.06
464.096	84.06
464.316	78.06
464.536	71.06
464.755	85.06
464.975	69.06
465.195	76.06
465.414	72.06
465.634	83.06
465.854	99.06
466.073	89.06
466.293	95.06
466.512	79.06
466.732	87.06
466.951	87.06
467.171	88.06
467.391	83.06
467.61	70.06
467.829	93.06
468.049	75.06
468.268	77.06
468.488	75.06
468.707	78.06
468.927	86.06
469.146	87.06
469.365	73.06
469.585	80.06
469.804	94.06
470.023	87.06
470.243	88.06
470.462	85.06
470.681	75.06
470.901	84.06
471.12	87.06
471.339	84.06
471.558	90.06
471.777	74.06
471.997	78.06
472.216	73.06
472.435	85.06
472.654	86.06
472.873	87.06
473.092	91.06
473.311	77.06
473.53	71.06
473.749	91.06
473.968	93.06
474.187	93.06
474.406	88.06
474.625	78.06
474.844	86.06
475.063	95.06
475.282	77.06
475.501	80.06
475.72	94.06
475.939	81.06
476.158	73.06
476.377	79.06
476.596	91.06
476.814	93.06
477.033	87.06
477.252	84.06
477.471	74.06
477.69	87.06
477.908	81.06
478.127	85.06
478.346	86.06
478.564	103.06
478.783	80.06
479.002	80.06
479.22	85.06
479.439	84.06
479.658	94.06
479.876	69.06
480.095	77.06
480.313	85.06
480.532	82.06
480.751	93.06
480.969	74.06
481.188	75.06
481.406	88.06
481.624	78.06
481.843	89.06
482.061	91.06
482.28	80.06
482.498	83.06
482.717	81.06
482.935	86.06
483.153	92.06
483.372	82.06
483.59	85.06
483.808	89.06
484.027	95.06
484.245	91.06
484.463	94.06
484.681	80.06
484.9	81.06
485.118	82.06
485.336	88.06
485.554	71.06
485.772	74.06
485.99	87.06
486.209	85.06
486.427	94.06
486.645	83.06
486.863	79.06
487.081	91.06
487.299	84.06
487.517	77.06
487.735	88.06
487.953	113.06
488.171	105.06
488.389	87.06
488.607	82.06
488.825	84.06
489.043	77.06
489.261	92.06
489.479	90.06
489.696	83.06
489.914	71.06
490.132	90.06
490.35	103.06
490.568	96.06
490.786	83.06
491.003	91.06
491.221	93.06
491.439	73.06
491.657	79.06
491.874	82.06
492.092	79.06
492.31	82.06
492.527	85.06
492.745	77.06
492.963	86.06
493.18	77.06
493.398	97.06
493.615	89.06
493.833	84.06
494.05	86.06
494.268	72.06
494.485	80.06
494.703	87.06
494.92	99.06
495.138	80.06
495.355	105.06
495.573	81.06
495.79	70.06
496.008	87.06
496.225	91.06
496.442	89.06
496.66	84.06
496.877	81.06
497.094	101.06
497.312	97.06
497.529	85.06
497.746	92.06
497.963	73.06
498.181	86.06
498.398	79.06
498.615	77.06
498.832	87.06
499.049	85.06
499.267	82.06
499.484	81.06
499.701	86.06
499.918	81.06
500.135	99.06
500.352	93.06
500.569	76.06
500.786	95.06
501.003	80.06
501.22	95.06
501.437	85.06
501.654	95.06
501.871	87.06
502.088	73.06
502.305	91.06
502.522	81.06
502.739	82.06
502.956	85.06
503.172	76.06
503.389	101.06
503.606	85.06
503.823	83.06
504.04	88.06
504.256	110.06
504.473	99.06
504.69	85.06
504.907	106.06
505.123	85.06
505.34	91.06
505.557	92.06
505.773	77.06
505.99	81.06
506.207	94.06
506.423	101.06
506.64	92.06
506.856	99.06
507.073	87.06
507.289	79.06
507.506	73.06
507.722	77.06
507.939	73.06
508.155	98.06
508.372	81.06
508.588	101.06
508.805	79.06
509.021	93.06
509.238	81.06
509.454	76.06
509.67	79.06
509.887	83.06
510.103	74.06
510.319	87.06
510.536	86.06
510.752	84.06
510.968	75.06
511.184	94.06
511.401	86.06
511.617	89.06
511.833	75.06
512.049	93.06
512.265	95.06
512.481	95.06
512.698	91.06
512.914	82.06
513.13	81.06
513.346	94.06
513.562	88.06
513.778	83.06
513.994	78.06
514.21	89.06
514.426	80.06
514.642	96.06
514.858	105.06
515.074	97.06
515.29	111.06
515.506	85.06
515.721	77.06
515.937	99.06
516.153	69.06
516.369	81.06
516.585	85.06
516.801	100.06
517.016	95.06
517.232	89.06
517.448	92.06
517.664	103.06
517.879	86.06
518.095	80.06
518.311	83.06
518.527	86.06
518.742	88.06
518.958	93.06
519.173	99.06
519.389	80.06
519.605	89.06
519.82	89.06
520.036	74.06
520.251	98.06
520.467	98.06
520.682	80.06
520.898	76.06
521.113	79.06
521.329	95.06
521.544	89.06
521.76	78.06
521.975	87.06
522.19	92.06
522.406	89.06
522.621	87.06
522.836	84.06
523.052	86.06
523.267	95.06
523.482	94.06
523.698	97.06
523.913	90.06
524.128	81.06
524.343	87.06
524.559	95.06
524.774	90.06
524.989	78.06
525.204	91.06
525.419	89.06
525.634	77.06
525.849	83.06
526.064	99.06
526.28	119.06
526.495	152.06
526.71	168.06
526.925	143.06
527.14	167.06
527.355	164.06
527.57	89.06
527.785	82.06
527.999	89.06
528.214	75.06
528.429	91.06
528.644	92.06
528.859	91.06
529.074	85.06
529.289	87.06
529.503	87.06
529.718	85.06
529.933	89.06
530.148	83.06
530.363	95.06
530.577	94.06
530.792	89.06
531.007	77.06
531.221	91.06
531.436	81.06
531.651	102.06
531.865	83.06
532.08	79.06
532.295	79.06
532.509	86.06
532.724	83.06
532.938	87.06
533.153	84.06
533.367	93.06
533.582	94.06
533.796	79.06
534.011	84.06
534.225	89.06
534.44	84.06
534.654	93.06
534.868	100.06
535.083	106.06
535.297	83.06
535.511	87.06
535.726	90.06
535.94	80.06
536.154	82.06
536.369	93.06
536.583	89.06
536.797	92.06
537.011	85.06
537.225	81.06
537.44	99.06
537.654	99.06
537.868	89.06
538.082	94.06
538.296	88.06
538.51	83.06
538.724	96.06
538.938	98.06
539.153	93.06
539.367	75.06
539.581	91.06
539.795	95.06
540.009	83.06
540.222	76.06
540.436	83.06
540.65	83.06
540.864	87.06
541.078	91.06
541.292	97.06
541.506	84.06
541.72	77.06
541.934	87.06
542.147	97.06
542.361	86.06
542.575	86.06
542.789	91.06
543.002	77.06
543.216	84.06
543.43	82.06
543.644	105.06
543.857	88.06
544.071	79.06
544.285	89.06
544.498	100.06
544.712	93.06
544.925	78.06
545.139	88.06
545.352	87.06
545.566	84.06
545.779	90.06
545.993	85.06
546.206	103.06
546.42	98.06
546.633	91.06
546.847	102.06
547.06	70.06
547.274	92.06
547.487	115.06
547.7	108.06
547.914	101.06
548.127	92.06
548.34	104.06
548.554	99.06
548.767	90.06
548.98	106.06
549.193	99.06
549.407	103.06
549.62	102.06
549.833	106.06
550.046	115.06
550.259	110.06
550.473	117.06
550.686	118.06
550.899	123.06
551.112	108.06
551.325	121.06
551.538	139.06
551.751	110.06
551.964	131.06
552.177	127.06
552.39	104.06
552.603	105.06
552.816	110.06
553.029	114.06
553.242	118.06
553.455	93.06
553.667	115.06
553.88	127.06
554.093	105.06
554.306	125.06
554.519	117.06
554.732	109.06
554.944	110.06
555.157	100.06
555.37	114.06
555.583	113.06
555.795	103.06
556.008	109.06
556.221	103.06
556.433	110.06
556.646	102.06
556.859	82.06
557.071	93.06
557.284	92.06
557.496	98.06
557.709	99.06
557.921	87.06
558.134	107.06
558.346	118.06
558.559	119.06
558.771	119.06
558.984	202.06
559.196	236.06
559.409	142.06
559.621	169.06
559.833	131.06
560.046	154.06
560.258	145.06
560.47	146.06
560.683	91.06
560.895	70.06
561.107	73.06
561.32	80.06
561.532	77.06
561.744	82.06
561.956	85.06
562.168	93.06
562.381	75.06
562.593	88.06
562.805	93.06
563.017	89.06
563.229	87.06
563.441	95.06
563.653	87.06
563.865	89.06
564.077	84.06
564.289	90.06
564.501	91.06
564.713	80.06
564.925	92.06
565.137	90.06
565.349	98.06
565.561	74.06
565.773	87.06
565.985	93.06
566.197	100.06
566.408	90.06
566.62	89.06
566.832	80.06
567.044	92.06
567.255	79.06
567.467	89.06
567.679	80.06
567.891	80.06
568.102	92.06
568.314	93.06
568.526	86.06
568.737	98.06
568.949	101.06
569.161	85.06
569.372	93.06
569.584	94.06
569.795	83.06
570.007	85.06
570.218	75.06
570.43	85.06
570.641	93.06
570.853	98.06
571.064	81.06
571.276	92.06
571.487	98.06
571.698	85.06
571.91	87.06
572.121	85.06
572.333	93.06
572.544	87.06
572.755	103.06
572.966	83.06
573.178	86.06
573.389	98.06
573.6	100.06
573.811	70.06
574.023	82.06
574.234	79.06
574.445	94.06
574.656	96.06
574.867	109.06
575.078	93.06
575.289	91.06
575.501	94.06
575.712	86.06
575.923	81.06
576.134	93.06
576.345	66.06
576.556	93.06
576.767	81.06
576.978	77.06
577.188	90.06
577.399	86.06
577.61	82.06
577.821	85.06
578.032	74.06
578.243	89.06
578.454	88.06
578.665	92.06
578.875	85.06
579.086	79.06
579.297	95.06
579.508	73.06
579.718	95.06
579.929	94.06
580.14	77.06
580.35	92.06
580.561	100.06
580.772	79.06
580.982	92.06
581.193	76.06
581.403	89.06
581.614	87.06
581.825	98.06
582.035	80.06
582.246	85.06
582.456	78.06
582.667	89.06
582.877	86.06
583.087	89.06
583.298	88.06
583.508	95.06
583.719	87.06
583.929	94.06
584.139	73.06
584.35	93.06
584.56	95.06
584.77	94.06
584.981	83.06
585.191	87.06
585.401	89.06
585.611	93.06
585.821	102.06
586.032	142.06
586.242	102.06
586.452	99.06
586.662	102.06
586.872	95.06
587.082	87.06
587.292	102.06
587.502	94.06
587.713	80.06
587.923	97.06
588.133	90.06
588.343	90.06
588.553	106.06
588.762	121.06
588.972	177.06
589.182	490.06
589.392	287.06
589.602	197.06
589.812	415.06
590.022	213.06
590.232	108.06
590.441	78.06
590.651	91.06
590.861	91.06
591.071	98.06
591.281	109.06
591.49	83.06
591.7	76.06
591.91	100.06
592.119	86.06
592.329	97.06
592.539	105.06
592.748	99.06
592.958	95.06
593.167	104.06
593.377	89.06
593.587	87.06
593.796	91.06
594.006	79.06
594.215	98.06
594.424	94.06
594.634	89.06
594.843	87.06
595.053	89.06
595.262	94.06
595.472	113.06
595.681	105.06
595.89	89.06
596.1	90.06
596.309	102.06
596.518	92.06
596.727	108.06
596.937	102.06
597.146	107.06
597.355	105.06
597.564	101.06
597.774	106.06
597.983	105.06
598.192	100.06
598.401	101.06
598.61	105.06
598.819	117.06
599.028	120.06
599.237	105.06
599.446	117.06
599.655	115.06
599.864	97.06
600.073	94.06
600.282	92.06
600.491	109.06
600.7	105.06
600.909	111.06
601.118	93.06
601.327	113.06
601.536	104.06
601.745	98.06
601.953	102.06
602.162	95.06
602.371	95.06
602.58	78.06
602.789	93.06
602.997	99.06
603.206	108.06
603.415	101.06
603.623	99.06
603.832	114.06
604.041	87.06
604.249	110.06
604.458	110.06
604.666	102.06
604.875	114.06
605.084	116.06
605.292	107.06
605.501	112.06
605.709	103.06
605.918	110.06
606.126	127.06
606.334	103.06
606.543	98.06
606.751	116.06
606.96	105.06
607.168	107.06
607.376	106.06
607.585	116.06
607.793	105.06
608.001	107.06
608.21	114.06
608.418	106.06
608.626	124.06
608.834	124.06
609.043	112.06
609.251	108.06
609.459	103.06
609.667	92.06
609.875	134.06
610.083	110.06
610.291	116.06
610.499	143.06
610.707	123.06
610.916	117.06
611.124	123.06
611.332	116.06
611.54	112.06
611.748	122.06
611.955	123.06
612.163	118.06
612.371	197.06
612.579	171.06
612.787	131.06
612.995	127.06
613.203	122.06
613.411	110.06
613.618	120.06
613.826	113.06
614.034	119.06
614.242	128.06
614.449	103.06
614.657	105.06
614.865	116.06
615.072	115.06
615.28	104.06
615.488	110.06
615.695	122.06
615.903	119.06
616.111	127.06
616.318	216.06
616.526	217.06
616.733	139.06
616.941	131.06
617.148	147.06
617.356	115.06
617.563	124.06
617.771	103.06
617.978	102.06
618.185	109.06
618.393	109.06
618.6	93.06
618.807	99.06
619.015	102.06
619.222	109.06
619.429	100.06
619.637	94.06
619.844	96.06
620.051	117.06
620.258	119.06
620.466	105.06
620.673	97.06
620.88	100.06
621.087	107.06
621.294	103.06
621.501	113.06
621.708	103.06
621.915	106.06
622.122	114.06
622.329	110.06
622.536	117.06
622.743	94.06
622.95	105.06
623.157	112.06
623.364	109.06
623.571	106.06
623.778	105.06
623.985	113.06
624.192	104.06
624.399	117.06
624.606	119.06
624.812	108.06
625.019	97.06
625.226	102.06
625.433	113.06
625.639	99.06
625.846	92.06
626.053	105.06
626.259	99.06
626.466	119.06
626.673	107.06
626.879	103.06
627.086	115.06
627.293	104.06
627.499	107.06
627.706	108.06
627.912	100.06
628.119	97.06
628.325	91.06
628.532	76.06
628.738	94.06
628.945	97.06
629.151	80.06
629.357	80.06
629.564	88.06
629.77	85.06
629.976	81.06
630.183	96.06
630.389	93.06
630.595	79.06
630.802	82.06
631.008	78.06
631.214	72.06
631.42	102.06
631.627	106.06
631.833	87.06
632.039	97.06
632.245	104.06
632.451	100.06
632.657	99.06
632.863	76.06
633.069	66.06
633.275	92.06
633.481	89.06
633.688	91.06
633.893	90.06
634.099	85.06
634.305	79.06
634.511	94.06
634.717	85.06
634.923	78.06
635.129	91.06
635.335	75.06
635.541	97.06
635.747	95.06
635.952	94.06
636.158	86.06
636.364	82.06
636.57	87.06
636.775	89.06
636.981	93.06
637.187	89.06
637.392	97.06
637.598	85.06
637.804	85.06
638.009	81.06
638.215	91.06
638.421	86.06
638.626	84.06
638.832	87.06
639.037	102.06
639.243	84.06
639.448	87.06
639.654	70.06
639.859	83.06
640.065	76.06
640.27	97.06
640.475	79.06
640.681	85.06
640.886	78.06
641.091	85.06
641.297	89.06
641.502	93.06
641.707	90.06
641.913	95.06
642.118	85.06
642.323	93.06
642.528	87.06
642.733	84.06
642.939	97.06
643.144	103.06
643.349	84.06
643.554	101.06
643.759	97.06
643.964	110.06
644.169	130.06
644.374	110.06
644.579	92.06
644.784	85.06
644.989	93.06
645.194	95.06
645.399	104.06
645.604	95.06
645.809	94.06
646.014	84.06
646.219	90.06
646.423	121.06
646.628	109.06
646.833	86.06
647.038	94.06
647.243	85.06
647.447	81.06
647.652	90.06
647.857	102.06
648.062	75.06
648.266	86.06
648.471	94.06
648.676	91.06
648.88	100.06
649.085	80.06
649.289	78.06
649.494	90.06
649.698	102.06
649.903	86.06
650.107	67.06
650.312	86.06
650.516	95.06
650.721	87.06
650.925	91.06
651.13	89.06
651.334	92.06
651.539	82.06
651.743	90.06
651.947	76.06
652.152	91.06
652.356	101.06
652.56	83.06
652.764	92.06
652.969	85.06
653.173	78.06
653.377	78.06
653.581	85.06
653.785	89.06
653.99	77.06
654.194	78.06
654.398	85.06
654.602	77.06
654.806	81.06
655.01	76.06
655.214	92.06
655.418	95.06
655.622	89.06
655.826	96.06
656.03	93.06
656.234	94.06
656.438	94.06
656.642	73.06
656.846	87.06
657.049	85.06
657.253	86.06
657.457	85.06
657.661	86.06
657.865	97.06
658.068	91.06
658.272	93.06
658.476	86.06
658.68	89.06
658.883	84.06
659.087	83.06
659.291	80.06
659.494	75.06
659.698	86.06
659.901	83.06
660.105	82.06
660.309	78.06
660.512	85.06
660.716	93.06
660.919	95.06
661.123	86.06
661.326	87.06
661.53	95.06
661.733	85.06
661.936	94.06
662.14	89.06
662.343	78.06
662.546	72.06
662.75	85.06
662.953	82.06
663.156	80.06
663.36	64.06
663.563	83.06
663.766	88.06
663.969	89.06
664.173	95.06
664.376	86.06
664.579	93.06
664.782	88.06
664.985	88.06
665.188	80.06
665.391	90.06
665.594	84.06
665.797	88.06
666	73.06
666.203	76.06
666.406	70.06
666.609	90.06
666.812	84.06
667.015	71.06
667.218	81.06
667.421	89.06
667.624	79.06
667.827	87.06
668.03	79.06
668.232	90.06
668.435	90.06
668.638	90.06
668.841	82.06
669.043	86.06
669.246	79.06
669.449	94.06
669.651	80.06
669.854	82.06
670.057	67.06
670.259	75.06
670.462	95.06
670.665	86.06
670.867	86.06
671.07	78.06
671.272	77.06
671.475	91.06
671.677	78.06
671.88	89.06
672.082	92.06
672.284	89.06
672.487	90.06
672.689	85.06
672.892	80.06
