Data from Dry_Prop_25_2_HRD10591_00001.txt Node
Date: Wed Dec 03 14:40:21 EST 2025
User: Yrep
Spectrometer: HR+D1059
Trigger mode: 1
Integration Time (sec): 1.000000E-1
Scans to average: 1
Electric dark correction enabled: true
Nonlinearity correction enabled: false
Boxcar width: 0
XAxis mode: Wavelengths
Number of Pixels in Spectrum: 2048
>>>>>Begin Spectral Data<<<<<
223.165	-22.75
223.4	-22.75
223.635	-22.75
223.869	-30.75
224.104	-29.75
224.338	2.25
224.573	-15.75
224.808	-36.75
225.042	-1.75
225.277	-6.75
225.511	1.25
225.746	12.25
225.98	29.25
226.215	18.25
226.449	5.25
226.683	17.25
226.918	19.25
227.152	39.25
227.387	37.25
227.621	36.25
227.856	42.25
228.09	44.25
228.324	55.25
228.559	55.25
228.793	51.25
229.027	65.25
229.262	61.25
229.496	66.25
229.73	65.25
229.964	54.25
230.199	65.25
230.433	63.25
230.667	82.25
230.901	72.25
231.136	75.25
231.37	75.25
231.604	63.25
231.838	70.25
232.072	82.25
232.306	89.25
232.541	78.25
232.775	90.25
233.009	89.25
233.243	85.25
233.477	91.25
233.711	80.25
233.945	71.25
234.179	79.25
234.413	83.25
234.647	76.25
234.881	93.25
235.115	73.25
235.349	68.25
235.583	73.25
235.817	70.25
236.051	72.25
236.285	68.25
236.519	65.25
236.753	64.25
236.987	66.25
237.221	79.25
237.455	91.25
237.689	75.25
237.922	63.25
238.156	71.25
238.39	76.25
238.624	74.25
238.858	69.25
239.091	73.25
239.325	79.25
239.559	75.25
239.793	59.25
240.027	68.25
240.26	65.25
240.494	79.25
240.728	71.25
240.961	70.25
241.195	69.25
241.429	69.25
241.662	70.25
241.896	73.25
242.13	76.25
242.363	76.25
242.597	74.25
242.83	71.25
243.064	68.25
243.298	65.25
243.531	75.25
243.765	71.25
243.998	69.25
244.232	63.25
244.465	54.25
244.699	58.25
244.932	80.25
245.166	68.25
245.399	64.25
245.633	77.25
245.866	84.25
246.099	72.25
246.333	70.25
246.566	65.25
246.8	69.25
247.033	85.25
247.266	68.25
247.5	71.25
247.733	82.25
247.966	59.25
248.2	69.25
248.433	76.25
248.666	74.25
248.899	74.25
249.133	83.25
249.366	72.25
249.599	83.25
249.832	82.25
250.066	80.25
250.299	81.25
250.532	81.25
250.765	76.25
250.998	62.25
251.231	69.25
251.465	70.25
251.698	83.25
251.931	81.25
252.164	65.25
252.397	73.25
252.63	76.25
252.863	72.25
253.096	71.25
253.329	74.25
253.562	88.25
253.795	85.25
254.028	77.25
254.261	81.25
254.494	91.25
254.727	79.25
254.96	84.25
255.193	83.25
255.426	85.25
255.659	75.25
255.892	93.25
256.124	63.25
256.357	68.25
256.59	70.25
256.823	75.25
257.056	83.25
257.289	72.25
257.521	81.25
257.754	81.25
257.987	77.25
258.22	87.25
258.452	65.25
258.685	69.25
258.918	74.25
259.151	93.25
259.383	66.25
259.616	80.25
259.849	85.25
260.081	84.25
260.314	72.25
260.547	80.25
260.779	74.25
261.012	61.25
261.244	63.25
261.477	92.25
261.71	89.25
261.942	76.25
262.175	78.25
262.407	69.25
262.64	82.25
262.872	90.25
263.105	82.25
263.337	82.25
263.57	66.25
263.802	80.25
264.035	87.25
264.267	71.25
264.499	88.25
264.732	85.25
264.964	70.25
265.197	89.25
265.429	92.25
265.661	84.25
265.894	90.25
266.126	71.25
266.358	69.25
266.591	70.25
266.823	80.25
267.055	82.25
267.287	68.25
267.52	75.25
267.752	83.25
267.984	89.25
268.216	75.25
268.448	84.25
268.681	79.25
268.913	76.25
269.145	76.25
269.377	82.25
269.609	80.25
269.841	87.25
270.073	80.25
270.306	72.25
270.538	87.25
270.77	97.25
271.002	87.25
271.234	76.25
271.466	67.25
271.698	93.25
271.93	77.25
272.162	74.25
272.394	82.25
272.626	67.25
272.858	80.25
273.09	75.25
273.322	81.25
273.553	92.25
273.785	69.25
274.017	81.25
274.249	88.25
274.481	82.25
274.713	67.25
274.945	78.25
275.176	77.25
275.408	87.25
275.64	82.25
275.872	79.25
276.104	88.25
276.335	93.25
276.567	81.25
276.799	71.25
277.031	78.25
277.262	71.25
277.494	82.25
277.726	67.25
277.957	84.25
278.189	80.25
278.421	81.25
278.652	81.25
278.884	85.25
279.115	87.25
279.347	77.25
279.579	75.25
279.81	72.25
280.042	89.25
280.273	79.25
280.505	80.25
280.736	75.25
280.968	81.25
281.199	92.25
281.431	85.25
281.662	71.25
281.894	75.25
282.125	75.25
282.356	88.25
282.588	81.25
282.819	80.25
283.051	73.25
283.282	81.25
283.513	81.25
283.745	75.25
283.976	76.25
284.207	76.25
284.439	75.25
284.67	100.25
284.901	77.25
285.132	69.25
285.364	95.25
285.595	71.25
285.826	82.25
286.057	82.25
286.288	72.25
286.52	87.25
286.751	73.25
286.982	79.25
287.213	83.25
287.444	70.25
287.675	79.25
287.906	88.25
288.138	81.25
288.369	91.25
288.6	82.25
288.831	72.25
289.062	91.25
289.293	87.25
289.524	80.25
289.755	79.25
289.986	77.25
290.217	84.25
290.448	95.25
290.679	67.25
290.91	72.25
291.141	95.25
291.371	98.25
291.602	85.25
291.833	83.25
292.064	83.25
292.295	77.25
292.526	79.25
292.757	77.25
292.987	80.25
293.218	77.25
293.449	90.25
293.68	83.25
293.91	91.25
294.141	96.25
294.372	84.25
294.603	64.25
294.833	87.25
295.064	73.25
295.295	73.25
295.525	84.25
295.756	87.25
295.987	81.25
296.217	76.25
296.448	69.25
296.679	80.25
296.909	79.25
297.14	83.25
297.37	73.25
297.601	80.25
297.831	81.25
298.062	76.25
298.292	89.25
298.523	75.25
298.753	68.25
298.984	73.25
299.214	83.25
299.445	77.25
299.675	89.25
299.905	88.25
300.136	81.25
300.366	93.25
300.597	82.25
300.827	80.25
301.057	76.25
301.288	76.25
301.518	80.25
301.748	74.25
301.979	89.25
302.209	79.25
302.439	85.25
302.669	94.25
302.9	80.25
303.13	109.25
303.36	80.25
303.59	87.25
303.82	102.25
304.051	84.25
304.281	73.25
304.511	80.25
304.741	85.25
304.971	67.25
305.201	78.25
305.431	91.25
305.661	91.25
305.891	88.25
306.121	81.25
306.352	105.25
306.582	95.25
306.812	91.25
307.042	84.25
307.272	96.25
307.502	75.25
307.731	90.25
307.961	79.25
308.191	81.25
308.421	75.25
308.651	81.25
308.881	92.25
309.111	89.25
309.341	87.25
309.571	82.25
309.8	80.25
310.03	83.25
310.26	82.25
310.49	75.25
310.72	88.25
310.949	86.25
311.179	77.25
311.409	78.25
311.639	67.25
311.868	76.25
312.098	96.25
312.328	73.25
312.557	79.25
312.787	80.25
313.017	82.25
313.246	76.25
313.476	71.25
313.706	90.25
313.935	91.25
314.165	86.25
314.394	95.25
314.624	82.25
314.853	78.25
315.083	80.25
315.312	83.25
315.542	80.25
315.771	92.25
316.001	91.25
316.23	89.25
316.46	92.25
316.689	76.25
316.919	75.25
317.148	84.25
317.377	88.25
317.607	85.25
317.836	73.25
318.065	88.25
318.295	90.25
318.524	92.25
318.753	80.25
318.983	83.25
319.212	81.25
319.441	73.25
319.67	82.25
319.9	98.25
320.129	91.25
320.358	102.25
320.587	63.25
320.816	89.25
321.046	93.25
321.275	75.25
321.504	73.25
321.733	77.25
321.962	88.25
322.191	82.25
322.42	76.25
322.649	99.25
322.878	82.25
323.108	87.25
323.337	98.25
323.566	89.25
323.795	87.25
324.024	81.25
324.253	87.25
324.482	83.25
324.71	82.25
324.939	88.25
325.168	99.25
325.397	89.25
325.626	85.25
325.855	77.25
326.084	85.25
326.313	79.25
326.542	70.25
326.77	89.25
326.999	87.25
327.228	76.25
327.457	73.25
327.686	85.25
327.914	85.25
328.143	91.25
328.372	80.25
328.6	79.25
328.829	75.25
329.058	89.25
329.287	59.25
329.515	78.25
329.744	84.25
329.972	91.25
330.201	91.25
330.43	82.25
330.658	95.25
330.887	64.25
331.115	87.25
331.344	84.25
331.572	91.25
331.801	77.25
332.03	80.25
332.258	81.25
332.486	95.25
332.715	98.25
332.943	96.25
333.172	70.25
333.4	65.25
333.629	87.25
333.857	84.25
334.085	83.25
334.314	89.25
334.542	73.25
334.771	82.25
334.999	80.25
335.227	75.25
335.455	84.25
335.684	83.25
335.912	92.25
336.14	89.25
336.369	83.25
336.597	77.25
336.825	87.25
337.053	84.25
337.281	74.25
337.51	75.25
337.738	76.25
337.966	83.25
338.194	82.25
338.422	83.25
338.65	84.25
338.878	82.25
339.106	77.25
339.334	83.25
339.562	91.25
339.79	87.25
340.018	73.25
340.246	82.25
340.474	76.25
340.702	72.25
340.93	81.25
341.158	88.25
341.386	67.25
341.614	73.25
341.842	73.25
342.07	75.25
342.298	87.25
342.526	76.25
342.754	71.25
342.981	65.25
343.209	80.25
343.437	91.25
343.665	87.25
343.893	75.25
344.12	80.25
344.348	73.25
344.576	76.25
344.804	85.25
345.031	80.25
345.259	84.25
345.487	65.25
345.714	83.25
345.942	85.25
346.17	81.25
346.397	81.25
346.625	87.25
346.853	77.25
347.08	82.25
347.308	85.25
347.535	81.25
347.763	70.25
347.99	77.25
348.218	91.25
348.445	75.25
348.673	77.25
348.9	91.25
349.128	84.25
349.355	75.25
349.583	75.25
349.81	80.25
350.037	81.25
350.265	92.25
350.492	82.25
350.72	79.25
350.947	79.25
351.174	85.25
351.402	87.25
351.629	90.25
351.856	81.25
352.083	74.25
352.311	87.25
352.538	81.25
352.765	82.25
352.992	95.25
353.22	82.25
353.447	77.25
353.674	83.25
353.901	88.25
354.128	70.25
354.355	89.25
354.583	80.25
354.81	84.25
355.037	79.25
355.264	85.25
355.491	82.25
355.718	87.25
355.945	77.25
356.172	80.25
356.399	85.25
356.626	84.25
356.853	74.25
357.08	84.25
357.307	82.25
357.534	83.25
357.761	100.25
357.988	91.25
358.215	91.25
358.441	75.25
358.668	71.25
358.895	84.25
359.122	93.25
359.349	81.25
359.576	73.25
359.802	91.25
360.029	84.25
360.256	83.25
360.483	79.25
360.709	88.25
360.936	87.25
361.163	87.25
361.39	82.25
361.616	77.25
361.843	80.25
362.07	91.25
362.296	79.25
362.523	72.25
362.749	77.25
362.976	71.25
363.203	96.25
363.429	84.25
363.656	61.25
363.882	89.25
364.109	87.25
364.335	89.25
364.562	82.25
364.788	83.25
365.015	77.25
365.241	85.25
365.468	91.25
365.694	81.25
365.92	95.25
366.147	78.25
366.373	78.25
366.599	76.25
366.826	89.25
367.052	82.25
367.278	81.25
367.505	78.25
367.731	75.25
367.957	85.25
368.184	81.25
368.41	77.25
368.636	81.25
368.862	69.25
369.089	92.25
369.315	77.25
369.541	81.25
369.767	87.25
369.993	75.25
370.219	95.25
370.445	72.25
370.672	70.25
370.898	66.25
371.124	82.25
371.35	83.25
371.576	88.25
371.802	83.25
372.028	80.25
372.254	98.25
372.48	80.25
372.706	87.25
372.932	82.25
373.158	89.25
373.384	91.25
373.61	77.25
373.835	71.25
374.061	81.25
374.287	93.25
374.513	79.25
374.739	57.25
374.965	84.25
375.191	77.25
375.416	80.25
375.642	80.25
375.868	87.25
376.094	89.25
376.319	77.25
376.545	78.25
376.771	90.25
376.997	81.25
377.222	74.25
377.448	78.25
377.674	73.25
377.899	81.25
378.125	92.25
378.35	76.25
378.576	88.25
378.802	76.25
379.027	85.25
379.253	81.25
379.478	81.25
379.704	75.25
379.929	87.25
380.155	68.25
380.38	94.25
380.606	82.25
380.831	80.25
381.057	84.25
381.282	87.25
381.507	71.25
381.733	76.25
381.958	76.25
382.184	78.25
382.409	96.25
382.634	93.25
382.86	71.25
383.085	89.25
383.31	98.25
383.535	85.25
383.761	80.25
383.986	79.25
384.211	82.25
384.436	80.25
384.662	85.25
384.887	86.25
385.112	77.25
385.337	77.25
385.562	88.25
385.787	73.25
386.013	72.25
386.238	72.25
386.463	87.25
386.688	98.25
386.913	81.25
387.138	90.25
387.363	82.25
387.588	75.25
387.813	90.25
388.038	90.25
388.263	89.25
388.488	88.25
388.713	90.25
388.938	92.25
389.163	66.25
389.387	71.25
389.612	69.25
389.837	90.25
390.062	91.25
390.287	75.25
390.512	74.25
390.736	76.25
390.961	82.25
391.186	77.25
391.411	94.25
391.636	96.25
391.86	78.25
392.085	89.25
392.31	72.25
392.534	79.25
392.759	96.25
392.984	103.25
393.208	74.25
393.433	82.25
393.658	80.25
393.882	79.25
394.107	75.25
394.331	83.25
394.556	83.25
394.78	75.25
395.005	81.25
395.229	70.25
395.454	87.25
395.678	81.25
395.903	89.25
396.127	80.25
396.352	84.25
396.576	90.25
396.801	76.25
397.025	69.25
397.249	82.25
397.474	88.25
397.698	82.25
397.922	78.25
398.147	74.25
398.371	64.25
398.595	87.25
398.82	83.25
399.044	92.25
399.268	83.25
399.492	75.25
399.717	79.25
399.941	76.25
400.165	87.25
400.389	67.25
400.613	83.25
400.837	78.25
401.062	77.25
401.286	68.25
401.51	84.25
401.734	87.25
401.958	88.25
402.182	72.25
402.406	88.25
402.63	80.25
402.854	95.25
403.078	84.25
403.302	68.25
403.526	93.25
403.75	71.25
403.974	70.25
404.198	86.25
404.422	77.25
404.645	71.25
404.869	81.25
405.093	88.25
405.317	95.25
405.541	91.25
405.765	76.25
405.988	87.25
406.212	83.25
406.436	75.25
406.66	84.25
406.883	77.25
407.107	71.25
407.331	74.25
407.555	67.25
407.778	82.25
408.002	79.25
408.226	87.25
408.449	69.25
408.673	78.25
408.896	80.25
409.12	75.25
409.344	68.25
409.567	65.25
409.791	81.25
410.014	77.25
410.238	87.25
410.461	72.25
410.685	88.25
410.908	76.25
411.132	95.25
411.355	81.25
411.578	77.25
411.802	89.25
412.025	89.25
412.249	71.25
412.472	83.25
412.695	87.25
412.919	73.25
413.142	71.25
413.365	87.25
413.589	87.25
413.812	76.25
414.035	83.25
414.258	83.25
414.482	73.25
414.705	84.25
414.928	96.25
415.151	78.25
415.374	82.25
415.597	83.25
415.821	72.25
416.044	89.25
416.267	88.25
416.49	77.25
416.713	73.25
416.936	84.25
417.159	87.25
417.382	75.25
417.605	71.25
417.828	89.25
418.051	75.25
418.274	86.25
418.497	96.25
418.72	71.25
418.943	72.25
419.166	87.25
419.389	75.25
419.611	61.25
419.834	61.25
420.057	69.25
420.28	82.25
420.503	79.25
420.726	74.25
420.948	69.25
421.171	79.25
421.394	83.25
421.617	82.25
421.839	83.25
422.062	77.25
422.285	75.25
422.507	77.25
422.73	81.25
422.953	69.25
423.175	75.25
423.398	76.25
423.621	78.25
423.843	80.25
424.066	77.25
424.288	78.25
424.511	78.25
424.733	78.25
424.956	54.25
425.178	68.25
425.401	75.25
425.623	86.25
425.846	76.25
426.068	95.25
426.291	85.25
426.513	66.25
426.735	74.25
426.958	81.25
427.18	72.25
427.402	95.25
427.625	81.25
427.847	61.25
428.069	75.25
428.292	88.25
428.514	75.25
428.736	73.25
428.958	81.25
429.181	88.25
429.403	79.25
429.625	75.25
429.847	88.25
430.069	91.25
430.292	79.25
430.514	80.25
430.736	88.25
430.958	96.25
431.18	76.25
431.402	67.25
431.624	85.25
431.846	76.25
432.068	71.25
432.29	89.25
432.512	89.25
432.734	72.25
432.956	76.25
433.178	85.25
433.4	85.25
433.622	88.25
433.844	96.25
434.066	85.25
434.287	76.25
434.509	78.25
434.731	84.25
434.953	84.25
435.175	74.25
435.397	82.25
435.618	89.25
435.84	95.25
436.062	82.25
436.284	80.25
436.505	83.25
436.727	86.25
436.949	89.25
437.17	73.25
437.392	73.25
437.614	77.25
437.835	85.25
438.057	74.25
438.278	80.25
438.5	63.25
438.721	73.25
438.943	67.25
439.165	94.25
439.386	84.25
439.608	81.25
439.829	83.25
440.05	83.25
440.272	73.25
440.493	73.25
440.715	81.25
440.936	96.25
441.158	61.25
441.379	85.25
441.6	85.25
441.822	83.25
442.043	84.25
442.264	83.25
442.486	71.25
442.707	78.25
442.928	89.25
443.149	73.25
443.371	87.25
443.592	73.25
443.813	77.25
444.034	84.25
444.255	68.25
444.476	98.25
444.698	84.25
444.919	83.25
445.14	139.25
445.361	107.25
445.582	77.25
445.803	80.25
446.024	91.25
446.245	87.25
446.466	74.25
446.687	74.25
446.908	76.25
447.129	83.25
447.35	85.25
447.571	76.25
447.792	68.25
448.013	73.25
448.234	68.25
448.455	80.25
448.675	68.25
448.896	90.25
449.117	74.25
449.338	68.25
449.559	81.25
449.779	74.25
450	71.25
450.221	75.25
450.442	76.25
450.662	83.25
450.883	85.25
451.104	86.25
451.324	84.25
451.545	68.25
451.766	78.25
451.986	89.25
452.207	76.25
452.428	84.25
452.648	61.25
452.869	75.25
453.089	80.25
453.31	74.25
453.53	87.25
453.751	87.25
453.971	79.25
454.192	95.25
454.412	79.25
454.633	83.25
454.853	79.25
455.073	74.25
455.294	95.25
455.514	73.25
455.734	83.25
455.955	69.25
456.175	78.25
456.395	71.25
456.616	83.25
456.836	83.25
457.056	83.25
457.276	79.25
457.497	83.25
457.717	74.25
457.937	72.25
458.157	87.25
458.377	72.25
458.598	87.25
458.818	87.25
459.038	74.25
459.258	104.25
459.478	87.25
459.698	85.25
459.918	75.25
460.138	66.25
460.358	77.25
460.578	75.25
460.798	80.25
461.018	77.25
461.238	75.25
461.458	92.25
461.678	80.25
461.898	74.25
462.118	79.25
462.338	95.25
462.558	66.25
462.777	87.25
462.997	64.25
463.217	84.25
463.437	77.25
463.657	91.25
463.876	75.25
464.096	73.25
464.316	81.25
464.536	81.25
464.755	89.25
464.975	76.25
465.195	77.25
465.414	101.25
465.634	88.25
465.854	73.25
466.073	71.25
466.293	89.25
466.512	78.25
466.732	75.25
466.951	77.25
467.171	77.25
467.391	62.25
467.61	81.25
467.829	71.25
468.049	77.25
468.268	68.25
468.488	69.25
468.707	76.25
468.927	75.25
469.146	71.25
469.365	76.25
469.585	86.25
469.804	77.25
470.023	84.25
470.243	78.25
470.462	76.25
470.681	80.25
470.901	83.25
471.12	92.25
471.339	90.25
471.558	76.25
471.777	89.25
471.997	72.25
472.216	83.25
472.435	85.25
472.654	83.25
472.873	96.25
473.092	89.25
473.311	93.25
473.53	78.25
473.749	80.25
473.968	92.25
474.187	75.25
474.406	74.25
474.625	78.25
474.844	79.25
475.063	76.25
475.282	71.25
475.501	78.25
475.72	78.25
475.939	75.25
476.158	79.25
476.377	89.25
476.596	79.25
476.814	72.25
477.033	66.25
477.252	75.25
477.471	99.25
477.69	78.25
477.908	80.25
478.127	87.25
478.346	80.25
478.564	75.25
478.783	80.25
479.002	89.25
479.22	87.25
479.439	72.25
479.658	82.25
479.876	80.25
480.095	97.25
480.313	84.25
480.532	80.25
480.751	87.25
480.969	76.25
481.188	81.25
481.406	82.25
481.624	68.25
481.843	81.25
482.061	79.25
482.28	84.25
482.498	87.25
482.717	84.25
482.935	91.25
483.153	71.25
483.372	75.25
483.59	86.25
483.808	87.25
484.027	82.25
484.245	91.25
484.463	94.25
484.681	77.25
484.9	85.25
485.118	94.25
485.336	75.25
485.554	93.25
485.772	92.25
485.99	73.25
486.209	87.25
486.427	87.25
486.645	83.25
486.863	75.25
487.081	93.25
487.299	87.25
487.517	80.25
487.735	87.25
487.953	83.25
488.171	92.25
488.389	73.25
488.607	80.25
488.825	84.25
489.043	87.25
489.261	81.25
489.479	77.25
489.696	89.25
489.914	78.25
490.132	75.25
490.35	80.25
490.568	89.25
490.786	72.25
491.003	79.25
491.221	67.25
491.439	73.25
491.657	83.25
491.874	91.25
492.092	84.25
492.31	97.25
492.527	87.25
492.745	76.25
492.963	82.25
493.18	87.25
493.398	91.25
493.615	82.25
493.833	80.25
494.05	84.25
494.268	74.25
494.485	84.25
494.703	71.25
494.92	73.25
495.138	83.25
495.355	90.25
495.573	84.25
495.79	64.25
496.008	85.25
496.225	91.25
496.442	84.25
496.66	82.25
496.877	104.25
497.094	87.25
497.312	78.25
497.529	89.25
497.746	85.25
497.963	88.25
498.181	98.25
498.398	79.25
498.615	74.25
498.832	76.25
499.049	77.25
499.267	73.25
499.484	95.25
499.701	84.25
499.918	89.25
500.135	75.25
500.352	83.25
500.569	78.25
500.786	83.25
501.003	92.25
501.22	82.25
501.437	94.25
501.654	73.25
501.871	85.25
502.088	80.25
502.305	79.25
502.522	81.25
502.739	74.25
502.956	80.25
503.172	88.25
503.389	74.25
503.606	75.25
503.823	88.25
504.04	76.25
504.256	72.25
504.473	77.25
504.69	81.25
504.907	95.25
505.123	88.25
505.34	79.25
505.557	82.25
505.773	87.25
505.99	70.25
506.207	67.25
506.423	75.25
506.64	79.25
506.856	79.25
507.073	91.25
507.289	95.25
507.506	91.25
507.722	67.25
507.939	90.25
508.155	89.25
508.372	79.25
508.588	79.25
508.805	77.25
509.021	83.25
509.238	78.25
509.454	82.25
509.67	80.25
509.887	82.25
510.103	72.25
510.319	90.25
510.536	77.25
510.752	90.25
510.968	70.25
511.184	73.25
511.401	75.25
511.617	82.25
511.833	84.25
512.049	72.25
512.265	75.25
512.481	83.25
512.698	73.25
512.914	81.25
513.13	83.25
513.346	88.25
513.562	91.25
513.778	91.25
513.994	80.25
514.21	81.25
514.426	72.25
514.642	68.25
514.858	78.25
515.074	78.25
515.29	80.25
515.506	90.25
515.721	77.25
515.937	71.25
516.153	79.25
516.369	75.25
516.585	79.25
516.801	83.25
517.016	78.25
517.232	92.25
517.448	91.25
517.664	87.25
517.879	76.25
518.095	78.25
518.311	82.25
518.527	85.25
518.742	91.25
518.958	84.25
519.173	74.25
519.389	73.25
519.605	80.25
519.82	85.25
520.036	83.25
520.251	81.25
520.467	76.25
520.682	67.25
520.898	74.25
521.113	87.25
521.329	83.25
521.544	90.25
521.76	68.25
521.975	74.25
522.19	79.25
522.406	66.25
522.621	75.25
522.836	76.25
523.052	66.25
523.267	73.25
523.482	67.25
523.698	89.25
523.913	84.25
524.128	89.25
524.343	81.25
524.559	86.25
524.774	84.25
524.989	89.25
525.204	83.25
525.419	76.25
525.634	77.25
525.849	77.25
526.064	81.25
526.28	59.25
526.495	75.25
526.71	74.25
526.925	66.25
527.14	74.25
527.355	76.25
527.57	82.25
527.785	92.25
527.999	79.25
528.214	87.25
528.429	91.25
528.644	91.25
528.859	80.25
529.074	70.25
529.289	76.25
529.503	92.25
529.718	97.25
529.933	89.25
530.148	79.25
530.363	81.25
530.577	71.25
530.792	82.25
531.007	92.25
531.221	91.25
531.436	75.25
531.651	81.25
531.865	85.25
532.08	99.25
532.295	95.25
532.509	79.25
532.724	95.25
532.938	81.25
533.153	81.25
533.367	91.25
533.582	72.25
533.796	72.25
534.011	83.25
534.225	92.25
534.44	91.25
534.654	71.25
534.868	75.25
535.083	77.25
535.297	75.25
535.511	91.25
535.726	99.25
535.94	86.25
536.154	91.25
536.369	95.25
536.583	87.25
536.797	78.25
537.011	73.25
537.225	97.25
537.44	80.25
537.654	80.25
537.868	98.25
538.082	80.25
538.296	95.25
538.51	92.25
538.724	92.25
538.938	84.25
539.153	91.25
539.367	89.25
539.581	87.25
539.795	89.25
540.009	94.25
540.222	69.25
540.436	87.25
540.65	72.25
540.864	74.25
541.078	70.25
541.292	92.25
541.506	81.25
541.72	89.25
541.934	84.25
542.147	90.25
542.361	67.25
542.575	80.25
542.789	77.25
543.002	76.25
543.216	96.25
543.43	91.25
543.644	75.25
543.857	77.25
544.071	72.25
544.285	94.25
544.498	74.25
544.712	67.25
544.925	73.25
545.139	93.25
545.352	83.25
545.566	87.25
545.779	93.25
545.993	105.25
546.206	87.25
546.42	79.25
546.633	83.25
546.847	94.25
547.06	81.25
547.274	80.25
547.487	75.25
547.7	78.25
547.914	82.25
548.127	92.25
548.34	85.25
548.554	77.25
548.767	93.25
548.98	91.25
549.193	80.25
549.407	84.25
549.62	89.25
549.833	83.25
550.046	79.25
550.259	87.25
550.473	81.25
550.686	86.25
550.899	85.25
551.112	90.25
551.325	87.25
551.538	85.25
551.751	69.25
551.964	86.25
552.177	80.25
552.39	92.25
552.603	81.25
552.816	93.25
553.029	81.25
553.242	84.25
553.455	83.25
553.667	82.25
553.88	82.25
554.093	79.25
554.306	89.25
554.519	78.25
554.732	89.25
554.944	86.25
555.157	92.25
555.37	85.25
555.583	79.25
555.795	76.25
556.008	89.25
556.221	76.25
556.433	77.25
556.646	75.25
556.859	81.25
557.071	75.25
557.284	77.25
557.496	85.25
557.709	81.25
557.921	87.25
558.134	91.25
558.346	92.25
558.559	95.25
558.771	91.25
558.984	88.25
559.196	79.25
559.409	80.25
559.621	75.25
559.833	84.25
560.046	84.25
560.258	91.25
560.47	87.25
560.683	81.25
560.895	80.25
561.107	76.25
561.32	80.25
561.532	81.25
561.744	73.25
561.956	93.25
562.168	76.25
562.381	82.25
562.593	85.25
562.805	94.25
563.017	96.25
563.229	99.25
563.441	63.25
563.653	76.25
563.865	79.25
564.077	82.25
564.289	95.25
564.501	82.25
564.713	81.25
564.925	78.25
565.137	87.25
565.349	96.25
565.561	81.25
565.773	87.25
565.985	82.25
566.197	84.25
566.408	95.25
566.62	72.25
566.832	76.25
567.044	73.25
567.255	91.25
567.467	68.25
567.679	85.25
567.891	76.25
568.102	85.25
568.314	79.25
568.526	84.25
568.737	88.25
568.949	101.25
569.161	76.25
569.372	87.25
569.584	91.25
569.795	89.25
570.007	76.25
570.218	103.25
570.43	83.25
570.641	81.25
570.853	78.25
571.064	81.25
571.276	87.25
571.487	85.25
571.698	77.25
571.91	97.25
572.121	91.25
572.333	103.25
572.544	95.25
572.755	90.25
572.966	85.25
573.178	84.25
573.389	95.25
573.6	91.25
573.811	87.25
574.023	102.25
574.234	76.25
574.445	80.25
574.656	92.25
574.867	87.25
575.078	80.25
575.289	89.25
575.501	83.25
575.712	81.25
575.923	72.25
576.134	90.25
576.345	73.25
576.556	76.25
576.767	87.25
576.978	75.25
577.188	91.25
577.399	88.25
577.61	75.25
577.821	91.25
578.032	83.25
578.243	76.25
578.454	91.25
578.665	89.25
578.875	82.25
579.086	97.25
579.297	68.25
579.508	87.25
579.718	77.25
579.929	83.25
580.14	82.25
580.35	95.25
580.561	89.25
580.772	93.25
580.982	83.25
581.193	83.25
581.403	88.25
581.614	88.25
581.825	80.25
582.035	79.25
582.246	80.25
582.456	89.25
582.667	58.25
582.877	79.25
583.087	73.25
583.298	83.25
583.508	97.25
583.719	80.25
583.929	87.25
584.139	84.25
584.35	84.25
584.56	96.25
584.77	87.25
584.981	83.25
585.191	91.25
585.401	93.25
585.611	88.25
585.821	73.25
586.032	93.25
586.242	92.25
586.452	93.25
586.662	79.25
586.872	87.25
587.082	75.25
587.292	75.25
587.502	89.25
587.713	98.25
587.923	85.25
588.133	93.25
588.343	85.25
588.553	91.25
588.762	121.25
588.972	146.25
589.182	237.25
589.392	197.25
589.602	179.25
589.812	200.25
590.022	154.25
590.232	101.25
590.441	93.25
590.651	85.25
590.861	99.25
591.071	100.25
591.281	80.25
591.49	76.25
591.7	88.25
591.91	77.25
592.119	84.25
592.329	88.25
592.539	81.25
592.748	77.25
592.958	90.25
593.167	86.25
593.377	92.25
593.587	96.25
593.796	89.25
594.006	84.25
594.215	77.25
594.424	88.25
594.634	87.25
594.843	72.25
595.053	88.25
595.262	76.25
595.472	79.25
595.681	95.25
595.89	95.25
596.1	89.25
596.309	81.25
596.518	69.25
596.727	83.25
596.937	84.25
597.146	78.25
597.355	78.25
597.564	74.25
597.774	91.25
597.983	77.25
598.192	82.25
598.401	87.25
598.61	89.25
598.819	91.25
599.028	93.25
599.237	73.25
599.446	75.25
599.655	81.25
599.864	82.25
600.073	79.25
600.282	95.25
600.491	71.25
600.7	86.25
600.909	75.25
601.118	87.25
601.327	72.25
601.536	85.25
601.745	84.25
601.953	83.25
602.162	100.25
602.371	84.25
602.58	97.25
602.789	89.25
602.997	75.25
603.206	73.25
603.415	97.25
603.623	89.25
603.832	84.25
604.041	79.25
604.249	81.25
604.458	89.25
604.666	77.25
604.875	81.25
605.084	93.25
605.292	89.25
605.501	78.25
605.709	96.25
605.918	78.25
606.126	75.25
606.334	83.25
606.543	90.25
606.751	96.25
606.96	75.25
607.168	88.25
607.376	81.25
607.585	83.25
607.793	84.25
608.001	95.25
608.21	92.25
608.418	91.25
608.626	91.25
608.834	82.25
609.043	96.25
609.251	87.25
609.459	74.25
609.667	81.25
609.875	92.25
610.083	76.25
610.291	101.25
610.499	75.25
610.707	74.25
610.916	72.25
611.124	87.25
611.332	80.25
611.54	73.25
611.748	79.25
611.955	92.25
612.163	101.25
612.371	84.25
612.579	76.25
612.787	106.25
612.995	79.25
613.203	95.25
613.411	93.25
613.618	72.25
613.826	67.25
614.034	99.25
614.242	85.25
614.449	99.25
614.657	79.25
614.865	81.25
615.072	75.25
615.28	81.25
615.488	101.25
615.695	89.25
615.903	92.25
616.111	79.25
616.318	84.25
616.526	77.25
616.733	88.25
616.941	81.25
617.148	95.25
617.356	78.25
617.563	94.25
617.771	104.25
617.978	90.25
618.185	77.25
618.393	80.25
618.6	70.25
618.807	82.25
619.015	89.25
619.222	93.25
619.429	84.25
619.637	87.25
619.844	85.25
620.051	90.25
620.258	92.25
620.466	87.25
620.673	85.25
620.88	87.25
621.087	90.25
621.294	84.25
621.501	85.25
621.708	85.25
621.915	82.25
622.122	95.25
622.329	95.25
622.536	95.25
622.743	90.25
622.95	97.25
623.157	81.25
623.364	97.25
623.571	87.25
623.778	91.25
623.985	87.25
624.192	95.25
624.399	92.25
624.606	85.25
624.812	81.25
625.019	95.25
625.226	93.25
625.433	82.25
625.639	77.25
625.846	84.25
626.053	89.25
626.259	93.25
626.466	104.25
626.673	84.25
626.879	77.25
627.086	99.25
627.293	77.25
627.499	67.25
627.706	100.25
627.912	75.25
628.119	82.25
628.325	91.25
628.532	85.25
628.738	76.25
628.945	73.25
629.151	76.25
629.357	85.25
629.564	75.25
629.77	83.25
629.976	94.25
630.183	87.25
630.389	77.25
630.595	84.25
630.802	80.25
631.008	78.25
631.214	84.25
631.42	83.25
631.627	92.25
631.833	91.25
632.039	84.25
632.245	92.25
632.451	81.25
632.657	91.25
632.863	73.25
633.069	75.25
633.275	76.25
633.481	89.25
633.688	96.25
633.893	85.25
634.099	76.25
634.305	91.25
634.511	75.25
634.717	75.25
634.923	85.25
635.129	96.25
635.335	75.25
635.541	83.25
635.747	79.25
635.952	80.25
636.158	72.25
636.364	67.25
636.57	75.25
636.775	82.25
636.981	80.25
637.187	68.25
637.392	92.25
637.598	83.25
637.804	80.25
638.009	83.25
638.215	83.25
638.421	83.25
638.626	75.25
638.832	81.25
639.037	80.25
639.243	86.25
639.448	88.25
639.654	95.25
639.859	91.25
640.065	88.25
640.27	92.25
640.475	84.25
640.681	70.25
640.886	73.25
641.091	73.25
641.297	88.25
641.502	90.25
641.707	90.25
641.913	78.25
642.118	99.25
642.323	85.25
642.528	96.25
642.733	73.25
642.939	80.25
643.144	76.25
643.349	84.25
643.554	77.25
643.759	90.25
643.964	84.25
644.169	87.25
644.374	69.25
644.579	83.25
644.784	88.25
644.989	76.25
645.194	74.25
645.399	85.25
645.604	75.25
645.809	91.25
646.014	86.25
646.219	89.25
646.423	77.25
646.628	77.25
646.833	100.25
647.038	91.25
647.243	82.25
647.447	95.25
647.652	73.25
647.857	88.25
648.062	79.25
648.266	87.25
648.471	86.25
648.676	78.25
648.88	98.25
649.085	78.25
649.289	82.25
649.494	80.25
649.698	94.25
649.903	83.25
650.107	79.25
650.312	83.25
650.516	72.25
650.721	78.25
650.925	80.25
651.13	79.25
651.334	78.25
651.539	79.25
651.743	91.25
651.947	80.25
652.152	88.25
652.356	78.25
652.56	67.25
652.764	85.25
652.969	83.25
653.173	82.25
653.377	71.25
653.581	75.25
653.785	77.25
653.99	79.25
654.194	83.25
654.398	65.25
654.602	79.25
654.806	86.25
655.01	80.25
655.214	82.25
655.418	91.25
655.622	68.25
655.826	77.25
656.03	77.25
656.234	76.25
656.438	84.25
656.642	78.25
656.846	88.25
657.049	78.25
657.253	71.25
657.457	77.25
657.661	71.25
657.865	75.25
658.068	65.25
658.272	78.25
658.476	85.25
658.68	80.25
658.883	88.25
659.087	81.25
659.291	75.25
659.494	83.25
659.698	83.25
659.901	75.25
660.105	89.25
660.309	88.25
660.512	80.25
660.716	83.25
660.919	86.25
661.123	97.25
661.326	77.25
661.53	83.25
661.733	81.25
661.936	80.25
662.14	96.25
662.343	75.25
662.546	73.25
662.75	99.25
662.953	76.25
663.156	74.25
663.36	81.25
663.563	89.25
663.766	84.25
663.969	81.25
664.173	68.25
664.376	66.25
664.579	84.25
664.782	75.25
664.985	80.25
665.188	82.25
665.391	82.25
665.594	78.25
665.797	79.25
666	91.25
666.203	67.25
666.406	67.25
666.609	60.25
666.812	80.25
667.015	81.25
667.218	69.25
667.421	79.25
667.624	67.25
667.827	79.25
668.03	99.25
668.232	86.25
668.435	99.25
668.638	76.25
668.841	91.25
669.043	79.25
669.246	83.25
669.449	88.25
669.651	87.25
669.854	94.25
670.057	92.25
670.259	82.25
670.462	74.25
670.665	75.25
670.867	80.25
671.07	71.25
671.272	80.25
671.475	84.25
671.677	79.25
671.88	95.25
672.082	101.25
672.284	85.25
672.487	77.25
672.689	76.25
672.892	69.25
