Data from Propagules_25_2_HRD10591_00010.txt Node
Date: Thu Feb 19 11:01:44 EST 2026
User: Yrep
Spectrometer: HR+D1059
Trigger mode: 1
Integration Time (sec): 1.000000E-1
Scans to average: 1
Electric dark correction enabled: true
Nonlinearity correction enabled: false
Boxcar width: 0
XAxis mode: Wavelengths
Number of Pixels in Spectrum: 2048
>>>>>Begin Spectral Data<<<<<
223.165	-14.62
223.4	-14.62
223.635	-14.62
223.869	-14.62
224.104	-23.62
224.338	-17.62
224.573	-6.62
224.808	-12.62
225.042	-16.62
225.277	-6.62
225.511	-7.62
225.746	3.38
225.98	18.38
226.215	9.38
226.449	20.38
226.683	24.38
226.918	22.38
227.152	22.38
227.387	37.38
227.621	32.38
227.856	49.38
228.09	41.38
228.324	38.38
228.559	58.38
228.793	66.38
229.027	65.38
229.262	67.38
229.496	51.38
229.73	68.38
229.964	67.38
230.199	79.38
230.433	75.38
230.667	72.38
230.901	83.38
231.136	88.38
231.37	80.38
231.604	77.38
231.838	74.38
232.072	90.38
232.306	74.38
232.541	80.38
232.775	78.38
233.009	76.38
233.243	65.38
233.477	83.38
233.711	76.38
233.945	84.38
234.179	68.38
234.413	67.38
234.647	79.38
234.881	75.38
235.115	77.38
235.349	69.38
235.583	85.38
235.817	62.38
236.051	64.38
236.285	78.38
236.519	89.38
236.753	87.38
236.987	72.38
237.221	70.38
237.455	69.38
237.689	65.38
237.922	74.38
238.156	61.38
238.39	72.38
238.624	68.38
238.858	71.38
239.091	65.38
239.325	77.38
239.559	76.38
239.793	77.38
240.027	85.38
240.26	71.38
240.494	71.38
240.728	67.38
240.961	75.38
241.195	79.38
241.429	60.38
241.662	77.38
241.896	79.38
242.13	78.38
242.363	76.38
242.597	70.38
242.83	84.38
243.064	79.38
243.298	81.38
243.531	62.38
243.765	92.38
243.998	74.38
244.232	69.38
244.465	83.38
244.699	67.38
244.932	87.38
245.166	86.38
245.399	82.38
245.633	66.38
245.866	77.38
246.099	75.38
246.333	85.38
246.566	80.38
246.8	76.38
247.033	69.38
247.266	64.38
247.5	66.38
247.733	77.38
247.966	82.38
248.2	76.38
248.433	73.38
248.666	78.38
248.899	80.38
249.133	82.38
249.366	78.38
249.599	79.38
249.832	67.38
250.066	66.38
250.299	70.38
250.532	76.38
250.765	80.38
250.998	74.38
251.231	75.38
251.465	86.38
251.698	78.38
251.931	85.38
252.164	78.38
252.397	72.38
252.63	82.38
252.863	76.38
253.096	83.38
253.329	97.38
253.562	67.38
253.795	91.38
254.028	74.38
254.261	72.38
254.494	73.38
254.727	88.38
254.96	68.38
255.193	60.38
255.426	66.38
255.659	76.38
255.892	71.38
256.124	81.38
256.357	82.38
256.59	74.38
256.823	78.38
257.056	89.38
257.289	76.38
257.521	78.38
257.754	77.38
257.987	83.38
258.22	95.38
258.452	91.38
258.685	74.38
258.918	89.38
259.151	70.38
259.383	70.38
259.616	81.38
259.849	73.38
260.081	75.38
260.314	87.38
260.547	85.38
260.779	73.38
261.012	70.38
261.244	72.38
261.477	90.38
261.71	80.38
261.942	77.38
262.175	72.38
262.407	95.38
262.64	74.38
262.872	71.38
263.105	64.38
263.337	77.38
263.57	80.38
263.802	87.38
264.035	77.38
264.267	78.38
264.499	80.38
264.732	75.38
264.964	76.38
265.197	88.38
265.429	80.38
265.661	83.38
265.894	92.38
266.126	92.38
266.358	76.38
266.591	69.38
266.823	84.38
267.055	92.38
267.287	80.38
267.52	86.38
267.752	73.38
267.984	80.38
268.216	65.38
268.448	84.38
268.681	81.38
268.913	72.38
269.145	70.38
269.377	92.38
269.609	72.38
269.841	91.38
270.073	79.38
270.306	65.38
270.538	84.38
270.77	76.38
271.002	89.38
271.234	75.38
271.466	88.38
271.698	84.38
271.93	76.38
272.162	86.38
272.394	78.38
272.626	86.38
272.858	76.38
273.09	89.38
273.322	90.38
273.553	84.38
273.785	80.38
274.017	89.38
274.249	88.38
274.481	81.38
274.713	74.38
274.945	85.38
275.176	82.38
275.408	75.38
275.64	80.38
275.872	90.38
276.104	84.38
276.335	78.38
276.567	79.38
276.799	69.38
277.031	83.38
277.262	88.38
277.494	82.38
277.726	85.38
277.957	84.38
278.189	84.38
278.421	78.38
278.652	75.38
278.884	77.38
279.115	82.38
279.347	86.38
279.579	93.38
279.81	76.38
280.042	77.38
280.273	86.38
280.505	76.38
280.736	82.38
280.968	83.38
281.199	65.38
281.431	81.38
281.662	87.38
281.894	81.38
282.125	91.38
282.356	84.38
282.588	80.38
282.819	93.38
283.051	78.38
283.282	72.38
283.513	92.38
283.745	80.38
283.976	68.38
284.207	84.38
284.439	89.38
284.67	75.38
284.901	79.38
285.132	80.38
285.364	89.38
285.595	92.38
285.826	96.38
286.057	93.38
286.288	82.38
286.52	93.38
286.751	76.38
286.982	82.38
287.213	83.38
287.444	83.38
287.675	94.38
287.906	82.38
288.138	80.38
288.369	76.38
288.6	83.38
288.831	83.38
289.062	91.38
289.293	99.38
289.524	68.38
289.755	75.38
289.986	83.38
290.217	78.38
290.448	72.38
290.679	90.38
290.91	70.38
291.141	88.38
291.371	84.38
291.602	78.38
291.833	75.38
292.064	87.38
292.295	76.38
292.526	76.38
292.757	73.38
292.987	79.38
293.218	79.38
293.449	88.38
293.68	76.38
293.91	74.38
294.141	82.38
294.372	79.38
294.603	77.38
294.833	87.38
295.064	84.38
295.295	86.38
295.525	77.38
295.756	87.38
295.987	97.38
296.217	70.38
296.448	68.38
296.679	91.38
296.909	90.38
297.14	78.38
297.37	86.38
297.601	70.38
297.831	74.38
298.062	84.38
298.292	78.38
298.523	93.38
298.753	70.38
298.984	85.38
299.214	83.38
299.445	84.38
299.675	89.38
299.905	76.38
300.136	80.38
300.366	84.38
300.597	84.38
300.827	81.38
301.057	86.38
301.288	88.38
301.518	82.38
301.748	76.38
301.979	96.38
302.209	92.38
302.439	85.38
302.669	82.38
302.9	80.38
303.13	87.38
303.36	86.38
303.59	81.38
303.82	72.38
304.051	78.38
304.281	90.38
304.511	74.38
304.741	85.38
304.971	80.38
305.201	96.38
305.431	93.38
305.661	86.38
305.891	82.38
306.121	94.38
306.352	96.38
306.582	78.38
306.812	82.38
307.042	81.38
307.272	86.38
307.502	82.38
307.731	87.38
307.961	91.38
308.191	86.38
308.421	85.38
308.651	81.38
308.881	79.38
309.111	93.38
309.341	86.38
309.571	88.38
309.8	74.38
310.03	78.38
310.26	87.38
310.49	80.38
310.72	82.38
310.949	85.38
311.179	83.38
311.409	75.38
311.639	76.38
311.868	90.38
312.098	79.38
312.328	100.38
312.557	83.38
312.787	80.38
313.017	79.38
313.246	92.38
313.476	91.38
313.706	84.38
313.935	85.38
314.165	74.38
314.394	88.38
314.624	92.38
314.853	79.38
315.083	95.38
315.312	100.38
315.542	74.38
315.771	82.38
316.001	77.38
316.23	79.38
316.46	81.38
316.689	85.38
316.919	81.38
317.148	87.38
317.377	77.38
317.607	90.38
317.836	91.38
318.065	89.38
318.295	76.38
318.524	80.38
318.753	80.38
318.983	73.38
319.212	79.38
319.441	86.38
319.67	95.38
319.9	78.38
320.129	81.38
320.358	86.38
320.587	77.38
320.816	78.38
321.046	89.38
321.275	86.38
321.504	72.38
321.733	80.38
321.962	76.38
322.191	83.38
322.42	78.38
322.649	81.38
322.878	76.38
323.108	98.38
323.337	94.38
323.566	90.38
323.795	91.38
324.024	88.38
324.253	102.38
324.482	76.38
324.71	82.38
324.939	76.38
325.168	88.38
325.397	76.38
325.626	71.38
325.855	76.38
326.084	84.38
326.313	72.38
326.542	92.38
326.77	90.38
326.999	106.38
327.228	79.38
327.457	99.38
327.686	87.38
327.914	67.38
328.143	86.38
328.372	78.38
328.6	84.38
328.829	63.38
329.058	95.38
329.287	85.38
329.515	94.38
329.744	79.38
329.972	86.38
330.201	78.38
330.43	86.38
330.658	75.38
330.887	104.38
331.115	85.38
331.344	86.38
331.572	81.38
331.801	80.38
332.03	70.38
332.258	77.38
332.486	82.38
332.715	83.38
332.943	78.38
333.172	84.38
333.4	81.38
333.629	82.38
333.857	79.38
334.085	84.38
334.314	97.38
334.542	72.38
334.771	76.38
334.999	92.38
335.227	73.38
335.455	72.38
335.684	84.38
335.912	84.38
336.14	82.38
336.369	90.38
336.597	90.38
336.825	91.38
337.053	91.38
337.281	84.38
337.51	79.38
337.738	86.38
337.966	93.38
338.194	68.38
338.422	80.38
338.65	85.38
338.878	84.38
339.106	79.38
339.334	82.38
339.562	79.38
339.79	75.38
340.018	76.38
340.246	79.38
340.474	68.38
340.702	77.38
340.93	80.38
341.158	78.38
341.386	101.38
341.614	83.38
341.842	84.38
342.07	95.38
342.298	89.38
342.526	93.38
342.754	90.38
342.981	72.38
343.209	83.38
343.437	99.38
343.665	85.38
343.893	93.38
344.12	74.38
344.348	90.38
344.576	79.38
344.804	90.38
345.031	76.38
345.259	92.38
345.487	86.38
345.714	76.38
345.942	86.38
346.17	81.38
346.397	73.38
346.625	86.38
346.853	85.38
347.08	85.38
347.308	81.38
347.535	73.38
347.763	70.38
347.99	83.38
348.218	69.38
348.445	82.38
348.673	83.38
348.9	87.38
349.128	78.38
349.355	67.38
349.583	65.38
349.81	82.38
350.037	88.38
350.265	84.38
350.492	84.38
350.72	85.38
350.947	93.38
351.174	83.38
351.402	93.38
351.629	83.38
351.856	93.38
352.083	86.38
352.311	83.38
352.538	61.38
352.765	83.38
352.992	90.38
353.22	78.38
353.447	78.38
353.674	86.38
353.901	92.38
354.128	83.38
354.355	84.38
354.583	72.38
354.81	88.38
355.037	83.38
355.264	83.38
355.491	77.38
355.718	81.38
355.945	82.38
356.172	76.38
356.399	85.38
356.626	83.38
356.853	85.38
357.08	88.38
357.307	74.38
357.534	92.38
357.761	88.38
357.988	82.38
358.215	84.38
358.441	86.38
358.668	68.38
358.895	84.38
359.122	74.38
359.349	86.38
359.576	80.38
359.802	81.38
360.029	78.38
360.256	83.38
360.483	85.38
360.709	93.38
360.936	79.38
361.163	80.38
361.39	79.38
361.616	89.38
361.843	74.38
362.07	79.38
362.296	74.38
362.523	78.38
362.749	80.38
362.976	82.38
363.203	83.38
363.429	91.38
363.656	91.38
363.882	72.38
364.109	84.38
364.335	69.38
364.562	64.38
364.788	73.38
365.015	70.38
365.241	72.38
365.468	79.38
365.694	87.38
365.92	89.38
366.147	74.38
366.373	88.38
366.599	80.38
366.826	86.38
367.052	84.38
367.278	76.38
367.505	80.38
367.731	77.38
367.957	74.38
368.184	79.38
368.41	84.38
368.636	86.38
368.862	67.38
369.089	82.38
369.315	75.38
369.541	90.38
369.767	74.38
369.993	86.38
370.219	81.38
370.445	90.38
370.672	77.38
370.898	77.38
371.124	99.38
371.35	85.38
371.576	89.38
371.802	80.38
372.028	69.38
372.254	74.38
372.48	70.38
372.706	86.38
372.932	87.38
373.158	84.38
373.384	85.38
373.61	67.38
373.835	83.38
374.061	73.38
374.287	90.38
374.513	76.38
374.739	66.38
374.965	89.38
375.191	89.38
375.416	80.38
375.642	82.38
375.868	77.38
376.094	66.38
376.319	92.38
376.545	92.38
376.771	82.38
376.997	77.38
377.222	92.38
377.448	90.38
377.674	79.38
377.899	75.38
378.125	76.38
378.35	74.38
378.576	86.38
378.802	64.38
379.027	84.38
379.253	82.38
379.478	86.38
379.704	81.38
379.929	83.38
380.155	72.38
380.38	81.38
380.606	82.38
380.831	89.38
381.057	78.38
381.282	68.38
381.507	86.38
381.733	83.38
381.958	98.38
382.184	86.38
382.409	78.38
382.634	76.38
382.86	80.38
383.085	78.38
383.31	84.38
383.535	92.38
383.761	84.38
383.986	86.38
384.211	92.38
384.436	84.38
384.662	65.38
384.887	79.38
385.112	86.38
385.337	86.38
385.562	85.38
385.787	89.38
386.013	92.38
386.238	69.38
386.463	79.38
386.688	83.38
386.913	91.38
387.138	84.38
387.363	78.38
387.588	72.38
387.813	71.38
388.038	77.38
388.263	92.38
388.488	92.38
388.713	85.38
388.938	78.38
389.163	79.38
389.387	81.38
389.612	79.38
389.837	75.38
390.062	87.38
390.287	87.38
390.512	91.38
390.736	74.38
390.961	94.38
391.186	87.38
391.411	72.38
391.636	69.38
391.86	80.38
392.085	72.38
392.31	73.38
392.534	77.38
392.759	71.38
392.984	78.38
393.208	92.38
393.433	84.38
393.658	93.38
393.882	94.38
394.107	86.38
394.331	79.38
394.556	76.38
394.78	72.38
395.005	88.38
395.229	69.38
395.454	78.38
395.678	74.38
395.903	90.38
396.127	84.38
396.352	87.38
396.576	82.38
396.801	82.38
397.025	85.38
397.249	73.38
397.474	72.38
397.698	78.38
397.922	70.38
398.147	68.38
398.371	93.38
398.595	69.38
398.82	65.38
399.044	73.38
399.268	63.38
399.492	83.38
399.717	82.38
399.941	82.38
400.165	87.38
400.389	90.38
400.613	77.38
400.837	74.38
401.062	71.38
401.286	93.38
401.51	75.38
401.734	85.38
401.958	73.38
402.182	72.38
402.406	76.38
402.63	75.38
402.854	71.38
403.078	99.38
403.302	82.38
403.526	87.38
403.75	77.38
403.974	84.38
404.198	79.38
404.422	92.38
404.645	98.38
404.869	89.38
405.093	78.38
405.317	84.38
405.541	76.38
405.765	69.38
405.988	72.38
406.212	85.38
406.436	82.38
406.66	82.38
406.883	75.38
407.107	80.38
407.331	85.38
407.555	90.38
407.778	86.38
408.002	84.38
408.226	84.38
408.449	91.38
408.673	91.38
408.896	83.38
409.12	89.38
409.344	76.38
409.567	75.38
409.791	92.38
410.014	85.38
410.238	82.38
410.461	84.38
410.685	72.38
410.908	78.38
411.132	94.38
411.355	81.38
411.578	64.38
411.802	69.38
412.025	75.38
412.249	77.38
412.472	86.38
412.695	80.38
412.919	78.38
413.142	86.38
413.365	86.38
413.589	78.38
413.812	73.38
414.035	81.38
414.258	84.38
414.482	80.38
414.705	76.38
414.928	85.38
415.151	72.38
415.374	68.38
415.597	81.38
415.821	80.38
416.044	72.38
416.267	79.38
416.49	79.38
416.713	79.38
416.936	80.38
417.159	84.38
417.382	68.38
417.605	84.38
417.828	83.38
418.051	69.38
418.274	90.38
418.497	67.38
418.72	66.38
418.943	79.38
419.166	74.38
419.389	81.38
419.611	66.38
419.834	75.38
420.057	84.38
420.28	83.38
420.503	85.38
420.726	87.38
420.948	91.38
421.171	79.38
421.394	84.38
421.617	101.38
421.839	83.38
422.062	82.38
422.285	87.38
422.507	84.38
422.73	96.38
422.953	89.38
423.175	85.38
423.398	84.38
423.621	89.38
423.843	74.38
424.066	82.38
424.288	77.38
424.511	84.38
424.733	76.38
424.956	68.38
425.178	70.38
425.401	89.38
425.623	78.38
425.846	78.38
426.068	77.38
426.291	85.38
426.513	68.38
426.735	85.38
426.958	88.38
427.18	81.38
427.402	83.38
427.625	80.38
427.847	75.38
428.069	87.38
428.292	69.38
428.514	84.38
428.736	88.38
428.958	76.38
429.181	64.38
429.403	76.38
429.625	66.38
429.847	79.38
430.069	76.38
430.292	83.38
430.514	69.38
430.736	80.38
430.958	96.38
431.18	80.38
431.402	85.38
431.624	69.38
431.846	74.38
432.068	83.38
432.29	70.38
432.512	81.38
432.734	77.38
432.956	85.38
433.178	87.38
433.4	76.38
433.622	94.38
433.844	102.38
434.066	70.38
434.287	68.38
434.509	64.38
434.731	83.38
434.953	73.38
435.175	86.38
435.397	66.38
435.618	65.38
435.84	91.38
436.062	81.38
436.284	88.38
436.505	90.38
436.727	92.38
436.949	85.38
437.17	81.38
437.392	72.38
437.614	71.38
437.835	80.38
438.057	77.38
438.278	69.38
438.5	77.38
438.721	89.38
438.943	85.38
439.165	81.38
439.386	79.38
439.608	79.38
439.829	79.38
440.05	85.38
440.272	76.38
440.493	78.38
440.715	69.38
440.936	72.38
441.158	74.38
441.379	80.38
441.6	98.38
441.822	92.38
442.043	87.38
442.264	74.38
442.486	77.38
442.707	74.38
442.928	69.38
443.149	76.38
443.371	73.38
443.592	78.38
443.813	81.38
444.034	78.38
444.255	98.38
444.476	90.38
444.698	75.38
444.919	79.38
445.14	140.38
445.361	122.38
445.582	77.38
445.803	79.38
446.024	89.38
446.245	92.38
446.466	90.38
446.687	100.38
446.908	85.38
447.129	59.38
447.35	74.38
447.571	96.38
447.792	88.38
448.013	83.38
448.234	74.38
448.455	81.38
448.675	87.38
448.896	79.38
449.117	82.38
449.338	89.38
449.559	70.38
449.779	73.38
450	66.38
450.221	73.38
450.442	83.38
450.662	79.38
450.883	65.38
451.104	80.38
451.324	72.38
451.545	74.38
451.766	78.38
451.986	77.38
452.207	79.38
452.428	71.38
452.648	82.38
452.869	74.38
453.089	75.38
453.31	82.38
453.53	81.38
453.751	92.38
453.971	74.38
454.192	80.38
454.412	72.38
454.633	68.38
454.853	76.38
455.073	100.38
455.294	85.38
455.514	82.38
455.734	85.38
455.955	80.38
456.175	80.38
456.395	77.38
456.616	76.38
456.836	77.38
457.056	83.38
457.276	78.38
457.497	74.38
457.717	88.38
457.937	78.38
458.157	73.38
458.377	73.38
458.598	68.38
458.818	89.38
459.038	68.38
459.258	72.38
459.478	69.38
459.698	76.38
459.918	82.38
460.138	83.38
460.358	87.38
460.578	85.38
460.798	74.38
461.018	79.38
461.238	78.38
461.458	74.38
461.678	77.38
461.898	83.38
462.118	77.38
462.338	87.38
462.558	72.38
462.777	77.38
462.997	83.38
463.217	68.38
463.437	60.38
463.657	81.38
463.876	79.38
464.096	75.38
464.316	71.38
464.536	76.38
464.755	88.38
464.975	79.38
465.195	90.38
465.414	86.38
465.634	85.38
465.854	74.38
466.073	81.38
466.293	79.38
466.512	92.38
466.732	74.38
466.951	77.38
467.171	68.38
467.391	76.38
467.61	92.38
467.829	75.38
468.049	106.38
468.268	76.38
468.488	71.38
468.707	81.38
468.927	96.38
469.146	90.38
469.365	76.38
469.585	76.38
469.804	85.38
470.023	80.38
470.243	75.38
470.462	79.38
470.681	98.38
470.901	85.38
471.12	98.38
471.339	90.38
471.558	74.38
471.777	76.38
471.997	77.38
472.216	80.38
472.435	91.38
472.654	85.38
472.873	76.38
473.092	71.38
473.311	77.38
473.53	87.38
473.749	74.38
473.968	84.38
474.187	68.38
474.406	85.38
474.625	86.38
474.844	82.38
475.063	84.38
475.282	86.38
475.501	73.38
475.72	90.38
475.939	80.38
476.158	85.38
476.377	75.38
476.596	98.38
476.814	86.38
477.033	76.38
477.252	101.38
477.471	74.38
477.69	82.38
477.908	71.38
478.127	90.38
478.346	81.38
478.564	89.38
478.783	72.38
479.002	75.38
479.22	85.38
479.439	83.38
479.658	67.38
479.876	78.38
480.095	77.38
480.313	85.38
480.532	64.38
480.751	83.38
480.969	72.38
481.188	65.38
481.406	83.38
481.624	76.38
481.843	84.38
482.061	84.38
482.28	90.38
482.498	92.38
482.717	88.38
482.935	86.38
483.153	84.38
483.372	75.38
483.59	78.38
483.808	75.38
484.027	88.38
484.245	81.38
484.463	74.38
484.681	103.38
484.9	93.38
485.118	77.38
485.336	70.38
485.554	78.38
485.772	80.38
485.99	86.38
486.209	83.38
486.427	85.38
486.645	90.38
486.863	96.38
487.081	74.38
487.299	82.38
487.517	68.38
487.735	83.38
487.953	84.38
488.171	81.38
488.389	84.38
488.607	73.38
488.825	68.38
489.043	69.38
489.261	93.38
489.479	77.38
489.696	83.38
489.914	84.38
490.132	88.38
490.35	87.38
490.568	62.38
490.786	96.38
491.003	90.38
491.221	88.38
491.439	84.38
491.657	79.38
491.874	83.38
492.092	80.38
492.31	75.38
492.527	70.38
492.745	84.38
492.963	87.38
493.18	84.38
493.398	90.38
493.615	70.38
493.833	88.38
494.05	68.38
494.268	90.38
494.485	88.38
494.703	86.38
494.92	80.38
495.138	89.38
495.355	78.38
495.573	80.38
495.79	82.38
496.008	88.38
496.225	84.38
496.442	81.38
496.66	81.38
496.877	69.38
497.094	68.38
497.312	79.38
497.529	79.38
497.746	78.38
497.963	64.38
498.181	84.38
498.398	88.38
498.615	88.38
498.832	75.38
499.049	78.38
499.267	62.38
499.484	70.38
499.701	72.38
499.918	80.38
500.135	93.38
500.352	77.38
500.569	72.38
500.786	82.38
501.003	80.38
501.22	70.38
501.437	74.38
501.654	92.38
501.871	77.38
502.088	72.38
502.305	83.38
502.522	84.38
502.739	78.38
502.956	84.38
503.172	74.38
503.389	87.38
503.606	77.38
503.823	72.38
504.04	73.38
504.256	73.38
504.473	84.38
504.69	84.38
504.907	89.38
505.123	83.38
505.34	80.38
505.557	72.38
505.773	82.38
505.99	78.38
506.207	86.38
506.423	72.38
506.64	90.38
506.856	81.38
507.073	86.38
507.289	80.38
507.506	81.38
507.722	87.38
507.939	86.38
508.155	85.38
508.372	76.38
508.588	77.38
508.805	72.38
509.021	80.38
509.238	77.38
509.454	76.38
509.67	73.38
509.887	91.38
510.103	92.38
510.319	84.38
510.536	99.38
510.752	72.38
510.968	78.38
511.184	72.38
511.401	87.38
511.617	87.38
511.833	82.38
512.049	76.38
512.265	92.38
512.481	80.38
512.698	82.38
512.914	87.38
513.13	80.38
513.346	83.38
513.562	92.38
513.778	75.38
513.994	79.38
514.21	86.38
514.426	78.38
514.642	83.38
514.858	70.38
515.074	79.38
515.29	93.38
515.506	77.38
515.721	87.38
515.937	76.38
516.153	72.38
516.369	75.38
516.585	68.38
516.801	85.38
517.016	78.38
517.232	77.38
517.448	102.38
517.664	87.38
517.879	86.38
518.095	80.38
518.311	75.38
518.527	72.38
518.742	75.38
518.958	74.38
519.173	69.38
519.389	87.38
519.605	93.38
519.82	81.38
520.036	82.38
520.251	92.38
520.467	80.38
520.682	88.38
520.898	93.38
521.113	67.38
521.329	92.38
521.544	86.38
521.76	76.38
521.975	82.38
522.19	82.38
522.406	91.38
522.621	78.38
522.836	78.38
523.052	75.38
523.267	83.38
523.482	79.38
523.698	81.38
523.913	86.38
524.128	67.38
524.343	70.38
524.559	77.38
524.774	72.38
524.989	67.38
525.204	85.38
525.419	76.38
525.634	92.38
525.849	86.38
526.064	90.38
526.28	79.38
526.495	76.38
526.71	81.38
526.925	83.38
527.14	71.38
527.355	80.38
527.57	77.38
527.785	85.38
527.999	84.38
528.214	75.38
528.429	92.38
528.644	89.38
528.859	77.38
529.074	73.38
529.289	83.38
529.503	89.38
529.718	72.38
529.933	85.38
530.148	80.38
530.363	89.38
530.577	75.38
530.792	84.38
531.007	81.38
531.221	89.38
531.436	80.38
531.651	80.38
531.865	90.38
532.08	89.38
532.295	89.38
532.509	81.38
532.724	80.38
532.938	87.38
533.153	76.38
533.367	69.38
533.582	86.38
533.796	92.38
534.011	71.38
534.225	90.38
534.44	80.38
534.654	84.38
534.868	73.38
535.083	67.38
535.297	90.38
535.511	72.38
535.726	85.38
535.94	97.38
536.154	82.38
536.369	82.38
536.583	90.38
536.797	81.38
537.011	83.38
537.225	89.38
537.44	73.38
537.654	89.38
537.868	88.38
538.082	81.38
538.296	77.38
538.51	94.38
538.724	71.38
538.938	76.38
539.153	76.38
539.367	77.38
539.581	71.38
539.795	75.38
540.009	84.38
540.222	86.38
540.436	88.38
540.65	87.38
540.864	77.38
541.078	80.38
541.292	81.38
541.506	90.38
541.72	92.38
541.934	95.38
542.147	83.38
542.361	85.38
542.575	77.38
542.789	80.38
543.002	78.38
543.216	85.38
543.43	90.38
543.644	86.38
543.857	93.38
544.071	82.38
544.285	82.38
544.498	75.38
544.712	96.38
544.925	98.38
545.139	76.38
545.352	72.38
545.566	65.38
545.779	68.38
545.993	81.38
546.206	80.38
546.42	90.38
546.633	80.38
546.847	90.38
547.06	84.38
547.274	92.38
547.487	79.38
547.7	81.38
547.914	93.38
548.127	89.38
548.34	90.38
548.554	96.38
548.767	85.38
548.98	71.38
549.193	86.38
549.407	88.38
549.62	76.38
549.833	76.38
550.046	99.38
550.259	77.38
550.473	80.38
550.686	81.38
550.899	64.38
551.112	88.38
551.325	73.38
551.538	68.38
551.751	82.38
551.964	76.38
552.177	94.38
552.39	94.38
552.603	78.38
552.816	84.38
553.029	82.38
553.242	80.38
553.455	73.38
553.667	93.38
553.88	89.38
554.093	79.38
554.306	83.38
554.519	96.38
554.732	77.38
554.944	82.38
555.157	76.38
555.37	78.38
555.583	93.38
555.795	90.38
556.008	85.38
556.221	95.38
556.433	88.38
556.646	84.38
556.859	84.38
557.071	97.38
557.284	83.38
557.496	70.38
557.709	81.38
557.921	77.38
558.134	77.38
558.346	86.38
558.559	86.38
558.771	95.38
558.984	77.38
559.196	81.38
559.409	65.38
559.621	87.38
559.833	87.38
560.046	94.38
560.258	92.38
560.47	91.38
560.683	84.38
560.895	71.38
561.107	89.38
561.32	84.38
561.532	80.38
561.744	95.38
561.956	93.38
562.168	86.38
562.381	84.38
562.593	94.38
562.805	73.38
563.017	74.38
563.229	85.38
563.441	78.38
563.653	84.38
563.865	80.38
564.077	76.38
564.289	84.38
564.501	94.38
564.713	74.38
564.925	84.38
565.137	82.38
565.349	84.38
565.561	89.38
565.773	88.38
565.985	85.38
566.197	65.38
566.408	87.38
566.62	82.38
566.832	77.38
567.044	85.38
567.255	85.38
567.467	79.38
567.679	78.38
567.891	79.38
568.102	81.38
568.314	83.38
568.526	83.38
568.737	91.38
568.949	74.38
569.161	85.38
569.372	85.38
569.584	94.38
569.795	81.38
570.007	84.38
570.218	96.38
570.43	83.38
570.641	82.38
570.853	88.38
571.064	96.38
571.276	82.38
571.487	90.38
571.698	77.38
571.91	79.38
572.121	82.38
572.333	81.38
572.544	86.38
572.755	78.38
572.966	72.38
573.178	82.38
573.389	83.38
573.6	75.38
573.811	81.38
574.023	70.38
574.234	91.38
574.445	89.38
574.656	57.38
574.867	92.38
575.078	93.38
575.289	80.38
575.501	82.38
575.712	85.38
575.923	94.38
576.134	73.38
576.345	86.38
576.556	92.38
576.767	75.38
576.978	86.38
577.188	84.38
577.399	91.38
577.61	78.38
577.821	84.38
578.032	93.38
578.243	84.38
578.454	89.38
578.665	78.38
578.875	85.38
579.086	77.38
579.297	89.38
579.508	80.38
579.718	84.38
579.929	78.38
580.14	83.38
580.35	76.38
580.561	92.38
580.772	84.38
580.982	91.38
581.193	85.38
581.403	80.38
581.614	74.38
581.825	93.38
582.035	86.38
582.246	80.38
582.456	84.38
582.667	80.38
582.877	81.38
583.087	72.38
583.298	78.38
583.508	78.38
583.719	90.38
583.929	79.38
584.139	81.38
584.35	85.38
584.56	78.38
584.77	90.38
584.981	87.38
585.191	80.38
585.401	75.38
585.611	85.38
585.821	95.38
586.032	87.38
586.242	101.38
586.452	91.38
586.662	84.38
586.872	86.38
587.082	83.38
587.292	86.38
587.502	79.38
587.713	76.38
587.923	85.38
588.133	92.38
588.343	86.38
588.553	82.38
588.762	104.38
588.972	147.38
589.182	225.38
589.392	177.38
589.602	142.38
589.812	216.38
590.022	130.38
590.232	91.38
590.441	77.38
590.651	86.38
590.861	81.38
591.071	93.38
591.281	86.38
591.49	73.38
591.7	85.38
591.91	86.38
592.119	80.38
592.329	80.38
592.539	72.38
592.748	94.38
592.958	94.38
593.167	97.38
593.377	93.38
593.587	98.38
593.796	74.38
594.006	76.38
594.215	82.38
594.424	88.38
594.634	93.38
594.843	72.38
595.053	91.38
595.262	72.38
595.472	76.38
595.681	79.38
595.89	78.38
596.1	87.38
596.309	85.38
596.518	80.38
596.727	95.38
596.937	79.38
597.146	85.38
597.355	72.38
597.564	84.38
597.774	82.38
597.983	102.38
598.192	82.38
598.401	81.38
598.61	85.38
598.819	86.38
599.028	81.38
599.237	77.38
599.446	97.38
599.655	80.38
599.864	94.38
600.073	75.38
600.282	83.38
600.491	81.38
600.7	82.38
600.909	93.38
601.118	88.38
601.327	80.38
601.536	80.38
601.745	72.38
601.953	75.38
602.162	95.38
602.371	84.38
602.58	72.38
602.789	80.38
602.997	87.38
603.206	84.38
603.415	92.38
603.623	77.38
603.832	81.38
604.041	84.38
604.249	80.38
604.458	81.38
604.666	72.38
604.875	90.38
605.084	91.38
605.292	89.38
605.501	90.38
605.709	80.38
605.918	88.38
606.126	87.38
606.334	97.38
606.543	71.38
606.751	85.38
606.96	82.38
607.168	83.38
607.376	98.38
607.585	82.38
607.793	82.38
608.001	85.38
608.21	83.38
608.418	80.38
608.626	97.38
608.834	82.38
609.043	85.38
609.251	96.38
609.459	91.38
609.667	75.38
609.875	74.38
610.083	85.38
610.291	91.38
610.499	87.38
610.707	89.38
610.916	99.38
611.124	77.38
611.332	76.38
611.54	90.38
611.748	72.38
611.955	83.38
612.163	86.38
612.371	78.38
612.579	84.38
612.787	85.38
612.995	76.38
613.203	79.38
613.411	82.38
613.618	67.38
613.826	93.38
614.034	92.38
614.242	71.38
614.449	80.38
614.657	83.38
614.865	92.38
615.072	84.38
615.28	93.38
615.488	85.38
615.695	78.38
615.903	87.38
616.111	80.38
616.318	81.38
616.526	88.38
616.733	98.38
616.941	91.38
617.148	80.38
617.356	84.38
617.563	86.38
617.771	74.38
617.978	80.38
618.185	87.38
618.393	90.38
618.6	85.38
618.807	79.38
619.015	85.38
619.222	79.38
619.429	84.38
619.637	71.38
619.844	86.38
620.051	86.38
620.258	82.38
620.466	73.38
620.673	91.38
620.88	74.38
621.087	80.38
621.294	76.38
621.501	79.38
621.708	69.38
621.915	87.38
622.122	88.38
622.329	75.38
622.536	84.38
622.743	96.38
622.95	78.38
623.157	82.38
623.364	78.38
623.571	93.38
623.778	88.38
623.985	90.38
624.192	90.38
624.399	76.38
624.606	86.38
624.812	77.38
625.019	81.38
625.226	76.38
625.433	76.38
625.639	94.38
625.846	78.38
626.053	84.38
626.259	81.38
626.466	92.38
626.673	98.38
626.879	87.38
627.086	76.38
627.293	94.38
627.499	83.38
627.706	80.38
627.912	84.38
628.119	72.38
628.325	80.38
628.532	76.38
628.738	78.38
628.945	87.38
629.151	86.38
629.357	78.38
629.564	77.38
629.77	87.38
629.976	79.38
630.183	74.38
630.389	78.38
630.595	83.38
630.802	90.38
631.008	79.38
631.214	92.38
631.42	82.38
631.627	94.38
631.833	88.38
632.039	86.38
632.245	81.38
632.451	85.38
632.657	86.38
632.863	75.38
633.069	76.38
633.275	97.38
633.481	75.38
633.688	93.38
633.893	86.38
634.099	68.38
634.305	79.38
634.511	74.38
634.717	74.38
634.923	88.38
635.129	85.38
635.335	72.38
635.541	96.38
635.747	81.38
635.952	84.38
636.158	77.38
636.364	72.38
636.57	96.38
636.775	86.38
636.981	78.38
637.187	82.38
637.392	78.38
637.598	76.38
637.804	86.38
638.009	92.38
638.215	77.38
638.421	72.38
638.626	78.38
638.832	85.38
639.037	71.38
639.243	78.38
639.448	70.38
639.654	84.38
639.859	76.38
640.065	74.38
640.27	94.38
640.475	91.38
640.681	77.38
640.886	77.38
641.091	81.38
641.297	98.38
641.502	83.38
641.707	82.38
641.913	72.38
642.118	81.38
642.323	74.38
642.528	73.38
642.733	82.38
642.939	77.38
643.144	81.38
643.349	94.38
643.554	85.38
643.759	82.38
643.964	83.38
644.169	84.38
644.374	76.38
644.579	94.38
644.784	78.38
644.989	97.38
645.194	72.38
645.399	89.38
645.604	92.38
645.809	77.38
646.014	78.38
646.219	89.38
646.423	94.38
646.628	90.38
646.833	66.38
647.038	86.38
647.243	96.38
647.447	99.38
647.652	82.38
647.857	78.38
648.062	83.38
648.266	78.38
648.471	75.38
648.676	84.38
648.88	93.38
649.085	77.38
649.289	79.38
649.494	81.38
649.698	81.38
649.903	76.38
650.107	82.38
650.312	74.38
650.516	84.38
650.721	88.38
650.925	101.38
651.13	81.38
651.334	89.38
651.539	62.38
651.743	90.38
651.947	94.38
652.152	92.38
652.356	80.38
652.56	82.38
652.764	81.38
652.969	95.38
653.173	90.38
653.377	91.38
653.581	97.38
653.785	72.38
653.99	86.38
654.194	96.38
654.398	84.38
654.602	88.38
654.806	64.38
655.01	74.38
655.214	89.38
655.418	92.38
655.622	87.38
655.826	90.38
656.03	87.38
656.234	78.38
656.438	78.38
656.642	81.38
656.846	85.38
657.049	84.38
657.253	90.38
657.457	87.38
657.661	69.38
657.865	70.38
658.068	72.38
658.272	74.38
658.476	83.38
658.68	83.38
658.883	75.38
659.087	87.38
659.291	70.38
659.494	82.38
659.698	70.38
659.901	78.38
660.105	79.38
660.309	88.38
660.512	84.38
660.716	86.38
660.919	84.38
661.123	83.38
661.326	91.38
661.53	84.38
661.733	90.38
661.936	78.38
662.14	76.38
662.343	85.38
662.546	66.38
662.75	85.38
662.953	80.38
663.156	84.38
663.36	73.38
663.563	79.38
663.766	80.38
663.969	98.38
664.173	80.38
664.376	84.38
664.579	86.38
664.782	93.38
664.985	82.38
665.188	95.38
665.391	72.38
665.594	80.38
665.797	85.38
666	82.38
666.203	85.38
666.406	81.38
666.609	83.38
666.812	92.38
667.015	75.38
667.218	85.38
667.421	88.38
667.624	86.38
667.827	73.38
668.03	74.38
668.232	89.38
668.435	71.38
668.638	77.38
668.841	82.38
669.043	87.38
669.246	74.38
669.449	82.38
669.651	73.38
669.854	67.38
670.057	77.38
670.259	82.38
670.462	69.38
670.665	82.38
670.867	86.38
671.07	92.38
671.272	82.38
671.475	90.38
671.677	81.38
671.88	68.38
672.082	69.38
672.284	69.38
672.487	82.38
672.689	75.38
672.892	84.38
