Data from Lead_HRD10591_00002.txt Node
Date: Tue Feb 17 14:17:58 EST 2026
User: Yrep
Spectrometer: HR+D1059
Trigger mode: 1
Integration Time (sec): 1.000000E-1
Scans to average: 1
Electric dark correction enabled: true
Nonlinearity correction enabled: false
Boxcar width: 0
XAxis mode: Wavelengths
Number of Pixels in Spectrum: 2048
>>>>>Begin Spectral Data<<<<<
223.165	-15.12
223.4	-15.12
223.635	-15.12
223.869	-26.12
224.104	-21.12
224.338	-5.12
224.573	-13.12
224.808	-6.12
225.042	-9.12
225.277	-8.12
225.511	-11.12
225.746	5.88
225.98	7.88
226.215	3.88
226.449	6.88
226.683	33.88
226.918	29.88
227.152	26.88
227.387	35.88
227.621	30.88
227.856	34.88
228.09	48.88
228.324	43.88
228.559	63.88
228.793	55.88
229.027	44.88
229.262	69.88
229.496	65.88
229.73	55.88
229.964	64.88
230.199	77.88
230.433	68.88
230.667	75.88
230.901	76.88
231.136	61.88
231.37	69.88
231.604	71.88
231.838	81.88
232.072	88.88
232.306	88.88
232.541	86.88
232.775	71.88
233.009	78.88
233.243	78.88
233.477	74.88
233.711	83.88
233.945	71.88
234.179	86.88
234.413	80.88
234.647	63.88
234.881	69.88
235.115	68.88
235.349	69.88
235.583	67.88
235.817	88.88
236.051	76.88
236.285	83.88
236.519	71.88
236.753	87.88
236.987	79.88
237.221	93.88
237.455	69.88
237.689	69.88
237.922	72.88
238.156	85.88
238.39	80.88
238.624	72.88
238.858	78.88
239.091	69.88
239.325	76.88
239.559	75.88
239.793	82.88
240.027	68.88
240.26	82.88
240.494	70.88
240.728	80.88
240.961	74.88
241.195	72.88
241.429	69.88
241.662	74.88
241.896	61.88
242.13	66.88
242.363	81.88
242.597	74.88
242.83	80.88
243.064	70.88
243.298	77.88
243.531	74.88
243.765	84.88
243.998	66.88
244.232	69.88
244.465	69.88
244.699	82.88
244.932	78.88
245.166	77.88
245.399	81.88
245.633	83.88
245.866	80.88
246.099	79.88
246.333	77.88
246.566	77.88
246.8	70.88
247.033	74.88
247.266	64.88
247.5	86.88
247.733	86.88
247.966	90.88
248.2	68.88
248.433	77.88
248.666	77.88
248.899	80.88
249.133	80.88
249.366	95.88
249.599	72.88
249.832	90.88
250.066	88.88
250.299	92.88
250.532	89.88
250.765	94.88
250.998	82.88
251.231	83.88
251.465	84.88
251.698	96.88
251.931	97.88
252.164	84.88
252.397	77.88
252.63	87.88
252.863	87.88
253.096	82.88
253.329	88.88
253.562	71.88
253.795	80.88
254.028	79.88
254.261	88.88
254.494	85.88
254.727	71.88
254.96	96.88
255.193	82.88
255.426	70.88
255.659	58.88
255.892	86.88
256.124	81.88
256.357	62.88
256.59	73.88
256.823	81.88
257.056	82.88
257.289	96.88
257.521	74.88
257.754	93.88
257.987	97.88
258.22	102.88
258.452	86.88
258.685	69.88
258.918	77.88
259.151	89.88
259.383	95.88
259.616	78.88
259.849	80.88
260.081	76.88
260.314	79.88
260.547	70.88
260.779	90.88
261.012	93.88
261.244	103.88
261.477	113.88
261.71	124.88
261.942	84.88
262.175	85.88
262.407	84.88
262.64	70.88
262.872	93.88
263.105	79.88
263.337	103.88
263.57	83.88
263.802	73.88
264.035	76.88
264.267	88.88
264.499	92.88
264.732	86.88
264.964	82.88
265.197	96.88
265.429	93.88
265.661	83.88
265.894	86.88
266.126	101.88
266.358	115.88
266.591	92.88
266.823	84.88
267.055	83.88
267.287	71.88
267.52	88.88
267.752	82.88
267.984	75.88
268.216	81.88
268.448	88.88
268.681	78.88
268.913	73.88
269.145	78.88
269.377	86.88
269.609	75.88
269.841	82.88
270.073	85.88
270.306	88.88
270.538	86.88
270.77	69.88
271.002	87.88
271.234	76.88
271.466	66.88
271.698	66.88
271.93	83.88
272.162	79.88
272.394	82.88
272.626	79.88
272.858	85.88
273.09	84.88
273.322	90.88
273.553	88.88
273.785	92.88
274.017	78.88
274.249	77.88
274.481	75.88
274.713	77.88
274.945	72.88
275.176	68.88
275.408	75.88
275.64	75.88
275.872	93.88
276.104	80.88
276.335	84.88
276.567	88.88
276.799	74.88
277.031	64.88
277.262	90.88
277.494	86.88
277.726	74.88
277.957	74.88
278.189	81.88
278.421	72.88
278.652	82.88
278.884	79.88
279.115	87.88
279.347	96.88
279.579	86.88
279.81	127.88
280.042	145.88
280.273	177.88
280.505	148.88
280.736	103.88
280.968	105.88
281.199	82.88
281.431	92.88
281.662	81.88
281.894	86.88
282.125	100.88
282.356	111.88
282.588	110.88
282.819	107.88
283.051	121.88
283.282	133.88
283.513	150.88
283.745	108.88
283.976	92.88
284.207	85.88
284.439	68.88
284.67	83.88
284.901	90.88
285.132	111.88
285.364	92.88
285.595	81.88
285.826	76.88
286.057	86.88
286.288	77.88
286.52	82.88
286.751	86.88
286.982	94.88
287.213	101.88
287.444	105.88
287.675	102.88
287.906	120.88
288.138	96.88
288.369	114.88
288.6	92.88
288.831	78.88
289.062	92.88
289.293	68.88
289.524	78.88
289.755	82.88
289.986	70.88
290.217	63.88
290.448	83.88
290.679	86.88
290.91	74.88
291.141	79.88
291.371	87.88
291.602	69.88
291.833	89.88
292.064	84.88
292.295	70.88
292.526	80.88
292.757	82.88
292.987	75.88
293.218	79.88
293.449	76.88
293.68	96.88
293.91	75.88
294.141	77.88
294.372	83.88
294.603	82.88
294.833	70.88
295.064	81.88
295.295	72.88
295.525	73.88
295.756	72.88
295.987	90.88
296.217	84.88
296.448	75.88
296.679	89.88
296.909	84.88
297.14	91.88
297.37	72.88
297.601	85.88
297.831	84.88
298.062	92.88
298.292	83.88
298.523	86.88
298.753	81.88
298.984	88.88
299.214	89.88
299.445	84.88
299.675	68.88
299.905	73.88
300.136	84.88
300.366	85.88
300.597	68.88
300.827	94.88
301.057	76.88
301.288	96.88
301.518	86.88
301.748	92.88
301.979	105.88
302.209	74.88
302.439	73.88
302.669	81.88
302.9	83.88
303.13	86.88
303.36	90.88
303.59	102.88
303.82	92.88
304.051	91.88
304.281	74.88
304.511	89.88
304.741	93.88
304.971	76.88
305.201	72.88
305.431	92.88
305.661	85.88
305.891	90.88
306.121	95.88
306.352	94.88
306.582	94.88
306.812	88.88
307.042	96.88
307.272	77.88
307.502	81.88
307.731	92.88
307.961	119.88
308.191	158.88
308.421	163.88
308.651	131.88
308.881	133.88
309.111	175.88
309.341	178.88
309.571	178.88
309.8	100.88
310.03	88.88
310.26	95.88
310.49	90.88
310.72	72.88
310.949	92.88
311.179	86.88
311.409	92.88
311.639	88.88
311.868	87.88
312.098	90.88
312.328	81.88
312.557	79.88
312.787	86.88
313.017	71.88
313.246	81.88
313.476	92.88
313.706	70.88
313.935	93.88
314.165	82.88
314.394	92.88
314.624	92.88
314.853	86.88
315.083	95.88
315.312	89.88
315.542	80.88
315.771	92.88
316.001	94.88
316.23	90.88
316.46	96.88
316.689	100.88
316.919	86.88
317.148	78.88
317.377	110.88
317.607	100.88
317.836	89.88
318.065	85.88
318.295	76.88
318.524	78.88
318.753	86.88
318.983	77.88
319.212	84.88
319.441	81.88
319.67	78.88
319.9	76.88
320.129	87.88
320.358	94.88
320.587	82.88
320.816	94.88
321.046	74.88
321.275	81.88
321.504	81.88
321.733	82.88
321.962	98.88
322.191	82.88
322.42	86.88
322.649	84.88
322.878	91.88
323.108	72.88
323.337	92.88
323.566	96.88
323.795	72.88
324.024	73.88
324.253	92.88
324.482	99.88
324.71	103.88
324.939	98.88
325.168	106.88
325.397	86.88
325.626	81.88
325.855	103.88
326.084	106.88
326.313	108.88
326.542	97.88
326.77	97.88
326.999	89.88
327.228	99.88
327.457	90.88
327.686	99.88
327.914	80.88
328.143	85.88
328.372	94.88
328.6	78.88
328.829	75.88
329.058	88.88
329.287	67.88
329.515	86.88
329.744	88.88
329.972	89.88
330.201	117.88
330.43	115.88
330.658	102.88
330.887	74.88
331.115	82.88
331.344	73.88
331.572	91.88
331.801	78.88
332.03	85.88
332.258	91.88
332.486	90.88
332.715	74.88
332.943	92.88
333.172	89.88
333.4	93.88
333.629	86.88
333.857	74.88
334.085	69.88
334.314	78.88
334.542	73.88
334.771	80.88
334.999	79.88
335.227	93.88
335.455	88.88
335.684	95.88
335.912	82.88
336.14	80.88
336.369	79.88
336.597	82.88
336.825	82.88
337.053	95.88
337.281	84.88
337.51	92.88
337.738	89.88
337.966	78.88
338.194	84.88
338.422	92.88
338.65	87.88
338.878	90.88
339.106	85.88
339.334	78.88
339.562	72.88
339.79	70.88
340.018	89.88
340.246	83.88
340.474	88.88
340.702	81.88
340.93	86.88
341.158	90.88
341.386	86.88
341.614	87.88
341.842	79.88
342.07	89.88
342.298	74.88
342.526	78.88
342.754	80.88
342.981	80.88
343.209	89.88
343.437	79.88
343.665	83.88
343.893	98.88
344.12	99.88
344.348	81.88
344.576	86.88
344.804	89.88
345.031	74.88
345.259	85.88
345.487	65.88
345.714	67.88
345.942	81.88
346.17	81.88
346.397	77.88
346.625	79.88
346.853	68.88
347.08	76.88
347.308	92.88
347.535	85.88
347.763	87.88
347.99	88.88
348.218	101.88
348.445	85.88
348.673	77.88
348.9	90.88
349.128	68.88
349.355	86.88
349.583	85.88
349.81	91.88
350.037	75.88
350.265	58.88
350.492	80.88
350.72	77.88
350.947	94.88
351.174	88.88
351.402	77.88
351.629	73.88
351.856	73.88
352.083	83.88
352.311	74.88
352.538	62.88
352.765	86.88
352.992	81.88
353.22	79.88
353.447	84.88
353.674	86.88
353.901	83.88
354.128	80.88
354.355	71.88
354.583	72.88
354.81	85.88
355.037	71.88
355.264	84.88
355.491	98.88
355.718	85.88
355.945	104.88
356.172	94.88
356.399	100.88
356.626	102.88
356.853	138.88
357.08	205.88
357.307	286.88
357.534	230.88
357.761	116.88
357.988	114.88
358.215	114.88
358.441	90.88
358.668	72.88
358.895	69.88
359.122	84.88
359.349	81.88
359.576	88.88
359.802	81.88
360.029	85.88
360.256	71.88
360.483	82.88
360.709	84.88
360.936	106.88
361.163	86.88
361.39	79.88
361.616	84.88
361.843	89.88
362.07	89.88
362.296	93.88
362.523	89.88
362.749	98.88
362.976	100.88
363.203	108.88
363.429	138.88
363.656	229.88
363.882	370.88
364.109	404.88
364.335	206.88
364.562	108.88
364.788	92.88
365.015	79.88
365.241	80.88
365.468	84.88
365.694	92.88
365.92	79.88
366.147	101.88
366.373	94.88
366.599	80.88
366.826	101.88
367.052	163.88
367.278	181.88
367.505	136.88
367.731	155.88
367.957	249.88
368.184	439.88
368.41	569.88
368.636	384.88
368.862	148.88
369.089	108.88
369.315	92.88
369.541	96.88
369.767	77.88
369.993	76.88
370.219	86.88
370.445	88.88
370.672	63.88
370.898	80.88
371.124	93.88
371.35	101.88
371.576	80.88
371.802	102.88
372.028	87.88
372.254	84.88
372.48	96.88
372.706	82.88
372.932	78.88
373.158	96.88
373.384	109.88
373.61	150.88
373.835	215.88
374.061	288.88
374.287	206.88
374.513	109.88
374.739	99.88
374.965	98.88
375.191	81.88
375.416	88.88
375.642	87.88
375.868	90.88
376.094	80.88
376.319	74.88
376.545	85.88
376.771	88.88
376.997	74.88
377.222	74.88
377.448	75.88
377.674	77.88
377.899	71.88
378.125	79.88
378.35	86.88
378.576	84.88
378.802	78.88
379.027	85.88
379.253	81.88
379.478	88.88
379.704	89.88
379.929	86.88
380.155	98.88
380.38	104.88
380.606	71.88
380.831	71.88
381.057	82.88
381.282	94.88
381.507	55.88
381.733	95.88
381.958	92.88
382.184	98.88
382.409	105.88
382.634	90.88
382.86	93.88
383.085	93.88
383.31	97.88
383.535	92.88
383.761	89.88
383.986	91.88
384.211	87.88
384.436	100.88
384.662	83.88
384.887	87.88
385.112	85.88
385.337	73.88
385.562	94.88
385.787	92.88
386.013	98.88
386.238	85.88
386.463	89.88
386.688	98.88
386.913	74.88
387.138	79.88
387.363	80.88
387.588	78.88
387.813	100.88
388.038	81.88
388.263	86.88
388.488	96.88
388.713	77.88
388.938	76.88
389.163	85.88
389.387	79.88
389.612	89.88
389.837	80.88
390.062	80.88
390.287	100.88
390.512	117.88
390.736	117.88
390.961	80.88
391.186	95.88
391.411	74.88
391.636	90.88
391.86	88.88
392.085	94.88
392.31	88.88
392.534	86.88
392.759	102.88
392.984	133.88
393.208	249.88
393.433	307.88
393.658	224.88
393.882	133.88
394.107	180.88
394.331	334.88
394.556	379.88
394.78	172.88
395.005	102.88
395.229	92.88
395.454	114.88
395.678	153.88
395.903	255.88
396.127	466.88
396.352	482.88
396.576	242.88
396.801	222.88
397.025	252.88
397.249	133.88
397.474	89.88
397.698	80.88
397.922	87.88
398.147	80.88
398.371	81.88
398.595	80.88
398.82	70.88
399.044	85.88
399.268	96.88
399.492	85.88
399.717	68.88
399.941	95.88
400.165	75.88
400.389	83.88
400.613	78.88
400.837	97.88
401.062	81.88
401.286	75.88
401.51	74.88
401.734	105.88
401.958	140.88
402.182	123.88
402.406	91.88
402.63	92.88
402.854	75.88
403.078	92.88
403.302	104.88
403.526	96.88
403.75	88.88
403.974	86.88
404.198	118.88
404.422	144.88
404.645	153.88
404.869	145.88
405.093	144.88
405.317	230.88
405.541	474.88
405.765	904.88
405.988	993.88
406.212	446.88
406.436	244.88
406.66	137.88
406.883	103.88
407.107	91.88
407.331	94.88
407.555	88.88
407.778	93.88
408.002	74.88
408.226	83.88
408.449	72.88
408.673	94.88
408.896	88.88
409.12	88.88
409.344	77.88
409.567	66.88
409.791	84.88
410.014	87.88
410.238	75.88
410.461	78.88
410.685	89.88
410.908	73.88
411.132	88.88
411.355	83.88
411.578	73.88
411.802	89.88
412.025	80.88
412.249	81.88
412.472	83.88
412.695	88.88
412.919	87.88
413.142	84.88
413.365	90.88
413.589	75.88
413.812	80.88
414.035	81.88
414.258	81.88
414.482	83.88
414.705	80.88
414.928	75.88
415.151	87.88
415.374	101.88
415.597	94.88
415.821	86.88
416.044	78.88
416.267	78.88
416.49	85.88
416.713	81.88
416.936	102.88
417.159	88.88
417.382	93.88
417.605	94.88
417.828	86.88
418.051	85.88
418.274	87.88
418.497	80.88
418.72	87.88
418.943	82.88
419.166	84.88
419.389	65.88
419.611	80.88
419.834	82.88
420.057	83.88
420.28	91.88
420.503	89.88
420.726	80.88
420.948	70.88
421.171	85.88
421.394	70.88
421.617	79.88
421.839	88.88
422.062	78.88
422.285	96.88
422.507	162.88
422.73	238.88
422.953	170.88
423.175	92.88
423.398	108.88
423.621	92.88
423.843	90.88
424.066	78.88
424.288	76.88
424.511	73.88
424.733	85.88
424.956	91.88
425.178	93.88
425.401	83.88
425.623	75.88
425.846	69.88
426.068	79.88
426.291	88.88
426.513	101.88
426.735	89.88
426.958	90.88
427.18	98.88
427.402	85.88
427.625	88.88
427.847	96.88
428.069	93.88
428.292	80.88
428.514	97.88
428.736	73.88
428.958	81.88
429.181	85.88
429.403	72.88
429.625	75.88
429.847	76.88
430.069	84.88
430.292	105.88
430.514	110.88
430.736	94.88
430.958	86.88
431.18	94.88
431.402	96.88
431.624	75.88
431.846	102.88
432.068	92.88
432.29	72.88
432.512	71.88
432.734	93.88
432.956	86.88
433.178	90.88
433.4	76.88
433.622	83.88
433.844	79.88
434.066	77.88
434.287	75.88
434.509	83.88
434.731	79.88
434.953	73.88
435.175	88.88
435.397	80.88
435.618	83.88
435.84	87.88
436.062	92.88
436.284	71.88
436.505	76.88
436.727	88.88
436.949	80.88
437.17	91.88
437.392	82.88
437.614	80.88
437.835	77.88
438.057	89.88
438.278	99.88
438.5	78.88
438.721	78.88
438.943	71.88
439.165	82.88
439.386	81.88
439.608	82.88
439.829	78.88
440.05	82.88
440.272	72.88
440.493	82.88
440.715	95.88
440.936	86.88
441.158	90.88
441.379	84.88
441.6	86.88
441.822	72.88
442.043	71.88
442.264	72.88
442.486	96.88
442.707	92.88
442.928	84.88
443.149	86.88
443.371	86.88
443.592	104.88
443.813	92.88
444.034	72.88
444.255	88.88
444.476	74.88
444.698	75.88
444.919	84.88
445.14	157.88
445.361	119.88
445.582	112.88
445.803	83.88
446.024	81.88
446.245	92.88
446.466	80.88
446.687	86.88
446.908	90.88
447.129	77.88
447.35	81.88
447.571	77.88
447.792	77.88
448.013	80.88
448.234	85.88
448.455	101.88
448.675	83.88
448.896	81.88
449.117	93.88
449.338	85.88
449.559	101.88
449.779	88.88
450	95.88
450.221	79.88
450.442	87.88
450.662	92.88
450.883	83.88
451.104	68.88
451.324	82.88
451.545	80.88
451.766	92.88
451.986	75.88
452.207	93.88
452.428	75.88
452.648	86.88
452.869	81.88
453.089	82.88
453.31	80.88
453.53	68.88
453.751	79.88
453.971	87.88
454.192	93.88
454.412	64.88
454.633	82.88
454.853	87.88
455.073	86.88
455.294	87.88
455.514	83.88
455.734	81.88
455.955	73.88
456.175	83.88
456.395	92.88
456.616	81.88
456.836	84.88
457.056	87.88
457.276	75.88
457.497	79.88
457.717	86.88
457.937	78.88
458.157	81.88
458.377	77.88
458.598	85.88
458.818	90.88
459.038	73.88
459.258	78.88
459.478	84.88
459.698	73.88
459.918	79.88
460.138	79.88
460.358	70.88
460.578	80.88
460.798	80.88
461.018	93.88
461.238	79.88
461.458	67.88
461.678	78.88
461.898	81.88
462.118	84.88
462.338	64.88
462.558	71.88
462.777	82.88
462.997	81.88
463.217	72.88
463.437	88.88
463.657	68.88
463.876	86.88
464.096	80.88
464.316	92.88
464.536	83.88
464.755	89.88
464.975	89.88
465.195	77.88
465.414	87.88
465.634	88.88
465.854	92.88
466.073	94.88
466.293	83.88
466.512	98.88
466.732	81.88
466.951	89.88
467.171	86.88
467.391	83.88
467.61	95.88
467.829	86.88
468.049	74.88
468.268	69.88
468.488	91.88
468.707	109.88
468.927	96.88
469.146	85.88
469.365	92.88
469.585	86.88
469.804	95.88
470.023	82.88
470.243	78.88
470.462	71.88
470.681	81.88
470.901	94.88
471.12	91.88
471.339	80.88
471.558	94.88
471.777	89.88
471.997	80.88
472.216	75.88
472.435	82.88
472.654	77.88
472.873	82.88
473.092	81.88
473.311	101.88
473.53	71.88
473.749	101.88
473.968	104.88
474.187	101.88
474.406	80.88
474.625	93.88
474.844	93.88
475.063	100.88
475.282	75.88
475.501	75.88
475.72	89.88
475.939	80.88
476.158	85.88
476.377	89.88
476.596	87.88
476.814	90.88
477.033	88.88
477.252	85.88
477.471	73.88
477.69	71.88
477.908	78.88
478.127	78.88
478.346	91.88
478.564	100.88
478.783	87.88
479.002	101.88
479.22	105.88
479.439	82.88
479.658	81.88
479.876	85.88
480.095	87.88
480.313	95.88
480.532	86.88
480.751	80.88
480.969	77.88
481.188	82.88
481.406	79.88
481.624	82.88
481.843	93.88
482.061	85.88
482.28	82.88
482.498	77.88
482.717	85.88
482.935	87.88
483.153	79.88
483.372	96.88
483.59	83.88
483.808	82.88
484.027	93.88
484.245	85.88
484.463	98.88
484.681	92.88
484.9	91.88
485.118	105.88
485.336	90.88
485.554	98.88
485.772	96.88
485.99	78.88
486.209	103.88
486.427	81.88
486.645	82.88
486.863	99.88
487.081	102.88
487.299	100.88
487.517	83.88
487.735	88.88
487.953	88.88
488.171	104.88
488.389	80.88
488.607	83.88
488.825	95.88
489.043	87.88
489.261	98.88
489.479	120.88
489.696	103.88
489.914	95.88
490.132	101.88
490.35	83.88
490.568	84.88
490.786	90.88
491.003	89.88
491.221	87.88
491.439	79.88
491.657	85.88
491.874	85.88
492.092	89.88
492.31	94.88
492.527	87.88
492.745	90.88
492.963	98.88
493.18	86.88
493.398	86.88
493.615	82.88
493.833	72.88
494.05	97.88
494.268	92.88
494.485	84.88
494.703	90.88
494.92	101.88
495.138	94.88
495.355	91.88
495.573	92.88
495.79	92.88
496.008	88.88
496.225	108.88
496.442	98.88
496.66	98.88
496.877	96.88
497.094	93.88
497.312	91.88
497.529	86.88
497.746	98.88
497.963	107.88
498.181	103.88
498.398	108.88
498.615	104.88
498.832	101.88
499.049	90.88
499.267	96.88
499.484	98.88
499.701	92.88
499.918	96.88
500.135	102.88
500.352	106.88
500.569	164.88
500.786	211.88
501.003	119.88
501.22	99.88
501.437	83.88
501.654	88.88
501.871	76.88
502.088	79.88
502.305	83.88
502.522	90.88
502.739	81.88
502.956	99.88
503.172	101.88
503.389	101.88
503.606	87.88
503.823	103.88
504.04	97.88
504.256	69.88
504.473	74.88
504.69	97.88
504.907	101.88
505.123	93.88
505.34	96.88
505.557	88.88
505.773	81.88
505.99	96.88
506.207	83.88
506.423	99.88
506.64	83.88
506.856	81.88
507.073	77.88
507.289	84.88
507.506	92.88
507.722	89.88
507.939	102.88
508.155	100.88
508.372	82.88
508.588	83.88
508.805	81.88
509.021	91.88
509.238	83.88
509.454	78.88
509.67	85.88
509.887	82.88
510.103	84.88
510.319	80.88
510.536	93.88
510.752	92.88
510.968	89.88
511.184	96.88
511.401	77.88
511.617	88.88
511.833	89.88
512.049	75.88
512.265	80.88
512.481	88.88
512.698	86.88
512.914	103.88
513.13	88.88
513.346	91.88
513.562	82.88
513.778	80.88
513.994	84.88
514.21	93.88
514.426	90.88
514.642	89.88
514.858	87.88
515.074	90.88
515.29	101.88
515.506	105.88
515.721	100.88
515.937	96.88
516.153	89.88
516.369	101.88
516.585	92.88
516.801	93.88
517.016	84.88
517.232	94.88
517.448	93.88
517.664	79.88
517.879	89.88
518.095	87.88
518.311	88.88
518.527	96.88
518.742	84.88
518.958	94.88
519.173	83.88
519.389	87.88
519.605	80.88
519.82	95.88
520.036	94.88
520.251	108.88
520.467	109.88
520.682	82.88
520.898	83.88
521.113	86.88
521.329	87.88
521.544	87.88
521.76	90.88
521.975	89.88
522.19	81.88
522.406	79.88
522.621	89.88
522.836	95.88
523.052	109.88
523.267	97.88
523.482	86.88
523.698	90.88
523.913	78.88
524.128	85.88
524.343	91.88
524.559	96.88
524.774	81.88
524.989	88.88
525.204	79.88
525.419	85.88
525.634	94.88
525.849	78.88
526.064	74.88
526.28	89.88
526.495	103.88
526.71	93.88
526.925	104.88
527.14	96.88
527.355	77.88
527.57	85.88
527.785	88.88
527.999	89.88
528.214	76.88
528.429	86.88
528.644	102.88
528.859	82.88
529.074	83.88
529.289	77.88
529.503	101.88
529.718	85.88
529.933	110.88
530.148	100.88
530.363	78.88
530.577	90.88
530.792	88.88
531.007	99.88
531.221	88.88
531.436	81.88
531.651	89.88
531.865	94.88
532.08	84.88
532.295	97.88
532.509	82.88
532.724	90.88
532.938	102.88
533.153	82.88
533.367	88.88
533.582	86.88
533.796	84.88
534.011	89.88
534.225	92.88
534.44	84.88
534.654	102.88
534.868	78.88
535.083	88.88
535.297	98.88
535.511	81.88
535.726	89.88
535.94	81.88
536.154	90.88
536.369	94.88
536.583	74.88
536.797	90.88
537.011	82.88
537.225	81.88
537.44	93.88
537.654	88.88
537.868	79.88
538.082	95.88
538.296	87.88
538.51	85.88
538.724	93.88
538.938	84.88
539.153	77.88
539.367	82.88
539.581	73.88
539.795	80.88
540.009	79.88
540.222	93.88
540.436	77.88
540.65	83.88
540.864	64.88
541.078	74.88
541.292	93.88
541.506	88.88
541.72	96.88
541.934	77.88
542.147	90.88
542.361	92.88
542.575	89.88
542.789	76.88
543.002	82.88
543.216	88.88
543.43	98.88
543.644	81.88
543.857	87.88
544.071	66.88
544.285	101.88
544.498	95.88
544.712	102.88
544.925	87.88
545.139	90.88
545.352	75.88
545.566	91.88
545.779	81.88
545.993	90.88
546.206	84.88
546.42	79.88
546.633	83.88
546.847	97.88
547.06	97.88
547.274	81.88
547.487	82.88
547.7	81.88
547.914	94.88
548.127	87.88
548.34	86.88
548.554	84.88
548.767	78.88
548.98	79.88
549.193	69.88
549.407	92.88
549.62	85.88
549.833	92.88
550.046	99.88
550.259	85.88
550.473	85.88
550.686	93.88
550.899	82.88
551.112	96.88
551.325	81.88
551.538	100.88
551.751	89.88
551.964	86.88
552.177	78.88
552.39	77.88
552.603	69.88
552.816	93.88
553.029	84.88
553.242	85.88
553.455	76.88
553.667	80.88
553.88	87.88
554.093	81.88
554.306	78.88
554.519	102.88
554.732	93.88
554.944	94.88
555.157	85.88
555.37	75.88
555.583	81.88
555.795	99.88
556.008	91.88
556.221	88.88
556.433	82.88
556.646	82.88
556.859	87.88
557.071	81.88
557.284	77.88
557.496	87.88
557.709	73.88
557.921	90.88
558.134	101.88
558.346	105.88
558.559	90.88
558.771	83.88
558.984	103.88
559.196	109.88
559.409	88.88
559.621	103.88
559.833	101.88
560.046	98.88
560.258	94.88
560.47	115.88
560.683	114.88
560.895	110.88
561.107	94.88
561.32	77.88
561.532	83.88
561.744	93.88
561.956	84.88
562.168	97.88
562.381	82.88
562.593	81.88
562.805	76.88
563.017	89.88
563.229	83.88
563.441	83.88
563.653	89.88
563.865	75.88
564.077	92.88
564.289	89.88
564.501	88.88
564.713	98.88
564.925	102.88
565.137	76.88
565.349	84.88
565.561	95.88
565.773	90.88
565.985	89.88
566.197	78.88
566.408	72.88
566.62	88.88
566.832	99.88
567.044	106.88
567.255	90.88
567.467	94.88
567.679	93.88
567.891	111.88
568.102	92.88
568.314	128.88
568.526	172.88
568.737	148.88
568.949	194.88
569.161	227.88
569.372	158.88
569.584	106.88
569.795	120.88
570.007	108.88
570.218	89.88
570.43	73.88
570.641	87.88
570.853	96.88
571.064	72.88
571.276	82.88
571.487	98.88
571.698	85.88
571.91	92.88
572.121	81.88
572.333	86.88
572.544	81.88
572.755	82.88
572.966	88.88
573.178	94.88
573.389	81.88
573.6	72.88
573.811	68.88
574.023	83.88
574.234	86.88
574.445	77.88
574.656	80.88
574.867	93.88
575.078	99.88
575.289	86.88
575.501	89.88
575.712	85.88
575.923	80.88
576.134	74.88
576.345	69.88
576.556	85.88
576.767	109.88
576.978	92.88
577.188	90.88
577.399	82.88
577.61	85.88
577.821	79.88
578.032	88.88
578.243	74.88
578.454	84.88
578.665	103.88
578.875	77.88
579.086	89.88
579.297	82.88
579.508	87.88
579.718	77.88
579.929	86.88
580.14	79.88
580.35	102.88
580.561	100.88
580.772	85.88
580.982	97.88
581.193	93.88
581.403	85.88
581.614	105.88
581.825	79.88
582.035	81.88
582.246	93.88
582.456	84.88
582.667	92.88
582.877	94.88
583.087	82.88
583.298	94.88
583.508	92.88
583.719	87.88
583.929	96.88
584.139	81.88
584.35	106.88
584.56	93.88
584.77	92.88
584.981	84.88
585.191	84.88
585.401	85.88
585.611	85.88
585.821	98.88
586.032	103.88
586.242	88.88
586.452	90.88
586.662	108.88
586.872	100.88
587.082	102.88
587.292	104.88
587.502	99.88
587.713	104.88
587.923	115.88
588.133	138.88
588.343	170.88
588.553	194.88
588.762	362.88
588.972	832.88
589.182	1622.88
589.392	1207.88
589.602	923.88
589.812	1396.88
590.022	740.88
590.232	293.88
590.441	190.88
590.651	144.88
590.861	116.88
591.071	113.88
591.281	113.88
591.49	101.88
591.7	100.88
591.91	102.88
592.119	94.88
592.329	86.88
592.539	88.88
592.748	98.88
592.958	97.88
593.167	81.88
593.377	74.88
593.587	90.88
593.796	102.88
594.006	96.88
594.215	92.88
594.424	90.88
594.634	81.88
594.843	82.88
595.053	90.88
595.262	82.88
595.472	85.88
595.681	87.88
595.89	72.88
596.1	95.88
596.309	89.88
596.518	90.88
596.727	91.88
596.937	88.88
597.146	78.88
597.355	88.88
597.564	79.88
597.774	92.88
597.983	92.88
598.192	85.88
598.401	96.88
598.61	84.88
598.819	95.88
599.028	90.88
599.237	74.88
599.446	80.88
599.655	89.88
599.864	94.88
600.073	82.88
600.282	93.88
600.491	91.88
600.7	110.88
600.909	80.88
601.118	81.88
601.327	84.88
601.536	81.88
601.745	85.88
601.953	82.88
602.162	83.88
602.371	82.88
602.58	84.88
602.789	96.88
602.997	79.88
603.206	68.88
603.415	85.88
603.623	82.88
603.832	84.88
604.041	86.88
604.249	87.88
604.458	80.88
604.666	82.88
604.875	97.88
605.084	86.88
605.292	78.88
605.501	81.88
605.709	88.88
605.918	86.88
606.126	81.88
606.334	86.88
606.543	81.88
606.751	83.88
606.96	95.88
607.168	82.88
607.376	67.88
607.585	88.88
607.793	70.88
608.001	90.88
608.21	95.88
608.418	94.88
608.626	70.88
608.834	78.88
609.043	87.88
609.251	88.88
609.459	94.88
609.667	91.88
609.875	74.88
610.083	82.88
610.291	88.88
610.499	97.88
610.707	94.88
610.916	87.88
611.124	88.88
611.332	85.88
611.54	95.88
611.748	86.88
611.955	108.88
612.163	95.88
612.371	98.88
612.579	89.88
612.787	92.88
612.995	90.88
613.203	104.88
613.411	89.88
613.618	91.88
613.826	80.88
614.034	86.88
614.242	94.88
614.449	82.88
614.657	97.88
614.865	85.88
615.072	101.88
615.28	83.88
615.488	94.88
615.695	100.88
615.903	85.88
616.111	97.88
616.318	110.88
616.526	117.88
616.733	98.88
616.941	93.88
617.148	92.88
617.356	86.88
617.563	82.88
617.771	86.88
617.978	88.88
618.185	98.88
618.393	84.88
618.6	97.88
618.807	85.88
619.015	84.88
619.222	80.88
619.429	86.88
619.637	81.88
619.844	82.88
620.051	89.88
620.258	78.88
620.466	96.88
620.673	76.88
620.88	74.88
621.087	85.88
621.294	84.88
621.501	80.88
621.708	81.88
621.915	76.88
622.122	78.88
622.329	83.88
622.536	82.88
622.743	80.88
622.95	82.88
623.157	80.88
623.364	96.88
623.571	88.88
623.778	74.88
623.985	93.88
624.192	88.88
624.399	82.88
624.606	99.88
624.812	81.88
625.019	89.88
625.226	73.88
625.433	91.88
625.639	76.88
625.846	87.88
626.053	80.88
626.259	81.88
626.466	95.88
626.673	79.88
626.879	74.88
627.086	75.88
627.293	83.88
627.499	68.88
627.706	81.88
627.912	84.88
628.119	81.88
628.325	81.88
628.532	76.88
628.738	89.88
628.945	71.88
629.151	79.88
629.357	65.88
629.564	73.88
629.77	73.88
629.976	80.88
630.183	78.88
630.389	96.88
630.595	82.88
630.802	88.88
631.008	78.88
631.214	78.88
631.42	102.88
631.627	86.88
631.833	71.88
632.039	72.88
632.245	74.88
632.451	88.88
632.657	79.88
632.863	77.88
633.069	86.88
633.275	88.88
633.481	83.88
633.688	71.88
633.893	84.88
634.099	79.88
634.305	77.88
634.511	73.88
634.717	82.88
634.923	71.88
635.129	89.88
635.335	83.88
635.541	86.88
635.747	83.88
635.952	74.88
636.158	78.88
636.364	81.88
636.57	76.88
636.775	89.88
636.981	84.88
637.187	85.88
637.392	68.88
637.598	80.88
637.804	90.88
638.009	95.88
638.215	82.88
638.421	82.88
638.626	72.88
638.832	82.88
639.037	79.88
639.243	82.88
639.448	89.88
639.654	78.88
639.859	75.88
640.065	77.88
640.27	84.88
640.475	73.88
640.681	82.88
640.886	73.88
641.091	80.88
641.297	78.88
641.502	72.88
641.707	79.88
641.913	82.88
642.118	83.88
642.323	92.88
642.528	76.88
642.733	87.88
642.939	91.88
643.144	93.88
643.349	96.88
643.554	78.88
643.759	73.88
643.964	78.88
644.169	94.88
644.374	93.88
644.579	77.88
644.784	77.88
644.989	95.88
645.194	81.88
645.399	81.88
645.604	80.88
645.809	79.88
646.014	86.88
646.219	93.88
646.423	88.88
646.628	82.88
646.833	72.88
647.038	93.88
647.243	74.88
647.447	77.88
647.652	70.88
647.857	73.88
648.062	75.88
648.266	84.88
648.471	68.88
648.676	79.88
648.88	81.88
649.085	75.88
649.289	85.88
649.494	88.88
649.698	70.88
649.903	77.88
650.107	75.88
650.312	78.88
650.516	84.88
650.721	86.88
650.925	79.88
651.13	85.88
651.334	82.88
651.539	86.88
651.743	89.88
651.947	93.88
652.152	88.88
652.356	89.88
652.56	67.88
652.764	74.88
652.969	73.88
653.173	74.88
653.377	87.88
653.581	72.88
653.785	72.88
653.99	77.88
654.194	98.88
654.398	77.88
654.602	93.88
654.806	92.88
655.01	77.88
655.214	82.88
655.418	81.88
655.622	83.88
655.826	75.88
656.03	65.88
656.234	85.88
656.438	70.88
656.642	86.88
656.846	80.88
657.049	81.88
657.253	72.88
657.457	64.88
657.661	81.88
657.865	87.88
658.068	83.88
658.272	92.88
658.476	86.88
658.68	78.88
658.883	84.88
659.087	83.88
659.291	94.88
659.494	72.88
659.698	66.88
659.901	83.88
660.105	76.88
660.309	74.88
660.512	75.88
660.716	64.88
660.919	77.88
661.123	69.88
661.326	70.88
661.53	85.88
661.733	74.88
661.936	80.88
662.14	71.88
662.343	71.88
662.546	92.88
662.75	92.88
662.953	88.88
663.156	79.88
663.36	82.88
663.563	87.88
663.766	87.88
663.969	81.88
664.173	64.88
664.376	75.88
664.579	76.88
664.782	80.88
664.985	80.88
665.188	81.88
665.391	85.88
665.594	72.88
665.797	74.88
666	72.88
666.203	68.88
666.406	77.88
666.609	79.88
666.812	77.88
667.015	92.88
667.218	74.88
667.421	87.88
667.624	74.88
667.827	82.88
668.03	84.88
668.232	73.88
668.435	75.88
668.638	78.88
668.841	85.88
669.043	79.88
669.246	72.88
669.449	83.88
669.651	68.88
669.854	66.88
670.057	86.88
670.259	79.88
670.462	66.88
670.665	83.88
670.867	84.88
671.07	67.88
671.272	70.88
671.475	80.88
671.677	85.88
671.88	80.88
672.082	80.88
672.284	78.88
672.487	82.88
672.689	64.88
672.892	76.88
