Data from Lead_HRD10591_00022.txt Node
Date: Tue Feb 17 14:18:05 EST 2026
User: Yrep
Spectrometer: HR+D1059
Trigger mode: 1
Integration Time (sec): 1.000000E-1
Scans to average: 1
Electric dark correction enabled: true
Nonlinearity correction enabled: false
Boxcar width: 0
XAxis mode: Wavelengths
Number of Pixels in Spectrum: 2048
>>>>>Begin Spectral Data<<<<<
223.165	-19.94
223.4	-19.94
223.635	-19.94
223.869	-19.94
224.104	-19.94
224.338	-19.94
224.573	-10.94
224.808	-8.94
225.042	-6.94
225.277	-12.94
225.511	5.06
225.746	12.06
225.98	4.06
226.215	7.06
226.449	16.06
226.683	23.06
226.918	19.06
227.152	33.06
227.387	40.06
227.621	28.06
227.856	60.06
228.09	45.06
228.324	51.06
228.559	55.06
228.793	57.06
229.027	63.06
229.262	60.06
229.496	65.06
229.73	66.06
229.964	83.06
230.199	79.06
230.433	81.06
230.667	75.06
230.901	81.06
231.136	74.06
231.37	91.06
231.604	69.06
231.838	79.06
232.072	87.06
232.306	92.06
232.541	68.06
232.775	73.06
233.009	75.06
233.243	79.06
233.477	74.06
233.711	76.06
233.945	80.06
234.179	77.06
234.413	76.06
234.647	77.06
234.881	73.06
235.115	69.06
235.349	71.06
235.583	86.06
235.817	81.06
236.051	72.06
236.285	87.06
236.519	77.06
236.753	72.06
236.987	81.06
237.221	91.06
237.455	79.06
237.689	76.06
237.922	68.06
238.156	59.06
238.39	81.06
238.624	80.06
238.858	87.06
239.091	69.06
239.325	71.06
239.559	71.06
239.793	83.06
240.027	81.06
240.26	61.06
240.494	75.06
240.728	80.06
240.961	81.06
241.195	83.06
241.429	77.06
241.662	79.06
241.896	73.06
242.13	77.06
242.363	74.06
242.597	71.06
242.83	83.06
243.064	66.06
243.298	90.06
243.531	72.06
243.765	58.06
243.998	70.06
244.232	85.06
244.465	62.06
244.699	73.06
244.932	82.06
245.166	62.06
245.399	65.06
245.633	66.06
245.866	77.06
246.099	78.06
246.333	69.06
246.566	74.06
246.8	73.06
247.033	89.06
247.266	76.06
247.5	91.06
247.733	74.06
247.966	73.06
248.2	74.06
248.433	77.06
248.666	71.06
248.899	83.06
249.133	67.06
249.366	73.06
249.599	87.06
249.832	64.06
250.066	74.06
250.299	88.06
250.532	81.06
250.765	81.06
250.998	85.06
251.231	83.06
251.465	73.06
251.698	89.06
251.931	88.06
252.164	86.06
252.397	77.06
252.63	77.06
252.863	77.06
253.096	77.06
253.329	78.06
253.562	81.06
253.795	75.06
254.028	65.06
254.261	77.06
254.494	68.06
254.727	80.06
254.96	83.06
255.193	84.06
255.426	70.06
255.659	71.06
255.892	87.06
256.124	91.06
256.357	72.06
256.59	92.06
256.823	77.06
257.056	80.06
257.289	84.06
257.521	74.06
257.754	81.06
257.987	98.06
258.22	97.06
258.452	98.06
258.685	84.06
258.918	77.06
259.151	79.06
259.383	81.06
259.616	75.06
259.849	76.06
260.081	83.06
260.314	83.06
260.547	86.06
260.779	90.06
261.012	85.06
261.244	96.06
261.477	87.06
261.71	103.06
261.942	98.06
262.175	85.06
262.407	78.06
262.64	83.06
262.872	75.06
263.105	85.06
263.337	85.06
263.57	77.06
263.802	92.06
264.035	68.06
264.267	75.06
264.499	85.06
264.732	76.06
264.964	78.06
265.197	89.06
265.429	98.06
265.661	80.06
265.894	87.06
266.126	86.06
266.358	95.06
266.591	97.06
266.823	82.06
267.055	68.06
267.287	82.06
267.52	68.06
267.752	74.06
267.984	80.06
268.216	74.06
268.448	74.06
268.681	77.06
268.913	82.06
269.145	71.06
269.377	86.06
269.609	79.06
269.841	88.06
270.073	75.06
270.306	65.06
270.538	82.06
270.77	70.06
271.002	80.06
271.234	89.06
271.466	72.06
271.698	79.06
271.93	79.06
272.162	69.06
272.394	87.06
272.626	83.06
272.858	93.06
273.09	78.06
273.322	82.06
273.553	78.06
273.785	65.06
274.017	98.06
274.249	76.06
274.481	86.06
274.713	89.06
274.945	92.06
275.176	91.06
275.408	84.06
275.64	93.06
275.872	82.06
276.104	90.06
276.335	80.06
276.567	73.06
276.799	70.06
277.031	91.06
277.262	93.06
277.494	95.06
277.726	77.06
277.957	79.06
278.189	89.06
278.421	67.06
278.652	85.06
278.884	75.06
279.115	69.06
279.347	87.06
279.579	75.06
279.81	96.06
280.042	104.06
280.273	124.06
280.505	121.06
280.736	106.06
280.968	72.06
281.199	70.06
281.431	67.06
281.662	88.06
281.894	83.06
282.125	92.06
282.356	92.06
282.588	105.06
282.819	103.06
283.051	103.06
283.282	107.06
283.513	115.06
283.745	99.06
283.976	85.06
284.207	81.06
284.439	82.06
284.67	84.06
284.901	89.06
285.132	97.06
285.364	93.06
285.595	91.06
285.826	71.06
286.057	87.06
286.288	81.06
286.52	89.06
286.751	81.06
286.982	80.06
287.213	101.06
287.444	111.06
287.675	95.06
287.906	100.06
288.138	106.06
288.369	106.06
288.6	90.06
288.831	89.06
289.062	81.06
289.293	85.06
289.524	91.06
289.755	93.06
289.986	77.06
290.217	81.06
290.448	95.06
290.679	76.06
290.91	71.06
291.141	75.06
291.371	67.06
291.602	86.06
291.833	82.06
292.064	59.06
292.295	79.06
292.526	77.06
292.757	74.06
292.987	97.06
293.218	88.06
293.449	83.06
293.68	78.06
293.91	77.06
294.141	85.06
294.372	84.06
294.603	86.06
294.833	93.06
295.064	87.06
295.295	67.06
295.525	76.06
295.756	83.06
295.987	79.06
296.217	73.06
296.448	87.06
296.679	78.06
296.909	83.06
297.14	84.06
297.37	86.06
297.601	84.06
297.831	72.06
298.062	79.06
298.292	77.06
298.523	83.06
298.753	71.06
298.984	83.06
299.214	93.06
299.445	96.06
299.675	81.06
299.905	80.06
300.136	76.06
300.366	70.06
300.597	83.06
300.827	94.06
301.057	76.06
301.288	85.06
301.518	85.06
301.748	82.06
301.979	99.06
302.209	85.06
302.439	96.06
302.669	107.06
302.9	86.06
303.13	81.06
303.36	83.06
303.59	95.06
303.82	92.06
304.051	84.06
304.281	90.06
304.511	67.06
304.741	73.06
304.971	86.06
305.201	79.06
305.431	92.06
305.661	86.06
305.891	92.06
306.121	89.06
306.352	76.06
306.582	77.06
306.812	88.06
307.042	91.06
307.272	81.06
307.502	77.06
307.731	103.06
307.961	100.06
308.191	123.06
308.421	121.06
308.651	95.06
308.881	100.06
309.111	115.06
309.341	135.06
309.571	132.06
309.8	84.06
310.03	85.06
310.26	73.06
310.49	83.06
310.72	73.06
310.949	90.06
311.179	75.06
311.409	96.06
311.639	99.06
311.868	87.06
312.098	85.06
312.328	88.06
312.557	96.06
312.787	79.06
313.017	81.06
313.246	84.06
313.476	73.06
313.706	89.06
313.935	95.06
314.165	83.06
314.394	81.06
314.624	86.06
314.853	87.06
315.083	89.06
315.312	71.06
315.542	84.06
315.771	85.06
316.001	88.06
316.23	90.06
316.46	102.06
316.689	81.06
316.919	96.06
317.148	94.06
317.377	90.06
317.607	91.06
317.836	87.06
318.065	81.06
318.295	96.06
318.524	78.06
318.753	71.06
318.983	83.06
319.212	70.06
319.441	74.06
319.67	92.06
319.9	91.06
320.129	81.06
320.358	83.06
320.587	67.06
320.816	90.06
321.046	83.06
321.275	89.06
321.504	83.06
321.733	91.06
321.962	88.06
322.191	87.06
322.42	87.06
322.649	89.06
322.878	84.06
323.108	99.06
323.337	83.06
323.566	71.06
323.795	76.06
324.024	75.06
324.253	71.06
324.482	84.06
324.71	99.06
324.939	83.06
325.168	82.06
325.397	85.06
325.626	88.06
325.855	84.06
326.084	99.06
326.313	94.06
326.542	92.06
326.77	95.06
326.999	87.06
327.228	87.06
327.457	91.06
327.686	99.06
327.914	89.06
328.143	87.06
328.372	91.06
328.6	97.06
328.829	80.06
329.058	90.06
329.287	75.06
329.515	73.06
329.744	83.06
329.972	95.06
330.201	96.06
330.43	115.06
330.658	87.06
330.887	99.06
331.115	77.06
331.344	88.06
331.572	95.06
331.801	84.06
332.03	84.06
332.258	72.06
332.486	71.06
332.715	90.06
332.943	86.06
333.172	87.06
333.4	87.06
333.629	88.06
333.857	79.06
334.085	79.06
334.314	86.06
334.542	91.06
334.771	98.06
334.999	86.06
335.227	70.06
335.455	86.06
335.684	95.06
335.912	78.06
336.14	91.06
336.369	95.06
336.597	93.06
336.825	85.06
337.053	90.06
337.281	83.06
337.51	67.06
337.738	100.06
337.966	78.06
338.194	76.06
338.422	95.06
338.65	82.06
338.878	93.06
339.106	88.06
339.334	81.06
339.562	75.06
339.79	70.06
340.018	75.06
340.246	79.06
340.474	86.06
340.702	85.06
340.93	97.06
341.158	84.06
341.386	91.06
341.614	85.06
341.842	82.06
342.07	70.06
342.298	91.06
342.526	82.06
342.754	81.06
342.981	87.06
343.209	83.06
343.437	99.06
343.665	94.06
343.893	87.06
344.12	97.06
344.348	97.06
344.576	96.06
344.804	103.06
345.031	93.06
345.259	84.06
345.487	97.06
345.714	82.06
345.942	79.06
346.17	69.06
346.397	101.06
346.625	80.06
346.853	84.06
347.08	94.06
347.308	88.06
347.535	80.06
347.763	88.06
347.99	89.06
348.218	80.06
348.445	76.06
348.673	75.06
348.9	87.06
349.128	97.06
349.355	83.06
349.583	77.06
349.81	93.06
350.037	71.06
350.265	77.06
350.492	88.06
350.72	81.06
350.947	81.06
351.174	86.06
351.402	87.06
351.629	89.06
351.856	93.06
352.083	82.06
352.311	79.06
352.538	77.06
352.765	93.06
352.992	76.06
353.22	85.06
353.447	80.06
353.674	92.06
353.901	87.06
354.128	83.06
354.355	71.06
354.583	76.06
354.81	88.06
355.037	85.06
355.264	90.06
355.491	85.06
355.718	81.06
355.945	98.06
356.172	79.06
356.399	83.06
356.626	88.06
356.853	99.06
357.08	128.06
357.307	151.06
357.534	129.06
357.761	99.06
357.988	108.06
358.215	89.06
358.441	102.06
358.668	102.06
358.895	85.06
359.122	95.06
359.349	89.06
359.576	84.06
359.802	83.06
360.029	87.06
360.256	82.06
360.483	85.06
360.709	91.06
360.936	98.06
361.163	91.06
361.39	90.06
361.616	94.06
361.843	83.06
362.07	89.06
362.296	83.06
362.523	85.06
362.749	90.06
362.976	97.06
363.203	104.06
363.429	112.06
363.656	164.06
363.882	222.06
364.109	274.06
364.335	149.06
364.562	106.06
364.788	103.06
365.015	92.06
365.241	82.06
365.468	94.06
365.694	87.06
365.92	95.06
366.147	75.06
366.373	85.06
366.599	82.06
366.826	96.06
367.052	87.06
367.278	110.06
367.505	111.06
367.731	115.06
367.957	154.06
368.184	266.06
368.41	359.06
368.636	237.06
368.862	129.06
369.089	88.06
369.315	89.06
369.541	97.06
369.767	90.06
369.993	84.06
370.219	91.06
370.445	87.06
370.672	81.06
370.898	90.06
371.124	98.06
371.35	75.06
371.576	74.06
371.802	82.06
372.028	95.06
372.254	98.06
372.48	84.06
372.706	91.06
372.932	85.06
373.158	82.06
373.384	84.06
373.61	119.06
373.835	140.06
374.061	153.06
374.287	145.06
374.513	102.06
374.739	81.06
374.965	90.06
375.191	82.06
375.416	86.06
375.642	92.06
375.868	94.06
376.094	72.06
376.319	91.06
376.545	93.06
376.771	97.06
376.997	93.06
377.222	86.06
377.448	91.06
377.674	77.06
377.899	93.06
378.125	89.06
378.35	96.06
378.576	78.06
378.802	66.06
379.027	78.06
379.253	104.06
379.478	81.06
379.704	77.06
379.929	94.06
380.155	96.06
380.38	102.06
380.606	91.06
380.831	84.06
381.057	88.06
381.282	81.06
381.507	92.06
381.733	91.06
381.958	85.06
382.184	107.06
382.409	77.06
382.634	86.06
382.86	79.06
383.085	89.06
383.31	96.06
383.535	103.06
383.761	99.06
383.986	108.06
384.211	104.06
384.436	95.06
384.662	85.06
384.887	81.06
385.112	71.06
385.337	83.06
385.562	84.06
385.787	78.06
386.013	95.06
386.238	84.06
386.463	89.06
386.688	91.06
386.913	81.06
387.138	84.06
387.363	85.06
387.588	91.06
387.813	103.06
388.038	80.06
388.263	81.06
388.488	100.06
388.713	103.06
388.938	88.06
389.163	85.06
389.387	84.06
389.612	80.06
389.837	80.06
390.062	91.06
390.287	82.06
390.512	97.06
390.736	95.06
390.961	81.06
391.186	70.06
391.411	87.06
391.636	85.06
391.86	100.06
392.085	88.06
392.31	85.06
392.534	80.06
392.759	87.06
392.984	135.06
393.208	223.06
393.433	283.06
393.658	197.06
393.882	115.06
394.107	133.06
394.331	195.06
394.556	225.06
394.78	133.06
395.005	105.06
395.229	101.06
395.454	100.06
395.678	111.06
395.903	174.06
396.127	261.06
396.352	267.06
396.576	169.06
396.801	213.06
397.025	202.06
397.249	127.06
397.474	95.06
397.698	97.06
397.922	101.06
398.147	88.06
398.371	90.06
398.595	76.06
398.82	87.06
399.044	87.06
399.268	87.06
399.492	85.06
399.717	81.06
399.941	71.06
400.165	72.06
400.389	87.06
400.613	85.06
400.837	93.06
401.062	76.06
401.286	85.06
401.51	87.06
401.734	81.06
401.958	101.06
402.182	85.06
402.406	97.06
402.63	86.06
402.854	91.06
403.078	92.06
403.302	89.06
403.526	108.06
403.75	117.06
403.974	122.06
404.198	203.06
404.422	331.06
404.645	356.06
404.869	279.06
405.093	172.06
405.317	138.06
405.541	283.06
405.765	501.06
405.988	540.06
406.212	228.06
406.436	139.06
406.66	97.06
406.883	82.06
407.107	89.06
407.331	91.06
407.555	92.06
407.778	89.06
408.002	84.06
408.226	75.06
408.449	84.06
408.673	84.06
408.896	89.06
409.12	77.06
409.344	89.06
409.567	85.06
409.791	92.06
410.014	94.06
410.238	83.06
410.461	88.06
410.685	94.06
410.908	81.06
411.132	82.06
411.355	87.06
411.578	104.06
411.802	87.06
412.025	92.06
412.249	87.06
412.472	79.06
412.695	84.06
412.919	84.06
413.142	83.06
413.365	82.06
413.589	72.06
413.812	75.06
414.035	85.06
414.258	76.06
414.482	95.06
414.705	71.06
414.928	79.06
415.151	92.06
415.374	92.06
415.597	81.06
415.821	91.06
416.044	78.06
416.267	69.06
416.49	75.06
416.713	84.06
416.936	103.06
417.159	83.06
417.382	79.06
417.605	74.06
417.828	87.06
418.051	78.06
418.274	90.06
418.497	84.06
418.72	95.06
418.943	87.06
419.166	76.06
419.389	84.06
419.611	85.06
419.834	87.06
420.057	97.06
420.28	71.06
420.503	71.06
420.726	89.06
420.948	91.06
421.171	77.06
421.394	89.06
421.617	85.06
421.839	72.06
422.062	95.06
422.285	106.06
422.507	169.06
422.73	257.06
422.953	198.06
423.175	102.06
423.398	93.06
423.621	85.06
423.843	87.06
424.066	79.06
424.288	83.06
424.511	92.06
424.733	97.06
424.956	94.06
425.178	89.06
425.401	84.06
425.623	84.06
425.846	92.06
426.068	83.06
426.291	92.06
426.513	88.06
426.735	91.06
426.958	76.06
427.18	87.06
427.402	95.06
427.625	85.06
427.847	84.06
428.069	96.06
428.292	82.06
428.514	87.06
428.736	86.06
428.958	91.06
429.181	98.06
429.403	60.06
429.625	90.06
429.847	85.06
430.069	100.06
430.292	99.06
430.514	116.06
430.736	90.06
430.958	106.06
431.18	91.06
431.402	106.06
431.624	83.06
431.846	97.06
432.068	83.06
432.29	107.06
432.512	83.06
432.734	86.06
432.956	83.06
433.178	81.06
433.4	80.06
433.622	91.06
433.844	76.06
434.066	89.06
434.287	98.06
434.509	85.06
434.731	91.06
434.953	76.06
435.175	90.06
435.397	98.06
435.618	96.06
435.84	90.06
436.062	79.06
436.284	87.06
436.505	84.06
436.727	83.06
436.949	96.06
437.17	80.06
437.392	87.06
437.614	104.06
437.835	89.06
438.057	83.06
438.278	100.06
438.5	92.06
438.721	86.06
438.943	82.06
439.165	88.06
439.386	89.06
439.608	93.06
439.829	83.06
440.05	90.06
440.272	93.06
440.493	87.06
440.715	93.06
440.936	91.06
441.158	96.06
441.379	95.06
441.6	79.06
441.822	77.06
442.043	93.06
442.264	94.06
442.486	88.06
442.707	83.06
442.928	76.06
443.149	89.06
443.371	105.06
443.592	95.06
443.813	88.06
444.034	98.06
444.255	93.06
444.476	85.06
444.698	78.06
444.919	93.06
445.14	148.06
445.361	125.06
445.582	106.06
445.803	118.06
446.024	93.06
446.245	78.06
446.466	89.06
446.687	79.06
446.908	85.06
447.129	84.06
447.35	84.06
447.571	84.06
447.792	84.06
448.013	85.06
448.234	82.06
448.455	84.06
448.675	99.06
448.896	95.06
449.117	87.06
449.338	78.06
449.559	91.06
449.779	89.06
450	74.06
450.221	78.06
450.442	93.06
450.662	74.06
450.883	90.06
451.104	85.06
451.324	88.06
451.545	100.06
451.766	85.06
451.986	79.06
452.207	96.06
452.428	84.06
452.648	90.06
452.869	87.06
453.089	80.06
453.31	102.06
453.53	70.06
453.751	96.06
453.971	92.06
454.192	95.06
454.412	81.06
454.633	85.06
454.853	89.06
455.073	102.06
455.294	100.06
455.514	113.06
455.734	99.06
455.955	80.06
456.175	87.06
456.395	77.06
456.616	83.06
456.836	83.06
457.056	85.06
457.276	73.06
457.497	90.06
457.717	75.06
457.937	76.06
458.157	89.06
458.377	91.06
458.598	72.06
458.818	69.06
459.038	79.06
459.258	85.06
459.478	103.06
459.698	82.06
459.918	89.06
460.138	89.06
460.358	85.06
460.578	95.06
460.798	73.06
461.018	83.06
461.238	85.06
461.458	75.06
461.678	86.06
461.898	97.06
462.118	91.06
462.338	65.06
462.558	86.06
462.777	95.06
462.997	88.06
463.217	92.06
463.437	80.06
463.657	84.06
463.876	77.06
464.096	91.06
464.316	87.06
464.536	93.06
464.755	89.06
464.975	96.06
465.195	97.06
465.414	87.06
465.634	76.06
465.854	82.06
466.073	76.06
466.293	75.06
466.512	89.06
466.732	94.06
466.951	90.06
467.171	97.06
467.391	97.06
467.61	80.06
467.829	87.06
468.049	79.06
468.268	76.06
468.488	87.06
468.707	85.06
468.927	90.06
469.146	81.06
469.365	83.06
469.585	86.06
469.804	103.06
470.023	81.06
470.243	77.06
470.462	86.06
470.681	77.06
470.901	89.06
471.12	84.06
471.339	94.06
471.558	76.06
471.777	79.06
471.997	85.06
472.216	91.06
472.435	88.06
472.654	91.06
472.873	76.06
473.092	91.06
473.311	100.06
473.53	83.06
473.749	104.06
473.968	89.06
474.187	86.06
474.406	83.06
474.625	80.06
474.844	72.06
475.063	77.06
475.282	88.06
475.501	88.06
475.72	86.06
475.939	87.06
476.158	82.06
476.377	90.06
476.596	88.06
476.814	75.06
477.033	99.06
477.252	103.06
477.471	87.06
477.69	87.06
477.908	88.06
478.127	89.06
478.346	85.06
478.564	86.06
478.783	83.06
479.002	94.06
479.22	107.06
479.439	91.06
479.658	99.06
479.876	81.06
480.095	78.06
480.313	103.06
480.532	84.06
480.751	101.06
480.969	88.06
481.188	91.06
481.406	97.06
481.624	103.06
481.843	84.06
482.061	84.06
482.28	98.06
482.498	88.06
482.717	85.06
482.935	95.06
483.153	90.06
483.372	99.06
483.59	95.06
483.808	91.06
484.027	91.06
484.245	81.06
484.463	93.06
484.681	104.06
484.9	73.06
485.118	93.06
485.336	77.06
485.554	90.06
485.772	95.06
485.99	80.06
486.209	82.06
486.427	83.06
486.645	91.06
486.863	84.06
487.081	77.06
487.299	78.06
487.517	77.06
487.735	90.06
487.953	101.06
488.171	93.06
488.389	89.06
488.607	115.06
488.825	103.06
489.043	90.06
489.261	108.06
489.479	88.06
489.696	91.06
489.914	67.06
490.132	95.06
490.35	88.06
490.568	85.06
490.786	100.06
491.003	87.06
491.221	93.06
491.439	105.06
491.657	86.06
491.874	102.06
492.092	99.06
492.31	92.06
492.527	103.06
492.745	97.06
492.963	99.06
493.18	101.06
493.398	103.06
493.615	97.06
493.833	90.06
494.05	92.06
494.268	93.06
494.485	107.06
494.703	104.06
494.92	102.06
495.138	85.06
495.355	92.06
495.573	94.06
495.79	97.06
496.008	91.06
496.225	97.06
496.442	84.06
496.66	111.06
496.877	104.06
497.094	102.06
497.312	97.06
497.529	98.06
497.746	89.06
497.963	95.06
498.181	95.06
498.398	95.06
498.615	93.06
498.832	93.06
499.049	83.06
499.267	93.06
499.484	83.06
499.701	102.06
499.918	103.06
500.135	84.06
500.352	96.06
500.569	96.06
500.786	109.06
501.003	79.06
501.22	97.06
501.437	84.06
501.654	79.06
501.871	92.06
502.088	93.06
502.305	100.06
502.522	101.06
502.739	91.06
502.956	76.06
503.172	104.06
503.389	101.06
503.606	104.06
503.823	89.06
504.04	96.06
504.256	97.06
504.473	99.06
504.69	104.06
504.907	101.06
505.123	101.06
505.34	100.06
505.557	81.06
505.773	88.06
505.99	81.06
506.207	90.06
506.423	78.06
506.64	95.06
506.856	76.06
507.073	90.06
507.289	91.06
507.506	87.06
507.722	97.06
507.939	85.06
508.155	105.06
508.372	79.06
508.588	95.06
508.805	100.06
509.021	97.06
509.238	91.06
509.454	91.06
509.67	93.06
509.887	104.06
510.103	86.06
510.319	91.06
510.536	92.06
510.752	83.06
510.968	80.06
511.184	85.06
511.401	91.06
511.617	104.06
511.833	86.06
512.049	107.06
512.265	93.06
512.481	92.06
512.698	95.06
512.914	98.06
513.13	71.06
513.346	70.06
513.562	89.06
513.778	97.06
513.994	84.06
514.21	90.06
514.426	85.06
514.642	74.06
514.858	99.06
515.074	91.06
515.29	91.06
515.506	84.06
515.721	85.06
515.937	95.06
516.153	96.06
516.369	87.06
516.585	93.06
516.801	84.06
517.016	92.06
517.232	78.06
517.448	93.06
517.664	85.06
517.879	85.06
518.095	83.06
518.311	78.06
518.527	95.06
518.742	92.06
518.958	95.06
519.173	90.06
519.389	90.06
519.605	85.06
519.82	91.06
520.036	95.06
520.251	91.06
520.467	97.06
520.682	96.06
520.898	77.06
521.113	77.06
521.329	89.06
521.544	85.06
521.76	85.06
521.975	83.06
522.19	101.06
522.406	82.06
522.621	86.06
522.836	99.06
523.052	118.06
523.267	91.06
523.482	94.06
523.698	91.06
523.913	76.06
524.128	84.06
524.343	95.06
524.559	96.06
524.774	96.06
524.989	90.06
525.204	84.06
525.419	78.06
525.634	92.06
525.849	90.06
526.064	80.06
526.28	85.06
526.495	93.06
526.71	107.06
526.925	108.06
527.14	108.06
527.355	99.06
527.57	87.06
527.785	82.06
527.999	93.06
528.214	82.06
528.429	79.06
528.644	91.06
528.859	81.06
529.074	82.06
529.289	89.06
529.503	90.06
529.718	77.06
529.933	104.06
530.148	109.06
530.363	85.06
530.577	100.06
530.792	95.06
531.007	95.06
531.221	89.06
531.436	84.06
531.651	93.06
531.865	84.06
532.08	97.06
532.295	100.06
532.509	105.06
532.724	94.06
532.938	104.06
533.153	82.06
533.367	95.06
533.582	105.06
533.796	120.06
534.011	104.06
534.225	120.06
534.44	120.06
534.654	116.06
534.868	108.06
535.083	94.06
535.297	94.06
535.511	101.06
535.726	97.06
535.94	107.06
536.154	108.06
536.369	95.06
536.583	105.06
536.797	116.06
537.011	95.06
537.225	98.06
537.44	81.06
537.654	73.06
537.868	92.06
538.082	90.06
538.296	90.06
538.51	92.06
538.724	83.06
538.938	71.06
539.153	81.06
539.367	98.06
539.581	99.06
539.795	91.06
540.009	89.06
540.222	84.06
540.436	96.06
540.65	80.06
540.864	100.06
541.078	87.06
541.292	85.06
541.506	70.06
541.72	86.06
541.934	102.06
542.147	88.06
542.361	95.06
542.575	90.06
542.789	89.06
543.002	93.06
543.216	67.06
543.43	86.06
543.644	90.06
543.857	79.06
544.071	73.06
544.285	81.06
544.498	83.06
544.712	82.06
544.925	90.06
545.139	91.06
545.352	83.06
545.566	96.06
545.779	77.06
545.993	86.06
546.206	86.06
546.42	85.06
546.633	90.06
546.847	87.06
547.06	87.06
547.274	78.06
547.487	90.06
547.7	85.06
547.914	84.06
548.127	103.06
548.34	92.06
548.554	82.06
548.767	91.06
548.98	93.06
549.193	97.06
549.407	93.06
549.62	81.06
549.833	87.06
550.046	99.06
550.259	86.06
550.473	97.06
550.686	90.06
550.899	84.06
551.112	95.06
551.325	86.06
551.538	93.06
551.751	83.06
551.964	83.06
552.177	97.06
552.39	83.06
552.603	97.06
552.816	90.06
553.029	98.06
553.242	89.06
553.455	97.06
553.667	89.06
553.88	97.06
554.093	67.06
554.306	99.06
554.519	96.06
554.732	73.06
554.944	83.06
555.157	87.06
555.37	93.06
555.583	90.06
555.795	85.06
556.008	90.06
556.221	77.06
556.433	91.06
556.646	95.06
556.859	76.06
557.071	81.06
557.284	83.06
557.496	87.06
557.709	75.06
557.921	88.06
558.134	94.06
558.346	98.06
558.559	104.06
558.771	101.06
558.984	107.06
559.196	96.06
559.409	96.06
559.621	114.06
559.833	92.06
560.046	97.06
560.258	111.06
560.47	100.06
560.683	98.06
560.895	92.06
561.107	106.06
561.32	93.06
561.532	78.06
561.744	87.06
561.956	85.06
562.168	83.06
562.381	83.06
562.593	87.06
562.805	87.06
563.017	83.06
563.229	87.06
563.441	83.06
563.653	69.06
563.865	83.06
564.077	87.06
564.289	84.06
564.501	79.06
564.713	92.06
564.925	92.06
565.137	72.06
565.349	92.06
565.561	88.06
565.773	88.06
565.985	84.06
566.197	93.06
566.408	87.06
566.62	85.06
566.832	87.06
567.044	78.06
567.255	83.06
567.467	91.06
567.679	87.06
567.891	89.06
568.102	95.06
568.314	98.06
568.526	108.06
568.737	116.06
568.949	113.06
569.161	118.06
569.372	97.06
569.584	105.06
569.795	88.06
570.007	89.06
570.218	96.06
570.43	95.06
570.641	93.06
570.853	91.06
571.064	70.06
571.276	84.06
571.487	81.06
571.698	87.06
571.91	91.06
572.121	85.06
572.333	97.06
572.544	91.06
572.755	91.06
572.966	83.06
573.178	81.06
573.389	88.06
573.6	84.06
573.811	79.06
574.023	86.06
574.234	102.06
574.445	87.06
574.656	84.06
574.867	91.06
575.078	89.06
575.289	90.06
575.501	93.06
575.712	74.06
575.923	88.06
576.134	85.06
576.345	97.06
576.556	99.06
576.767	87.06
576.978	93.06
577.188	101.06
577.399	83.06
577.61	84.06
577.821	103.06
578.032	103.06
578.243	108.06
578.454	105.06
578.665	120.06
578.875	106.06
579.086	95.06
579.297	73.06
579.508	94.06
579.718	97.06
579.929	106.06
580.14	101.06
580.35	139.06
580.561	136.06
580.772	108.06
580.982	119.06
581.193	103.06
581.403	107.06
581.614	109.06
581.825	95.06
582.035	89.06
582.246	90.06
582.456	86.06
582.667	96.06
582.877	108.06
583.087	101.06
583.298	113.06
583.508	111.06
583.719	117.06
583.929	121.06
584.139	91.06
584.35	104.06
584.56	113.06
584.77	103.06
584.981	83.06
585.191	101.06
585.401	91.06
585.611	92.06
585.821	92.06
586.032	90.06
586.242	100.06
586.452	76.06
586.662	84.06
586.872	87.06
587.082	97.06
587.292	105.06
587.502	108.06
587.713	100.06
587.923	115.06
588.133	113.06
588.343	122.06
588.553	138.06
588.762	227.06
588.972	530.06
589.182	1447.06
589.392	844.06
589.602	585.06
589.812	1163.06
590.022	508.06
590.232	209.06
590.441	134.06
590.651	123.06
590.861	102.06
591.071	95.06
591.281	100.06
591.49	87.06
591.7	98.06
591.91	104.06
592.119	86.06
592.329	93.06
592.539	89.06
592.748	95.06
592.958	93.06
593.167	79.06
593.377	87.06
593.587	100.06
593.796	81.06
594.006	99.06
594.215	89.06
594.424	89.06
594.634	91.06
594.843	95.06
595.053	86.06
595.262	90.06
595.472	94.06
595.681	87.06
595.89	81.06
596.1	88.06
596.309	79.06
596.518	86.06
596.727	90.06
596.937	71.06
597.146	93.06
597.355	79.06
597.564	94.06
597.774	101.06
597.983	93.06
598.192	89.06
598.401	84.06
598.61	79.06
598.819	94.06
599.028	91.06
599.237	97.06
599.446	104.06
599.655	87.06
599.864	89.06
600.073	93.06
600.282	98.06
600.491	95.06
600.7	92.06
600.909	92.06
601.118	81.06
601.327	74.06
601.536	75.06
601.745	97.06
601.953	91.06
602.162	77.06
602.371	94.06
602.58	108.06
602.789	94.06
602.997	87.06
603.206	83.06
603.415	99.06
603.623	85.06
603.832	85.06
604.041	91.06
604.249	98.06
604.458	97.06
604.666	74.06
604.875	97.06
605.084	84.06
605.292	81.06
605.501	88.06
605.709	94.06
605.918	80.06
606.126	81.06
606.334	81.06
606.543	85.06
606.751	104.06
606.96	97.06
607.168	80.06
607.376	85.06
607.585	89.06
607.793	94.06
608.001	97.06
608.21	90.06
608.418	89.06
608.626	88.06
608.834	101.06
609.043	85.06
609.251	92.06
609.459	85.06
609.667	85.06
609.875	90.06
610.083	91.06
610.291	85.06
610.499	99.06
610.707	93.06
610.916	89.06
611.124	96.06
611.332	83.06
611.54	89.06
611.748	90.06
611.955	85.06
612.163	87.06
612.371	99.06
612.579	100.06
612.787	86.06
612.995	84.06
613.203	77.06
613.411	100.06
613.618	90.06
613.826	101.06
614.034	91.06
614.242	83.06
614.449	81.06
614.657	87.06
614.865	84.06
615.072	86.06
615.28	81.06
615.488	91.06
615.695	91.06
615.903	94.06
616.111	91.06
616.318	115.06
616.526	122.06
616.733	87.06
616.941	85.06
617.148	91.06
617.356	84.06
617.563	93.06
617.771	102.06
617.978	91.06
618.185	79.06
618.393	91.06
618.6	76.06
618.807	89.06
619.015	81.06
619.222	97.06
619.429	91.06
619.637	93.06
619.844	87.06
620.051	70.06
620.258	66.06
620.466	73.06
620.673	85.06
620.88	97.06
621.087	92.06
621.294	92.06
621.501	78.06
621.708	82.06
621.915	87.06
622.122	98.06
622.329	94.06
622.536	97.06
622.743	90.06
622.95	99.06
623.157	85.06
623.364	94.06
623.571	97.06
623.778	87.06
623.985	81.06
624.192	102.06
624.399	90.06
624.606	87.06
624.812	74.06
625.019	76.06
625.226	91.06
625.433	89.06
625.639	83.06
625.846	96.06
626.053	96.06
626.259	100.06
626.466	97.06
626.673	96.06
626.879	85.06
627.086	93.06
627.293	89.06
627.499	96.06
627.706	68.06
627.912	94.06
628.119	71.06
628.325	79.06
628.532	94.06
628.738	83.06
628.945	92.06
629.151	90.06
629.357	89.06
629.564	88.06
629.77	85.06
629.976	79.06
630.183	96.06
630.389	85.06
630.595	83.06
630.802	89.06
631.008	84.06
631.214	74.06
631.42	96.06
631.627	91.06
631.833	87.06
632.039	84.06
632.245	74.06
632.451	76.06
632.657	85.06
632.863	89.06
633.069	86.06
633.275	89.06
633.481	83.06
633.688	89.06
633.893	88.06
634.099	86.06
634.305	80.06
634.511	89.06
634.717	91.06
634.923	88.06
635.129	85.06
635.335	83.06
635.541	92.06
635.747	65.06
635.952	71.06
636.158	88.06
636.364	91.06
636.57	77.06
636.775	66.06
636.981	89.06
637.187	89.06
637.392	91.06
637.598	106.06
637.804	94.06
638.009	82.06
638.215	89.06
638.421	77.06
638.626	80.06
638.832	86.06
639.037	81.06
639.243	83.06
639.448	85.06
639.654	80.06
639.859	76.06
640.065	97.06
640.27	84.06
640.475	77.06
640.681	82.06
640.886	79.06
641.091	80.06
641.297	90.06
641.502	69.06
641.707	81.06
641.913	91.06
642.118	77.06
642.323	89.06
642.528	90.06
642.733	82.06
642.939	87.06
643.144	83.06
643.349	86.06
643.554	114.06
643.759	87.06
643.964	85.06
644.169	80.06
644.374	85.06
644.579	72.06
644.784	84.06
644.989	79.06
645.194	87.06
645.399	83.06
645.604	88.06
645.809	102.06
646.014	97.06
646.219	75.06
646.423	89.06
646.628	81.06
646.833	82.06
647.038	92.06
647.243	86.06
647.447	90.06
647.652	88.06
647.857	81.06
648.062	76.06
648.266	84.06
648.471	99.06
648.676	87.06
648.88	79.06
649.085	94.06
649.289	87.06
649.494	84.06
649.698	92.06
649.903	92.06
650.107	100.06
650.312	89.06
650.516	83.06
650.721	95.06
650.925	83.06
651.13	95.06
651.334	82.06
651.539	86.06
651.743	74.06
651.947	86.06
652.152	84.06
652.356	92.06
652.56	90.06
652.764	81.06
652.969	83.06
653.173	93.06
653.377	85.06
653.581	73.06
653.785	71.06
653.99	75.06
654.194	76.06
654.398	80.06
654.602	92.06
654.806	90.06
655.01	92.06
655.214	83.06
655.418	100.06
655.622	99.06
655.826	92.06
656.03	60.06
656.234	73.06
656.438	84.06
656.642	77.06
656.846	81.06
657.049	69.06
657.253	89.06
657.457	84.06
657.661	67.06
657.865	83.06
658.068	87.06
658.272	80.06
658.476	74.06
658.68	85.06
658.883	77.06
659.087	95.06
659.291	76.06
659.494	83.06
659.698	78.06
659.901	89.06
660.105	84.06
660.309	73.06
660.512	63.06
660.716	89.06
660.919	72.06
661.123	91.06
661.326	81.06
661.53	91.06
661.733	81.06
661.936	81.06
662.14	76.06
662.343	71.06
662.546	74.06
662.75	88.06
662.953	94.06
663.156	94.06
663.36	75.06
663.563	85.06
663.766	79.06
663.969	79.06
664.173	83.06
664.376	78.06
664.579	88.06
664.782	73.06
664.985	92.06
665.188	86.06
665.391	84.06
665.594	73.06
665.797	87.06
666	75.06
666.203	73.06
666.406	87.06
666.609	73.06
666.812	82.06
667.015	85.06
667.218	86.06
667.421	80.06
667.624	81.06
667.827	70.06
668.03	65.06
668.232	60.06
668.435	80.06
668.638	100.06
668.841	77.06
669.043	74.06
669.246	83.06
669.449	74.06
669.651	74.06
669.854	82.06
670.057	87.06
670.259	79.06
670.462	85.06
670.665	75.06
670.867	90.06
671.07	89.06
671.272	77.06
671.475	80.06
671.677	74.06
671.88	79.06
672.082	80.06
672.284	74.06
672.487	81.06
672.689	74.06
672.892	67.06
