Data from Lead_HRD10591_00060.txt Node
Date: Tue Feb 17 14:18:17 EST 2026
User: Yrep
Spectrometer: HR+D1059
Trigger mode: 1
Integration Time (sec): 1.000000E-1
Scans to average: 1
Electric dark correction enabled: true
Nonlinearity correction enabled: false
Boxcar width: 0
XAxis mode: Wavelengths
Number of Pixels in Spectrum: 2048
>>>>>Begin Spectral Data<<<<<
223.165	-24.38
223.4	-24.38
223.635	-24.38
223.869	-9.38
224.104	-25.38
224.338	-6.38
224.573	-21.38
224.808	-0.38
225.042	-23.38
225.277	-2.38
225.511	-7.38
225.746	-1.38
225.98	8.62
226.215	23.62
226.449	2.62
226.683	23.62
226.918	17.62
227.152	45.62
227.387	23.62
227.621	39.62
227.856	57.62
228.09	39.62
228.324	44.62
228.559	49.62
228.793	59.62
229.027	57.62
229.262	57.62
229.496	68.62
229.73	72.62
229.964	61.62
230.199	62.62
230.433	64.62
230.667	95.62
230.901	83.62
231.136	99.62
231.37	86.62
231.604	90.62
231.838	93.62
232.072	77.62
232.306	83.62
232.541	86.62
232.775	61.62
233.009	74.62
233.243	90.62
233.477	90.62
233.711	72.62
233.945	76.62
234.179	61.62
234.413	76.62
234.647	82.62
234.881	82.62
235.115	69.62
235.349	73.62
235.583	88.62
235.817	104.62
236.051	92.62
236.285	76.62
236.519	72.62
236.753	96.62
236.987	83.62
237.221	72.62
237.455	81.62
237.689	82.62
237.922	89.62
238.156	77.62
238.39	84.62
238.624	68.62
238.858	75.62
239.091	95.62
239.325	83.62
239.559	89.62
239.793	93.62
240.027	80.62
240.26	84.62
240.494	74.62
240.728	65.62
240.961	84.62
241.195	73.62
241.429	78.62
241.662	81.62
241.896	73.62
242.13	74.62
242.363	82.62
242.597	74.62
242.83	78.62
243.064	71.62
243.298	78.62
243.531	69.62
243.765	87.62
243.998	96.62
244.232	80.62
244.465	90.62
244.699	85.62
244.932	73.62
245.166	78.62
245.399	78.62
245.633	82.62
245.866	91.62
246.099	96.62
246.333	74.62
246.566	72.62
246.8	81.62
247.033	79.62
247.266	92.62
247.5	87.62
247.733	92.62
247.966	71.62
248.2	74.62
248.433	74.62
248.666	86.62
248.899	64.62
249.133	78.62
249.366	81.62
249.599	76.62
249.832	76.62
250.066	77.62
250.299	71.62
250.532	70.62
250.765	80.62
250.998	73.62
251.231	82.62
251.465	84.62
251.698	90.62
251.931	86.62
252.164	70.62
252.397	88.62
252.63	90.62
252.863	93.62
253.096	82.62
253.329	69.62
253.562	68.62
253.795	72.62
254.028	85.62
254.261	84.62
254.494	72.62
254.727	77.62
254.96	85.62
255.193	75.62
255.426	84.62
255.659	72.62
255.892	72.62
256.124	77.62
256.357	78.62
256.59	72.62
256.823	84.62
257.056	88.62
257.289	100.62
257.521	87.62
257.754	83.62
257.987	88.62
258.22	91.62
258.452	80.62
258.685	73.62
258.918	98.62
259.151	84.62
259.383	92.62
259.616	82.62
259.849	88.62
260.081	71.62
260.314	76.62
260.547	81.62
260.779	88.62
261.012	92.62
261.244	89.62
261.477	107.62
261.71	120.62
261.942	99.62
262.175	92.62
262.407	92.62
262.64	93.62
262.872	90.62
263.105	98.62
263.337	89.62
263.57	97.62
263.802	75.62
264.035	93.62
264.267	81.62
264.499	96.62
264.732	81.62
264.964	93.62
265.197	86.62
265.429	97.62
265.661	86.62
265.894	75.62
266.126	93.62
266.358	84.62
266.591	92.62
266.823	83.62
267.055	82.62
267.287	89.62
267.52	77.62
267.752	73.62
267.984	93.62
268.216	79.62
268.448	86.62
268.681	71.62
268.913	82.62
269.145	78.62
269.377	82.62
269.609	83.62
269.841	87.62
270.073	83.62
270.306	72.62
270.538	89.62
270.77	81.62
271.002	90.62
271.234	92.62
271.466	85.62
271.698	84.62
271.93	76.62
272.162	76.62
272.394	71.62
272.626	76.62
272.858	84.62
273.09	66.62
273.322	80.62
273.553	87.62
273.785	105.62
274.017	69.62
274.249	81.62
274.481	90.62
274.713	74.62
274.945	88.62
275.176	86.62
275.408	79.62
275.64	103.62
275.872	82.62
276.104	84.62
276.335	77.62
276.567	77.62
276.799	85.62
277.031	85.62
277.262	77.62
277.494	86.62
277.726	92.62
277.957	78.62
278.189	88.62
278.421	86.62
278.652	85.62
278.884	84.62
279.115	97.62
279.347	99.62
279.579	85.62
279.81	104.62
280.042	118.62
280.273	163.62
280.505	138.62
280.736	82.62
280.968	81.62
281.199	99.62
281.431	85.62
281.662	101.62
281.894	102.62
282.125	113.62
282.356	122.62
282.588	109.62
282.819	84.62
283.051	110.62
283.282	118.62
283.513	127.62
283.745	106.62
283.976	109.62
284.207	92.62
284.439	89.62
284.67	92.62
284.901	84.62
285.132	89.62
285.364	87.62
285.595	56.62
285.826	85.62
286.057	92.62
286.288	88.62
286.52	88.62
286.751	91.62
286.982	99.62
287.213	106.62
287.444	113.62
287.675	102.62
287.906	112.62
288.138	100.62
288.369	84.62
288.6	88.62
288.831	95.62
289.062	88.62
289.293	85.62
289.524	88.62
289.755	69.62
289.986	81.62
290.217	89.62
290.448	75.62
290.679	92.62
290.91	72.62
291.141	94.62
291.371	88.62
291.602	98.62
291.833	98.62
292.064	104.62
292.295	88.62
292.526	64.62
292.757	91.62
292.987	92.62
293.218	83.62
293.449	69.62
293.68	86.62
293.91	90.62
294.141	94.62
294.372	82.62
294.603	84.62
294.833	75.62
295.064	99.62
295.295	86.62
295.525	90.62
295.756	82.62
295.987	84.62
296.217	92.62
296.448	75.62
296.679	86.62
296.909	88.62
297.14	77.62
297.37	90.62
297.601	92.62
297.831	84.62
298.062	78.62
298.292	84.62
298.523	82.62
298.753	78.62
298.984	84.62
299.214	90.62
299.445	93.62
299.675	75.62
299.905	84.62
300.136	97.62
300.366	94.62
300.597	96.62
300.827	81.62
301.057	78.62
301.288	72.62
301.518	101.62
301.748	88.62
301.979	96.62
302.209	87.62
302.439	90.62
302.669	91.62
302.9	86.62
303.13	90.62
303.36	92.62
303.59	103.62
303.82	93.62
304.051	89.62
304.281	84.62
304.511	102.62
304.741	78.62
304.971	79.62
305.201	83.62
305.431	78.62
305.661	79.62
305.891	84.62
306.121	85.62
306.352	75.62
306.582	93.62
306.812	99.62
307.042	86.62
307.272	93.62
307.502	99.62
307.731	95.62
307.961	90.62
308.191	110.62
308.421	98.62
308.651	98.62
308.881	100.62
309.111	117.62
309.341	124.62
309.571	112.62
309.8	85.62
310.03	87.62
310.26	86.62
310.49	96.62
310.72	73.62
310.949	84.62
311.179	80.62
311.409	84.62
311.639	92.62
311.868	94.62
312.098	89.62
312.328	91.62
312.557	77.62
312.787	76.62
313.017	86.62
313.246	86.62
313.476	83.62
313.706	94.62
313.935	94.62
314.165	95.62
314.394	92.62
314.624	84.62
314.853	87.62
315.083	88.62
315.312	92.62
315.542	89.62
315.771	81.62
316.001	90.62
316.23	92.62
316.46	77.62
316.689	79.62
316.919	88.62
317.148	96.62
317.377	94.62
317.607	99.62
317.836	96.62
318.065	94.62
318.295	78.62
318.524	88.62
318.753	72.62
318.983	86.62
319.212	82.62
319.441	86.62
319.67	87.62
319.9	84.62
320.129	103.62
320.358	89.62
320.587	87.62
320.816	76.62
321.046	79.62
321.275	64.62
321.504	65.62
321.733	94.62
321.962	84.62
322.191	97.62
322.42	98.62
322.649	90.62
322.878	84.62
323.108	96.62
323.337	81.62
323.566	97.62
323.795	107.62
324.024	91.62
324.253	91.62
324.482	101.62
324.71	107.62
324.939	109.62
325.168	90.62
325.397	91.62
325.626	93.62
325.855	82.62
326.084	100.62
326.313	97.62
326.542	106.62
326.77	81.62
326.999	87.62
327.228	104.62
327.457	103.62
327.686	103.62
327.914	73.62
328.143	75.62
328.372	82.62
328.6	86.62
328.829	83.62
329.058	90.62
329.287	80.62
329.515	84.62
329.744	88.62
329.972	81.62
330.201	94.62
330.43	107.62
330.658	80.62
330.887	92.62
331.115	81.62
331.344	83.62
331.572	89.62
331.801	100.62
332.03	85.62
332.258	92.62
332.486	89.62
332.715	90.62
332.943	80.62
333.172	76.62
333.4	77.62
333.629	85.62
333.857	102.62
334.085	90.62
334.314	87.62
334.542	85.62
334.771	75.62
334.999	70.62
335.227	91.62
335.455	93.62
335.684	65.62
335.912	88.62
336.14	83.62
336.369	94.62
336.597	77.62
336.825	87.62
337.053	80.62
337.281	97.62
337.51	84.62
337.738	89.62
337.966	80.62
338.194	80.62
338.422	100.62
338.65	82.62
338.878	89.62
339.106	65.62
339.334	75.62
339.562	76.62
339.79	81.62
340.018	82.62
340.246	82.62
340.474	84.62
340.702	90.62
340.93	86.62
341.158	81.62
341.386	86.62
341.614	67.62
341.842	99.62
342.07	90.62
342.298	86.62
342.526	94.62
342.754	84.62
342.981	94.62
343.209	97.62
343.437	96.62
343.665	86.62
343.893	94.62
344.12	90.62
344.348	89.62
344.576	76.62
344.804	100.62
345.031	83.62
345.259	87.62
345.487	69.62
345.714	72.62
345.942	89.62
346.17	81.62
346.397	96.62
346.625	78.62
346.853	85.62
347.08	84.62
347.308	81.62
347.535	89.62
347.763	84.62
347.99	78.62
348.218	74.62
348.445	84.62
348.673	82.62
348.9	71.62
349.128	91.62
349.355	85.62
349.583	92.62
349.81	75.62
350.037	73.62
350.265	81.62
350.492	82.62
350.72	81.62
350.947	84.62
351.174	87.62
351.402	84.62
351.629	78.62
351.856	99.62
352.083	72.62
352.311	92.62
352.538	77.62
352.765	84.62
352.992	90.62
353.22	91.62
353.447	96.62
353.674	97.62
353.901	76.62
354.128	93.62
354.355	72.62
354.583	83.62
354.81	79.62
355.037	96.62
355.264	86.62
355.491	78.62
355.718	96.62
355.945	100.62
356.172	78.62
356.399	90.62
356.626	106.62
356.853	121.62
357.08	175.62
357.307	220.62
357.534	181.62
357.761	106.62
357.988	90.62
358.215	97.62
358.441	100.62
358.668	96.62
358.895	104.62
359.122	92.62
359.349	103.62
359.576	98.62
359.802	91.62
360.029	64.62
360.256	75.62
360.483	77.62
360.709	92.62
360.936	89.62
361.163	88.62
361.39	89.62
361.616	88.62
361.843	98.62
362.07	93.62
362.296	90.62
362.523	93.62
362.749	94.62
362.976	96.62
363.203	102.62
363.429	131.62
363.656	194.62
363.882	267.62
364.109	310.62
364.335	164.62
364.562	101.62
364.788	89.62
365.015	82.62
365.241	94.62
365.468	94.62
365.694	91.62
365.92	82.62
366.147	100.62
366.373	77.62
366.599	100.62
366.826	109.62
367.052	136.62
367.278	164.62
367.505	117.62
367.731	120.62
367.957	185.62
368.184	317.62
368.41	432.62
368.636	305.62
368.862	136.62
369.089	90.62
369.315	96.62
369.541	84.62
369.767	73.62
369.993	80.62
370.219	86.62
370.445	77.62
370.672	87.62
370.898	60.62
371.124	96.62
371.35	86.62
371.576	77.62
371.802	65.62
372.028	90.62
372.254	91.62
372.48	88.62
372.706	93.62
372.932	82.62
373.158	78.62
373.384	99.62
373.61	128.62
373.835	176.62
374.061	228.62
374.287	145.62
374.513	107.62
374.739	81.62
374.965	84.62
375.191	84.62
375.416	84.62
375.642	77.62
375.868	89.62
376.094	84.62
376.319	75.62
376.545	70.62
376.771	83.62
376.997	87.62
377.222	87.62
377.448	97.62
377.674	83.62
377.899	80.62
378.125	82.62
378.35	95.62
378.576	97.62
378.802	84.62
379.027	78.62
379.253	94.62
379.478	81.62
379.704	102.62
379.929	93.62
380.155	102.62
380.38	90.62
380.606	81.62
380.831	75.62
381.057	76.62
381.282	85.62
381.507	100.62
381.733	85.62
381.958	75.62
382.184	87.62
382.409	76.62
382.634	90.62
382.86	86.62
383.085	97.62
383.31	89.62
383.535	96.62
383.761	70.62
383.986	99.62
384.211	82.62
384.436	91.62
384.662	87.62
384.887	92.62
385.112	82.62
385.337	84.62
385.562	91.62
385.787	89.62
386.013	91.62
386.238	87.62
386.463	100.62
386.688	91.62
386.913	84.62
387.138	91.62
387.363	87.62
387.588	76.62
387.813	95.62
388.038	99.62
388.263	91.62
388.488	78.62
388.713	84.62
388.938	93.62
389.163	79.62
389.387	82.62
389.612	87.62
389.837	83.62
390.062	78.62
390.287	96.62
390.512	96.62
390.736	102.62
390.961	87.62
391.186	91.62
391.411	86.62
391.636	93.62
391.86	82.62
392.085	98.62
392.31	99.62
392.534	86.62
392.759	105.62
392.984	101.62
393.208	140.62
393.433	205.62
393.658	152.62
393.882	105.62
394.107	131.62
394.331	188.62
394.556	205.62
394.78	117.62
395.005	88.62
395.229	93.62
395.454	92.62
395.678	98.62
395.903	161.62
396.127	214.62
396.352	234.62
396.576	125.62
396.801	152.62
397.025	150.62
397.249	109.62
397.474	93.62
397.698	91.62
397.922	107.62
398.147	79.62
398.371	79.62
398.595	75.62
398.82	82.62
399.044	74.62
399.268	69.62
399.492	90.62
399.717	84.62
399.941	72.62
400.165	84.62
400.389	70.62
400.613	86.62
400.837	98.62
401.062	90.62
401.286	85.62
401.51	82.62
401.734	106.62
401.958	134.62
402.182	122.62
402.406	83.62
402.63	98.62
402.854	78.62
403.078	93.62
403.302	80.62
403.526	93.62
403.75	85.62
403.974	104.62
404.198	78.62
404.422	96.62
404.645	101.62
404.869	123.62
405.093	120.62
405.317	171.62
405.541	355.62
405.765	680.62
405.988	729.62
406.212	314.62
406.436	194.62
406.66	119.62
406.883	89.62
407.107	84.62
407.331	98.62
407.555	78.62
407.778	84.62
408.002	80.62
408.226	91.62
408.449	90.62
408.673	79.62
408.896	84.62
409.12	81.62
409.344	72.62
409.567	76.62
409.791	86.62
410.014	77.62
410.238	81.62
410.461	92.62
410.685	82.62
410.908	74.62
411.132	95.62
411.355	78.62
411.578	97.62
411.802	80.62
412.025	68.62
412.249	58.62
412.472	98.62
412.695	78.62
412.919	81.62
413.142	97.62
413.365	78.62
413.589	72.62
413.812	79.62
414.035	92.62
414.258	87.62
414.482	82.62
414.705	93.62
414.928	88.62
415.151	77.62
415.374	72.62
415.597	81.62
415.821	94.62
416.044	85.62
416.267	95.62
416.49	87.62
416.713	100.62
416.936	114.62
417.159	91.62
417.382	87.62
417.605	78.62
417.828	92.62
418.051	75.62
418.274	90.62
418.497	72.62
418.72	94.62
418.943	90.62
419.166	83.62
419.389	91.62
419.611	83.62
419.834	81.62
420.057	82.62
420.28	72.62
420.503	86.62
420.726	86.62
420.948	96.62
421.171	75.62
421.394	69.62
421.617	86.62
421.839	79.62
422.062	81.62
422.285	90.62
422.507	118.62
422.73	148.62
422.953	133.62
423.175	74.62
423.398	92.62
423.621	82.62
423.843	73.62
424.066	76.62
424.288	82.62
424.511	96.62
424.733	96.62
424.956	91.62
425.178	97.62
425.401	96.62
425.623	92.62
425.846	64.62
426.068	82.62
426.291	88.62
426.513	84.62
426.735	88.62
426.958	84.62
427.18	84.62
427.402	75.62
427.625	74.62
427.847	86.62
428.069	92.62
428.292	93.62
428.514	91.62
428.736	78.62
428.958	73.62
429.181	93.62
429.403	86.62
429.625	69.62
429.847	88.62
430.069	88.62
430.292	97.62
430.514	95.62
430.736	88.62
430.958	87.62
431.18	79.62
431.402	82.62
431.624	77.62
431.846	86.62
432.068	84.62
432.29	75.62
432.512	76.62
432.734	83.62
432.956	79.62
433.178	83.62
433.4	81.62
433.622	93.62
433.844	90.62
434.066	79.62
434.287	81.62
434.509	77.62
434.731	79.62
434.953	72.62
435.175	78.62
435.397	81.62
435.618	74.62
435.84	70.62
436.062	72.62
436.284	82.62
436.505	94.62
436.727	83.62
436.949	73.62
437.17	68.62
437.392	90.62
437.614	81.62
437.835	86.62
438.057	84.62
438.278	77.62
438.5	96.62
438.721	88.62
438.943	84.62
439.165	82.62
439.386	64.62
439.608	80.62
439.829	86.62
440.05	93.62
440.272	77.62
440.493	98.62
440.715	88.62
440.936	89.62
441.158	82.62
441.379	82.62
441.6	87.62
441.822	61.62
442.043	84.62
442.264	100.62
442.486	81.62
442.707	82.62
442.928	90.62
443.149	95.62
443.371	96.62
443.592	87.62
443.813	70.62
444.034	85.62
444.255	88.62
444.476	84.62
444.698	99.62
444.919	82.62
445.14	149.62
445.361	108.62
445.582	86.62
445.803	64.62
446.024	91.62
446.245	68.62
446.466	77.62
446.687	78.62
446.908	78.62
447.129	84.62
447.35	88.62
447.571	88.62
447.792	75.62
448.013	86.62
448.234	71.62
448.455	72.62
448.675	68.62
448.896	82.62
449.117	80.62
449.338	82.62
449.559	103.62
449.779	77.62
450	78.62
450.221	92.62
450.442	92.62
450.662	76.62
450.883	88.62
451.104	79.62
451.324	84.62
451.545	91.62
451.766	86.62
451.986	80.62
452.207	101.62
452.428	76.62
452.648	91.62
452.869	100.62
453.089	90.62
453.31	76.62
453.53	75.62
453.751	84.62
453.971	87.62
454.192	102.62
454.412	82.62
454.633	96.62
454.853	89.62
455.073	95.62
455.294	78.62
455.514	76.62
455.734	76.62
455.955	71.62
456.175	77.62
456.395	81.62
456.616	91.62
456.836	82.62
457.056	76.62
457.276	73.62
457.497	83.62
457.717	78.62
457.937	86.62
458.157	76.62
458.377	83.62
458.598	73.62
458.818	76.62
459.038	78.62
459.258	77.62
459.478	76.62
459.698	63.62
459.918	84.62
460.138	94.62
460.358	88.62
460.578	91.62
460.798	76.62
461.018	83.62
461.238	84.62
461.458	79.62
461.678	77.62
461.898	78.62
462.118	78.62
462.338	88.62
462.558	90.62
462.777	77.62
462.997	102.62
463.217	81.62
463.437	84.62
463.657	100.62
463.876	92.62
464.096	85.62
464.316	80.62
464.536	75.62
464.755	96.62
464.975	89.62
465.195	94.62
465.414	94.62
465.634	88.62
465.854	77.62
466.073	72.62
466.293	73.62
466.512	75.62
466.732	77.62
466.951	78.62
467.171	97.62
467.391	90.62
467.61	85.62
467.829	82.62
468.049	76.62
468.268	80.62
468.488	96.62
468.707	75.62
468.927	91.62
469.146	83.62
469.365	71.62
469.585	80.62
469.804	86.62
470.023	82.62
470.243	93.62
470.462	79.62
470.681	76.62
470.901	88.62
471.12	89.62
471.339	92.62
471.558	94.62
471.777	97.62
471.997	82.62
472.216	81.62
472.435	83.62
472.654	79.62
472.873	89.62
473.092	79.62
473.311	85.62
473.53	86.62
473.749	88.62
473.968	83.62
474.187	84.62
474.406	86.62
474.625	81.62
474.844	73.62
475.063	90.62
475.282	86.62
475.501	78.62
475.72	93.62
475.939	94.62
476.158	68.62
476.377	82.62
476.596	80.62
476.814	96.62
477.033	79.62
477.252	76.62
477.471	70.62
477.69	84.62
477.908	82.62
478.127	81.62
478.346	84.62
478.564	83.62
478.783	95.62
479.002	86.62
479.22	82.62
479.439	87.62
479.658	71.62
479.876	84.62
480.095	90.62
480.313	95.62
480.532	94.62
480.751	99.62
480.969	76.62
481.188	85.62
481.406	88.62
481.624	92.62
481.843	76.62
482.061	89.62
482.28	100.62
482.498	88.62
482.717	89.62
482.935	85.62
483.153	90.62
483.372	82.62
483.59	80.62
483.808	90.62
484.027	91.62
484.245	80.62
484.463	88.62
484.681	95.62
484.9	84.62
485.118	88.62
485.336	93.62
485.554	82.62
485.772	76.62
485.99	88.62
486.209	87.62
486.427	81.62
486.645	93.62
486.863	97.62
487.081	83.62
487.299	96.62
487.517	90.62
487.735	81.62
487.953	81.62
488.171	90.62
488.389	78.62
488.607	77.62
488.825	91.62
489.043	76.62
489.261	87.62
489.479	97.62
489.696	80.62
489.914	66.62
490.132	80.62
490.35	90.62
490.568	81.62
490.786	82.62
491.003	77.62
491.221	85.62
491.439	85.62
491.657	77.62
491.874	78.62
492.092	79.62
492.31	84.62
492.527	91.62
492.745	83.62
492.963	91.62
493.18	94.62
493.398	100.62
493.615	81.62
493.833	95.62
494.05	84.62
494.268	90.62
494.485	75.62
494.703	88.62
494.92	89.62
495.138	91.62
495.355	89.62
495.573	87.62
495.79	84.62
496.008	91.62
496.225	99.62
496.442	89.62
496.66	88.62
496.877	86.62
497.094	84.62
497.312	96.62
497.529	82.62
497.746	75.62
497.963	78.62
498.181	79.62
498.398	82.62
498.615	78.62
498.832	90.62
499.049	88.62
499.267	84.62
499.484	80.62
499.701	80.62
499.918	86.62
500.135	93.62
500.352	86.62
500.569	134.62
500.786	173.62
501.003	102.62
501.22	90.62
501.437	83.62
501.654	93.62
501.871	78.62
502.088	77.62
502.305	97.62
502.522	88.62
502.739	83.62
502.956	93.62
503.172	77.62
503.389	86.62
503.606	88.62
503.823	88.62
504.04	87.62
504.256	96.62
504.473	85.62
504.69	94.62
504.907	102.62
505.123	91.62
505.34	85.62
505.557	81.62
505.773	80.62
505.99	86.62
506.207	86.62
506.423	76.62
506.64	76.62
506.856	88.62
507.073	91.62
507.289	77.62
507.506	77.62
507.722	93.62
507.939	97.62
508.155	93.62
508.372	86.62
508.588	83.62
508.805	76.62
509.021	95.62
509.238	79.62
509.454	100.62
509.67	81.62
509.887	84.62
510.103	84.62
510.319	76.62
510.536	91.62
510.752	79.62
510.968	82.62
511.184	76.62
511.401	92.62
511.617	93.62
511.833	85.62
512.049	73.62
512.265	60.62
512.481	76.62
512.698	86.62
512.914	92.62
513.13	80.62
513.346	88.62
513.562	87.62
513.778	94.62
513.994	85.62
514.21	84.62
514.426	91.62
514.642	89.62
514.858	84.62
515.074	81.62
515.29	76.62
515.506	78.62
515.721	84.62
515.937	77.62
516.153	82.62
516.369	76.62
516.585	89.62
516.801	73.62
517.016	98.62
517.232	84.62
517.448	75.62
517.664	77.62
517.879	82.62
518.095	90.62
518.311	81.62
518.527	86.62
518.742	82.62
518.958	89.62
519.173	91.62
519.389	92.62
519.605	90.62
519.82	88.62
520.036	89.62
520.251	102.62
520.467	116.62
520.682	102.62
520.898	87.62
521.113	77.62
521.329	84.62
521.544	74.62
521.76	94.62
521.975	85.62
522.19	85.62
522.406	89.62
522.621	73.62
522.836	87.62
523.052	98.62
523.267	94.62
523.482	88.62
523.698	89.62
523.913	83.62
524.128	70.62
524.343	95.62
524.559	85.62
524.774	73.62
524.989	84.62
525.204	93.62
525.419	99.62
525.634	89.62
525.849	80.62
526.064	107.62
526.28	90.62
526.495	78.62
526.71	88.62
526.925	86.62
527.14	76.62
527.355	90.62
527.57	87.62
527.785	71.62
527.999	86.62
528.214	75.62
528.429	90.62
528.644	87.62
528.859	99.62
529.074	90.62
529.289	89.62
529.503	96.62
529.718	93.62
529.933	74.62
530.148	95.62
530.363	90.62
530.577	90.62
530.792	94.62
531.007	91.62
531.221	89.62
531.436	92.62
531.651	83.62
531.865	83.62
532.08	88.62
532.295	82.62
532.509	83.62
532.724	93.62
532.938	78.62
533.153	79.62
533.367	86.62
533.582	103.62
533.796	80.62
534.011	86.62
534.225	87.62
534.44	88.62
534.654	82.62
534.868	83.62
535.083	92.62
535.297	88.62
535.511	79.62
535.726	90.62
535.94	85.62
536.154	85.62
536.369	86.62
536.583	89.62
536.797	69.62
537.011	76.62
537.225	77.62
537.44	76.62
537.654	80.62
537.868	88.62
538.082	93.62
538.296	92.62
538.51	97.62
538.724	105.62
538.938	92.62
539.153	75.62
539.367	88.62
539.581	79.62
539.795	94.62
540.009	92.62
540.222	74.62
540.436	78.62
540.65	92.62
540.864	91.62
541.078	72.62
541.292	84.62
541.506	84.62
541.72	83.62
541.934	82.62
542.147	101.62
542.361	82.62
542.575	73.62
542.789	86.62
543.002	82.62
543.216	88.62
543.43	98.62
543.644	93.62
543.857	88.62
544.071	77.62
544.285	84.62
544.498	85.62
544.712	86.62
544.925	105.62
545.139	75.62
545.352	92.62
545.566	74.62
545.779	90.62
545.993	84.62
546.206	88.62
546.42	90.62
546.633	96.62
546.847	100.62
547.06	94.62
547.274	94.62
547.487	104.62
547.7	96.62
547.914	90.62
548.127	84.62
548.34	80.62
548.554	94.62
548.767	77.62
548.98	92.62
549.193	90.62
549.407	92.62
549.62	86.62
549.833	88.62
550.046	86.62
550.259	84.62
550.473	96.62
550.686	83.62
550.899	76.62
551.112	86.62
551.325	78.62
551.538	89.62
551.751	94.62
551.964	81.62
552.177	79.62
552.39	88.62
552.603	88.62
552.816	93.62
553.029	78.62
553.242	75.62
553.455	75.62
553.667	104.62
553.88	88.62
554.093	88.62
554.306	93.62
554.519	96.62
554.732	85.62
554.944	79.62
555.157	94.62
555.37	88.62
555.583	87.62
555.795	77.62
556.008	96.62
556.221	85.62
556.433	74.62
556.646	82.62
556.859	91.62
557.071	94.62
557.284	79.62
557.496	82.62
557.709	86.62
557.921	96.62
558.134	93.62
558.346	90.62
558.559	92.62
558.771	84.62
558.984	106.62
559.196	95.62
559.409	90.62
559.621	98.62
559.833	94.62
560.046	90.62
560.258	104.62
560.47	93.62
560.683	104.62
560.895	84.62
561.107	106.62
561.32	97.62
561.532	87.62
561.744	68.62
561.956	82.62
562.168	78.62
562.381	97.62
562.593	99.62
562.805	107.62
563.017	92.62
563.229	90.62
563.441	98.62
563.653	85.62
563.865	87.62
564.077	78.62
564.289	79.62
564.501	98.62
564.713	100.62
564.925	104.62
565.137	73.62
565.349	84.62
565.561	75.62
565.773	84.62
565.985	65.62
566.197	84.62
566.408	82.62
566.62	96.62
566.832	98.62
567.044	97.62
567.255	95.62
567.467	89.62
567.679	81.62
567.891	93.62
568.102	87.62
568.314	94.62
568.526	99.62
568.737	101.62
568.949	112.62
569.161	103.62
569.372	107.62
569.584	90.62
569.795	90.62
570.007	90.62
570.218	90.62
570.43	86.62
570.641	89.62
570.853	84.62
571.064	86.62
571.276	88.62
571.487	91.62
571.698	74.62
571.91	88.62
572.121	82.62
572.333	75.62
572.544	84.62
572.755	92.62
572.966	94.62
573.178	82.62
573.389	91.62
573.6	86.62
573.811	88.62
574.023	94.62
574.234	91.62
574.445	97.62
574.656	91.62
574.867	82.62
575.078	86.62
575.289	90.62
575.501	86.62
575.712	84.62
575.923	88.62
576.134	87.62
576.345	92.62
576.556	89.62
576.767	91.62
576.978	83.62
577.188	89.62
577.399	71.62
577.61	82.62
577.821	94.62
578.032	95.62
578.243	92.62
578.454	85.62
578.665	94.62
578.875	92.62
579.086	81.62
579.297	76.62
579.508	79.62
579.718	86.62
579.929	77.62
580.14	84.62
580.35	86.62
580.561	85.62
580.772	84.62
580.982	88.62
581.193	78.62
581.403	80.62
581.614	77.62
581.825	100.62
582.035	77.62
582.246	90.62
582.456	84.62
582.667	89.62
582.877	86.62
583.087	75.62
583.298	103.62
583.508	95.62
583.719	82.62
583.929	96.62
584.139	100.62
584.35	85.62
584.56	87.62
584.77	85.62
584.981	84.62
585.191	83.62
585.401	97.62
585.611	90.62
585.821	87.62
586.032	85.62
586.242	92.62
586.452	92.62
586.662	104.62
586.872	87.62
587.082	82.62
587.292	87.62
587.502	102.62
587.713	99.62
587.923	93.62
588.133	99.62
588.343	102.62
588.553	108.62
588.762	159.62
588.972	331.62
589.182	827.62
589.392	482.62
589.602	356.62
589.812	660.62
590.022	308.62
590.232	136.62
590.441	98.62
590.651	118.62
590.861	100.62
591.071	93.62
591.281	87.62
591.49	87.62
591.7	86.62
591.91	88.62
592.119	91.62
592.329	98.62
592.539	83.62
592.748	89.62
592.958	89.62
593.167	88.62
593.377	100.62
593.587	89.62
593.796	76.62
594.006	92.62
594.215	79.62
594.424	86.62
594.634	85.62
594.843	88.62
595.053	89.62
595.262	82.62
595.472	86.62
595.681	86.62
595.89	90.62
596.1	88.62
596.309	75.62
596.518	84.62
596.727	75.62
596.937	87.62
597.146	96.62
597.355	83.62
597.564	76.62
597.774	79.62
597.983	83.62
598.192	97.62
598.401	96.62
598.61	77.62
598.819	98.62
599.028	100.62
599.237	83.62
599.446	84.62
599.655	90.62
599.864	93.62
600.073	98.62
600.282	96.62
600.491	93.62
600.7	79.62
600.909	87.62
601.118	78.62
601.327	70.62
601.536	92.62
601.745	96.62
601.953	73.62
602.162	77.62
602.371	85.62
602.58	74.62
602.789	77.62
602.997	94.62
603.206	83.62
603.415	80.62
603.623	77.62
603.832	90.62
604.041	94.62
604.249	84.62
604.458	83.62
604.666	84.62
604.875	79.62
605.084	84.62
605.292	92.62
605.501	88.62
605.709	83.62
605.918	99.62
606.126	92.62
606.334	92.62
606.543	97.62
606.751	87.62
606.96	77.62
607.168	90.62
607.376	86.62
607.585	94.62
607.793	86.62
608.001	89.62
608.21	88.62
608.418	87.62
608.626	86.62
608.834	79.62
609.043	106.62
609.251	82.62
609.459	98.62
609.667	94.62
609.875	73.62
610.083	83.62
610.291	82.62
610.499	92.62
610.707	94.62
610.916	98.62
611.124	92.62
611.332	80.62
611.54	98.62
611.748	86.62
611.955	82.62
612.163	86.62
612.371	71.62
612.579	86.62
612.787	96.62
612.995	84.62
613.203	93.62
613.411	93.62
613.618	96.62
613.826	94.62
614.034	70.62
614.242	97.62
614.449	72.62
614.657	84.62
614.865	77.62
615.072	87.62
615.28	90.62
615.488	88.62
615.695	92.62
615.903	78.62
616.111	74.62
616.318	92.62
616.526	99.62
616.733	103.62
616.941	90.62
617.148	100.62
617.356	82.62
617.563	87.62
617.771	92.62
617.978	73.62
618.185	86.62
618.393	64.62
618.6	82.62
618.807	94.62
619.015	86.62
619.222	84.62
619.429	86.62
619.637	73.62
619.844	72.62
620.051	85.62
620.258	98.62
620.466	90.62
620.673	76.62
620.88	79.62
621.087	77.62
621.294	97.62
621.501	75.62
621.708	84.62
621.915	92.62
622.122	85.62
622.329	78.62
622.536	108.62
622.743	85.62
622.95	84.62
623.157	88.62
623.364	78.62
623.571	81.62
623.778	72.62
623.985	68.62
624.192	77.62
624.399	78.62
624.606	97.62
624.812	80.62
625.019	91.62
625.226	91.62
625.433	84.62
625.639	88.62
625.846	76.62
626.053	97.62
626.259	81.62
626.466	75.62
626.673	76.62
626.879	85.62
627.086	82.62
627.293	100.62
627.499	78.62
627.706	84.62
627.912	78.62
628.119	89.62
628.325	78.62
628.532	81.62
628.738	92.62
628.945	81.62
629.151	92.62
629.357	88.62
629.564	97.62
629.77	91.62
629.976	86.62
630.183	92.62
630.389	79.62
630.595	88.62
630.802	94.62
631.008	89.62
631.214	83.62
631.42	87.62
631.627	96.62
631.833	81.62
632.039	91.62
632.245	84.62
632.451	67.62
632.657	74.62
632.863	68.62
633.069	74.62
633.275	75.62
633.481	84.62
633.688	84.62
633.893	96.62
634.099	91.62
634.305	79.62
634.511	93.62
634.717	77.62
634.923	83.62
635.129	82.62
635.335	75.62
635.541	74.62
635.747	80.62
635.952	71.62
636.158	70.62
636.364	84.62
636.57	91.62
636.775	93.62
636.981	80.62
637.187	81.62
637.392	78.62
637.598	82.62
637.804	86.62
638.009	85.62
638.215	81.62
638.421	83.62
638.626	83.62
638.832	83.62
639.037	76.62
639.243	98.62
639.448	84.62
639.654	91.62
639.859	84.62
640.065	86.62
640.27	80.62
640.475	87.62
640.681	84.62
640.886	78.62
641.091	85.62
641.297	96.62
641.502	74.62
641.707	70.62
641.913	86.62
642.118	74.62
642.323	91.62
642.528	98.62
642.733	110.62
642.939	95.62
643.144	84.62
643.349	95.62
643.554	76.62
643.759	73.62
643.964	91.62
644.169	90.62
644.374	87.62
644.579	77.62
644.784	81.62
644.989	72.62
645.194	80.62
645.399	74.62
645.604	81.62
645.809	67.62
646.014	84.62
646.219	84.62
646.423	79.62
646.628	90.62
646.833	79.62
647.038	91.62
647.243	78.62
647.447	76.62
647.652	69.62
647.857	84.62
648.062	78.62
648.266	75.62
648.471	85.62
648.676	90.62
648.88	76.62
649.085	84.62
649.289	89.62
649.494	88.62
649.698	90.62
649.903	80.62
650.107	90.62
650.312	91.62
650.516	76.62
650.721	89.62
650.925	74.62
651.13	90.62
651.334	83.62
651.539	94.62
651.743	80.62
651.947	73.62
652.152	84.62
652.356	78.62
652.56	78.62
652.764	70.62
652.969	76.62
653.173	91.62
653.377	77.62
653.581	71.62
653.785	88.62
653.99	83.62
654.194	90.62
654.398	100.62
654.602	95.62
654.806	80.62
655.01	86.62
655.214	84.62
655.418	68.62
655.622	75.62
655.826	78.62
656.03	76.62
656.234	87.62
656.438	73.62
656.642	80.62
656.846	74.62
657.049	84.62
657.253	91.62
657.457	75.62
657.661	79.62
657.865	82.62
658.068	80.62
658.272	88.62
658.476	79.62
658.68	88.62
658.883	86.62
659.087	84.62
659.291	69.62
659.494	77.62
659.698	73.62
659.901	85.62
660.105	87.62
660.309	76.62
660.512	75.62
660.716	73.62
660.919	88.62
661.123	93.62
661.326	79.62
661.53	74.62
661.733	74.62
661.936	71.62
662.14	75.62
662.343	79.62
662.546	88.62
662.75	80.62
662.953	78.62
663.156	86.62
663.36	82.62
663.563	75.62
663.766	84.62
663.969	82.62
664.173	70.62
664.376	68.62
664.579	70.62
664.782	85.62
664.985	69.62
665.188	78.62
665.391	82.62
665.594	92.62
665.797	90.62
666	86.62
666.203	89.62
666.406	83.62
666.609	60.62
666.812	90.62
667.015	95.62
667.218	90.62
667.421	72.62
667.624	78.62
667.827	81.62
668.03	72.62
668.232	75.62
668.435	84.62
668.638	67.62
668.841	79.62
669.043	88.62
669.246	91.62
669.449	84.62
669.651	88.62
669.854	89.62
670.057	86.62
670.259	87.62
670.462	89.62
670.665	83.62
670.867	90.62
671.07	96.62
671.272	80.62
671.475	78.62
671.677	90.62
671.88	90.62
672.082	84.62
672.284	85.62
672.487	93.62
672.689	75.62
672.892	68.62
