Data from Lead_25_3_HRD10591_00014.txt Node
Date: Fri Feb 20 11:03:10 EST 2026
User: Yrep
Spectrometer: HR+D1059
Trigger mode: 1
Integration Time (sec): 1.000000E-1
Scans to average: 1
Electric dark correction enabled: true
Nonlinearity correction enabled: false
Boxcar width: 0
XAxis mode: Wavelengths
Number of Pixels in Spectrum: 2048
>>>>>Begin Spectral Data<<<<<
223.165	-17.31
223.4	-17.31
223.635	-17.31
223.869	-13.31
224.104	-16.31
224.338	-15.31
224.573	-9.31
224.808	-17.31
225.042	-14.31
225.277	-5.31
225.511	7.69
225.746	-6.31
225.98	11.69
226.215	10.69
226.449	11.69
226.683	20.69
226.918	29.69
227.152	22.69
227.387	57.69
227.621	48.69
227.856	48.69
228.09	45.69
228.324	58.69
228.559	72.69
228.793	56.69
229.027	64.69
229.262	64.69
229.496	83.69
229.73	71.69
229.964	72.69
230.199	83.69
230.433	72.69
230.667	82.69
230.901	70.69
231.136	67.69
231.37	75.69
231.604	77.69
231.838	86.69
232.072	83.69
232.306	84.69
232.541	77.69
232.775	84.69
233.009	74.69
233.243	79.69
233.477	80.69
233.711	95.69
233.945	89.69
234.179	82.69
234.413	80.69
234.647	68.69
234.881	94.69
235.115	91.69
235.349	92.69
235.583	92.69
235.817	88.69
236.051	83.69
236.285	76.69
236.519	69.69
236.753	75.69
236.987	75.69
237.221	68.69
237.455	82.69
237.689	64.69
237.922	89.69
238.156	79.69
238.39	88.69
238.624	82.69
238.858	79.69
239.091	84.69
239.325	71.69
239.559	74.69
239.793	81.69
240.027	67.69
240.26	71.69
240.494	66.69
240.728	78.69
240.961	85.69
241.195	88.69
241.429	82.69
241.662	66.69
241.896	73.69
242.13	87.69
242.363	78.69
242.597	68.69
242.83	88.69
243.064	72.69
243.298	74.69
243.531	79.69
243.765	73.69
243.998	76.69
244.232	88.69
244.465	79.69
244.699	92.69
244.932	74.69
245.166	77.69
245.399	75.69
245.633	77.69
245.866	79.69
246.099	78.69
246.333	74.69
246.566	70.69
246.8	76.69
247.033	67.69
247.266	74.69
247.5	73.69
247.733	80.69
247.966	86.69
248.2	87.69
248.433	78.69
248.666	76.69
248.899	87.69
249.133	66.69
249.366	87.69
249.599	80.69
249.832	65.69
250.066	88.69
250.299	81.69
250.532	83.69
250.765	86.69
250.998	83.69
251.231	81.69
251.465	86.69
251.698	78.69
251.931	74.69
252.164	86.69
252.397	87.69
252.63	89.69
252.863	75.69
253.096	82.69
253.329	68.69
253.562	87.69
253.795	82.69
254.028	87.69
254.261	80.69
254.494	72.69
254.727	72.69
254.96	85.69
255.193	94.69
255.426	74.69
255.659	86.69
255.892	82.69
256.124	80.69
256.357	81.69
256.59	80.69
256.823	83.69
257.056	82.69
257.289	79.69
257.521	80.69
257.754	75.69
257.987	92.69
258.22	87.69
258.452	81.69
258.685	88.69
258.918	75.69
259.151	78.69
259.383	83.69
259.616	74.69
259.849	89.69
260.081	84.69
260.314	97.69
260.547	89.69
260.779	87.69
261.012	88.69
261.244	75.69
261.477	82.69
261.71	76.69
261.942	69.69
262.175	84.69
262.407	86.69
262.64	63.69
262.872	80.69
263.105	79.69
263.337	80.69
263.57	74.69
263.802	82.69
264.035	80.69
264.267	77.69
264.499	88.69
264.732	100.69
264.964	91.69
265.197	91.69
265.429	90.69
265.661	84.69
265.894	69.69
266.126	90.69
266.358	80.69
266.591	90.69
266.823	74.69
267.055	75.69
267.287	76.69
267.52	78.69
267.752	82.69
267.984	75.69
268.216	79.69
268.448	79.69
268.681	80.69
268.913	87.69
269.145	73.69
269.377	86.69
269.609	86.69
269.841	84.69
270.073	84.69
270.306	74.69
270.538	81.69
270.77	84.69
271.002	65.69
271.234	84.69
271.466	74.69
271.698	76.69
271.93	83.69
272.162	82.69
272.394	77.69
272.626	78.69
272.858	82.69
273.09	81.69
273.322	92.69
273.553	84.69
273.785	77.69
274.017	84.69
274.249	77.69
274.481	76.69
274.713	83.69
274.945	84.69
275.176	85.69
275.408	86.69
275.64	91.69
275.872	85.69
276.104	88.69
276.335	76.69
276.567	76.69
276.799	82.69
277.031	87.69
277.262	79.69
277.494	82.69
277.726	102.69
277.957	84.69
278.189	91.69
278.421	79.69
278.652	97.69
278.884	96.69
279.115	81.69
279.347	86.69
279.579	83.69
279.81	85.69
280.042	77.69
280.273	73.69
280.505	78.69
280.736	92.69
280.968	79.69
281.199	86.69
281.431	98.69
281.662	82.69
281.894	82.69
282.125	91.69
282.356	78.69
282.588	94.69
282.819	96.69
283.051	87.69
283.282	92.69
283.513	75.69
283.745	91.69
283.976	85.69
284.207	84.69
284.439	98.69
284.67	86.69
284.901	84.69
285.132	82.69
285.364	80.69
285.595	94.69
285.826	90.69
286.057	99.69
286.288	76.69
286.52	91.69
286.751	75.69
286.982	82.69
287.213	82.69
287.444	82.69
287.675	83.69
287.906	74.69
288.138	79.69
288.369	84.69
288.6	99.69
288.831	87.69
289.062	80.69
289.293	99.69
289.524	87.69
289.755	83.69
289.986	90.69
290.217	81.69
290.448	92.69
290.679	94.69
290.91	97.69
291.141	108.69
291.371	77.69
291.602	85.69
291.833	74.69
292.064	80.69
292.295	98.69
292.526	80.69
292.757	95.69
292.987	88.69
293.218	100.69
293.449	90.69
293.68	90.69
293.91	90.69
294.141	79.69
294.372	88.69
294.603	60.69
294.833	87.69
295.064	84.69
295.295	84.69
295.525	83.69
295.756	94.69
295.987	76.69
296.217	72.69
296.448	95.69
296.679	102.69
296.909	82.69
297.14	76.69
297.37	88.69
297.601	94.69
297.831	74.69
298.062	94.69
298.292	72.69
298.523	90.69
298.753	83.69
298.984	88.69
299.214	82.69
299.445	80.69
299.675	72.69
299.905	77.69
300.136	91.69
300.366	75.69
300.597	84.69
300.827	76.69
301.057	86.69
301.288	73.69
301.518	88.69
301.748	92.69
301.979	105.69
302.209	87.69
302.439	72.69
302.669	76.69
302.9	91.69
303.13	75.69
303.36	98.69
303.59	86.69
303.82	82.69
304.051	74.69
304.281	84.69
304.511	89.69
304.741	93.69
304.971	80.69
305.201	89.69
305.431	75.69
305.661	96.69
305.891	107.69
306.121	84.69
306.352	100.69
306.582	89.69
306.812	78.69
307.042	82.69
307.272	90.69
307.502	88.69
307.731	88.69
307.961	89.69
308.191	80.69
308.421	90.69
308.651	96.69
308.881	95.69
309.111	83.69
309.341	81.69
309.571	85.69
309.8	82.69
310.03	86.69
310.26	81.69
310.49	82.69
310.72	75.69
310.949	83.69
311.179	99.69
311.409	89.69
311.639	89.69
311.868	93.69
312.098	77.69
312.328	82.69
312.557	94.69
312.787	90.69
313.017	74.69
313.246	79.69
313.476	76.69
313.706	87.69
313.935	91.69
314.165	94.69
314.394	93.69
314.624	83.69
314.853	74.69
315.083	84.69
315.312	79.69
315.542	83.69
315.771	94.69
316.001	83.69
316.23	78.69
316.46	84.69
316.689	76.69
316.919	77.69
317.148	86.69
317.377	86.69
317.607	74.69
317.836	91.69
318.065	72.69
318.295	91.69
318.524	84.69
318.753	89.69
318.983	88.69
319.212	83.69
319.441	78.69
319.67	73.69
319.9	82.69
320.129	88.69
320.358	90.69
320.587	75.69
320.816	72.69
321.046	93.69
321.275	78.69
321.504	86.69
321.733	82.69
321.962	81.69
322.191	88.69
322.42	97.69
322.649	89.69
322.878	83.69
323.108	87.69
323.337	111.69
323.566	90.69
323.795	100.69
324.024	88.69
324.253	86.69
324.482	82.69
324.71	91.69
324.939	83.69
325.168	93.69
325.397	85.69
325.626	85.69
325.855	93.69
326.084	85.69
326.313	84.69
326.542	76.69
326.77	93.69
326.999	83.69
327.228	80.69
327.457	92.69
327.686	79.69
327.914	82.69
328.143	85.69
328.372	80.69
328.6	77.69
328.829	78.69
329.058	92.69
329.287	84.69
329.515	83.69
329.744	73.69
329.972	73.69
330.201	86.69
330.43	87.69
330.658	87.69
330.887	99.69
331.115	81.69
331.344	74.69
331.572	85.69
331.801	86.69
332.03	89.69
332.258	75.69
332.486	86.69
332.715	81.69
332.943	79.69
333.172	78.69
333.4	82.69
333.629	94.69
333.857	81.69
334.085	89.69
334.314	74.69
334.542	87.69
334.771	101.69
334.999	84.69
335.227	79.69
335.455	80.69
335.684	78.69
335.912	82.69
336.14	79.69
336.369	80.69
336.597	89.69
336.825	82.69
337.053	90.69
337.281	89.69
337.51	91.69
337.738	82.69
337.966	62.69
338.194	73.69
338.422	84.69
338.65	78.69
338.878	81.69
339.106	80.69
339.334	91.69
339.562	83.69
339.79	87.69
340.018	83.69
340.246	75.69
340.474	91.69
340.702	87.69
340.93	96.69
341.158	86.69
341.386	84.69
341.614	94.69
341.842	81.69
342.07	74.69
342.298	92.69
342.526	83.69
342.754	76.69
342.981	96.69
343.209	79.69
343.437	97.69
343.665	92.69
343.893	84.69
344.12	88.69
344.348	88.69
344.576	90.69
344.804	77.69
345.031	75.69
345.259	96.69
345.487	73.69
345.714	91.69
345.942	75.69
346.17	79.69
346.397	87.69
346.625	87.69
346.853	80.69
347.08	89.69
347.308	85.69
347.535	72.69
347.763	82.69
347.99	83.69
348.218	83.69
348.445	75.69
348.673	78.69
348.9	86.69
349.128	81.69
349.355	83.69
349.583	84.69
349.81	98.69
350.037	88.69
350.265	84.69
350.492	75.69
350.72	79.69
350.947	89.69
351.174	97.69
351.402	85.69
351.629	96.69
351.856	86.69
352.083	79.69
352.311	76.69
352.538	90.69
352.765	89.69
352.992	81.69
353.22	92.69
353.447	83.69
353.674	80.69
353.901	97.69
354.128	82.69
354.355	90.69
354.583	95.69
354.81	86.69
355.037	90.69
355.264	77.69
355.491	89.69
355.718	82.69
355.945	96.69
356.172	86.69
356.399	87.69
356.626	82.69
356.853	81.69
357.08	73.69
357.307	87.69
357.534	81.69
357.761	86.69
357.988	83.69
358.215	79.69
358.441	79.69
358.668	89.69
358.895	92.69
359.122	75.69
359.349	77.69
359.576	88.69
359.802	80.69
360.029	90.69
360.256	74.69
360.483	78.69
360.709	84.69
360.936	94.69
361.163	89.69
361.39	79.69
361.616	60.69
361.843	77.69
362.07	95.69
362.296	80.69
362.523	83.69
362.749	100.69
362.976	90.69
363.203	85.69
363.429	83.69
363.656	72.69
363.882	79.69
364.109	90.69
364.335	94.69
364.562	86.69
364.788	87.69
365.015	82.69
365.241	84.69
365.468	83.69
365.694	88.69
365.92	75.69
366.147	72.69
366.373	69.69
366.599	79.69
366.826	84.69
367.052	85.69
367.278	85.69
367.505	89.69
367.731	80.69
367.957	83.69
368.184	90.69
368.41	76.69
368.636	85.69
368.862	68.69
369.089	72.69
369.315	78.69
369.541	84.69
369.767	87.69
369.993	78.69
370.219	80.69
370.445	91.69
370.672	89.69
370.898	79.69
371.124	80.69
371.35	91.69
371.576	95.69
371.802	107.69
372.028	81.69
372.254	79.69
372.48	83.69
372.706	64.69
372.932	77.69
373.158	89.69
373.384	96.69
373.61	94.69
373.835	84.69
374.061	93.69
374.287	84.69
374.513	76.69
374.739	96.69
374.965	96.69
375.191	85.69
375.416	86.69
375.642	81.69
375.868	78.69
376.094	89.69
376.319	82.69
376.545	83.69
376.771	77.69
376.997	87.69
377.222	80.69
377.448	80.69
377.674	80.69
377.899	85.69
378.125	75.69
378.35	86.69
378.576	82.69
378.802	95.69
379.027	86.69
379.253	79.69
379.478	84.69
379.704	81.69
379.929	88.69
380.155	84.69
380.38	90.69
380.606	81.69
380.831	84.69
381.057	80.69
381.282	80.69
381.507	93.69
381.733	74.69
381.958	78.69
382.184	97.69
382.409	82.69
382.634	94.69
382.86	86.69
383.085	88.69
383.31	95.69
383.535	80.69
383.761	84.69
383.986	74.69
384.211	83.69
384.436	86.69
384.662	75.69
384.887	84.69
385.112	80.69
385.337	80.69
385.562	81.69
385.787	88.69
386.013	76.69
386.238	83.69
386.463	83.69
386.688	107.69
386.913	78.69
387.138	78.69
387.363	84.69
387.588	73.69
387.813	90.69
388.038	83.69
388.263	84.69
388.488	79.69
388.713	80.69
388.938	79.69
389.163	86.69
389.387	80.69
389.612	81.69
389.837	73.69
390.062	91.69
390.287	76.69
390.512	85.69
390.736	86.69
390.961	92.69
391.186	77.69
391.411	82.69
391.636	88.69
391.86	70.69
392.085	83.69
392.31	78.69
392.534	80.69
392.759	76.69
392.984	72.69
393.208	68.69
393.433	86.69
393.658	72.69
393.882	67.69
394.107	79.69
394.331	87.69
394.556	87.69
394.78	85.69
395.005	71.69
395.229	81.69
395.454	69.69
395.678	80.69
395.903	101.69
396.127	83.69
396.352	90.69
396.576	79.69
396.801	92.69
397.025	87.69
397.249	86.69
397.474	86.69
397.698	79.69
397.922	80.69
398.147	94.69
398.371	80.69
398.595	91.69
398.82	85.69
399.044	107.69
399.268	81.69
399.492	74.69
399.717	84.69
399.941	80.69
400.165	77.69
400.389	87.69
400.613	87.69
400.837	79.69
401.062	77.69
401.286	97.69
401.51	79.69
401.734	85.69
401.958	85.69
402.182	89.69
402.406	71.69
402.63	69.69
402.854	97.69
403.078	82.69
403.302	81.69
403.526	86.69
403.75	87.69
403.974	76.69
404.198	73.69
404.422	89.69
404.645	80.69
404.869	95.69
405.093	75.69
405.317	77.69
405.541	101.69
405.765	103.69
405.988	95.69
406.212	102.69
406.436	82.69
406.66	82.69
406.883	96.69
407.107	76.69
407.331	69.69
407.555	105.69
407.778	90.69
408.002	90.69
408.226	81.69
408.449	79.69
408.673	101.69
408.896	76.69
409.12	81.69
409.344	82.69
409.567	75.69
409.791	87.69
410.014	87.69
410.238	83.69
410.461	79.69
410.685	88.69
410.908	74.69
411.132	86.69
411.355	84.69
411.578	83.69
411.802	82.69
412.025	74.69
412.249	84.69
412.472	76.69
412.695	91.69
412.919	81.69
413.142	75.69
413.365	93.69
413.589	73.69
413.812	80.69
414.035	76.69
414.258	83.69
414.482	96.69
414.705	71.69
414.928	90.69
415.151	87.69
415.374	74.69
415.597	96.69
415.821	90.69
416.044	75.69
416.267	69.69
416.49	76.69
416.713	89.69
416.936	78.69
417.159	96.69
417.382	75.69
417.605	80.69
417.828	86.69
418.051	96.69
418.274	78.69
418.497	73.69
418.72	78.69
418.943	70.69
419.166	82.69
419.389	94.69
419.611	88.69
419.834	82.69
420.057	100.69
420.28	80.69
420.503	80.69
420.726	71.69
420.948	82.69
421.171	73.69
421.394	92.69
421.617	82.69
421.839	90.69
422.062	76.69
422.285	75.69
422.507	79.69
422.73	86.69
422.953	76.69
423.175	74.69
423.398	94.69
423.621	83.69
423.843	90.69
424.066	84.69
424.288	67.69
424.511	81.69
424.733	80.69
424.956	83.69
425.178	100.69
425.401	86.69
425.623	89.69
425.846	82.69
426.068	83.69
426.291	80.69
426.513	85.69
426.735	85.69
426.958	71.69
427.18	71.69
427.402	84.69
427.625	74.69
427.847	84.69
428.069	83.69
428.292	80.69
428.514	74.69
428.736	102.69
428.958	91.69
429.181	79.69
429.403	74.69
429.625	85.69
429.847	68.69
430.069	84.69
430.292	71.69
430.514	70.69
430.736	87.69
430.958	80.69
431.18	92.69
431.402	76.69
431.624	88.69
431.846	71.69
432.068	85.69
432.29	91.69
432.512	86.69
432.734	83.69
432.956	90.69
433.178	89.69
433.4	87.69
433.622	77.69
433.844	86.69
434.066	77.69
434.287	76.69
434.509	68.69
434.731	81.69
434.953	78.69
435.175	86.69
435.397	89.69
435.618	81.69
435.84	73.69
436.062	79.69
436.284	90.69
436.505	82.69
436.727	74.69
436.949	71.69
437.17	73.69
437.392	96.69
437.614	74.69
437.835	97.69
438.057	91.69
438.278	79.69
438.5	90.69
438.721	96.69
438.943	83.69
439.165	90.69
439.386	91.69
439.608	87.69
439.829	82.69
440.05	81.69
440.272	89.69
440.493	83.69
440.715	68.69
440.936	86.69
441.158	82.69
441.379	93.69
441.6	83.69
441.822	84.69
442.043	85.69
442.264	69.69
442.486	76.69
442.707	90.69
442.928	72.69
443.149	91.69
443.371	84.69
443.592	90.69
443.813	91.69
444.034	76.69
444.255	81.69
444.476	81.69
444.698	79.69
444.919	77.69
445.14	150.69
445.361	107.69
445.582	74.69
445.803	72.69
446.024	86.69
446.245	87.69
446.466	65.69
446.687	83.69
446.908	70.69
447.129	79.69
447.35	90.69
447.571	84.69
447.792	72.69
448.013	73.69
448.234	95.69
448.455	88.69
448.675	85.69
448.896	84.69
449.117	82.69
449.338	74.69
449.559	90.69
449.779	80.69
450	92.69
450.221	68.69
450.442	75.69
450.662	84.69
450.883	89.69
451.104	84.69
451.324	84.69
451.545	97.69
451.766	89.69
451.986	83.69
452.207	84.69
452.428	76.69
452.648	84.69
452.869	77.69
453.089	80.69
453.31	90.69
453.53	61.69
453.751	65.69
453.971	74.69
454.192	75.69
454.412	71.69
454.633	74.69
454.853	89.69
455.073	86.69
455.294	75.69
455.514	89.69
455.734	93.69
455.955	83.69
456.175	76.69
456.395	65.69
456.616	84.69
456.836	84.69
457.056	76.69
457.276	91.69
457.497	80.69
457.717	68.69
457.937	80.69
458.157	94.69
458.377	96.69
458.598	66.69
458.818	75.69
459.038	67.69
459.258	87.69
459.478	84.69
459.698	84.69
459.918	86.69
460.138	92.69
460.358	86.69
460.578	107.69
460.798	73.69
461.018	78.69
461.238	87.69
461.458	91.69
461.678	76.69
461.898	68.69
462.118	88.69
462.338	76.69
462.558	87.69
462.777	78.69
462.997	78.69
463.217	83.69
463.437	84.69
463.657	82.69
463.876	82.69
464.096	76.69
464.316	84.69
464.536	86.69
464.755	73.69
464.975	60.69
465.195	82.69
465.414	86.69
465.634	82.69
465.854	96.69
466.073	89.69
466.293	84.69
466.512	74.69
466.732	82.69
466.951	95.69
467.171	91.69
467.391	84.69
467.61	90.69
467.829	84.69
468.049	72.69
468.268	88.69
468.488	88.69
468.707	77.69
468.927	73.69
469.146	101.69
469.365	80.69
469.585	91.69
469.804	85.69
470.023	80.69
470.243	86.69
470.462	76.69
470.681	75.69
470.901	81.69
471.12	79.69
471.339	83.69
471.558	76.69
471.777	72.69
471.997	90.69
472.216	78.69
472.435	78.69
472.654	79.69
472.873	96.69
473.092	77.69
473.311	81.69
473.53	84.69
473.749	72.69
473.968	80.69
474.187	94.69
474.406	96.69
474.625	84.69
474.844	77.69
475.063	87.69
475.282	76.69
475.501	82.69
475.72	90.69
475.939	68.69
476.158	67.69
476.377	92.69
476.596	84.69
476.814	73.69
477.033	71.69
477.252	77.69
477.471	80.69
477.69	82.69
477.908	74.69
478.127	84.69
478.346	99.69
478.564	85.69
478.783	85.69
479.002	76.69
479.22	91.69
479.439	74.69
479.658	79.69
479.876	87.69
480.095	63.69
480.313	96.69
480.532	74.69
480.751	86.69
480.969	80.69
481.188	94.69
481.406	70.69
481.624	76.69
481.843	93.69
482.061	80.69
482.28	79.69
482.498	70.69
482.717	73.69
482.935	85.69
483.153	83.69
483.372	80.69
483.59	96.69
483.808	81.69
484.027	81.69
484.245	86.69
484.463	72.69
484.681	86.69
484.9	75.69
485.118	91.69
485.336	83.69
485.554	82.69
485.772	86.69
485.99	78.69
486.209	86.69
486.427	74.69
486.645	78.69
486.863	85.69
487.081	92.69
487.299	89.69
487.517	78.69
487.735	78.69
487.953	78.69
488.171	81.69
488.389	80.69
488.607	91.69
488.825	71.69
489.043	96.69
489.261	87.69
489.479	76.69
489.696	99.69
489.914	97.69
490.132	91.69
490.35	89.69
490.568	84.69
490.786	76.69
491.003	79.69
491.221	84.69
491.439	74.69
491.657	78.69
491.874	86.69
492.092	86.69
492.31	95.69
492.527	86.69
492.745	81.69
492.963	87.69
493.18	75.69
493.398	78.69
493.615	88.69
493.833	84.69
494.05	81.69
494.268	82.69
494.485	83.69
494.703	95.69
494.92	90.69
495.138	66.69
495.355	79.69
495.573	81.69
495.79	81.69
496.008	81.69
496.225	79.69
496.442	96.69
496.66	85.69
496.877	87.69
497.094	90.69
497.312	72.69
497.529	80.69
497.746	84.69
497.963	93.69
498.181	84.69
498.398	87.69
498.615	71.69
498.832	84.69
499.049	74.69
499.267	88.69
499.484	68.69
499.701	91.69
499.918	87.69
500.135	93.69
500.352	82.69
500.569	72.69
500.786	89.69
501.003	70.69
501.22	85.69
501.437	94.69
501.654	101.69
501.871	92.69
502.088	76.69
502.305	87.69
502.522	73.69
502.739	80.69
502.956	83.69
503.172	83.69
503.389	81.69
503.606	76.69
503.823	77.69
504.04	82.69
504.256	92.69
504.473	76.69
504.69	80.69
504.907	85.69
505.123	90.69
505.34	73.69
505.557	71.69
505.773	90.69
505.99	79.69
506.207	82.69
506.423	91.69
506.64	79.69
506.856	88.69
507.073	87.69
507.289	80.69
507.506	74.69
507.722	84.69
507.939	90.69
508.155	90.69
508.372	85.69
508.588	104.69
508.805	88.69
509.021	73.69
509.238	88.69
509.454	90.69
509.67	83.69
509.887	80.69
510.103	79.69
510.319	91.69
510.536	75.69
510.752	94.69
510.968	73.69
511.184	87.69
511.401	69.69
511.617	91.69
511.833	89.69
512.049	85.69
512.265	80.69
512.481	72.69
512.698	87.69
512.914	82.69
513.13	91.69
513.346	87.69
513.562	90.69
513.778	86.69
513.994	83.69
514.21	81.69
514.426	88.69
514.642	88.69
514.858	74.69
515.074	87.69
515.29	80.69
515.506	67.69
515.721	74.69
515.937	81.69
516.153	81.69
516.369	83.69
516.585	70.69
516.801	75.69
517.016	79.69
517.232	80.69
517.448	80.69
517.664	90.69
517.879	90.69
518.095	92.69
518.311	91.69
518.527	84.69
518.742	99.69
518.958	84.69
519.173	89.69
519.389	87.69
519.605	80.69
519.82	87.69
520.036	84.69
520.251	78.69
520.467	66.69
520.682	90.69
520.898	92.69
521.113	91.69
521.329	110.69
521.544	88.69
521.76	82.69
521.975	76.69
522.19	83.69
522.406	86.69
522.621	82.69
522.836	70.69
523.052	85.69
523.267	76.69
523.482	97.69
523.698	87.69
523.913	80.69
524.128	75.69
524.343	72.69
524.559	84.69
524.774	82.69
524.989	80.69
525.204	84.69
525.419	87.69
525.634	83.69
525.849	84.69
526.064	90.69
526.28	75.69
526.495	95.69
526.71	84.69
526.925	77.69
527.14	89.69
527.355	76.69
527.57	87.69
527.785	76.69
527.999	84.69
528.214	75.69
528.429	91.69
528.644	88.69
528.859	71.69
529.074	88.69
529.289	84.69
529.503	85.69
529.718	79.69
529.933	82.69
530.148	72.69
530.363	88.69
530.577	88.69
530.792	90.69
531.007	94.69
531.221	89.69
531.436	82.69
531.651	88.69
531.865	85.69
532.08	90.69
532.295	84.69
532.509	91.69
532.724	79.69
532.938	85.69
533.153	90.69
533.367	87.69
533.582	84.69
533.796	78.69
534.011	85.69
534.225	86.69
534.44	79.69
534.654	67.69
534.868	86.69
535.083	88.69
535.297	91.69
535.511	89.69
535.726	92.69
535.94	75.69
536.154	80.69
536.369	78.69
536.583	102.69
536.797	103.69
537.011	71.69
537.225	66.69
537.44	75.69
537.654	94.69
537.868	84.69
538.082	84.69
538.296	87.69
538.51	95.69
538.724	69.69
538.938	84.69
539.153	92.69
539.367	77.69
539.581	88.69
539.795	83.69
540.009	83.69
540.222	84.69
540.436	90.69
540.65	96.69
540.864	91.69
541.078	85.69
541.292	75.69
541.506	80.69
541.72	91.69
541.934	82.69
542.147	81.69
542.361	85.69
542.575	94.69
542.789	84.69
543.002	79.69
543.216	81.69
543.43	92.69
543.644	90.69
543.857	78.69
544.071	86.69
544.285	97.69
544.498	84.69
544.712	96.69
544.925	82.69
545.139	73.69
545.352	83.69
545.566	92.69
545.779	71.69
545.993	78.69
546.206	93.69
546.42	97.69
546.633	94.69
546.847	91.69
547.06	101.69
547.274	92.69
547.487	93.69
547.7	79.69
547.914	92.69
548.127	71.69
548.34	85.69
548.554	84.69
548.767	97.69
548.98	91.69
549.193	82.69
549.407	96.69
549.62	90.69
549.833	56.69
550.046	87.69
550.259	91.69
550.473	82.69
550.686	89.69
550.899	88.69
551.112	74.69
551.325	87.69
551.538	95.69
551.751	101.69
551.964	94.69
552.177	92.69
552.39	78.69
552.603	89.69
552.816	93.69
553.029	92.69
553.242	90.69
553.455	80.69
553.667	83.69
553.88	89.69
554.093	92.69
554.306	83.69
554.519	93.69
554.732	96.69
554.944	73.69
555.157	86.69
555.37	92.69
555.583	80.69
555.795	87.69
556.008	76.69
556.221	78.69
556.433	90.69
556.646	86.69
556.859	76.69
557.071	86.69
557.284	84.69
557.496	70.69
557.709	86.69
557.921	86.69
558.134	82.69
558.346	89.69
558.559	88.69
558.771	72.69
558.984	86.69
559.196	72.69
559.409	84.69
559.621	96.69
559.833	94.69
560.046	83.69
560.258	80.69
560.47	83.69
560.683	78.69
560.895	84.69
561.107	92.69
561.32	98.69
561.532	76.69
561.744	73.69
561.956	71.69
562.168	81.69
562.381	80.69
562.593	76.69
562.805	75.69
563.017	75.69
563.229	91.69
563.441	82.69
563.653	88.69
563.865	83.69
564.077	82.69
564.289	74.69
564.501	93.69
564.713	101.69
564.925	89.69
565.137	81.69
565.349	88.69
565.561	92.69
565.773	80.69
565.985	87.69
566.197	83.69
566.408	74.69
566.62	90.69
566.832	83.69
567.044	88.69
567.255	94.69
567.467	91.69
567.679	74.69
567.891	88.69
568.102	80.69
568.314	87.69
568.526	90.69
568.737	90.69
568.949	84.69
569.161	80.69
569.372	85.69
569.584	100.69
569.795	74.69
570.007	84.69
570.218	80.69
570.43	87.69
570.641	76.69
570.853	83.69
571.064	80.69
571.276	65.69
571.487	99.69
571.698	82.69
571.91	70.69
572.121	92.69
572.333	84.69
572.544	74.69
572.755	86.69
572.966	84.69
573.178	93.69
573.389	94.69
573.6	88.69
573.811	84.69
574.023	96.69
574.234	82.69
574.445	84.69
574.656	86.69
574.867	80.69
575.078	71.69
575.289	94.69
575.501	86.69
575.712	90.69
575.923	77.69
576.134	81.69
576.345	82.69
576.556	90.69
576.767	105.69
576.978	87.69
577.188	83.69
577.399	93.69
577.61	98.69
577.821	89.69
578.032	74.69
578.243	90.69
578.454	97.69
578.665	76.69
578.875	80.69
579.086	81.69
579.297	88.69
579.508	83.69
579.718	96.69
579.929	108.69
580.14	83.69
580.35	88.69
580.561	78.69
580.772	78.69
580.982	82.69
581.193	93.69
581.403	82.69
581.614	98.69
581.825	91.69
582.035	77.69
582.246	110.69
582.456	89.69
582.667	90.69
582.877	83.69
583.087	84.69
583.298	85.69
583.508	72.69
583.719	82.69
583.929	82.69
584.139	78.69
584.35	84.69
584.56	78.69
584.77	83.69
584.981	84.69
585.191	84.69
585.401	86.69
585.611	88.69
585.821	94.69
586.032	95.69
586.242	94.69
586.452	96.69
586.662	91.69
586.872	87.69
587.082	79.69
587.292	89.69
587.502	83.69
587.713	85.69
587.923	77.69
588.133	80.69
588.343	78.69
588.553	86.69
588.762	90.69
588.972	112.69
589.182	139.69
589.392	113.69
589.602	107.69
589.812	126.69
590.022	119.69
590.232	82.69
590.441	80.69
590.651	96.69
590.861	86.69
591.071	86.69
591.281	93.69
591.49	72.69
591.7	91.69
591.91	87.69
592.119	104.69
592.329	88.69
592.539	86.69
592.748	92.69
592.958	84.69
593.167	89.69
593.377	80.69
593.587	105.69
593.796	83.69
594.006	94.69
594.215	80.69
594.424	88.69
594.634	88.69
594.843	88.69
595.053	71.69
595.262	82.69
595.472	103.69
595.681	85.69
595.89	89.69
596.1	95.69
596.309	95.69
596.518	90.69
596.727	93.69
596.937	83.69
597.146	88.69
597.355	84.69
597.564	94.69
597.774	87.69
597.983	80.69
598.192	84.69
598.401	84.69
598.61	83.69
598.819	87.69
599.028	70.69
599.237	80.69
599.446	94.69
599.655	82.69
599.864	81.69
600.073	73.69
600.282	82.69
600.491	75.69
600.7	82.69
600.909	84.69
601.118	84.69
601.327	85.69
601.536	92.69
601.745	91.69
601.953	87.69
602.162	91.69
602.371	87.69
602.58	81.69
602.789	94.69
602.997	102.69
603.206	86.69
603.415	86.69
603.623	86.69
603.832	98.69
604.041	95.69
604.249	95.69
604.458	77.69
604.666	79.69
604.875	81.69
605.084	81.69
605.292	73.69
605.501	80.69
605.709	91.69
605.918	89.69
606.126	87.69
606.334	86.69
606.543	99.69
606.751	72.69
606.96	90.69
607.168	84.69
607.376	82.69
607.585	87.69
607.793	80.69
608.001	82.69
608.21	101.69
608.418	82.69
608.626	96.69
608.834	70.69
609.043	85.69
609.251	87.69
609.459	79.69
609.667	92.69
609.875	90.69
610.083	82.69
610.291	94.69
610.499	76.69
610.707	88.69
610.916	76.69
611.124	91.69
611.332	69.69
611.54	86.69
611.748	81.69
611.955	83.69
612.163	96.69
612.371	96.69
612.579	83.69
612.787	79.69
612.995	81.69
613.203	91.69
613.411	92.69
613.618	87.69
613.826	87.69
614.034	85.69
614.242	98.69
614.449	94.69
614.657	84.69
614.865	87.69
615.072	83.69
615.28	87.69
615.488	76.69
615.695	71.69
615.903	83.69
616.111	97.69
616.318	114.69
616.526	88.69
616.733	101.69
616.941	86.69
617.148	89.69
617.356	95.69
617.563	78.69
617.771	86.69
617.978	80.69
618.185	91.69
618.393	82.69
618.6	86.69
618.807	83.69
619.015	91.69
619.222	82.69
619.429	86.69
619.637	90.69
619.844	77.69
620.051	82.69
620.258	82.69
620.466	90.69
620.673	74.69
620.88	85.69
621.087	88.69
621.294	94.69
621.501	95.69
621.708	86.69
621.915	102.69
622.122	81.69
622.329	80.69
622.536	91.69
622.743	82.69
622.95	74.69
623.157	91.69
623.364	82.69
623.571	77.69
623.778	84.69
623.985	91.69
624.192	89.69
624.399	70.69
624.606	102.69
624.812	74.69
625.019	85.69
625.226	94.69
625.433	95.69
625.639	93.69
625.846	92.69
626.053	86.69
626.259	88.69
626.466	91.69
626.673	60.69
626.879	73.69
627.086	97.69
627.293	81.69
627.499	90.69
627.706	102.69
627.912	88.69
628.119	76.69
628.325	88.69
628.532	78.69
628.738	81.69
628.945	97.69
629.151	85.69
629.357	84.69
629.564	84.69
629.77	88.69
629.976	85.69
630.183	86.69
630.389	81.69
630.595	87.69
630.802	86.69
631.008	94.69
631.214	90.69
631.42	86.69
631.627	82.69
631.833	81.69
632.039	75.69
632.245	68.69
632.451	90.69
632.657	74.69
632.863	94.69
633.069	86.69
633.275	81.69
633.481	84.69
633.688	80.69
633.893	84.69
634.099	90.69
634.305	92.69
634.511	87.69
634.717	79.69
634.923	85.69
635.129	77.69
635.335	86.69
635.541	97.69
635.747	84.69
635.952	82.69
636.158	83.69
636.364	98.69
636.57	89.69
636.775	90.69
636.981	86.69
637.187	93.69
637.392	78.69
637.598	90.69
637.804	102.69
638.009	89.69
638.215	110.69
638.421	77.69
638.626	65.69
638.832	72.69
639.037	77.69
639.243	84.69
639.448	87.69
639.654	79.69
639.859	90.69
640.065	90.69
640.27	91.69
640.475	76.69
640.681	85.69
640.886	83.69
641.091	69.69
641.297	83.69
641.502	79.69
641.707	97.69
641.913	83.69
642.118	82.69
642.323	84.69
642.528	86.69
642.733	93.69
642.939	87.69
643.144	86.69
643.349	93.69
643.554	92.69
643.759	81.69
643.964	93.69
644.169	93.69
644.374	82.69
644.579	88.69
644.784	70.69
644.989	82.69
645.194	82.69
645.399	95.69
645.604	86.69
645.809	78.69
646.014	92.69
646.219	91.69
646.423	89.69
646.628	89.69
646.833	85.69
647.038	82.69
647.243	90.69
647.447	71.69
647.652	80.69
647.857	83.69
648.062	96.69
648.266	78.69
648.471	84.69
648.676	86.69
648.88	80.69
649.085	86.69
649.289	89.69
649.494	77.69
649.698	92.69
649.903	71.69
650.107	83.69
650.312	88.69
650.516	77.69
650.721	78.69
650.925	75.69
651.13	88.69
651.334	97.69
651.539	90.69
651.743	86.69
651.947	82.69
652.152	79.69
652.356	82.69
652.56	82.69
652.764	81.69
652.969	78.69
653.173	83.69
653.377	85.69
653.581	88.69
653.785	82.69
653.99	91.69
654.194	80.69
654.398	79.69
654.602	84.69
654.806	82.69
655.01	88.69
655.214	76.69
655.418	87.69
655.622	86.69
655.826	75.69
656.03	82.69
656.234	75.69
656.438	89.69
656.642	84.69
656.846	82.69
657.049	72.69
657.253	96.69
657.457	92.69
657.661	76.69
657.865	96.69
658.068	78.69
658.272	85.69
658.476	89.69
658.68	88.69
658.883	83.69
659.087	90.69
659.291	86.69
659.494	87.69
659.698	92.69
659.901	81.69
660.105	80.69
660.309	70.69
660.512	73.69
660.716	88.69
660.919	96.69
661.123	86.69
661.326	79.69
661.53	81.69
661.733	98.69
661.936	76.69
662.14	82.69
662.343	72.69
662.546	97.69
662.75	89.69
662.953	88.69
663.156	81.69
663.36	73.69
663.563	68.69
663.766	88.69
663.969	74.69
664.173	68.69
664.376	89.69
664.579	91.69
664.782	72.69
664.985	79.69
665.188	83.69
665.391	75.69
665.594	82.69
665.797	56.69
666	90.69
666.203	91.69
666.406	83.69
666.609	73.69
666.812	79.69
667.015	82.69
667.218	73.69
667.421	96.69
667.624	80.69
667.827	73.69
668.03	74.69
668.232	91.69
668.435	90.69
668.638	77.69
668.841	88.69
669.043	100.69
669.246	84.69
669.449	64.69
669.651	85.69
669.854	83.69
670.057	86.69
670.259	98.69
670.462	82.69
670.665	86.69
670.867	80.69
671.07	93.69
671.272	74.69
671.475	82.69
671.677	78.69
671.88	86.69
672.082	81.69
672.284	76.69
672.487	82.69
672.689	80.69
672.892	80.69
