Data from Lead_25_3_HRD10591_00050.txt Node
Date: Fri Feb 20 11:03:22 EST 2026
User: Yrep
Spectrometer: HR+D1059
Trigger mode: 1
Integration Time (sec): 1.000000E-1
Scans to average: 1
Electric dark correction enabled: true
Nonlinearity correction enabled: false
Boxcar width: 0
XAxis mode: Wavelengths
Number of Pixels in Spectrum: 2048
>>>>>Begin Spectral Data<<<<<
223.165	-16.94
223.4	-16.94
223.635	-16.94
223.869	-18.94
224.104	-21.94
224.338	-22.94
224.573	-9.94
224.808	-6.94
225.042	-7.94
225.277	-18.94
225.511	-10.94
225.746	8.06
225.98	0.06
226.215	22.06
226.449	15.06
226.683	25.06
226.918	28.06
227.152	37.06
227.387	21.06
227.621	41.06
227.856	46.06
228.09	43.06
228.324	55.06
228.559	46.06
228.793	62.06
229.027	57.06
229.262	55.06
229.496	60.06
229.73	50.06
229.964	75.06
230.199	74.06
230.433	55.06
230.667	74.06
230.901	67.06
231.136	92.06
231.37	71.06
231.604	83.06
231.838	63.06
232.072	87.06
232.306	86.06
232.541	84.06
232.775	80.06
233.009	67.06
233.243	80.06
233.477	79.06
233.711	76.06
233.945	83.06
234.179	69.06
234.413	69.06
234.647	82.06
234.881	69.06
235.115	72.06
235.349	69.06
235.583	98.06
235.817	86.06
236.051	69.06
236.285	67.06
236.519	87.06
236.753	87.06
236.987	75.06
237.221	74.06
237.455	89.06
237.689	89.06
237.922	75.06
238.156	81.06
238.39	77.06
238.624	64.06
238.858	82.06
239.091	72.06
239.325	64.06
239.559	69.06
239.793	76.06
240.027	74.06
240.26	61.06
240.494	79.06
240.728	69.06
240.961	69.06
241.195	73.06
241.429	74.06
241.662	87.06
241.896	76.06
242.13	66.06
242.363	61.06
242.597	83.06
242.83	79.06
243.064	66.06
243.298	67.06
243.531	77.06
243.765	71.06
243.998	71.06
244.232	69.06
244.465	71.06
244.699	58.06
244.932	77.06
245.166	70.06
245.399	73.06
245.633	67.06
245.866	77.06
246.099	77.06
246.333	83.06
246.566	69.06
246.8	68.06
247.033	78.06
247.266	77.06
247.5	81.06
247.733	69.06
247.966	82.06
248.2	72.06
248.433	63.06
248.666	77.06
248.899	68.06
249.133	89.06
249.366	85.06
249.599	77.06
249.832	74.06
250.066	89.06
250.299	74.06
250.532	67.06
250.765	58.06
250.998	61.06
251.231	68.06
251.465	69.06
251.698	77.06
251.931	86.06
252.164	82.06
252.397	67.06
252.63	67.06
252.863	68.06
253.096	70.06
253.329	75.06
253.562	87.06
253.795	80.06
254.028	78.06
254.261	78.06
254.494	78.06
254.727	75.06
254.96	70.06
255.193	68.06
255.426	70.06
255.659	79.06
255.892	73.06
256.124	85.06
256.357	86.06
256.59	86.06
256.823	84.06
257.056	83.06
257.289	75.06
257.521	84.06
257.754	75.06
257.987	72.06
258.22	86.06
258.452	81.06
258.685	72.06
258.918	65.06
259.151	90.06
259.383	75.06
259.616	68.06
259.849	78.06
260.081	71.06
260.314	85.06
260.547	76.06
260.779	82.06
261.012	70.06
261.244	77.06
261.477	75.06
261.71	77.06
261.942	74.06
262.175	78.06
262.407	75.06
262.64	84.06
262.872	88.06
263.105	77.06
263.337	87.06
263.57	79.06
263.802	81.06
264.035	75.06
264.267	82.06
264.499	74.06
264.732	82.06
264.964	77.06
265.197	72.06
265.429	94.06
265.661	78.06
265.894	95.06
266.126	81.06
266.358	79.06
266.591	74.06
266.823	71.06
267.055	73.06
267.287	84.06
267.52	89.06
267.752	78.06
267.984	80.06
268.216	91.06
268.448	77.06
268.681	89.06
268.913	73.06
269.145	82.06
269.377	78.06
269.609	77.06
269.841	76.06
270.073	81.06
270.306	87.06
270.538	74.06
270.77	86.06
271.002	84.06
271.234	69.06
271.466	77.06
271.698	86.06
271.93	69.06
272.162	79.06
272.394	72.06
272.626	70.06
272.858	72.06
273.09	82.06
273.322	78.06
273.553	70.06
273.785	84.06
274.017	87.06
274.249	77.06
274.481	83.06
274.713	75.06
274.945	64.06
275.176	86.06
275.408	90.06
275.64	99.06
275.872	83.06
276.104	84.06
276.335	67.06
276.567	69.06
276.799	68.06
277.031	82.06
277.262	89.06
277.494	83.06
277.726	89.06
277.957	80.06
278.189	91.06
278.421	92.06
278.652	79.06
278.884	83.06
279.115	78.06
279.347	80.06
279.579	87.06
279.81	90.06
280.042	97.06
280.273	85.06
280.505	90.06
280.736	75.06
280.968	86.06
281.199	95.06
281.431	85.06
281.662	96.06
281.894	90.06
282.125	91.06
282.356	83.06
282.588	94.06
282.819	87.06
283.051	75.06
283.282	86.06
283.513	84.06
283.745	94.06
283.976	76.06
284.207	81.06
284.439	74.06
284.67	96.06
284.901	100.06
285.132	88.06
285.364	65.06
285.595	73.06
285.826	86.06
286.057	94.06
286.288	84.06
286.52	86.06
286.751	62.06
286.982	58.06
287.213	68.06
287.444	83.06
287.675	83.06
287.906	74.06
288.138	94.06
288.369	90.06
288.6	87.06
288.831	91.06
289.062	85.06
289.293	89.06
289.524	79.06
289.755	75.06
289.986	80.06
290.217	81.06
290.448	82.06
290.679	94.06
290.91	79.06
291.141	81.06
291.371	79.06
291.602	83.06
291.833	77.06
292.064	91.06
292.295	86.06
292.526	76.06
292.757	94.06
292.987	70.06
293.218	80.06
293.449	90.06
293.68	83.06
293.91	77.06
294.141	76.06
294.372	77.06
294.603	79.06
294.833	79.06
295.064	86.06
295.295	65.06
295.525	75.06
295.756	85.06
295.987	73.06
296.217	77.06
296.448	90.06
296.679	84.06
296.909	95.06
297.14	88.06
297.37	86.06
297.601	82.06
297.831	95.06
298.062	81.06
298.292	89.06
298.523	79.06
298.753	80.06
298.984	93.06
299.214	86.06
299.445	57.06
299.675	77.06
299.905	77.06
300.136	87.06
300.366	76.06
300.597	77.06
300.827	74.06
301.057	83.06
301.288	76.06
301.518	64.06
301.748	72.06
301.979	89.06
302.209	78.06
302.439	82.06
302.669	77.06
302.9	75.06
303.13	80.06
303.36	75.06
303.59	85.06
303.82	80.06
304.051	71.06
304.281	85.06
304.511	90.06
304.741	85.06
304.971	94.06
305.201	87.06
305.431	91.06
305.661	86.06
305.891	81.06
306.121	77.06
306.352	85.06
306.582	91.06
306.812	94.06
307.042	76.06
307.272	77.06
307.502	72.06
307.731	77.06
307.961	79.06
308.191	71.06
308.421	74.06
308.651	74.06
308.881	80.06
309.111	90.06
309.341	79.06
309.571	76.06
309.8	79.06
310.03	93.06
310.26	83.06
310.49	89.06
310.72	75.06
310.949	78.06
311.179	81.06
311.409	78.06
311.639	92.06
311.868	93.06
312.098	89.06
312.328	80.06
312.557	85.06
312.787	88.06
313.017	88.06
313.246	84.06
313.476	93.06
313.706	95.06
313.935	79.06
314.165	78.06
314.394	84.06
314.624	86.06
314.853	77.06
315.083	83.06
315.312	94.06
315.542	67.06
315.771	83.06
316.001	82.06
316.23	75.06
316.46	82.06
316.689	68.06
316.919	75.06
317.148	74.06
317.377	86.06
317.607	101.06
317.836	85.06
318.065	75.06
318.295	70.06
318.524	81.06
318.753	85.06
318.983	80.06
319.212	88.06
319.441	71.06
319.67	87.06
319.9	87.06
320.129	88.06
320.358	75.06
320.587	86.06
320.816	80.06
321.046	88.06
321.275	77.06
321.504	81.06
321.733	87.06
321.962	84.06
322.191	70.06
322.42	77.06
322.649	86.06
322.878	83.06
323.108	76.06
323.337	69.06
323.566	79.06
323.795	72.06
324.024	92.06
324.253	87.06
324.482	69.06
324.71	62.06
324.939	61.06
325.168	80.06
325.397	92.06
325.626	84.06
325.855	83.06
326.084	99.06
326.313	84.06
326.542	83.06
326.77	80.06
326.999	84.06
327.228	79.06
327.457	92.06
327.686	78.06
327.914	85.06
328.143	75.06
328.372	77.06
328.6	75.06
328.829	90.06
329.058	79.06
329.287	61.06
329.515	74.06
329.744	96.06
329.972	83.06
330.201	83.06
330.43	72.06
330.658	72.06
330.887	79.06
331.115	93.06
331.344	79.06
331.572	86.06
331.801	79.06
332.03	74.06
332.258	76.06
332.486	61.06
332.715	65.06
332.943	69.06
333.172	86.06
333.4	73.06
333.629	83.06
333.857	80.06
334.085	85.06
334.314	83.06
334.542	101.06
334.771	77.06
334.999	81.06
335.227	84.06
335.455	80.06
335.684	91.06
335.912	85.06
336.14	85.06
336.369	90.06
336.597	77.06
336.825	84.06
337.053	82.06
337.281	74.06
337.51	81.06
337.738	105.06
337.966	78.06
338.194	90.06
338.422	81.06
338.65	85.06
338.878	84.06
339.106	83.06
339.334	101.06
339.562	75.06
339.79	91.06
340.018	76.06
340.246	73.06
340.474	67.06
340.702	77.06
340.93	82.06
341.158	86.06
341.386	86.06
341.614	86.06
341.842	79.06
342.07	83.06
342.298	89.06
342.526	91.06
342.754	70.06
342.981	89.06
343.209	77.06
343.437	77.06
343.665	79.06
343.893	82.06
344.12	79.06
344.348	85.06
344.576	82.06
344.804	86.06
345.031	83.06
345.259	79.06
345.487	81.06
345.714	73.06
345.942	80.06
346.17	92.06
346.397	89.06
346.625	85.06
346.853	96.06
347.08	71.06
347.308	91.06
347.535	81.06
347.763	70.06
347.99	87.06
348.218	76.06
348.445	74.06
348.673	77.06
348.9	88.06
349.128	69.06
349.355	79.06
349.583	87.06
349.81	83.06
350.037	82.06
350.265	77.06
350.492	79.06
350.72	82.06
350.947	85.06
351.174	89.06
351.402	78.06
351.629	81.06
351.856	73.06
352.083	69.06
352.311	75.06
352.538	87.06
352.765	91.06
352.992	77.06
353.22	72.06
353.447	83.06
353.674	75.06
353.901	77.06
354.128	91.06
354.355	90.06
354.583	85.06
354.81	63.06
355.037	87.06
355.264	78.06
355.491	82.06
355.718	84.06
355.945	78.06
356.172	94.06
356.399	86.06
356.626	83.06
356.853	79.06
357.08	68.06
357.307	77.06
357.534	93.06
357.761	79.06
357.988	77.06
358.215	82.06
358.441	78.06
358.668	86.06
358.895	82.06
359.122	81.06
359.349	81.06
359.576	76.06
359.802	76.06
360.029	86.06
360.256	62.06
360.483	86.06
360.709	89.06
360.936	90.06
361.163	88.06
361.39	87.06
361.616	79.06
361.843	75.06
362.07	75.06
362.296	87.06
362.523	82.06
362.749	87.06
362.976	72.06
363.203	83.06
363.429	69.06
363.656	80.06
363.882	78.06
364.109	105.06
364.335	96.06
364.562	93.06
364.788	74.06
365.015	84.06
365.241	92.06
365.468	82.06
365.694	75.06
365.92	80.06
366.147	68.06
366.373	78.06
366.599	89.06
366.826	83.06
367.052	89.06
367.278	98.06
367.505	109.06
367.731	78.06
367.957	81.06
368.184	91.06
368.41	86.06
368.636	78.06
368.862	82.06
369.089	78.06
369.315	92.06
369.541	80.06
369.767	89.06
369.993	73.06
370.219	101.06
370.445	77.06
370.672	82.06
370.898	85.06
371.124	85.06
371.35	83.06
371.576	78.06
371.802	78.06
372.028	87.06
372.254	71.06
372.48	79.06
372.706	73.06
372.932	81.06
373.158	68.06
373.384	79.06
373.61	77.06
373.835	86.06
374.061	80.06
374.287	84.06
374.513	84.06
374.739	81.06
374.965	74.06
375.191	78.06
375.416	70.06
375.642	88.06
375.868	85.06
376.094	77.06
376.319	65.06
376.545	81.06
376.771	90.06
376.997	70.06
377.222	72.06
377.448	80.06
377.674	83.06
377.899	83.06
378.125	83.06
378.35	93.06
378.576	65.06
378.802	73.06
379.027	85.06
379.253	82.06
379.478	87.06
379.704	78.06
379.929	89.06
380.155	84.06
380.38	86.06
380.606	70.06
380.831	91.06
381.057	84.06
381.282	76.06
381.507	77.06
381.733	79.06
381.958	76.06
382.184	90.06
382.409	81.06
382.634	74.06
382.86	77.06
383.085	81.06
383.31	73.06
383.535	71.06
383.761	82.06
383.986	79.06
384.211	92.06
384.436	93.06
384.662	85.06
384.887	81.06
385.112	88.06
385.337	82.06
385.562	73.06
385.787	76.06
386.013	101.06
386.238	61.06
386.463	86.06
386.688	85.06
386.913	83.06
387.138	67.06
387.363	88.06
387.588	71.06
387.813	78.06
388.038	83.06
388.263	72.06
388.488	73.06
388.713	73.06
388.938	76.06
389.163	69.06
389.387	99.06
389.612	79.06
389.837	82.06
390.062	72.06
390.287	82.06
390.512	85.06
390.736	64.06
390.961	85.06
391.186	75.06
391.411	81.06
391.636	82.06
391.86	82.06
392.085	95.06
392.31	89.06
392.534	71.06
392.759	75.06
392.984	73.06
393.208	82.06
393.433	79.06
393.658	70.06
393.882	71.06
394.107	89.06
394.331	67.06
394.556	82.06
394.78	84.06
395.005	78.06
395.229	89.06
395.454	83.06
395.678	89.06
395.903	82.06
396.127	82.06
396.352	65.06
396.576	75.06
396.801	81.06
397.025	85.06
397.249	86.06
397.474	91.06
397.698	80.06
397.922	81.06
398.147	79.06
398.371	94.06
398.595	70.06
398.82	88.06
399.044	82.06
399.268	81.06
399.492	77.06
399.717	87.06
399.941	91.06
400.165	77.06
400.389	91.06
400.613	79.06
400.837	78.06
401.062	79.06
401.286	81.06
401.51	83.06
401.734	75.06
401.958	71.06
402.182	90.06
402.406	80.06
402.63	77.06
402.854	101.06
403.078	82.06
403.302	77.06
403.526	78.06
403.75	88.06
403.974	77.06
404.198	86.06
404.422	89.06
404.645	79.06
404.869	75.06
405.093	87.06
405.317	84.06
405.541	77.06
405.765	82.06
405.988	107.06
406.212	59.06
406.436	68.06
406.66	68.06
406.883	86.06
407.107	66.06
407.331	77.06
407.555	70.06
407.778	64.06
408.002	81.06
408.226	80.06
408.449	79.06
408.673	67.06
408.896	79.06
409.12	83.06
409.344	83.06
409.567	70.06
409.791	78.06
410.014	85.06
410.238	83.06
410.461	74.06
410.685	88.06
410.908	85.06
411.132	77.06
411.355	73.06
411.578	77.06
411.802	77.06
412.025	85.06
412.249	85.06
412.472	72.06
412.695	86.06
412.919	75.06
413.142	65.06
413.365	71.06
413.589	77.06
413.812	70.06
414.035	81.06
414.258	81.06
414.482	87.06
414.705	86.06
414.928	84.06
415.151	78.06
415.374	72.06
415.597	77.06
415.821	69.06
416.044	62.06
416.267	86.06
416.49	81.06
416.713	70.06
416.936	73.06
417.159	67.06
417.382	89.06
417.605	65.06
417.828	84.06
418.051	74.06
418.274	75.06
418.497	86.06
418.72	74.06
418.943	75.06
419.166	89.06
419.389	71.06
419.611	71.06
419.834	62.06
420.057	81.06
420.28	88.06
420.503	78.06
420.726	79.06
420.948	90.06
421.171	62.06
421.394	63.06
421.617	63.06
421.839	78.06
422.062	78.06
422.285	81.06
422.507	86.06
422.73	89.06
422.953	77.06
423.175	76.06
423.398	88.06
423.621	69.06
423.843	67.06
424.066	75.06
424.288	92.06
424.511	90.06
424.733	87.06
424.956	83.06
425.178	80.06
425.401	74.06
425.623	82.06
425.846	91.06
426.068	80.06
426.291	71.06
426.513	80.06
426.735	78.06
426.958	74.06
427.18	77.06
427.402	79.06
427.625	70.06
427.847	78.06
428.069	79.06
428.292	79.06
428.514	75.06
428.736	91.06
428.958	72.06
429.181	82.06
429.403	69.06
429.625	68.06
429.847	85.06
430.069	81.06
430.292	89.06
430.514	87.06
430.736	77.06
430.958	80.06
431.18	82.06
431.402	83.06
431.624	71.06
431.846	83.06
432.068	81.06
432.29	78.06
432.512	81.06
432.734	78.06
432.956	89.06
433.178	88.06
433.4	103.06
433.622	88.06
433.844	86.06
434.066	75.06
434.287	83.06
434.509	85.06
434.731	87.06
434.953	91.06
435.175	77.06
435.397	82.06
435.618	61.06
435.84	82.06
436.062	87.06
436.284	75.06
436.505	68.06
436.727	83.06
436.949	73.06
437.17	90.06
437.392	71.06
437.614	84.06
437.835	77.06
438.057	82.06
438.278	89.06
438.5	96.06
438.721	92.06
438.943	90.06
439.165	73.06
439.386	85.06
439.608	76.06
439.829	70.06
440.05	63.06
440.272	79.06
440.493	98.06
440.715	91.06
440.936	71.06
441.158	83.06
441.379	82.06
441.6	75.06
441.822	84.06
442.043	69.06
442.264	73.06
442.486	77.06
442.707	68.06
442.928	81.06
443.149	84.06
443.371	85.06
443.592	68.06
443.813	87.06
444.034	62.06
444.255	75.06
444.476	73.06
444.698	74.06
444.919	77.06
445.14	155.06
445.361	111.06
445.582	89.06
445.803	77.06
446.024	71.06
446.245	81.06
446.466	77.06
446.687	94.06
446.908	79.06
447.129	79.06
447.35	83.06
447.571	80.06
447.792	73.06
448.013	69.06
448.234	73.06
448.455	77.06
448.675	66.06
448.896	69.06
449.117	77.06
449.338	89.06
449.559	87.06
449.779	85.06
450	74.06
450.221	69.06
450.442	87.06
450.662	83.06
450.883	68.06
451.104	73.06
451.324	77.06
451.545	79.06
451.766	86.06
451.986	86.06
452.207	88.06
452.428	86.06
452.648	83.06
452.869	94.06
453.089	89.06
453.31	94.06
453.53	90.06
453.751	87.06
453.971	74.06
454.192	73.06
454.412	75.06
454.633	76.06
454.853	64.06
455.073	77.06
455.294	79.06
455.514	85.06
455.734	92.06
455.955	65.06
456.175	81.06
456.395	78.06
456.616	59.06
456.836	77.06
457.056	75.06
457.276	83.06
457.497	70.06
457.717	71.06
457.937	85.06
458.157	83.06
458.377	82.06
458.598	79.06
458.818	79.06
459.038	78.06
459.258	70.06
459.478	86.06
459.698	85.06
459.918	73.06
460.138	69.06
460.358	72.06
460.578	81.06
460.798	80.06
461.018	83.06
461.238	70.06
461.458	69.06
461.678	82.06
461.898	66.06
462.118	87.06
462.338	79.06
462.558	85.06
462.777	85.06
462.997	85.06
463.217	66.06
463.437	83.06
463.657	88.06
463.876	86.06
464.096	81.06
464.316	83.06
464.536	75.06
464.755	94.06
464.975	86.06
465.195	72.06
465.414	78.06
465.634	77.06
465.854	74.06
466.073	78.06
466.293	76.06
466.512	76.06
466.732	76.06
466.951	82.06
467.171	82.06
467.391	74.06
467.61	77.06
467.829	82.06
468.049	88.06
468.268	82.06
468.488	94.06
468.707	90.06
468.927	85.06
469.146	66.06
469.365	85.06
469.585	89.06
469.804	72.06
470.023	78.06
470.243	75.06
470.462	78.06
470.681	82.06
470.901	77.06
471.12	87.06
471.339	85.06
471.558	92.06
471.777	100.06
471.997	85.06
472.216	84.06
472.435	84.06
472.654	92.06
472.873	71.06
473.092	75.06
473.311	64.06
473.53	81.06
473.749	71.06
473.968	81.06
474.187	84.06
474.406	75.06
474.625	71.06
474.844	89.06
475.063	70.06
475.282	67.06
475.501	87.06
475.72	85.06
475.939	77.06
476.158	91.06
476.377	94.06
476.596	80.06
476.814	82.06
477.033	93.06
477.252	85.06
477.471	78.06
477.69	78.06
477.908	67.06
478.127	81.06
478.346	85.06
478.564	80.06
478.783	74.06
479.002	74.06
479.22	78.06
479.439	77.06
479.658	83.06
479.876	93.06
480.095	87.06
480.313	81.06
480.532	86.06
480.751	83.06
480.969	79.06
481.188	91.06
481.406	85.06
481.624	77.06
481.843	69.06
482.061	79.06
482.28	80.06
482.498	81.06
482.717	94.06
482.935	73.06
483.153	93.06
483.372	78.06
483.59	93.06
483.808	78.06
484.027	89.06
484.245	83.06
484.463	74.06
484.681	84.06
484.9	75.06
485.118	77.06
485.336	77.06
485.554	67.06
485.772	73.06
485.99	81.06
486.209	78.06
486.427	79.06
486.645	87.06
486.863	85.06
487.081	75.06
487.299	92.06
487.517	85.06
487.735	85.06
487.953	93.06
488.171	74.06
488.389	71.06
488.607	92.06
488.825	95.06
489.043	83.06
489.261	98.06
489.479	75.06
489.696	83.06
489.914	73.06
490.132	72.06
490.35	94.06
490.568	81.06
490.786	83.06
491.003	80.06
491.221	63.06
491.439	78.06
491.657	67.06
491.874	83.06
492.092	62.06
492.31	69.06
492.527	73.06
492.745	77.06
492.963	84.06
493.18	73.06
493.398	84.06
493.615	78.06
493.833	59.06
494.05	75.06
494.268	80.06
494.485	73.06
494.703	75.06
494.92	90.06
495.138	76.06
495.355	88.06
495.573	86.06
495.79	73.06
496.008	77.06
496.225	75.06
496.442	79.06
496.66	93.06
496.877	84.06
497.094	65.06
497.312	83.06
497.529	74.06
497.746	77.06
497.963	73.06
498.181	70.06
498.398	90.06
498.615	79.06
498.832	83.06
499.049	84.06
499.267	90.06
499.484	82.06
499.701	86.06
499.918	81.06
500.135	67.06
500.352	84.06
500.569	73.06
500.786	84.06
501.003	82.06
501.22	78.06
501.437	77.06
501.654	80.06
501.871	93.06
502.088	97.06
502.305	79.06
502.522	94.06
502.739	77.06
502.956	79.06
503.172	80.06
503.389	86.06
503.606	66.06
503.823	79.06
504.04	68.06
504.256	84.06
504.473	72.06
504.69	72.06
504.907	75.06
505.123	77.06
505.34	91.06
505.557	73.06
505.773	79.06
505.99	84.06
506.207	78.06
506.423	80.06
506.64	84.06
506.856	79.06
507.073	89.06
507.289	75.06
507.506	91.06
507.722	78.06
507.939	78.06
508.155	80.06
508.372	76.06
508.588	77.06
508.805	75.06
509.021	76.06
509.238	88.06
509.454	102.06
509.67	86.06
509.887	84.06
510.103	77.06
510.319	65.06
510.536	88.06
510.752	77.06
510.968	73.06
511.184	87.06
511.401	65.06
511.617	79.06
511.833	91.06
512.049	93.06
512.265	73.06
512.481	85.06
512.698	83.06
512.914	82.06
513.13	78.06
513.346	89.06
513.562	77.06
513.778	83.06
513.994	76.06
514.21	80.06
514.426	91.06
514.642	79.06
514.858	78.06
515.074	69.06
515.29	91.06
515.506	90.06
515.721	84.06
515.937	82.06
516.153	77.06
516.369	91.06
516.585	83.06
516.801	75.06
517.016	98.06
517.232	77.06
517.448	82.06
517.664	75.06
517.879	79.06
518.095	76.06
518.311	78.06
518.527	78.06
518.742	82.06
518.958	87.06
519.173	72.06
519.389	60.06
519.605	67.06
519.82	83.06
520.036	88.06
520.251	69.06
520.467	77.06
520.682	87.06
520.898	79.06
521.113	80.06
521.329	88.06
521.544	71.06
521.76	86.06
521.975	92.06
522.19	96.06
522.406	93.06
522.621	81.06
522.836	77.06
523.052	81.06
523.267	79.06
523.482	59.06
523.698	58.06
523.913	72.06
524.128	83.06
524.343	89.06
524.559	86.06
524.774	81.06
524.989	75.06
525.204	78.06
525.419	75.06
525.634	74.06
525.849	76.06
526.064	71.06
526.28	85.06
526.495	85.06
526.71	76.06
526.925	81.06
527.14	85.06
527.355	93.06
527.57	71.06
527.785	81.06
527.999	81.06
528.214	83.06
528.429	90.06
528.644	90.06
528.859	77.06
529.074	75.06
529.289	91.06
529.503	84.06
529.718	83.06
529.933	76.06
530.148	85.06
530.363	83.06
530.577	94.06
530.792	91.06
531.007	71.06
531.221	93.06
531.436	80.06
531.651	88.06
531.865	97.06
532.08	92.06
532.295	83.06
532.509	83.06
532.724	78.06
532.938	74.06
533.153	87.06
533.367	69.06
533.582	81.06
533.796	79.06
534.011	69.06
534.225	83.06
534.44	67.06
534.654	90.06
534.868	79.06
535.083	82.06
535.297	89.06
535.511	83.06
535.726	84.06
535.94	85.06
536.154	86.06
536.369	77.06
536.583	73.06
536.797	70.06
537.011	91.06
537.225	74.06
537.44	82.06
537.654	78.06
537.868	85.06
538.082	88.06
538.296	70.06
538.51	83.06
538.724	85.06
538.938	72.06
539.153	93.06
539.367	85.06
539.581	71.06
539.795	77.06
540.009	89.06
540.222	87.06
540.436	80.06
540.65	72.06
540.864	75.06
541.078	70.06
541.292	69.06
541.506	85.06
541.72	76.06
541.934	89.06
542.147	91.06
542.361	87.06
542.575	83.06
542.789	81.06
543.002	85.06
543.216	75.06
543.43	77.06
543.644	63.06
543.857	87.06
544.071	85.06
544.285	85.06
544.498	85.06
544.712	74.06
544.925	75.06
545.139	80.06
545.352	80.06
545.566	91.06
545.779	83.06
545.993	80.06
546.206	75.06
546.42	71.06
546.633	75.06
546.847	84.06
547.06	98.06
547.274	83.06
547.487	83.06
547.7	77.06
547.914	73.06
548.127	92.06
548.34	79.06
548.554	86.06
548.767	89.06
548.98	89.06
549.193	90.06
549.407	97.06
549.62	78.06
549.833	77.06
550.046	93.06
550.259	95.06
550.473	90.06
550.686	72.06
550.899	83.06
551.112	79.06
551.325	82.06
551.538	64.06
551.751	72.06
551.964	81.06
552.177	90.06
552.39	73.06
552.603	86.06
552.816	88.06
553.029	87.06
553.242	79.06
553.455	65.06
553.667	91.06
553.88	86.06
554.093	82.06
554.306	84.06
554.519	78.06
554.732	82.06
554.944	93.06
555.157	70.06
555.37	79.06
555.583	75.06
555.795	100.06
556.008	76.06
556.221	80.06
556.433	77.06
556.646	77.06
556.859	76.06
557.071	96.06
557.284	84.06
557.496	72.06
557.709	85.06
557.921	93.06
558.134	74.06
558.346	68.06
558.559	69.06
558.771	80.06
558.984	78.06
559.196	77.06
559.409	80.06
559.621	80.06
559.833	78.06
560.046	88.06
560.258	77.06
560.47	89.06
560.683	75.06
560.895	79.06
561.107	85.06
561.32	72.06
561.532	80.06
561.744	99.06
561.956	80.06
562.168	88.06
562.381	74.06
562.593	78.06
562.805	83.06
563.017	77.06
563.229	87.06
563.441	77.06
563.653	81.06
563.865	71.06
564.077	78.06
564.289	73.06
564.501	81.06
564.713	77.06
564.925	79.06
565.137	87.06
565.349	73.06
565.561	84.06
565.773	83.06
565.985	70.06
566.197	76.06
566.408	78.06
566.62	77.06
566.832	75.06
567.044	79.06
567.255	82.06
567.467	71.06
567.679	93.06
567.891	90.06
568.102	78.06
568.314	77.06
568.526	74.06
568.737	83.06
568.949	108.06
569.161	82.06
569.372	80.06
569.584	69.06
569.795	89.06
570.007	86.06
570.218	88.06
570.43	77.06
570.641	70.06
570.853	85.06
571.064	84.06
571.276	88.06
571.487	100.06
571.698	94.06
571.91	81.06
572.121	75.06
572.333	85.06
572.544	90.06
572.755	77.06
572.966	87.06
573.178	77.06
573.389	72.06
573.6	92.06
573.811	70.06
574.023	78.06
574.234	72.06
574.445	83.06
574.656	78.06
574.867	78.06
575.078	80.06
575.289	87.06
575.501	85.06
575.712	70.06
575.923	69.06
576.134	80.06
576.345	90.06
576.556	76.06
576.767	85.06
576.978	92.06
577.188	89.06
577.399	77.06
577.61	83.06
577.821	85.06
578.032	77.06
578.243	86.06
578.454	74.06
578.665	83.06
578.875	81.06
579.086	79.06
579.297	94.06
579.508	86.06
579.718	92.06
579.929	80.06
580.14	84.06
580.35	77.06
580.561	81.06
580.772	93.06
580.982	79.06
581.193	75.06
581.403	70.06
581.614	86.06
581.825	72.06
582.035	76.06
582.246	96.06
582.456	78.06
582.667	81.06
582.877	80.06
583.087	81.06
583.298	78.06
583.508	95.06
583.719	85.06
583.929	88.06
584.139	85.06
584.35	88.06
584.56	91.06
584.77	78.06
584.981	69.06
585.191	85.06
585.401	85.06
585.611	79.06
585.821	92.06
586.032	78.06
586.242	81.06
586.452	95.06
586.662	87.06
586.872	87.06
587.082	83.06
587.292	82.06
587.502	77.06
587.713	92.06
587.923	82.06
588.133	95.06
588.343	93.06
588.553	79.06
588.762	86.06
588.972	103.06
589.182	104.06
589.392	87.06
589.602	82.06
589.812	99.06
590.022	83.06
590.232	84.06
590.441	77.06
590.651	75.06
590.861	85.06
591.071	88.06
591.281	75.06
591.49	77.06
591.7	71.06
591.91	89.06
592.119	79.06
592.329	80.06
592.539	73.06
592.748	103.06
592.958	87.06
593.167	83.06
593.377	91.06
593.587	99.06
593.796	91.06
594.006	83.06
594.215	94.06
594.424	98.06
594.634	92.06
594.843	80.06
595.053	86.06
595.262	79.06
595.472	86.06
595.681	101.06
595.89	77.06
596.1	83.06
596.309	81.06
596.518	75.06
596.727	91.06
596.937	85.06
597.146	70.06
597.355	83.06
597.564	85.06
597.774	92.06
597.983	86.06
598.192	83.06
598.401	68.06
598.61	76.06
598.819	80.06
599.028	96.06
599.237	88.06
599.446	78.06
599.655	82.06
599.864	83.06
600.073	72.06
600.282	94.06
600.491	72.06
600.7	74.06
600.909	75.06
601.118	86.06
601.327	85.06
601.536	86.06
601.745	84.06
601.953	92.06
602.162	93.06
602.371	93.06
602.58	94.06
602.789	84.06
602.997	81.06
603.206	72.06
603.415	91.06
603.623	80.06
603.832	79.06
604.041	80.06
604.249	81.06
604.458	77.06
604.666	77.06
604.875	75.06
605.084	90.06
605.292	90.06
605.501	79.06
605.709	82.06
605.918	95.06
606.126	71.06
606.334	81.06
606.543	87.06
606.751	75.06
606.96	76.06
607.168	93.06
607.376	75.06
607.585	86.06
607.793	84.06
608.001	72.06
608.21	72.06
608.418	77.06
608.626	94.06
608.834	79.06
609.043	79.06
609.251	78.06
609.459	71.06
609.667	72.06
609.875	75.06
610.083	76.06
610.291	73.06
610.499	68.06
610.707	87.06
610.916	92.06
611.124	82.06
611.332	70.06
611.54	78.06
611.748	92.06
611.955	65.06
612.163	82.06
612.371	73.06
612.579	87.06
612.787	81.06
612.995	83.06
613.203	84.06
613.411	78.06
613.618	85.06
613.826	78.06
614.034	67.06
614.242	79.06
614.449	72.06
614.657	89.06
614.865	77.06
615.072	72.06
615.28	78.06
615.488	83.06
615.695	89.06
615.903	80.06
616.111	74.06
616.318	81.06
616.526	77.06
616.733	86.06
616.941	89.06
617.148	85.06
617.356	91.06
617.563	80.06
617.771	73.06
617.978	67.06
618.185	90.06
618.393	81.06
618.6	72.06
618.807	86.06
619.015	81.06
619.222	75.06
619.429	80.06
619.637	97.06
619.844	62.06
620.051	78.06
620.258	71.06
620.466	68.06
620.673	84.06
620.88	87.06
621.087	77.06
621.294	92.06
621.501	90.06
621.708	84.06
621.915	89.06
622.122	95.06
622.329	83.06
622.536	72.06
622.743	80.06
622.95	87.06
623.157	82.06
623.364	81.06
623.571	95.06
623.778	94.06
623.985	84.06
624.192	77.06
624.399	95.06
624.606	90.06
624.812	78.06
625.019	77.06
625.226	82.06
625.433	77.06
625.639	81.06
625.846	82.06
626.053	74.06
626.259	74.06
626.466	75.06
626.673	70.06
626.879	83.06
627.086	75.06
627.293	80.06
627.499	83.06
627.706	77.06
627.912	78.06
628.119	77.06
628.325	75.06
628.532	75.06
628.738	93.06
628.945	65.06
629.151	83.06
629.357	79.06
629.564	80.06
629.77	67.06
629.976	74.06
630.183	87.06
630.389	87.06
630.595	84.06
630.802	73.06
631.008	76.06
631.214	71.06
631.42	75.06
631.627	74.06
631.833	82.06
632.039	101.06
632.245	79.06
632.451	83.06
632.657	72.06
632.863	79.06
633.069	73.06
633.275	75.06
633.481	88.06
633.688	66.06
633.893	79.06
634.099	80.06
634.305	91.06
634.511	86.06
634.717	83.06
634.923	72.06
635.129	81.06
635.335	84.06
635.541	84.06
635.747	72.06
635.952	80.06
636.158	66.06
636.364	90.06
636.57	79.06
636.775	77.06
636.981	84.06
637.187	84.06
637.392	64.06
637.598	101.06
637.804	78.06
638.009	79.06
638.215	84.06
638.421	72.06
638.626	89.06
638.832	77.06
639.037	76.06
639.243	98.06
639.448	77.06
639.654	94.06
639.859	85.06
640.065	82.06
640.27	77.06
640.475	79.06
640.681	75.06
640.886	82.06
641.091	91.06
641.297	86.06
641.502	79.06
641.707	89.06
641.913	86.06
642.118	85.06
642.323	74.06
642.528	90.06
642.733	83.06
642.939	83.06
643.144	77.06
643.349	81.06
643.554	69.06
643.759	71.06
643.964	80.06
644.169	81.06
644.374	69.06
644.579	73.06
644.784	74.06
644.989	68.06
645.194	68.06
645.399	85.06
645.604	77.06
645.809	82.06
646.014	87.06
646.219	71.06
646.423	77.06
646.628	86.06
646.833	76.06
647.038	98.06
647.243	80.06
647.447	90.06
647.652	80.06
647.857	88.06
648.062	82.06
648.266	89.06
648.471	87.06
648.676	76.06
648.88	94.06
649.085	84.06
649.289	70.06
649.494	74.06
649.698	82.06
649.903	82.06
650.107	68.06
650.312	81.06
650.516	79.06
650.721	71.06
650.925	83.06
651.13	77.06
651.334	73.06
651.539	61.06
651.743	76.06
651.947	75.06
652.152	85.06
652.356	86.06
652.56	94.06
652.764	83.06
652.969	72.06
653.173	91.06
653.377	78.06
653.581	80.06
653.785	67.06
653.99	77.06
654.194	84.06
654.398	76.06
654.602	77.06
654.806	82.06
655.01	79.06
655.214	74.06
655.418	83.06
655.622	69.06
655.826	71.06
656.03	93.06
656.234	76.06
656.438	80.06
656.642	89.06
656.846	79.06
657.049	90.06
657.253	88.06
657.457	81.06
657.661	77.06
657.865	83.06
658.068	67.06
658.272	95.06
658.476	79.06
658.68	69.06
658.883	67.06
659.087	61.06
659.291	85.06
659.494	73.06
659.698	82.06
659.901	85.06
660.105	80.06
660.309	87.06
660.512	88.06
660.716	89.06
660.919	82.06
661.123	92.06
661.326	86.06
661.53	85.06
661.733	73.06
661.936	78.06
662.14	75.06
662.343	91.06
662.546	68.06
662.75	92.06
662.953	79.06
663.156	80.06
663.36	75.06
663.563	92.06
663.766	78.06
663.969	83.06
664.173	69.06
664.376	69.06
664.579	92.06
664.782	85.06
664.985	75.06
665.188	82.06
665.391	90.06
665.594	81.06
665.797	78.06
666	73.06
666.203	77.06
666.406	78.06
666.609	79.06
666.812	82.06
667.015	83.06
667.218	88.06
667.421	77.06
667.624	80.06
667.827	81.06
668.03	81.06
668.232	81.06
668.435	76.06
668.638	73.06
668.841	73.06
669.043	82.06
669.246	76.06
669.449	76.06
669.651	75.06
669.854	78.06
670.057	64.06
670.259	72.06
670.462	75.06
670.665	86.06
670.867	72.06
671.07	86.06
671.272	80.06
671.475	77.06
671.677	69.06
671.88	75.06
672.082	71.06
672.284	76.06
672.487	87.06
672.689	77.06
672.892	75.06
