Data from Lead_25_3_HRD10591_00026.txt Node
Date: Fri Feb 20 11:03:14 EST 2026
User: Yrep
Spectrometer: HR+D1059
Trigger mode: 1
Integration Time (sec): 1.000000E-1
Scans to average: 1
Electric dark correction enabled: true
Nonlinearity correction enabled: false
Boxcar width: 0
XAxis mode: Wavelengths
Number of Pixels in Spectrum: 2048
>>>>>Begin Spectral Data<<<<<
223.165	-9.38
223.4	-9.38
223.635	-9.38
223.869	-21.38
224.104	-22.38
224.338	-6.38
224.573	-18.38
224.808	-2.38
225.042	2.62
225.277	-21.38
225.511	-9.38
225.746	4.62
225.98	-4.38
226.215	15.62
226.449	10.62
226.683	11.62
226.918	26.62
227.152	43.62
227.387	45.62
227.621	47.62
227.856	39.62
228.09	39.62
228.324	47.62
228.559	55.62
228.793	59.62
229.027	58.62
229.262	58.62
229.496	56.62
229.73	63.62
229.964	74.62
230.199	75.62
230.433	70.62
230.667	84.62
230.901	79.62
231.136	86.62
231.37	82.62
231.604	87.62
231.838	83.62
232.072	70.62
232.306	62.62
232.541	77.62
232.775	69.62
233.009	89.62
233.243	89.62
233.477	75.62
233.711	77.62
233.945	73.62
234.179	80.62
234.413	80.62
234.647	86.62
234.881	91.62
235.115	84.62
235.349	91.62
235.583	73.62
235.817	83.62
236.051	80.62
236.285	78.62
236.519	88.62
236.753	74.62
236.987	74.62
237.221	75.62
237.455	84.62
237.689	74.62
237.922	71.62
238.156	77.62
238.39	83.62
238.624	84.62
238.858	79.62
239.091	81.62
239.325	73.62
239.559	71.62
239.793	70.62
240.027	71.62
240.26	69.62
240.494	66.62
240.728	78.62
240.961	81.62
241.195	72.62
241.429	81.62
241.662	67.62
241.896	66.62
242.13	67.62
242.363	90.62
242.597	74.62
242.83	78.62
243.064	69.62
243.298	60.62
243.531	55.62
243.765	85.62
243.998	79.62
244.232	90.62
244.465	70.62
244.699	84.62
244.932	93.62
245.166	83.62
245.399	87.62
245.633	65.62
245.866	79.62
246.099	75.62
246.333	83.62
246.566	68.62
246.8	85.62
247.033	83.62
247.266	78.62
247.5	66.62
247.733	73.62
247.966	73.62
248.2	81.62
248.433	74.62
248.666	74.62
248.899	82.62
249.133	78.62
249.366	78.62
249.599	89.62
249.832	81.62
250.066	93.62
250.299	79.62
250.532	69.62
250.765	85.62
250.998	68.62
251.231	79.62
251.465	83.62
251.698	69.62
251.931	77.62
252.164	75.62
252.397	69.62
252.63	79.62
252.863	76.62
253.096	85.62
253.329	93.62
253.562	79.62
253.795	70.62
254.028	79.62
254.261	81.62
254.494	85.62
254.727	82.62
254.96	78.62
255.193	78.62
255.426	65.62
255.659	77.62
255.892	76.62
256.124	87.62
256.357	70.62
256.59	79.62
256.823	88.62
257.056	90.62
257.289	81.62
257.521	92.62
257.754	86.62
257.987	80.62
258.22	86.62
258.452	83.62
258.685	87.62
258.918	69.62
259.151	77.62
259.383	82.62
259.616	72.62
259.849	77.62
260.081	76.62
260.314	81.62
260.547	80.62
260.779	78.62
261.012	81.62
261.244	83.62
261.477	83.62
261.71	93.62
261.942	83.62
262.175	87.62
262.407	84.62
262.64	84.62
262.872	70.62
263.105	81.62
263.337	89.62
263.57	87.62
263.802	88.62
264.035	80.62
264.267	97.62
264.499	95.62
264.732	72.62
264.964	71.62
265.197	78.62
265.429	77.62
265.661	72.62
265.894	91.62
266.126	85.62
266.358	85.62
266.591	91.62
266.823	88.62
267.055	86.62
267.287	89.62
267.52	93.62
267.752	93.62
267.984	81.62
268.216	91.62
268.448	94.62
268.681	88.62
268.913	67.62
269.145	81.62
269.377	85.62
269.609	85.62
269.841	75.62
270.073	78.62
270.306	76.62
270.538	84.62
270.77	90.62
271.002	81.62
271.234	80.62
271.466	85.62
271.698	85.62
271.93	80.62
272.162	86.62
272.394	87.62
272.626	69.62
272.858	90.62
273.09	79.62
273.322	91.62
273.553	79.62
273.785	70.62
274.017	82.62
274.249	81.62
274.481	80.62
274.713	93.62
274.945	102.62
275.176	88.62
275.408	81.62
275.64	79.62
275.872	76.62
276.104	91.62
276.335	93.62
276.567	90.62
276.799	74.62
277.031	77.62
277.262	95.62
277.494	91.62
277.726	82.62
277.957	74.62
278.189	65.62
278.421	73.62
278.652	89.62
278.884	90.62
279.115	90.62
279.347	77.62
279.579	79.62
279.81	81.62
280.042	86.62
280.273	79.62
280.505	89.62
280.736	72.62
280.968	83.62
281.199	86.62
281.431	77.62
281.662	87.62
281.894	110.62
282.125	81.62
282.356	72.62
282.588	93.62
282.819	93.62
283.051	86.62
283.282	95.62
283.513	78.62
283.745	81.62
283.976	77.62
284.207	82.62
284.439	72.62
284.67	84.62
284.901	90.62
285.132	74.62
285.364	83.62
285.595	73.62
285.826	89.62
286.057	100.62
286.288	85.62
286.52	97.62
286.751	88.62
286.982	80.62
287.213	84.62
287.444	92.62
287.675	90.62
287.906	109.62
288.138	91.62
288.369	97.62
288.6	85.62
288.831	72.62
289.062	75.62
289.293	90.62
289.524	87.62
289.755	80.62
289.986	73.62
290.217	98.62
290.448	98.62
290.679	99.62
290.91	88.62
291.141	85.62
291.371	83.62
291.602	76.62
291.833	82.62
292.064	88.62
292.295	88.62
292.526	85.62
292.757	101.62
292.987	82.62
293.218	95.62
293.449	73.62
293.68	84.62
293.91	81.62
294.141	90.62
294.372	76.62
294.603	89.62
294.833	95.62
295.064	73.62
295.295	88.62
295.525	77.62
295.756	81.62
295.987	78.62
296.217	94.62
296.448	83.62
296.679	85.62
296.909	87.62
297.14	91.62
297.37	99.62
297.601	71.62
297.831	74.62
298.062	75.62
298.292	90.62
298.523	88.62
298.753	93.62
298.984	88.62
299.214	85.62
299.445	73.62
299.675	89.62
299.905	86.62
300.136	68.62
300.366	91.62
300.597	71.62
300.827	92.62
301.057	79.62
301.288	70.62
301.518	68.62
301.748	86.62
301.979	89.62
302.209	79.62
302.439	87.62
302.669	83.62
302.9	94.62
303.13	93.62
303.36	85.62
303.59	79.62
303.82	88.62
304.051	82.62
304.281	95.62
304.511	101.62
304.741	95.62
304.971	79.62
305.201	88.62
305.431	89.62
305.661	86.62
305.891	91.62
306.121	97.62
306.352	83.62
306.582	89.62
306.812	81.62
307.042	85.62
307.272	81.62
307.502	74.62
307.731	85.62
307.961	89.62
308.191	86.62
308.421	82.62
308.651	90.62
308.881	85.62
309.111	77.62
309.341	67.62
309.571	83.62
309.8	74.62
310.03	87.62
310.26	99.62
310.49	79.62
310.72	94.62
310.949	84.62
311.179	96.62
311.409	77.62
311.639	79.62
311.868	81.62
312.098	99.62
312.328	100.62
312.557	96.62
312.787	86.62
313.017	85.62
313.246	83.62
313.476	75.62
313.706	91.62
313.935	65.62
314.165	87.62
314.394	87.62
314.624	88.62
314.853	81.62
315.083	77.62
315.312	84.62
315.542	96.62
315.771	81.62
316.001	73.62
316.23	88.62
316.46	92.62
316.689	86.62
316.919	90.62
317.148	78.62
317.377	97.62
317.607	92.62
317.836	84.62
318.065	90.62
318.295	75.62
318.524	97.62
318.753	69.62
318.983	85.62
319.212	84.62
319.441	87.62
319.67	76.62
319.9	81.62
320.129	100.62
320.358	87.62
320.587	79.62
320.816	82.62
321.046	87.62
321.275	91.62
321.504	91.62
321.733	79.62
321.962	81.62
322.191	85.62
322.42	86.62
322.649	89.62
322.878	62.62
323.108	79.62
323.337	87.62
323.566	82.62
323.795	80.62
324.024	85.62
324.253	83.62
324.482	83.62
324.71	85.62
324.939	87.62
325.168	83.62
325.397	86.62
325.626	92.62
325.855	80.62
326.084	97.62
326.313	88.62
326.542	74.62
326.77	84.62
326.999	90.62
327.228	80.62
327.457	78.62
327.686	86.62
327.914	89.62
328.143	90.62
328.372	79.62
328.6	83.62
328.829	90.62
329.058	95.62
329.287	93.62
329.515	88.62
329.744	95.62
329.972	79.62
330.201	90.62
330.43	90.62
330.658	83.62
330.887	83.62
331.115	82.62
331.344	85.62
331.572	90.62
331.801	84.62
332.03	83.62
332.258	70.62
332.486	78.62
332.715	97.62
332.943	80.62
333.172	97.62
333.4	99.62
333.629	89.62
333.857	94.62
334.085	90.62
334.314	87.62
334.542	78.62
334.771	85.62
334.999	90.62
335.227	91.62
335.455	81.62
335.684	84.62
335.912	98.62
336.14	79.62
336.369	95.62
336.597	83.62
336.825	81.62
337.053	91.62
337.281	86.62
337.51	75.62
337.738	94.62
337.966	86.62
338.194	81.62
338.422	88.62
338.65	88.62
338.878	77.62
339.106	83.62
339.334	93.62
339.562	91.62
339.79	78.62
340.018	78.62
340.246	81.62
340.474	91.62
340.702	79.62
340.93	74.62
341.158	74.62
341.386	82.62
341.614	90.62
341.842	96.62
342.07	77.62
342.298	90.62
342.526	83.62
342.754	77.62
342.981	81.62
343.209	83.62
343.437	97.62
343.665	69.62
343.893	77.62
344.12	87.62
344.348	82.62
344.576	79.62
344.804	74.62
345.031	82.62
345.259	86.62
345.487	91.62
345.714	80.62
345.942	75.62
346.17	82.62
346.397	79.62
346.625	92.62
346.853	81.62
347.08	89.62
347.308	77.62
347.535	83.62
347.763	83.62
347.99	94.62
348.218	85.62
348.445	79.62
348.673	89.62
348.9	89.62
349.128	79.62
349.355	87.62
349.583	86.62
349.81	84.62
350.037	86.62
350.265	66.62
350.492	88.62
350.72	82.62
350.947	79.62
351.174	81.62
351.402	77.62
351.629	67.62
351.856	85.62
352.083	79.62
352.311	81.62
352.538	71.62
352.765	86.62
352.992	91.62
353.22	81.62
353.447	78.62
353.674	83.62
353.901	82.62
354.128	78.62
354.355	76.62
354.583	82.62
354.81	89.62
355.037	86.62
355.264	88.62
355.491	93.62
355.718	90.62
355.945	84.62
356.172	87.62
356.399	83.62
356.626	88.62
356.853	71.62
357.08	87.62
357.307	88.62
357.534	93.62
357.761	90.62
357.988	75.62
358.215	69.62
358.441	67.62
358.668	94.62
358.895	103.62
359.122	77.62
359.349	74.62
359.576	86.62
359.802	87.62
360.029	94.62
360.256	85.62
360.483	83.62
360.709	90.62
360.936	90.62
361.163	81.62
361.39	75.62
361.616	90.62
361.843	107.62
362.07	91.62
362.296	85.62
362.523	80.62
362.749	87.62
362.976	82.62
363.203	89.62
363.429	97.62
363.656	85.62
363.882	82.62
364.109	102.62
364.335	84.62
364.562	67.62
364.788	69.62
365.015	85.62
365.241	79.62
365.468	87.62
365.694	85.62
365.92	83.62
366.147	86.62
366.373	89.62
366.599	89.62
366.826	90.62
367.052	74.62
367.278	87.62
367.505	83.62
367.731	66.62
367.957	109.62
368.184	86.62
368.41	89.62
368.636	83.62
368.862	91.62
369.089	93.62
369.315	93.62
369.541	83.62
369.767	83.62
369.993	75.62
370.219	81.62
370.445	81.62
370.672	75.62
370.898	77.62
371.124	91.62
371.35	82.62
371.576	78.62
371.802	92.62
372.028	87.62
372.254	79.62
372.48	91.62
372.706	73.62
372.932	88.62
373.158	85.62
373.384	75.62
373.61	97.62
373.835	86.62
374.061	91.62
374.287	83.62
374.513	86.62
374.739	82.62
374.965	90.62
375.191	82.62
375.416	85.62
375.642	96.62
375.868	86.62
376.094	77.62
376.319	81.62
376.545	75.62
376.771	89.62
376.997	82.62
377.222	76.62
377.448	85.62
377.674	85.62
377.899	82.62
378.125	81.62
378.35	89.62
378.576	87.62
378.802	80.62
379.027	81.62
379.253	86.62
379.478	77.62
379.704	81.62
379.929	79.62
380.155	83.62
380.38	90.62
380.606	83.62
380.831	81.62
381.057	84.62
381.282	91.62
381.507	79.62
381.733	86.62
381.958	93.62
382.184	79.62
382.409	80.62
382.634	81.62
382.86	86.62
383.085	70.62
383.31	89.62
383.535	79.62
383.761	91.62
383.986	95.62
384.211	80.62
384.436	91.62
384.662	87.62
384.887	88.62
385.112	73.62
385.337	81.62
385.562	74.62
385.787	91.62
386.013	81.62
386.238	83.62
386.463	97.62
386.688	79.62
386.913	91.62
387.138	88.62
387.363	76.62
387.588	91.62
387.813	81.62
388.038	90.62
388.263	76.62
388.488	69.62
388.713	69.62
388.938	67.62
389.163	82.62
389.387	75.62
389.612	81.62
389.837	95.62
390.062	71.62
390.287	92.62
390.512	89.62
390.736	84.62
390.961	96.62
391.186	81.62
391.411	87.62
391.636	80.62
391.86	75.62
392.085	83.62
392.31	83.62
392.534	85.62
392.759	75.62
392.984	81.62
393.208	84.62
393.433	79.62
393.658	86.62
393.882	84.62
394.107	87.62
394.331	85.62
394.556	88.62
394.78	85.62
395.005	64.62
395.229	94.62
395.454	81.62
395.678	83.62
395.903	81.62
396.127	82.62
396.352	82.62
396.576	85.62
396.801	66.62
397.025	77.62
397.249	79.62
397.474	84.62
397.698	86.62
397.922	79.62
398.147	80.62
398.371	83.62
398.595	81.62
398.82	86.62
399.044	88.62
399.268	95.62
399.492	85.62
399.717	88.62
399.941	86.62
400.165	72.62
400.389	81.62
400.613	79.62
400.837	85.62
401.062	74.62
401.286	75.62
401.51	84.62
401.734	83.62
401.958	83.62
402.182	90.62
402.406	87.62
402.63	75.62
402.854	72.62
403.078	81.62
403.302	85.62
403.526	91.62
403.75	81.62
403.974	79.62
404.198	72.62
404.422	85.62
404.645	77.62
404.869	88.62
405.093	92.62
405.317	83.62
405.541	69.62
405.765	82.62
405.988	95.62
406.212	84.62
406.436	88.62
406.66	91.62
406.883	86.62
407.107	91.62
407.331	86.62
407.555	81.62
407.778	98.62
408.002	81.62
408.226	85.62
408.449	92.62
408.673	89.62
408.896	88.62
409.12	81.62
409.344	75.62
409.567	86.62
409.791	78.62
410.014	86.62
410.238	67.62
410.461	83.62
410.685	80.62
410.908	81.62
411.132	84.62
411.355	83.62
411.578	69.62
411.802	85.62
412.025	68.62
412.249	81.62
412.472	80.62
412.695	79.62
412.919	79.62
413.142	91.62
413.365	91.62
413.589	76.62
413.812	87.62
414.035	94.62
414.258	85.62
414.482	94.62
414.705	85.62
414.928	88.62
415.151	82.62
415.374	81.62
415.597	87.62
415.821	76.62
416.044	87.62
416.267	75.62
416.49	79.62
416.713	87.62
416.936	85.62
417.159	91.62
417.382	94.62
417.605	83.62
417.828	75.62
418.051	80.62
418.274	92.62
418.497	66.62
418.72	81.62
418.943	80.62
419.166	81.62
419.389	85.62
419.611	76.62
419.834	93.62
420.057	75.62
420.28	76.62
420.503	85.62
420.726	70.62
420.948	69.62
421.171	76.62
421.394	90.62
421.617	88.62
421.839	65.62
422.062	81.62
422.285	93.62
422.507	80.62
422.73	83.62
422.953	59.62
423.175	76.62
423.398	94.62
423.621	90.62
423.843	93.62
424.066	72.62
424.288	76.62
424.511	76.62
424.733	73.62
424.956	89.62
425.178	86.62
425.401	80.62
425.623	83.62
425.846	85.62
426.068	93.62
426.291	99.62
426.513	89.62
426.735	90.62
426.958	69.62
427.18	86.62
427.402	94.62
427.625	96.62
427.847	85.62
428.069	97.62
428.292	85.62
428.514	88.62
428.736	76.62
428.958	69.62
429.181	80.62
429.403	76.62
429.625	92.62
429.847	76.62
430.069	98.62
430.292	99.62
430.514	77.62
430.736	89.62
430.958	80.62
431.18	87.62
431.402	77.62
431.624	83.62
431.846	83.62
432.068	90.62
432.29	82.62
432.512	81.62
432.734	82.62
432.956	70.62
433.178	74.62
433.4	70.62
433.622	66.62
433.844	73.62
434.066	77.62
434.287	93.62
434.509	82.62
434.731	77.62
434.953	86.62
435.175	74.62
435.397	82.62
435.618	64.62
435.84	85.62
436.062	74.62
436.284	83.62
436.505	78.62
436.727	81.62
436.949	88.62
437.17	72.62
437.392	65.62
437.614	70.62
437.835	81.62
438.057	72.62
438.278	87.62
438.5	93.62
438.721	88.62
438.943	95.62
439.165	82.62
439.386	65.62
439.608	81.62
439.829	74.62
440.05	67.62
440.272	79.62
440.493	89.62
440.715	61.62
440.936	86.62
441.158	101.62
441.379	89.62
441.6	73.62
441.822	80.62
442.043	84.62
442.264	88.62
442.486	93.62
442.707	75.62
442.928	69.62
443.149	83.62
443.371	90.62
443.592	74.62
443.813	83.62
444.034	78.62
444.255	89.62
444.476	80.62
444.698	90.62
444.919	79.62
445.14	145.62
445.361	116.62
445.582	83.62
445.803	95.62
446.024	86.62
446.245	90.62
446.466	88.62
446.687	73.62
446.908	68.62
447.129	85.62
447.35	83.62
447.571	79.62
447.792	81.62
448.013	80.62
448.234	84.62
448.455	75.62
448.675	72.62
448.896	85.62
449.117	95.62
449.338	80.62
449.559	79.62
449.779	71.62
450	79.62
450.221	90.62
450.442	86.62
450.662	70.62
450.883	87.62
451.104	75.62
451.324	83.62
451.545	86.62
451.766	69.62
451.986	83.62
452.207	91.62
452.428	86.62
452.648	89.62
452.869	81.62
453.089	92.62
453.31	77.62
453.53	83.62
453.751	89.62
453.971	80.62
454.192	65.62
454.412	83.62
454.633	69.62
454.853	71.62
455.073	92.62
455.294	98.62
455.514	88.62
455.734	92.62
455.955	87.62
456.175	83.62
456.395	70.62
456.616	79.62
456.836	83.62
457.056	97.62
457.276	79.62
457.497	73.62
457.717	79.62
457.937	85.62
458.157	90.62
458.377	79.62
458.598	88.62
458.818	89.62
459.038	79.62
459.258	73.62
459.478	81.62
459.698	90.62
459.918	93.62
460.138	82.62
460.358	74.62
460.578	93.62
460.798	73.62
461.018	77.62
461.238	75.62
461.458	86.62
461.678	85.62
461.898	71.62
462.118	83.62
462.338	75.62
462.558	88.62
462.777	89.62
462.997	74.62
463.217	79.62
463.437	91.62
463.657	75.62
463.876	74.62
464.096	83.62
464.316	81.62
464.536	79.62
464.755	93.62
464.975	68.62
465.195	91.62
465.414	81.62
465.634	88.62
465.854	75.62
466.073	95.62
466.293	83.62
466.512	82.62
466.732	77.62
466.951	79.62
467.171	78.62
467.391	85.62
467.61	82.62
467.829	67.62
468.049	81.62
468.268	75.62
468.488	93.62
468.707	73.62
468.927	81.62
469.146	69.62
469.365	88.62
469.585	78.62
469.804	86.62
470.023	89.62
470.243	103.62
470.462	80.62
470.681	77.62
470.901	77.62
471.12	104.62
471.339	91.62
471.558	81.62
471.777	86.62
471.997	79.62
472.216	87.62
472.435	87.62
472.654	90.62
472.873	73.62
473.092	81.62
473.311	75.62
473.53	86.62
473.749	82.62
473.968	85.62
474.187	86.62
474.406	86.62
474.625	70.62
474.844	83.62
475.063	87.62
475.282	93.62
475.501	80.62
475.72	91.62
475.939	84.62
476.158	79.62
476.377	88.62
476.596	81.62
476.814	73.62
477.033	86.62
477.252	87.62
477.471	80.62
477.69	89.62
477.908	79.62
478.127	87.62
478.346	95.62
478.564	86.62
478.783	73.62
479.002	81.62
479.22	86.62
479.439	96.62
479.658	79.62
479.876	77.62
480.095	78.62
480.313	78.62
480.532	77.62
480.751	72.62
480.969	85.62
481.188	88.62
481.406	65.62
481.624	86.62
481.843	89.62
482.061	74.62
482.28	75.62
482.498	92.62
482.717	79.62
482.935	82.62
483.153	85.62
483.372	78.62
483.59	70.62
483.808	92.62
484.027	104.62
484.245	91.62
484.463	87.62
484.681	75.62
484.9	89.62
485.118	82.62
485.336	86.62
485.554	63.62
485.772	83.62
485.99	76.62
486.209	73.62
486.427	90.62
486.645	81.62
486.863	79.62
487.081	73.62
487.299	77.62
487.517	83.62
487.735	74.62
487.953	76.62
488.171	95.62
488.389	74.62
488.607	91.62
488.825	89.62
489.043	77.62
489.261	89.62
489.479	88.62
489.696	79.62
489.914	87.62
490.132	82.62
490.35	97.62
490.568	82.62
490.786	75.62
491.003	79.62
491.221	84.62
491.439	85.62
491.657	81.62
491.874	84.62
492.092	86.62
492.31	85.62
492.527	83.62
492.745	87.62
492.963	101.62
493.18	81.62
493.398	76.62
493.615	99.62
493.833	81.62
494.05	100.62
494.268	91.62
494.485	81.62
494.703	93.62
494.92	75.62
495.138	85.62
495.355	80.62
495.573	94.62
495.79	97.62
496.008	104.62
496.225	97.62
496.442	84.62
496.66	69.62
496.877	80.62
497.094	89.62
497.312	77.62
497.529	94.62
497.746	85.62
497.963	85.62
498.181	74.62
498.398	87.62
498.615	89.62
498.832	94.62
499.049	83.62
499.267	87.62
499.484	76.62
499.701	73.62
499.918	84.62
500.135	87.62
500.352	88.62
500.569	89.62
500.786	73.62
501.003	79.62
501.22	93.62
501.437	83.62
501.654	93.62
501.871	95.62
502.088	95.62
502.305	83.62
502.522	94.62
502.739	84.62
502.956	82.62
503.172	101.62
503.389	81.62
503.606	79.62
503.823	86.62
504.04	83.62
504.256	86.62
504.473	78.62
504.69	94.62
504.907	83.62
505.123	83.62
505.34	73.62
505.557	74.62
505.773	78.62
505.99	85.62
506.207	90.62
506.423	90.62
506.64	78.62
506.856	89.62
507.073	74.62
507.289	83.62
507.506	91.62
507.722	94.62
507.939	98.62
508.155	88.62
508.372	78.62
508.588	74.62
508.805	84.62
509.021	84.62
509.238	78.62
509.454	74.62
509.67	72.62
509.887	90.62
510.103	85.62
510.319	84.62
510.536	81.62
510.752	93.62
510.968	88.62
511.184	87.62
511.401	66.62
511.617	86.62
511.833	81.62
512.049	87.62
512.265	87.62
512.481	75.62
512.698	89.62
512.914	78.62
513.13	96.62
513.346	82.62
513.562	92.62
513.778	85.62
513.994	75.62
514.21	82.62
514.426	80.62
514.642	82.62
514.858	78.62
515.074	78.62
515.29	77.62
515.506	88.62
515.721	83.62
515.937	67.62
516.153	73.62
516.369	81.62
516.585	75.62
516.801	95.62
517.016	88.62
517.232	77.62
517.448	90.62
517.664	86.62
517.879	88.62
518.095	100.62
518.311	76.62
518.527	87.62
518.742	83.62
518.958	85.62
519.173	98.62
519.389	81.62
519.605	73.62
519.82	78.62
520.036	79.62
520.251	90.62
520.467	77.62
520.682	83.62
520.898	80.62
521.113	86.62
521.329	89.62
521.544	101.62
521.76	93.62
521.975	75.62
522.19	79.62
522.406	87.62
522.621	81.62
522.836	90.62
523.052	81.62
523.267	79.62
523.482	83.62
523.698	75.62
523.913	82.62
524.128	77.62
524.343	77.62
524.559	91.62
524.774	85.62
524.989	91.62
525.204	93.62
525.419	89.62
525.634	88.62
525.849	80.62
526.064	75.62
526.28	90.62
526.495	76.62
526.71	93.62
526.925	86.62
527.14	86.62
527.355	75.62
527.57	75.62
527.785	71.62
527.999	82.62
528.214	83.62
528.429	104.62
528.644	101.62
528.859	83.62
529.074	83.62
529.289	108.62
529.503	99.62
529.718	76.62
529.933	83.62
530.148	91.62
530.363	71.62
530.577	83.62
530.792	77.62
531.007	86.62
531.221	85.62
531.436	75.62
531.651	86.62
531.865	85.62
532.08	81.62
532.295	93.62
532.509	85.62
532.724	87.62
532.938	88.62
533.153	67.62
533.367	87.62
533.582	84.62
533.796	79.62
534.011	88.62
534.225	92.62
534.44	72.62
534.654	92.62
534.868	73.62
535.083	75.62
535.297	88.62
535.511	83.62
535.726	93.62
535.94	81.62
536.154	89.62
536.369	78.62
536.583	95.62
536.797	82.62
537.011	93.62
537.225	95.62
537.44	88.62
537.654	70.62
537.868	75.62
538.082	89.62
538.296	88.62
538.51	96.62
538.724	92.62
538.938	89.62
539.153	85.62
539.367	85.62
539.581	85.62
539.795	91.62
540.009	86.62
540.222	94.62
540.436	87.62
540.65	84.62
540.864	85.62
541.078	87.62
541.292	75.62
541.506	89.62
541.72	96.62
541.934	69.62
542.147	77.62
542.361	77.62
542.575	88.62
542.789	92.62
543.002	87.62
543.216	87.62
543.43	92.62
543.644	91.62
543.857	79.62
544.071	76.62
544.285	101.62
544.498	90.62
544.712	90.62
544.925	94.62
545.139	93.62
545.352	77.62
545.566	93.62
545.779	70.62
545.993	96.62
546.206	98.62
546.42	102.62
546.633	87.62
546.847	84.62
547.06	89.62
547.274	83.62
547.487	66.62
547.7	89.62
547.914	81.62
548.127	83.62
548.34	74.62
548.554	87.62
548.767	90.62
548.98	86.62
549.193	78.62
549.407	87.62
549.62	80.62
549.833	92.62
550.046	85.62
550.259	83.62
550.473	87.62
550.686	102.62
550.899	88.62
551.112	105.62
551.325	83.62
551.538	89.62
551.751	87.62
551.964	75.62
552.177	67.62
552.39	86.62
552.603	87.62
552.816	84.62
553.029	80.62
553.242	93.62
553.455	73.62
553.667	91.62
553.88	98.62
554.093	79.62
554.306	79.62
554.519	91.62
554.732	83.62
554.944	93.62
555.157	85.62
555.37	74.62
555.583	78.62
555.795	74.62
556.008	82.62
556.221	83.62
556.433	80.62
556.646	78.62
556.859	85.62
557.071	97.62
557.284	79.62
557.496	84.62
557.709	90.62
557.921	88.62
558.134	82.62
558.346	89.62
558.559	88.62
558.771	86.62
558.984	87.62
559.196	82.62
559.409	85.62
559.621	68.62
559.833	79.62
560.046	95.62
560.258	91.62
560.47	85.62
560.683	82.62
560.895	84.62
561.107	79.62
561.32	70.62
561.532	80.62
561.744	85.62
561.956	93.62
562.168	96.62
562.381	86.62
562.593	87.62
562.805	84.62
563.017	90.62
563.229	81.62
563.441	89.62
563.653	77.62
563.865	86.62
564.077	81.62
564.289	83.62
564.501	91.62
564.713	88.62
564.925	83.62
565.137	90.62
565.349	104.62
565.561	98.62
565.773	85.62
565.985	90.62
566.197	81.62
566.408	87.62
566.62	91.62
566.832	83.62
567.044	89.62
567.255	85.62
567.467	82.62
567.679	82.62
567.891	74.62
568.102	82.62
568.314	80.62
568.526	88.62
568.737	84.62
568.949	82.62
569.161	81.62
569.372	87.62
569.584	88.62
569.795	82.62
570.007	91.62
570.218	89.62
570.43	93.62
570.641	68.62
570.853	89.62
571.064	79.62
571.276	105.62
571.487	68.62
571.698	81.62
571.91	91.62
572.121	89.62
572.333	90.62
572.544	75.62
572.755	79.62
572.966	71.62
573.178	79.62
573.389	89.62
573.6	85.62
573.811	86.62
574.023	85.62
574.234	87.62
574.445	86.62
574.656	91.62
574.867	89.62
575.078	79.62
575.289	78.62
575.501	90.62
575.712	101.62
575.923	87.62
576.134	77.62
576.345	81.62
576.556	79.62
576.767	90.62
576.978	85.62
577.188	93.62
577.399	88.62
577.61	92.62
577.821	67.62
578.032	78.62
578.243	87.62
578.454	86.62
578.665	98.62
578.875	89.62
579.086	87.62
579.297	81.62
579.508	93.62
579.718	86.62
579.929	86.62
580.14	83.62
580.35	86.62
580.561	84.62
580.772	75.62
580.982	85.62
581.193	81.62
581.403	84.62
581.614	84.62
581.825	75.62
582.035	90.62
582.246	89.62
582.456	90.62
582.667	90.62
582.877	88.62
583.087	90.62
583.298	90.62
583.508	78.62
583.719	89.62
583.929	77.62
584.139	74.62
584.35	69.62
584.56	88.62
584.77	97.62
584.981	85.62
585.191	86.62
585.401	78.62
585.611	84.62
585.821	79.62
586.032	93.62
586.242	72.62
586.452	88.62
586.662	87.62
586.872	86.62
587.082	91.62
587.292	81.62
587.502	92.62
587.713	94.62
587.923	93.62
588.133	73.62
588.343	101.62
588.553	85.62
588.762	86.62
588.972	85.62
589.182	99.62
589.392	98.62
589.602	102.62
589.812	95.62
590.022	96.62
590.232	85.62
590.441	92.62
590.651	90.62
590.861	74.62
591.071	91.62
591.281	81.62
591.49	90.62
591.7	86.62
591.91	92.62
592.119	78.62
592.329	84.62
592.539	74.62
592.748	95.62
592.958	91.62
593.167	82.62
593.377	98.62
593.587	96.62
593.796	99.62
594.006	89.62
594.215	83.62
594.424	73.62
594.634	79.62
594.843	85.62
595.053	88.62
595.262	89.62
595.472	81.62
595.681	86.62
595.89	81.62
596.1	77.62
596.309	96.62
596.518	93.62
596.727	81.62
596.937	75.62
597.146	96.62
597.355	95.62
597.564	81.62
597.774	82.62
597.983	73.62
598.192	65.62
598.401	86.62
598.61	92.62
598.819	89.62
599.028	93.62
599.237	87.62
599.446	80.62
599.655	90.62
599.864	99.62
600.073	102.62
600.282	95.62
600.491	92.62
600.7	88.62
600.909	93.62
601.118	87.62
601.327	93.62
601.536	86.62
601.745	73.62
601.953	91.62
602.162	90.62
602.371	92.62
602.58	79.62
602.789	82.62
602.997	89.62
603.206	90.62
603.415	73.62
603.623	70.62
603.832	75.62
604.041	83.62
604.249	79.62
604.458	93.62
604.666	87.62
604.875	80.62
605.084	94.62
605.292	77.62
605.501	81.62
605.709	85.62
605.918	98.62
606.126	81.62
606.334	91.62
606.543	89.62
606.751	93.62
606.96	94.62
607.168	79.62
607.376	85.62
607.585	80.62
607.793	93.62
608.001	79.62
608.21	94.62
608.418	92.62
608.626	89.62
608.834	81.62
609.043	90.62
609.251	83.62
609.459	81.62
609.667	82.62
609.875	82.62
610.083	86.62
610.291	90.62
610.499	101.62
610.707	97.62
610.916	78.62
611.124	84.62
611.332	82.62
611.54	82.62
611.748	65.62
611.955	73.62
612.163	87.62
612.371	83.62
612.579	76.62
612.787	79.62
612.995	86.62
613.203	78.62
613.411	90.62
613.618	93.62
613.826	89.62
614.034	85.62
614.242	63.62
614.449	86.62
614.657	82.62
614.865	89.62
615.072	83.62
615.28	84.62
615.488	81.62
615.695	91.62
615.903	88.62
616.111	81.62
616.318	91.62
616.526	92.62
616.733	84.62
616.941	90.62
617.148	77.62
617.356	85.62
617.563	84.62
617.771	88.62
617.978	81.62
618.185	88.62
618.393	88.62
618.6	83.62
618.807	85.62
619.015	90.62
619.222	89.62
619.429	88.62
619.637	91.62
619.844	81.62
620.051	95.62
620.258	77.62
620.466	79.62
620.673	78.62
620.88	79.62
621.087	91.62
621.294	89.62
621.501	89.62
621.708	72.62
621.915	93.62
622.122	82.62
622.329	93.62
622.536	93.62
622.743	84.62
622.95	94.62
623.157	94.62
623.364	96.62
623.571	82.62
623.778	90.62
623.985	73.62
624.192	73.62
624.399	81.62
624.606	76.62
624.812	74.62
625.019	68.62
625.226	79.62
625.433	94.62
625.639	93.62
625.846	90.62
626.053	87.62
626.259	78.62
626.466	81.62
626.673	71.62
626.879	84.62
627.086	81.62
627.293	83.62
627.499	81.62
627.706	79.62
627.912	92.62
628.119	85.62
628.325	89.62
628.532	98.62
628.738	89.62
628.945	88.62
629.151	94.62
629.357	71.62
629.564	82.62
629.77	87.62
629.976	80.62
630.183	61.62
630.389	77.62
630.595	83.62
630.802	88.62
631.008	75.62
631.214	93.62
631.42	83.62
631.627	81.62
631.833	73.62
632.039	90.62
632.245	85.62
632.451	95.62
632.657	101.62
632.863	79.62
633.069	71.62
633.275	95.62
633.481	74.62
633.688	101.62
633.893	81.62
634.099	81.62
634.305	91.62
634.511	86.62
634.717	78.62
634.923	91.62
635.129	89.62
635.335	85.62
635.541	89.62
635.747	82.62
635.952	78.62
636.158	79.62
636.364	93.62
636.57	79.62
636.775	86.62
636.981	80.62
637.187	91.62
637.392	92.62
637.598	79.62
637.804	76.62
638.009	95.62
638.215	95.62
638.421	82.62
638.626	75.62
638.832	85.62
639.037	90.62
639.243	85.62
639.448	97.62
639.654	91.62
639.859	87.62
640.065	75.62
640.27	97.62
640.475	87.62
640.681	87.62
640.886	90.62
641.091	93.62
641.297	83.62
641.502	94.62
641.707	86.62
641.913	71.62
642.118	101.62
642.323	88.62
642.528	77.62
642.733	87.62
642.939	94.62
643.144	87.62
643.349	95.62
643.554	95.62
643.759	81.62
643.964	77.62
644.169	74.62
644.374	86.62
644.579	71.62
644.784	88.62
644.989	78.62
645.194	87.62
645.399	83.62
645.604	91.62
645.809	82.62
646.014	77.62
646.219	86.62
646.423	94.62
646.628	76.62
646.833	86.62
647.038	65.62
647.243	73.62
647.447	83.62
647.652	79.62
647.857	100.62
648.062	81.62
648.266	86.62
648.471	85.62
648.676	83.62
648.88	96.62
649.085	74.62
649.289	92.62
649.494	86.62
649.698	97.62
649.903	90.62
650.107	93.62
650.312	105.62
650.516	88.62
650.721	72.62
650.925	72.62
651.13	85.62
651.334	75.62
651.539	93.62
651.743	85.62
651.947	84.62
652.152	88.62
652.356	102.62
652.56	94.62
652.764	82.62
652.969	84.62
653.173	71.62
653.377	96.62
653.581	86.62
653.785	85.62
653.99	99.62
654.194	73.62
654.398	91.62
654.602	94.62
654.806	83.62
655.01	75.62
655.214	88.62
655.418	79.62
655.622	89.62
655.826	81.62
656.03	81.62
656.234	84.62
656.438	79.62
656.642	85.62
656.846	90.62
657.049	84.62
657.253	83.62
657.457	92.62
657.661	88.62
657.865	74.62
658.068	91.62
658.272	81.62
658.476	83.62
658.68	74.62
658.883	73.62
659.087	80.62
659.291	87.62
659.494	94.62
659.698	86.62
659.901	78.62
660.105	88.62
660.309	84.62
660.512	71.62
660.716	83.62
660.919	81.62
661.123	78.62
661.326	72.62
661.53	95.62
661.733	89.62
661.936	69.62
662.14	70.62
662.343	79.62
662.546	69.62
662.75	87.62
662.953	102.62
663.156	94.62
663.36	72.62
663.563	82.62
663.766	77.62
663.969	89.62
664.173	72.62
664.376	77.62
664.579	85.62
664.782	84.62
664.985	84.62
665.188	95.62
665.391	89.62
665.594	75.62
665.797	74.62
666	81.62
666.203	81.62
666.406	90.62
666.609	89.62
666.812	85.62
667.015	89.62
667.218	87.62
667.421	74.62
667.624	76.62
667.827	86.62
668.03	95.62
668.232	98.62
668.435	77.62
668.638	83.62
668.841	73.62
669.043	83.62
669.246	61.62
669.449	90.62
669.651	75.62
669.854	75.62
670.057	88.62
670.259	86.62
670.462	96.62
670.665	93.62
670.867	69.62
671.07	82.62
671.272	82.62
671.475	79.62
671.677	87.62
671.88	82.62
672.082	82.62
672.284	89.62
672.487	82.62
672.689	79.62
672.892	90.62
