Data from Lead_25_3_HRD10591_00055.txt Node
Date: Fri Feb 20 11:03:24 EST 2026
User: Yrep
Spectrometer: HR+D1059
Trigger mode: 1
Integration Time (sec): 1.000000E-1
Scans to average: 1
Electric dark correction enabled: true
Nonlinearity correction enabled: false
Boxcar width: 0
XAxis mode: Wavelengths
Number of Pixels in Spectrum: 2048
>>>>>Begin Spectral Data<<<<<
223.165	-36.44
223.4	-36.44
223.635	-36.44
223.869	-1.44
224.104	-25.44
224.338	-33.44
224.573	-0.44
224.808	-5.44
225.042	-0.44
225.277	-9.44
225.511	13.56
225.746	2.56
225.98	6.56
226.215	7.56
226.449	11.56
226.683	19.56
226.918	25.56
227.152	25.56
227.387	34.56
227.621	54.56
227.856	50.56
228.09	49.56
228.324	52.56
228.559	68.56
228.793	57.56
229.027	66.56
229.262	67.56
229.496	63.56
229.73	77.56
229.964	75.56
230.199	68.56
230.433	75.56
230.667	70.56
230.901	79.56
231.136	78.56
231.37	85.56
231.604	74.56
231.838	99.56
232.072	74.56
232.306	81.56
232.541	81.56
232.775	94.56
233.009	78.56
233.243	86.56
233.477	95.56
233.711	91.56
233.945	81.56
234.179	74.56
234.413	78.56
234.647	59.56
234.881	65.56
235.115	74.56
235.349	73.56
235.583	88.56
235.817	64.56
236.051	83.56
236.285	82.56
236.519	79.56
236.753	84.56
236.987	68.56
237.221	67.56
237.455	84.56
237.689	82.56
237.922	80.56
238.156	76.56
238.39	70.56
238.624	67.56
238.858	79.56
239.091	71.56
239.325	71.56
239.559	78.56
239.793	86.56
240.027	86.56
240.26	76.56
240.494	94.56
240.728	77.56
240.961	67.56
241.195	64.56
241.429	81.56
241.662	70.56
241.896	77.56
242.13	85.56
242.363	68.56
242.597	64.56
242.83	74.56
243.064	87.56
243.298	71.56
243.531	88.56
243.765	78.56
243.998	76.56
244.232	86.56
244.465	89.56
244.699	76.56
244.932	68.56
245.166	88.56
245.399	78.56
245.633	76.56
245.866	69.56
246.099	75.56
246.333	86.56
246.566	72.56
246.8	75.56
247.033	79.56
247.266	68.56
247.5	81.56
247.733	70.56
247.966	68.56
248.2	81.56
248.433	84.56
248.666	60.56
248.899	77.56
249.133	86.56
249.366	97.56
249.599	93.56
249.832	81.56
250.066	82.56
250.299	71.56
250.532	84.56
250.765	86.56
250.998	72.56
251.231	79.56
251.465	88.56
251.698	69.56
251.931	70.56
252.164	74.56
252.397	71.56
252.63	89.56
252.863	80.56
253.096	83.56
253.329	97.56
253.562	66.56
253.795	70.56
254.028	85.56
254.261	78.56
254.494	89.56
254.727	73.56
254.96	80.56
255.193	71.56
255.426	80.56
255.659	82.56
255.892	98.56
256.124	75.56
256.357	83.56
256.59	74.56
256.823	72.56
257.056	71.56
257.289	73.56
257.521	90.56
257.754	75.56
257.987	74.56
258.22	90.56
258.452	81.56
258.685	86.56
258.918	83.56
259.151	79.56
259.383	79.56
259.616	75.56
259.849	68.56
260.081	96.56
260.314	82.56
260.547	72.56
260.779	72.56
261.012	72.56
261.244	97.56
261.477	104.56
261.71	80.56
261.942	74.56
262.175	74.56
262.407	75.56
262.64	83.56
262.872	86.56
263.105	82.56
263.337	74.56
263.57	78.56
263.802	90.56
264.035	94.56
264.267	76.56
264.499	78.56
264.732	74.56
264.964	84.56
265.197	76.56
265.429	95.56
265.661	82.56
265.894	88.56
266.126	82.56
266.358	75.56
266.591	90.56
266.823	80.56
267.055	60.56
267.287	77.56
267.52	81.56
267.752	69.56
267.984	87.56
268.216	94.56
268.448	91.56
268.681	82.56
268.913	72.56
269.145	73.56
269.377	86.56
269.609	79.56
269.841	88.56
270.073	87.56
270.306	87.56
270.538	83.56
270.77	92.56
271.002	99.56
271.234	91.56
271.466	94.56
271.698	81.56
271.93	80.56
272.162	77.56
272.394	79.56
272.626	75.56
272.858	89.56
273.09	75.56
273.322	88.56
273.553	80.56
273.785	87.56
274.017	85.56
274.249	89.56
274.481	71.56
274.713	84.56
274.945	86.56
275.176	74.56
275.408	82.56
275.64	84.56
275.872	86.56
276.104	90.56
276.335	74.56
276.567	100.56
276.799	79.56
277.031	82.56
277.262	85.56
277.494	94.56
277.726	74.56
277.957	84.56
278.189	93.56
278.421	76.56
278.652	75.56
278.884	86.56
279.115	90.56
279.347	95.56
279.579	91.56
279.81	96.56
280.042	88.56
280.273	91.56
280.505	89.56
280.736	82.56
280.968	84.56
281.199	97.56
281.431	96.56
281.662	88.56
281.894	85.56
282.125	80.56
282.356	96.56
282.588	80.56
282.819	73.56
283.051	83.56
283.282	74.56
283.513	90.56
283.745	77.56
283.976	80.56
284.207	93.56
284.439	110.56
284.67	98.56
284.901	94.56
285.132	90.56
285.364	98.56
285.595	84.56
285.826	90.56
286.057	82.56
286.288	78.56
286.52	82.56
286.751	83.56
286.982	83.56
287.213	81.56
287.444	83.56
287.675	86.56
287.906	84.56
288.138	86.56
288.369	76.56
288.6	95.56
288.831	80.56
289.062	76.56
289.293	80.56
289.524	85.56
289.755	75.56
289.986	71.56
290.217	86.56
290.448	85.56
290.679	85.56
290.91	82.56
291.141	89.56
291.371	90.56
291.602	88.56
291.833	84.56
292.064	75.56
292.295	88.56
292.526	75.56
292.757	81.56
292.987	76.56
293.218	88.56
293.449	89.56
293.68	91.56
293.91	90.56
294.141	97.56
294.372	75.56
294.603	72.56
294.833	77.56
295.064	74.56
295.295	80.56
295.525	92.56
295.756	93.56
295.987	99.56
296.217	83.56
296.448	73.56
296.679	83.56
296.909	82.56
297.14	81.56
297.37	107.56
297.601	88.56
297.831	81.56
298.062	96.56
298.292	84.56
298.523	85.56
298.753	88.56
298.984	88.56
299.214	87.56
299.445	78.56
299.675	87.56
299.905	83.56
300.136	82.56
300.366	71.56
300.597	70.56
300.827	85.56
301.057	81.56
301.288	96.56
301.518	92.56
301.748	77.56
301.979	94.56
302.209	88.56
302.439	83.56
302.669	94.56
302.9	90.56
303.13	78.56
303.36	84.56
303.59	75.56
303.82	84.56
304.051	80.56
304.281	81.56
304.511	94.56
304.741	81.56
304.971	90.56
305.201	67.56
305.431	96.56
305.661	92.56
305.891	87.56
306.121	87.56
306.352	96.56
306.582	85.56
306.812	78.56
307.042	84.56
307.272	93.56
307.502	94.56
307.731	70.56
307.961	81.56
308.191	84.56
308.421	83.56
308.651	77.56
308.881	80.56
309.111	92.56
309.341	77.56
309.571	75.56
309.8	81.56
310.03	94.56
310.26	91.56
310.49	86.56
310.72	94.56
310.949	90.56
311.179	101.56
311.409	84.56
311.639	82.56
311.868	80.56
312.098	78.56
312.328	92.56
312.557	92.56
312.787	85.56
313.017	82.56
313.246	86.56
313.476	84.56
313.706	80.56
313.935	84.56
314.165	90.56
314.394	90.56
314.624	89.56
314.853	100.56
315.083	75.56
315.312	105.56
315.542	74.56
315.771	83.56
316.001	88.56
316.23	73.56
316.46	108.56
316.689	83.56
316.919	99.56
317.148	83.56
317.377	88.56
317.607	80.56
317.836	96.56
318.065	89.56
318.295	89.56
318.524	87.56
318.753	87.56
318.983	82.56
319.212	107.56
319.441	86.56
319.67	82.56
319.9	84.56
320.129	81.56
320.358	84.56
320.587	91.56
320.816	102.56
321.046	88.56
321.275	86.56
321.504	76.56
321.733	87.56
321.962	78.56
322.191	82.56
322.42	73.56
322.649	81.56
322.878	86.56
323.108	76.56
323.337	82.56
323.566	71.56
323.795	85.56
324.024	80.56
324.253	85.56
324.482	84.56
324.71	97.56
324.939	89.56
325.168	80.56
325.397	89.56
325.626	78.56
325.855	76.56
326.084	87.56
326.313	86.56
326.542	83.56
326.77	84.56
326.999	88.56
327.228	96.56
327.457	83.56
327.686	83.56
327.914	93.56
328.143	76.56
328.372	84.56
328.6	88.56
328.829	103.56
329.058	76.56
329.287	72.56
329.515	87.56
329.744	89.56
329.972	89.56
330.201	87.56
330.43	85.56
330.658	84.56
330.887	78.56
331.115	68.56
331.344	84.56
331.572	97.56
331.801	78.56
332.03	90.56
332.258	87.56
332.486	83.56
332.715	91.56
332.943	76.56
333.172	90.56
333.4	85.56
333.629	102.56
333.857	83.56
334.085	75.56
334.314	81.56
334.542	94.56
334.771	78.56
334.999	90.56
335.227	96.56
335.455	102.56
335.684	84.56
335.912	80.56
336.14	93.56
336.369	87.56
336.597	84.56
336.825	87.56
337.053	85.56
337.281	85.56
337.51	75.56
337.738	77.56
337.966	97.56
338.194	73.56
338.422	102.56
338.65	89.56
338.878	86.56
339.106	87.56
339.334	93.56
339.562	70.56
339.79	100.56
340.018	90.56
340.246	72.56
340.474	75.56
340.702	98.56
340.93	77.56
341.158	79.56
341.386	92.56
341.614	93.56
341.842	82.56
342.07	85.56
342.298	102.56
342.526	94.56
342.754	87.56
342.981	92.56
343.209	88.56
343.437	105.56
343.665	84.56
343.893	84.56
344.12	76.56
344.348	71.56
344.576	88.56
344.804	84.56
345.031	70.56
345.259	70.56
345.487	79.56
345.714	86.56
345.942	96.56
346.17	97.56
346.397	81.56
346.625	85.56
346.853	82.56
347.08	79.56
347.308	84.56
347.535	88.56
347.763	86.56
347.99	83.56
348.218	82.56
348.445	77.56
348.673	99.56
348.9	88.56
349.128	84.56
349.355	77.56
349.583	70.56
349.81	90.56
350.037	78.56
350.265	77.56
350.492	82.56
350.72	83.56
350.947	68.56
351.174	64.56
351.402	80.56
351.629	84.56
351.856	77.56
352.083	88.56
352.311	83.56
352.538	74.56
352.765	76.56
352.992	87.56
353.22	76.56
353.447	85.56
353.674	88.56
353.901	92.56
354.128	88.56
354.355	73.56
354.583	88.56
354.81	90.56
355.037	84.56
355.264	83.56
355.491	88.56
355.718	80.56
355.945	89.56
356.172	96.56
356.399	98.56
356.626	83.56
356.853	94.56
357.08	93.56
357.307	106.56
357.534	94.56
357.761	77.56
357.988	89.56
358.215	77.56
358.441	83.56
358.668	77.56
358.895	89.56
359.122	74.56
359.349	81.56
359.576	81.56
359.802	74.56
360.029	76.56
360.256	88.56
360.483	87.56
360.709	83.56
360.936	96.56
361.163	81.56
361.39	94.56
361.616	91.56
361.843	74.56
362.07	92.56
362.296	88.56
362.523	82.56
362.749	88.56
362.976	85.56
363.203	96.56
363.429	90.56
363.656	87.56
363.882	99.56
364.109	111.56
364.335	84.56
364.562	79.56
364.788	83.56
365.015	93.56
365.241	74.56
365.468	86.56
365.694	89.56
365.92	85.56
366.147	77.56
366.373	94.56
366.599	81.56
366.826	83.56
367.052	87.56
367.278	73.56
367.505	76.56
367.731	95.56
367.957	92.56
368.184	99.56
368.41	97.56
368.636	100.56
368.862	95.56
369.089	92.56
369.315	88.56
369.541	82.56
369.767	83.56
369.993	82.56
370.219	79.56
370.445	88.56
370.672	85.56
370.898	76.56
371.124	82.56
371.35	80.56
371.576	72.56
371.802	85.56
372.028	80.56
372.254	74.56
372.48	80.56
372.706	86.56
372.932	91.56
373.158	89.56
373.384	102.56
373.61	81.56
373.835	90.56
374.061	82.56
374.287	90.56
374.513	84.56
374.739	80.56
374.965	77.56
375.191	73.56
375.416	78.56
375.642	70.56
375.868	87.56
376.094	73.56
376.319	84.56
376.545	91.56
376.771	91.56
376.997	86.56
377.222	97.56
377.448	91.56
377.674	86.56
377.899	77.56
378.125	88.56
378.35	90.56
378.576	89.56
378.802	95.56
379.027	93.56
379.253	79.56
379.478	92.56
379.704	83.56
379.929	78.56
380.155	81.56
380.38	77.56
380.606	88.56
380.831	87.56
381.057	96.56
381.282	78.56
381.507	67.56
381.733	83.56
381.958	71.56
382.184	82.56
382.409	85.56
382.634	80.56
382.86	84.56
383.085	79.56
383.31	77.56
383.535	92.56
383.761	86.56
383.986	72.56
384.211	79.56
384.436	97.56
384.662	80.56
384.887	75.56
385.112	80.56
385.337	98.56
385.562	92.56
385.787	91.56
386.013	88.56
386.238	76.56
386.463	81.56
386.688	88.56
386.913	87.56
387.138	96.56
387.363	73.56
387.588	80.56
387.813	82.56
388.038	84.56
388.263	90.56
388.488	84.56
388.713	84.56
388.938	86.56
389.163	89.56
389.387	75.56
389.612	77.56
389.837	86.56
390.062	94.56
390.287	81.56
390.512	77.56
390.736	77.56
390.961	94.56
391.186	84.56
391.411	75.56
391.636	85.56
391.86	76.56
392.085	89.56
392.31	79.56
392.534	68.56
392.759	74.56
392.984	80.56
393.208	87.56
393.433	71.56
393.658	92.56
393.882	82.56
394.107	76.56
394.331	68.56
394.556	81.56
394.78	73.56
395.005	89.56
395.229	88.56
395.454	90.56
395.678	83.56
395.903	79.56
396.127	71.56
396.352	78.56
396.576	90.56
396.801	84.56
397.025	87.56
397.249	82.56
397.474	90.56
397.698	92.56
397.922	87.56
398.147	68.56
398.371	84.56
398.595	90.56
398.82	92.56
399.044	93.56
399.268	98.56
399.492	86.56
399.717	83.56
399.941	90.56
400.165	94.56
400.389	76.56
400.613	64.56
400.837	82.56
401.062	82.56
401.286	88.56
401.51	80.56
401.734	83.56
401.958	89.56
402.182	80.56
402.406	87.56
402.63	74.56
402.854	81.56
403.078	77.56
403.302	82.56
403.526	87.56
403.75	80.56
403.974	79.56
404.198	92.56
404.422	86.56
404.645	87.56
404.869	89.56
405.093	87.56
405.317	86.56
405.541	96.56
405.765	122.56
405.988	120.56
406.212	91.56
406.436	91.56
406.66	80.56
406.883	89.56
407.107	73.56
407.331	74.56
407.555	74.56
407.778	72.56
408.002	71.56
408.226	80.56
408.449	92.56
408.673	83.56
408.896	84.56
409.12	102.56
409.344	81.56
409.567	68.56
409.791	88.56
410.014	73.56
410.238	72.56
410.461	80.56
410.685	85.56
410.908	87.56
411.132	97.56
411.355	88.56
411.578	94.56
411.802	84.56
412.025	81.56
412.249	85.56
412.472	84.56
412.695	78.56
412.919	82.56
413.142	87.56
413.365	95.56
413.589	83.56
413.812	82.56
414.035	79.56
414.258	86.56
414.482	86.56
414.705	85.56
414.928	72.56
415.151	90.56
415.374	91.56
415.597	72.56
415.821	73.56
416.044	86.56
416.267	86.56
416.49	75.56
416.713	77.56
416.936	82.56
417.159	71.56
417.382	84.56
417.605	89.56
417.828	84.56
418.051	62.56
418.274	72.56
418.497	80.56
418.72	83.56
418.943	84.56
419.166	79.56
419.389	90.56
419.611	80.56
419.834	71.56
420.057	86.56
420.28	80.56
420.503	95.56
420.726	110.56
420.948	73.56
421.171	83.56
421.394	68.56
421.617	84.56
421.839	92.56
422.062	78.56
422.285	75.56
422.507	82.56
422.73	84.56
422.953	72.56
423.175	66.56
423.398	74.56
423.621	86.56
423.843	83.56
424.066	90.56
424.288	74.56
424.511	84.56
424.733	79.56
424.956	92.56
425.178	72.56
425.401	77.56
425.623	76.56
425.846	73.56
426.068	89.56
426.291	79.56
426.513	79.56
426.735	87.56
426.958	80.56
427.18	84.56
427.402	85.56
427.625	81.56
427.847	79.56
428.069	87.56
428.292	84.56
428.514	76.56
428.736	78.56
428.958	90.56
429.181	91.56
429.403	89.56
429.625	85.56
429.847	76.56
430.069	82.56
430.292	69.56
430.514	74.56
430.736	80.56
430.958	93.56
431.18	71.56
431.402	91.56
431.624	93.56
431.846	75.56
432.068	98.56
432.29	79.56
432.512	75.56
432.734	75.56
432.956	70.56
433.178	86.56
433.4	98.56
433.622	84.56
433.844	92.56
434.066	76.56
434.287	74.56
434.509	82.56
434.731	86.56
434.953	89.56
435.175	79.56
435.397	82.56
435.618	86.56
435.84	74.56
436.062	88.56
436.284	86.56
436.505	84.56
436.727	59.56
436.949	76.56
437.17	85.56
437.392	91.56
437.614	76.56
437.835	86.56
438.057	67.56
438.278	79.56
438.5	80.56
438.721	79.56
438.943	80.56
439.165	90.56
439.386	84.56
439.608	91.56
439.829	88.56
440.05	90.56
440.272	94.56
440.493	72.56
440.715	78.56
440.936	87.56
441.158	84.56
441.379	83.56
441.6	94.56
441.822	82.56
442.043	80.56
442.264	78.56
442.486	82.56
442.707	69.56
442.928	83.56
443.149	87.56
443.371	94.56
443.592	76.56
443.813	75.56
444.034	91.56
444.255	106.56
444.476	78.56
444.698	66.56
444.919	91.56
445.14	160.56
445.361	124.56
445.582	86.56
445.803	88.56
446.024	53.56
446.245	96.56
446.466	76.56
446.687	73.56
446.908	80.56
447.129	72.56
447.35	75.56
447.571	83.56
447.792	86.56
448.013	98.56
448.234	79.56
448.455	75.56
448.675	82.56
448.896	84.56
449.117	74.56
449.338	76.56
449.559	100.56
449.779	83.56
450	81.56
450.221	89.56
450.442	79.56
450.662	80.56
450.883	74.56
451.104	89.56
451.324	92.56
451.545	89.56
451.766	88.56
451.986	91.56
452.207	88.56
452.428	76.56
452.648	79.56
452.869	70.56
453.089	81.56
453.31	98.56
453.53	85.56
453.751	89.56
453.971	84.56
454.192	83.56
454.412	74.56
454.633	82.56
454.853	65.56
455.073	65.56
455.294	82.56
455.514	91.56
455.734	82.56
455.955	86.56
456.175	90.56
456.395	94.56
456.616	88.56
456.836	84.56
457.056	74.56
457.276	86.56
457.497	91.56
457.717	92.56
457.937	76.56
458.157	90.56
458.377	73.56
458.598	62.56
458.818	80.56
459.038	70.56
459.258	71.56
459.478	78.56
459.698	74.56
459.918	70.56
460.138	73.56
460.358	83.56
460.578	74.56
460.798	77.56
461.018	86.56
461.238	84.56
461.458	88.56
461.678	75.56
461.898	78.56
462.118	84.56
462.338	75.56
462.558	82.56
462.777	88.56
462.997	84.56
463.217	77.56
463.437	84.56
463.657	92.56
463.876	75.56
464.096	68.56
464.316	80.56
464.536	78.56
464.755	89.56
464.975	76.56
465.195	84.56
465.414	89.56
465.634	84.56
465.854	73.56
466.073	89.56
466.293	81.56
466.512	80.56
466.732	86.56
466.951	87.56
467.171	71.56
467.391	69.56
467.61	74.56
467.829	82.56
468.049	80.56
468.268	89.56
468.488	71.56
468.707	77.56
468.927	86.56
469.146	75.56
469.365	76.56
469.585	87.56
469.804	86.56
470.023	82.56
470.243	94.56
470.462	82.56
470.681	85.56
470.901	81.56
471.12	92.56
471.339	83.56
471.558	81.56
471.777	97.56
471.997	79.56
472.216	75.56
472.435	80.56
472.654	94.56
472.873	76.56
473.092	94.56
473.311	84.56
473.53	87.56
473.749	87.56
473.968	107.56
474.187	94.56
474.406	80.56
474.625	91.56
474.844	76.56
475.063	85.56
475.282	79.56
475.501	74.56
475.72	97.56
475.939	70.56
476.158	82.56
476.377	79.56
476.596	80.56
476.814	80.56
477.033	81.56
477.252	82.56
477.471	75.56
477.69	81.56
477.908	73.56
478.127	101.56
478.346	98.56
478.564	92.56
478.783	82.56
479.002	86.56
479.22	77.56
479.439	91.56
479.658	84.56
479.876	66.56
480.095	81.56
480.313	89.56
480.532	71.56
480.751	97.56
480.969	83.56
481.188	66.56
481.406	91.56
481.624	76.56
481.843	88.56
482.061	77.56
482.28	87.56
482.498	83.56
482.717	91.56
482.935	77.56
483.153	78.56
483.372	90.56
483.59	91.56
483.808	91.56
484.027	89.56
484.245	86.56
484.463	87.56
484.681	99.56
484.9	79.56
485.118	99.56
485.336	71.56
485.554	79.56
485.772	78.56
485.99	85.56
486.209	77.56
486.427	71.56
486.645	76.56
486.863	97.56
487.081	87.56
487.299	83.56
487.517	87.56
487.735	77.56
487.953	80.56
488.171	96.56
488.389	86.56
488.607	77.56
488.825	70.56
489.043	76.56
489.261	96.56
489.479	84.56
489.696	87.56
489.914	78.56
490.132	82.56
490.35	88.56
490.568	94.56
490.786	79.56
491.003	96.56
491.221	98.56
491.439	83.56
491.657	81.56
491.874	88.56
492.092	80.56
492.31	86.56
492.527	94.56
492.745	78.56
492.963	75.56
493.18	86.56
493.398	90.56
493.615	92.56
493.833	87.56
494.05	82.56
494.268	88.56
494.485	77.56
494.703	89.56
494.92	82.56
495.138	74.56
495.355	99.56
495.573	95.56
495.79	70.56
496.008	76.56
496.225	88.56
496.442	102.56
496.66	81.56
496.877	91.56
497.094	85.56
497.312	86.56
497.529	85.56
497.746	89.56
497.963	91.56
498.181	75.56
498.398	88.56
498.615	81.56
498.832	88.56
499.049	96.56
499.267	86.56
499.484	82.56
499.701	102.56
499.918	94.56
500.135	95.56
500.352	95.56
500.569	68.56
500.786	90.56
501.003	80.56
501.22	84.56
501.437	81.56
501.654	82.56
501.871	82.56
502.088	75.56
502.305	94.56
502.522	84.56
502.739	88.56
502.956	77.56
503.172	96.56
503.389	76.56
503.606	91.56
503.823	89.56
504.04	82.56
504.256	87.56
504.473	84.56
504.69	84.56
504.907	93.56
505.123	90.56
505.34	92.56
505.557	84.56
505.773	72.56
505.99	77.56
506.207	80.56
506.423	90.56
506.64	75.56
506.856	74.56
507.073	88.56
507.289	90.56
507.506	81.56
507.722	93.56
507.939	97.56
508.155	75.56
508.372	83.56
508.588	90.56
508.805	91.56
509.021	85.56
509.238	73.56
509.454	95.56
509.67	80.56
509.887	75.56
510.103	86.56
510.319	77.56
510.536	82.56
510.752	69.56
510.968	71.56
511.184	67.56
511.401	76.56
511.617	86.56
511.833	80.56
512.049	98.56
512.265	89.56
512.481	93.56
512.698	84.56
512.914	86.56
513.13	85.56
513.346	87.56
513.562	82.56
513.778	82.56
513.994	84.56
514.21	81.56
514.426	88.56
514.642	95.56
514.858	87.56
515.074	88.56
515.29	89.56
515.506	90.56
515.721	82.56
515.937	78.56
516.153	87.56
516.369	90.56
516.585	88.56
516.801	95.56
517.016	81.56
517.232	84.56
517.448	85.56
517.664	83.56
517.879	91.56
518.095	91.56
518.311	75.56
518.527	90.56
518.742	71.56
518.958	90.56
519.173	79.56
519.389	93.56
519.605	90.56
519.82	92.56
520.036	83.56
520.251	86.56
520.467	89.56
520.682	95.56
520.898	98.56
521.113	97.56
521.329	83.56
521.544	82.56
521.76	82.56
521.975	82.56
522.19	79.56
522.406	84.56
522.621	94.56
522.836	81.56
523.052	101.56
523.267	81.56
523.482	83.56
523.698	89.56
523.913	92.56
524.128	84.56
524.343	76.56
524.559	82.56
524.774	74.56
524.989	88.56
525.204	76.56
525.419	86.56
525.634	90.56
525.849	90.56
526.064	101.56
526.28	81.56
526.495	87.56
526.71	78.56
526.925	84.56
527.14	81.56
527.355	83.56
527.57	83.56
527.785	92.56
527.999	87.56
528.214	94.56
528.429	72.56
528.644	83.56
528.859	80.56
529.074	84.56
529.289	92.56
529.503	82.56
529.718	79.56
529.933	89.56
530.148	82.56
530.363	84.56
530.577	88.56
530.792	91.56
531.007	86.56
531.221	97.56
531.436	78.56
531.651	75.56
531.865	84.56
532.08	81.56
532.295	91.56
532.509	99.56
532.724	90.56
532.938	78.56
533.153	98.56
533.367	85.56
533.582	87.56
533.796	82.56
534.011	82.56
534.225	77.56
534.44	79.56
534.654	98.56
534.868	88.56
535.083	101.56
535.297	91.56
535.511	84.56
535.726	63.56
535.94	73.56
536.154	85.56
536.369	80.56
536.583	99.56
536.797	83.56
537.011	87.56
537.225	84.56
537.44	93.56
537.654	90.56
537.868	76.56
538.082	88.56
538.296	83.56
538.51	73.56
538.724	82.56
538.938	88.56
539.153	96.56
539.367	79.56
539.581	75.56
539.795	82.56
540.009	84.56
540.222	87.56
540.436	90.56
540.65	84.56
540.864	88.56
541.078	79.56
541.292	91.56
541.506	98.56
541.72	73.56
541.934	74.56
542.147	85.56
542.361	90.56
542.575	88.56
542.789	91.56
543.002	99.56
543.216	94.56
543.43	83.56
543.644	88.56
543.857	76.56
544.071	92.56
544.285	92.56
544.498	82.56
544.712	97.56
544.925	91.56
545.139	87.56
545.352	84.56
545.566	78.56
545.779	80.56
545.993	76.56
546.206	82.56
546.42	90.56
546.633	79.56
546.847	96.56
547.06	86.56
547.274	89.56
547.487	97.56
547.7	84.56
547.914	80.56
548.127	87.56
548.34	83.56
548.554	75.56
548.767	88.56
548.98	72.56
549.193	95.56
549.407	78.56
549.62	81.56
549.833	82.56
550.046	92.56
550.259	79.56
550.473	84.56
550.686	98.56
550.899	93.56
551.112	94.56
551.325	83.56
551.538	88.56
551.751	87.56
551.964	76.56
552.177	95.56
552.39	99.56
552.603	91.56
552.816	84.56
553.029	81.56
553.242	91.56
553.455	94.56
553.667	86.56
553.88	100.56
554.093	85.56
554.306	77.56
554.519	76.56
554.732	82.56
554.944	87.56
555.157	97.56
555.37	93.56
555.583	80.56
555.795	83.56
556.008	78.56
556.221	102.56
556.433	86.56
556.646	80.56
556.859	85.56
557.071	88.56
557.284	82.56
557.496	89.56
557.709	75.56
557.921	85.56
558.134	98.56
558.346	86.56
558.559	78.56
558.771	89.56
558.984	91.56
559.196	83.56
559.409	85.56
559.621	85.56
559.833	78.56
560.046	89.56
560.258	93.56
560.47	90.56
560.683	83.56
560.895	88.56
561.107	90.56
561.32	90.56
561.532	79.56
561.744	87.56
561.956	76.56
562.168	69.56
562.381	99.56
562.593	96.56
562.805	93.56
563.017	90.56
563.229	86.56
563.441	75.56
563.653	78.56
563.865	97.56
564.077	90.56
564.289	89.56
564.501	92.56
564.713	94.56
564.925	87.56
565.137	86.56
565.349	89.56
565.561	90.56
565.773	80.56
565.985	92.56
566.197	80.56
566.408	74.56
566.62	82.56
566.832	97.56
567.044	90.56
567.255	88.56
567.467	88.56
567.679	89.56
567.891	99.56
568.102	88.56
568.314	96.56
568.526	78.56
568.737	103.56
568.949	77.56
569.161	103.56
569.372	64.56
569.584	72.56
569.795	86.56
570.007	76.56
570.218	83.56
570.43	84.56
570.641	105.56
570.853	72.56
571.064	82.56
571.276	86.56
571.487	85.56
571.698	79.56
571.91	80.56
572.121	87.56
572.333	83.56
572.544	94.56
572.755	88.56
572.966	89.56
573.178	75.56
573.389	83.56
573.6	94.56
573.811	83.56
574.023	80.56
574.234	89.56
574.445	78.56
574.656	76.56
574.867	78.56
575.078	91.56
575.289	73.56
575.501	84.56
575.712	96.56
575.923	84.56
576.134	95.56
576.345	91.56
576.556	83.56
576.767	96.56
576.978	95.56
577.188	88.56
577.399	86.56
577.61	87.56
577.821	88.56
578.032	88.56
578.243	87.56
578.454	94.56
578.665	72.56
578.875	71.56
579.086	93.56
579.297	87.56
579.508	84.56
579.718	92.56
579.929	82.56
580.14	88.56
580.35	88.56
580.561	110.56
580.772	80.56
580.982	85.56
581.193	103.56
581.403	83.56
581.614	88.56
581.825	90.56
582.035	80.56
582.246	82.56
582.456	89.56
582.667	87.56
582.877	82.56
583.087	89.56
583.298	86.56
583.508	77.56
583.719	98.56
583.929	98.56
584.139	87.56
584.35	76.56
584.56	88.56
584.77	74.56
584.981	76.56
585.191	90.56
585.401	99.56
585.611	85.56
585.821	79.56
586.032	77.56
586.242	89.56
586.452	82.56
586.662	82.56
586.872	100.56
587.082	90.56
587.292	88.56
587.502	97.56
587.713	87.56
587.923	90.56
588.133	93.56
588.343	88.56
588.553	72.56
588.762	105.56
588.972	97.56
589.182	116.56
589.392	100.56
589.602	100.56
589.812	112.56
590.022	102.56
590.232	88.56
590.441	93.56
590.651	83.56
590.861	88.56
591.071	87.56
591.281	72.56
591.49	98.56
591.7	83.56
591.91	89.56
592.119	91.56
592.329	68.56
592.539	84.56
592.748	93.56
592.958	84.56
593.167	94.56
593.377	99.56
593.587	90.56
593.796	91.56
594.006	86.56
594.215	75.56
594.424	76.56
594.634	82.56
594.843	84.56
595.053	73.56
595.262	86.56
595.472	91.56
595.681	99.56
595.89	88.56
596.1	77.56
596.309	89.56
596.518	85.56
596.727	97.56
596.937	86.56
597.146	78.56
597.355	93.56
597.564	84.56
597.774	96.56
597.983	92.56
598.192	89.56
598.401	83.56
598.61	92.56
598.819	90.56
599.028	97.56
599.237	94.56
599.446	77.56
599.655	93.56
599.864	96.56
600.073	95.56
600.282	80.56
600.491	80.56
600.7	89.56
600.909	86.56
601.118	81.56
601.327	74.56
601.536	90.56
601.745	76.56
601.953	97.56
602.162	80.56
602.371	77.56
602.58	76.56
602.789	78.56
602.997	86.56
603.206	95.56
603.415	86.56
603.623	82.56
603.832	78.56
604.041	89.56
604.249	93.56
604.458	110.56
604.666	78.56
604.875	92.56
605.084	67.56
605.292	75.56
605.501	75.56
605.709	89.56
605.918	79.56
606.126	84.56
606.334	92.56
606.543	96.56
606.751	100.56
606.96	119.56
607.168	87.56
607.376	72.56
607.585	102.56
607.793	97.56
608.001	70.56
608.21	91.56
608.418	82.56
608.626	91.56
608.834	81.56
609.043	94.56
609.251	90.56
609.459	85.56
609.667	98.56
609.875	103.56
610.083	76.56
610.291	74.56
610.499	83.56
610.707	90.56
610.916	90.56
611.124	86.56
611.332	90.56
611.54	76.56
611.748	91.56
611.955	89.56
612.163	89.56
612.371	78.56
612.579	79.56
612.787	80.56
612.995	77.56
613.203	94.56
613.411	79.56
613.618	99.56
613.826	86.56
614.034	94.56
614.242	96.56
614.449	95.56
614.657	82.56
614.865	81.56
615.072	95.56
615.28	97.56
615.488	94.56
615.695	94.56
615.903	85.56
616.111	83.56
616.318	98.56
616.526	91.56
616.733	88.56
616.941	93.56
617.148	72.56
617.356	86.56
617.563	98.56
617.771	81.56
617.978	82.56
618.185	83.56
618.393	93.56
618.6	74.56
618.807	79.56
619.015	79.56
619.222	82.56
619.429	89.56
619.637	87.56
619.844	103.56
620.051	88.56
620.258	83.56
620.466	87.56
620.673	104.56
620.88	72.56
621.087	82.56
621.294	82.56
621.501	94.56
621.708	95.56
621.915	80.56
622.122	87.56
622.329	91.56
622.536	93.56
622.743	57.56
622.95	85.56
623.157	76.56
623.364	85.56
623.571	90.56
623.778	91.56
623.985	87.56
624.192	80.56
624.399	74.56
624.606	74.56
624.812	83.56
625.019	70.56
625.226	88.56
625.433	86.56
625.639	94.56
625.846	94.56
626.053	79.56
626.259	92.56
626.466	86.56
626.673	88.56
626.879	80.56
627.086	90.56
627.293	82.56
627.499	79.56
627.706	105.56
627.912	99.56
628.119	83.56
628.325	81.56
628.532	85.56
628.738	89.56
628.945	95.56
629.151	90.56
629.357	84.56
629.564	85.56
629.77	80.56
629.976	73.56
630.183	96.56
630.389	91.56
630.595	82.56
630.802	78.56
631.008	86.56
631.214	92.56
631.42	94.56
631.627	86.56
631.833	88.56
632.039	91.56
632.245	91.56
632.451	85.56
632.657	95.56
632.863	90.56
633.069	83.56
633.275	77.56
633.481	82.56
633.688	80.56
633.893	89.56
634.099	93.56
634.305	94.56
634.511	89.56
634.717	91.56
634.923	68.56
635.129	81.56
635.335	79.56
635.541	81.56
635.747	96.56
635.952	91.56
636.158	91.56
636.364	74.56
636.57	90.56
636.775	85.56
636.981	90.56
637.187	73.56
637.392	82.56
637.598	80.56
637.804	85.56
638.009	93.56
638.215	82.56
638.421	88.56
638.626	86.56
638.832	82.56
639.037	82.56
639.243	79.56
639.448	86.56
639.654	87.56
639.859	76.56
640.065	84.56
640.27	90.56
640.475	74.56
640.681	93.56
640.886	81.56
641.091	78.56
641.297	97.56
641.502	79.56
641.707	81.56
641.913	68.56
642.118	83.56
642.323	80.56
642.528	87.56
642.733	84.56
642.939	88.56
643.144	89.56
643.349	88.56
643.554	72.56
643.759	80.56
643.964	75.56
644.169	93.56
644.374	99.56
644.579	90.56
644.784	90.56
644.989	80.56
645.194	96.56
645.399	59.56
645.604	72.56
645.809	91.56
646.014	80.56
646.219	73.56
646.423	88.56
646.628	90.56
646.833	95.56
647.038	92.56
647.243	79.56
647.447	92.56
647.652	77.56
647.857	96.56
648.062	94.56
648.266	87.56
648.471	84.56
648.676	97.56
648.88	70.56
649.085	92.56
649.289	77.56
649.494	87.56
649.698	81.56
649.903	81.56
650.107	82.56
650.312	75.56
650.516	84.56
650.721	94.56
650.925	94.56
651.13	72.56
651.334	73.56
651.539	69.56
651.743	88.56
651.947	83.56
652.152	84.56
652.356	85.56
652.56	84.56
652.764	94.56
652.969	76.56
653.173	76.56
653.377	75.56
653.581	88.56
653.785	82.56
653.99	82.56
654.194	87.56
654.398	71.56
654.602	81.56
654.806	94.56
655.01	96.56
655.214	69.56
655.418	88.56
655.622	74.56
655.826	82.56
656.03	79.56
656.234	90.56
656.438	76.56
656.642	87.56
656.846	85.56
657.049	75.56
657.253	90.56
657.457	68.56
657.661	77.56
657.865	84.56
658.068	85.56
658.272	93.56
658.476	79.56
658.68	86.56
658.883	90.56
659.087	76.56
659.291	84.56
659.494	100.56
659.698	81.56
659.901	81.56
660.105	88.56
660.309	97.56
660.512	87.56
660.716	81.56
660.919	82.56
661.123	82.56
661.326	72.56
661.53	84.56
661.733	78.56
661.936	83.56
662.14	89.56
662.343	89.56
662.546	76.56
662.75	90.56
662.953	85.56
663.156	88.56
663.36	86.56
663.563	79.56
663.766	84.56
663.969	74.56
664.173	84.56
664.376	98.56
664.579	77.56
664.782	77.56
664.985	79.56
665.188	75.56
665.391	94.56
665.594	96.56
665.797	97.56
666	72.56
666.203	74.56
666.406	97.56
666.609	87.56
666.812	96.56
667.015	80.56
667.218	73.56
667.421	74.56
667.624	73.56
667.827	80.56
668.03	84.56
668.232	81.56
668.435	89.56
668.638	70.56
668.841	94.56
669.043	83.56
669.246	89.56
669.449	92.56
669.651	88.56
669.854	88.56
670.057	75.56
670.259	92.56
670.462	83.56
670.665	87.56
670.867	91.56
671.07	83.56
671.272	94.56
671.475	87.56
671.677	83.56
671.88	84.56
672.082	83.56
672.284	94.56
672.487	84.56
672.689	88.56
672.892	91.56
