Data from Lead_25_3_HRD10591_00067.txt Node
Date: Fri Feb 20 11:03:28 EST 2026
User: Yrep
Spectrometer: HR+D1059
Trigger mode: 1
Integration Time (sec): 1.000000E-1
Scans to average: 1
Electric dark correction enabled: true
Nonlinearity correction enabled: false
Boxcar width: 0
XAxis mode: Wavelengths
Number of Pixels in Spectrum: 2048
>>>>>Begin Spectral Data<<<<<
223.165	-21.69
223.4	-21.69
223.635	-21.69
223.869	-16.69
224.104	-28.69
224.338	-13.69
224.573	-22.69
224.808	-16.69
225.042	-16.69
225.277	11.31
225.511	6.31
225.746	4.31
225.98	-0.69
226.215	15.31
226.449	25.31
226.683	18.31
226.918	22.31
227.152	34.31
227.387	38.31
227.621	49.31
227.856	45.31
228.09	54.31
228.324	48.31
228.559	65.31
228.793	53.31
229.027	58.31
229.262	80.31
229.496	69.31
229.73	62.31
229.964	74.31
230.199	75.31
230.433	74.31
230.667	74.31
230.901	85.31
231.136	76.31
231.37	95.31
231.604	90.31
231.838	70.31
232.072	85.31
232.306	74.31
232.541	89.31
232.775	81.31
233.009	82.31
233.243	80.31
233.477	81.31
233.711	106.31
233.945	76.31
234.179	79.31
234.413	105.31
234.647	80.31
234.881	87.31
235.115	79.31
235.349	82.31
235.583	102.31
235.817	75.31
236.051	71.31
236.285	75.31
236.519	75.31
236.753	85.31
236.987	74.31
237.221	81.31
237.455	71.31
237.689	81.31
237.922	67.31
238.156	85.31
238.39	83.31
238.624	85.31
238.858	76.31
239.091	79.31
239.325	65.31
239.559	83.31
239.793	90.31
240.027	63.31
240.26	73.31
240.494	79.31
240.728	83.31
240.961	72.31
241.195	73.31
241.429	72.31
241.662	73.31
241.896	81.31
242.13	84.31
242.363	69.31
242.597	83.31
242.83	95.31
243.064	70.31
243.298	81.31
243.531	81.31
243.765	64.31
243.998	71.31
244.232	74.31
244.465	89.31
244.699	83.31
244.932	91.31
245.166	81.31
245.399	71.31
245.633	89.31
245.866	73.31
246.099	82.31
246.333	79.31
246.566	83.31
246.8	82.31
247.033	68.31
247.266	93.31
247.5	87.31
247.733	65.31
247.966	82.31
248.2	90.31
248.433	82.31
248.666	74.31
248.899	74.31
249.133	81.31
249.366	95.31
249.599	77.31
249.832	81.31
250.066	83.31
250.299	73.31
250.532	79.31
250.765	83.31
250.998	83.31
251.231	65.31
251.465	74.31
251.698	81.31
251.931	77.31
252.164	82.31
252.397	94.31
252.63	86.31
252.863	74.31
253.096	75.31
253.329	76.31
253.562	77.31
253.795	78.31
254.028	89.31
254.261	85.31
254.494	85.31
254.727	83.31
254.96	85.31
255.193	83.31
255.426	88.31
255.659	90.31
255.892	88.31
256.124	65.31
256.357	75.31
256.59	83.31
256.823	75.31
257.056	77.31
257.289	88.31
257.521	64.31
257.754	72.31
257.987	75.31
258.22	91.31
258.452	67.31
258.685	75.31
258.918	78.31
259.151	75.31
259.383	87.31
259.616	75.31
259.849	75.31
260.081	91.31
260.314	83.31
260.547	75.31
260.779	83.31
261.012	90.31
261.244	84.31
261.477	84.31
261.71	70.31
261.942	83.31
262.175	75.31
262.407	73.31
262.64	74.31
262.872	99.31
263.105	81.31
263.337	83.31
263.57	82.31
263.802	82.31
264.035	74.31
264.267	76.31
264.499	71.31
264.732	96.31
264.964	81.31
265.197	90.31
265.429	91.31
265.661	85.31
265.894	76.31
266.126	87.31
266.358	94.31
266.591	88.31
266.823	85.31
267.055	81.31
267.287	86.31
267.52	88.31
267.752	98.31
267.984	90.31
268.216	88.31
268.448	80.31
268.681	80.31
268.913	87.31
269.145	81.31
269.377	87.31
269.609	93.31
269.841	85.31
270.073	80.31
270.306	79.31
270.538	94.31
270.77	97.31
271.002	88.31
271.234	82.31
271.466	85.31
271.698	78.31
271.93	81.31
272.162	87.31
272.394	97.31
272.626	81.31
272.858	87.31
273.09	86.31
273.322	72.31
273.553	78.31
273.785	97.31
274.017	89.31
274.249	80.31
274.481	80.31
274.713	80.31
274.945	89.31
275.176	77.31
275.408	73.31
275.64	83.31
275.872	93.31
276.104	73.31
276.335	91.31
276.567	80.31
276.799	83.31
277.031	79.31
277.262	76.31
277.494	80.31
277.726	98.31
277.957	87.31
278.189	77.31
278.421	84.31
278.652	80.31
278.884	86.31
279.115	90.31
279.347	84.31
279.579	86.31
279.81	85.31
280.042	78.31
280.273	89.31
280.505	73.31
280.736	86.31
280.968	83.31
281.199	74.31
281.431	86.31
281.662	88.31
281.894	83.31
282.125	96.31
282.356	85.31
282.588	102.31
282.819	84.31
283.051	80.31
283.282	91.31
283.513	104.31
283.745	76.31
283.976	90.31
284.207	76.31
284.439	97.31
284.67	92.31
284.901	81.31
285.132	87.31
285.364	75.31
285.595	78.31
285.826	91.31
286.057	82.31
286.288	93.31
286.52	96.31
286.751	90.31
286.982	89.31
287.213	83.31
287.444	85.31
287.675	95.31
287.906	68.31
288.138	88.31
288.369	82.31
288.6	83.31
288.831	81.31
289.062	77.31
289.293	85.31
289.524	86.31
289.755	75.31
289.986	79.31
290.217	93.31
290.448	86.31
290.679	79.31
290.91	93.31
291.141	93.31
291.371	86.31
291.602	90.31
291.833	88.31
292.064	85.31
292.295	87.31
292.526	88.31
292.757	78.31
292.987	87.31
293.218	94.31
293.449	71.31
293.68	106.31
293.91	76.31
294.141	101.31
294.372	90.31
294.603	72.31
294.833	93.31
295.064	75.31
295.295	93.31
295.525	89.31
295.756	77.31
295.987	77.31
296.217	82.31
296.448	89.31
296.679	96.31
296.909	79.31
297.14	81.31
297.37	74.31
297.601	78.31
297.831	85.31
298.062	76.31
298.292	88.31
298.523	88.31
298.753	90.31
298.984	88.31
299.214	98.31
299.445	84.31
299.675	90.31
299.905	73.31
300.136	79.31
300.366	88.31
300.597	77.31
300.827	90.31
301.057	67.31
301.288	98.31
301.518	90.31
301.748	83.31
301.979	87.31
302.209	82.31
302.439	81.31
302.669	76.31
302.9	82.31
303.13	90.31
303.36	96.31
303.59	78.31
303.82	86.31
304.051	90.31
304.281	89.31
304.511	91.31
304.741	82.31
304.971	86.31
305.201	107.31
305.431	95.31
305.661	82.31
305.891	97.31
306.121	88.31
306.352	81.31
306.582	96.31
306.812	85.31
307.042	75.31
307.272	90.31
307.502	93.31
307.731	91.31
307.961	90.31
308.191	97.31
308.421	83.31
308.651	101.31
308.881	84.31
309.111	83.31
309.341	90.31
309.571	94.31
309.8	91.31
310.03	101.31
310.26	94.31
310.49	82.31
310.72	78.31
310.949	97.31
311.179	92.31
311.409	86.31
311.639	91.31
311.868	94.31
312.098	91.31
312.328	69.31
312.557	88.31
312.787	81.31
313.017	86.31
313.246	89.31
313.476	87.31
313.706	90.31
313.935	106.31
314.165	76.31
314.394	79.31
314.624	82.31
314.853	70.31
315.083	75.31
315.312	94.31
315.542	81.31
315.771	85.31
316.001	91.31
316.23	86.31
316.46	96.31
316.689	82.31
316.919	94.31
317.148	95.31
317.377	90.31
317.607	83.31
317.836	102.31
318.065	105.31
318.295	97.31
318.524	89.31
318.753	96.31
318.983	87.31
319.212	82.31
319.441	86.31
319.67	95.31
319.9	83.31
320.129	81.31
320.358	82.31
320.587	74.31
320.816	89.31
321.046	95.31
321.275	89.31
321.504	68.31
321.733	87.31
321.962	88.31
322.191	99.31
322.42	73.31
322.649	90.31
322.878	79.31
323.108	86.31
323.337	78.31
323.566	85.31
323.795	94.31
324.024	90.31
324.253	72.31
324.482	89.31
324.71	99.31
324.939	82.31
325.168	83.31
325.397	88.31
325.626	80.31
325.855	91.31
326.084	80.31
326.313	89.31
326.542	98.31
326.77	94.31
326.999	97.31
327.228	72.31
327.457	75.31
327.686	72.31
327.914	73.31
328.143	75.31
328.372	72.31
328.6	87.31
328.829	79.31
329.058	86.31
329.287	89.31
329.515	82.31
329.744	93.31
329.972	86.31
330.201	85.31
330.43	89.31
330.658	96.31
330.887	97.31
331.115	102.31
331.344	84.31
331.572	86.31
331.801	87.31
332.03	79.31
332.258	84.31
332.486	102.31
332.715	85.31
332.943	77.31
333.172	73.31
333.4	75.31
333.629	92.31
333.857	94.31
334.085	78.31
334.314	91.31
334.542	83.31
334.771	95.31
334.999	89.31
335.227	90.31
335.455	92.31
335.684	70.31
335.912	82.31
336.14	71.31
336.369	95.31
336.597	94.31
336.825	86.31
337.053	78.31
337.281	86.31
337.51	89.31
337.738	98.31
337.966	90.31
338.194	83.31
338.422	87.31
338.65	94.31
338.878	90.31
339.106	79.31
339.334	76.31
339.562	85.31
339.79	75.31
340.018	92.31
340.246	75.31
340.474	76.31
340.702	88.31
340.93	88.31
341.158	88.31
341.386	89.31
341.614	76.31
341.842	69.31
342.07	75.31
342.298	86.31
342.526	88.31
342.754	87.31
342.981	88.31
343.209	96.31
343.437	104.31
343.665	83.31
343.893	79.31
344.12	80.31
344.348	94.31
344.576	85.31
344.804	69.31
345.031	77.31
345.259	99.31
345.487	76.31
345.714	93.31
345.942	81.31
346.17	91.31
346.397	89.31
346.625	78.31
346.853	81.31
347.08	80.31
347.308	78.31
347.535	91.31
347.763	78.31
347.99	87.31
348.218	94.31
348.445	106.31
348.673	81.31
348.9	76.31
349.128	78.31
349.355	83.31
349.583	89.31
349.81	86.31
350.037	83.31
350.265	92.31
350.492	79.31
350.72	74.31
350.947	80.31
351.174	82.31
351.402	108.31
351.629	91.31
351.856	76.31
352.083	90.31
352.311	75.31
352.538	81.31
352.765	79.31
352.992	88.31
353.22	85.31
353.447	78.31
353.674	94.31
353.901	80.31
354.128	90.31
354.355	83.31
354.583	98.31
354.81	63.31
355.037	74.31
355.264	91.31
355.491	79.31
355.718	69.31
355.945	82.31
356.172	81.31
356.399	82.31
356.626	84.31
356.853	84.31
357.08	88.31
357.307	104.31
357.534	92.31
357.761	84.31
357.988	79.31
358.215	77.31
358.441	89.31
358.668	73.31
358.895	67.31
359.122	90.31
359.349	87.31
359.576	83.31
359.802	73.31
360.029	78.31
360.256	89.31
360.483	92.31
360.709	87.31
360.936	89.31
361.163	87.31
361.39	102.31
361.616	94.31
361.843	75.31
362.07	87.31
362.296	93.31
362.523	91.31
362.749	80.31
362.976	85.31
363.203	77.31
363.429	92.31
363.656	104.31
363.882	95.31
364.109	103.31
364.335	86.31
364.562	85.31
364.788	82.31
365.015	96.31
365.241	77.31
365.468	86.31
365.694	87.31
365.92	82.31
366.147	67.31
366.373	93.31
366.599	98.31
366.826	102.31
367.052	77.31
367.278	86.31
367.505	68.31
367.731	82.31
367.957	81.31
368.184	93.31
368.41	88.31
368.636	95.31
368.862	88.31
369.089	73.31
369.315	91.31
369.541	79.31
369.767	83.31
369.993	91.31
370.219	82.31
370.445	85.31
370.672	89.31
370.898	87.31
371.124	78.31
371.35	85.31
371.576	76.31
371.802	89.31
372.028	94.31
372.254	83.31
372.48	83.31
372.706	88.31
372.932	79.31
373.158	69.31
373.384	83.31
373.61	75.31
373.835	89.31
374.061	83.31
374.287	91.31
374.513	84.31
374.739	71.31
374.965	90.31
375.191	83.31
375.416	94.31
375.642	93.31
375.868	90.31
376.094	80.31
376.319	85.31
376.545	71.31
376.771	97.31
376.997	90.31
377.222	73.31
377.448	88.31
377.674	84.31
377.899	98.31
378.125	86.31
378.35	75.31
378.576	81.31
378.802	85.31
379.027	65.31
379.253	70.31
379.478	90.31
379.704	79.31
379.929	81.31
380.155	83.31
380.38	81.31
380.606	89.31
380.831	82.31
381.057	75.31
381.282	88.31
381.507	91.31
381.733	85.31
381.958	84.31
382.184	79.31
382.409	81.31
382.634	91.31
382.86	81.31
383.085	83.31
383.31	83.31
383.535	97.31
383.761	78.31
383.986	73.31
384.211	75.31
384.436	90.31
384.662	77.31
384.887	91.31
385.112	84.31
385.337	73.31
385.562	81.31
385.787	75.31
386.013	83.31
386.238	80.31
386.463	88.31
386.688	75.31
386.913	89.31
387.138	67.31
387.363	76.31
387.588	91.31
387.813	91.31
388.038	99.31
388.263	91.31
388.488	81.31
388.713	97.31
388.938	78.31
389.163	82.31
389.387	90.31
389.612	76.31
389.837	87.31
390.062	89.31
390.287	84.31
390.512	81.31
390.736	79.31
390.961	83.31
391.186	71.31
391.411	72.31
391.636	86.31
391.86	81.31
392.085	83.31
392.31	80.31
392.534	83.31
392.759	86.31
392.984	96.31
393.208	90.31
393.433	85.31
393.658	83.31
393.882	85.31
394.107	91.31
394.331	85.31
394.556	88.31
394.78	81.31
395.005	93.31
395.229	80.31
395.454	86.31
395.678	71.31
395.903	81.31
396.127	86.31
396.352	65.31
396.576	72.31
396.801	84.31
397.025	80.31
397.249	90.31
397.474	96.31
397.698	81.31
397.922	84.31
398.147	88.31
398.371	75.31
398.595	74.31
398.82	74.31
399.044	86.31
399.268	90.31
399.492	75.31
399.717	92.31
399.941	71.31
400.165	87.31
400.389	87.31
400.613	83.31
400.837	81.31
401.062	90.31
401.286	89.31
401.51	86.31
401.734	81.31
401.958	70.31
402.182	81.31
402.406	81.31
402.63	82.31
402.854	89.31
403.078	91.31
403.302	80.31
403.526	85.31
403.75	98.31
403.974	82.31
404.198	88.31
404.422	105.31
404.645	95.31
404.869	90.31
405.093	105.31
405.317	84.31
405.541	99.31
405.765	102.31
405.988	104.31
406.212	82.31
406.436	85.31
406.66	75.31
406.883	81.31
407.107	87.31
407.331	87.31
407.555	80.31
407.778	80.31
408.002	99.31
408.226	89.31
408.449	89.31
408.673	91.31
408.896	86.31
409.12	82.31
409.344	79.31
409.567	94.31
409.791	81.31
410.014	75.31
410.238	87.31
410.461	74.31
410.685	81.31
410.908	85.31
411.132	79.31
411.355	79.31
411.578	75.31
411.802	74.31
412.025	78.31
412.249	79.31
412.472	75.31
412.695	87.31
412.919	85.31
413.142	87.31
413.365	76.31
413.589	85.31
413.812	86.31
414.035	95.31
414.258	97.31
414.482	82.31
414.705	69.31
414.928	75.31
415.151	90.31
415.374	89.31
415.597	84.31
415.821	82.31
416.044	81.31
416.267	73.31
416.49	81.31
416.713	79.31
416.936	80.31
417.159	87.31
417.382	81.31
417.605	82.31
417.828	86.31
418.051	83.31
418.274	82.31
418.497	71.31
418.72	71.31
418.943	87.31
419.166	71.31
419.389	73.31
419.611	76.31
419.834	87.31
420.057	67.31
420.28	87.31
420.503	81.31
420.726	79.31
420.948	82.31
421.171	83.31
421.394	83.31
421.617	75.31
421.839	88.31
422.062	84.31
422.285	84.31
422.507	69.31
422.73	81.31
422.953	81.31
423.175	82.31
423.398	79.31
423.621	91.31
423.843	77.31
424.066	79.31
424.288	79.31
424.511	75.31
424.733	94.31
424.956	87.31
425.178	74.31
425.401	89.31
425.623	76.31
425.846	65.31
426.068	76.31
426.291	90.31
426.513	74.31
426.735	98.31
426.958	84.31
427.18	71.31
427.402	81.31
427.625	83.31
427.847	70.31
428.069	73.31
428.292	74.31
428.514	81.31
428.736	87.31
428.958	79.31
429.181	94.31
429.403	83.31
429.625	97.31
429.847	74.31
430.069	83.31
430.292	81.31
430.514	70.31
430.736	75.31
430.958	67.31
431.18	88.31
431.402	90.31
431.624	89.31
431.846	76.31
432.068	87.31
432.29	79.31
432.512	87.31
432.734	87.31
432.956	84.31
433.178	93.31
433.4	72.31
433.622	80.31
433.844	80.31
434.066	75.31
434.287	87.31
434.509	73.31
434.731	90.31
434.953	75.31
435.175	70.31
435.397	81.31
435.618	91.31
435.84	78.31
436.062	79.31
436.284	82.31
436.505	94.31
436.727	85.31
436.949	83.31
437.17	84.31
437.392	77.31
437.614	77.31
437.835	78.31
438.057	82.31
438.278	88.31
438.5	82.31
438.721	89.31
438.943	81.31
439.165	74.31
439.386	81.31
439.608	81.31
439.829	78.31
440.05	99.31
440.272	88.31
440.493	107.31
440.715	90.31
440.936	90.31
441.158	81.31
441.379	71.31
441.6	87.31
441.822	79.31
442.043	70.31
442.264	87.31
442.486	79.31
442.707	88.31
442.928	81.31
443.149	81.31
443.371	91.31
443.592	85.31
443.813	83.31
444.034	63.31
444.255	77.31
444.476	91.31
444.698	77.31
444.919	83.31
445.14	158.31
445.361	117.31
445.582	77.31
445.803	79.31
446.024	90.31
446.245	93.31
446.466	92.31
446.687	83.31
446.908	67.31
447.129	81.31
447.35	87.31
447.571	90.31
447.792	59.31
448.013	87.31
448.234	75.31
448.455	80.31
448.675	79.31
448.896	77.31
449.117	81.31
449.338	93.31
449.559	87.31
449.779	94.31
450	81.31
450.221	85.31
450.442	82.31
450.662	84.31
450.883	68.31
451.104	81.31
451.324	102.31
451.545	82.31
451.766	93.31
451.986	81.31
452.207	81.31
452.428	84.31
452.648	81.31
452.869	90.31
453.089	82.31
453.31	85.31
453.53	72.31
453.751	79.31
453.971	73.31
454.192	85.31
454.412	85.31
454.633	88.31
454.853	94.31
455.073	86.31
455.294	69.31
455.514	83.31
455.734	71.31
455.955	83.31
456.175	79.31
456.395	98.31
456.616	83.31
456.836	85.31
457.056	67.31
457.276	71.31
457.497	87.31
457.717	95.31
457.937	66.31
458.157	79.31
458.377	96.31
458.598	71.31
458.818	74.31
459.038	74.31
459.258	89.31
459.478	95.31
459.698	88.31
459.918	83.31
460.138	77.31
460.358	83.31
460.578	81.31
460.798	82.31
461.018	91.31
461.238	102.31
461.458	83.31
461.678	84.31
461.898	91.31
462.118	83.31
462.338	64.31
462.558	85.31
462.777	85.31
462.997	88.31
463.217	85.31
463.437	72.31
463.657	89.31
463.876	79.31
464.096	65.31
464.316	87.31
464.536	91.31
464.755	70.31
464.975	81.31
465.195	87.31
465.414	77.31
465.634	94.31
465.854	75.31
466.073	87.31
466.293	79.31
466.512	89.31
466.732	92.31
466.951	89.31
467.171	85.31
467.391	87.31
467.61	76.31
467.829	81.31
468.049	89.31
468.268	93.31
468.488	79.31
468.707	83.31
468.927	78.31
469.146	87.31
469.365	87.31
469.585	80.31
469.804	74.31
470.023	77.31
470.243	80.31
470.462	86.31
470.681	75.31
470.901	85.31
471.12	98.31
471.339	75.31
471.558	90.31
471.777	75.31
471.997	85.31
472.216	98.31
472.435	89.31
472.654	71.31
472.873	96.31
473.092	83.31
473.311	87.31
473.53	90.31
473.749	85.31
473.968	102.31
474.187	81.31
474.406	84.31
474.625	83.31
474.844	89.31
475.063	82.31
475.282	78.31
475.501	87.31
475.72	82.31
475.939	65.31
476.158	78.31
476.377	74.31
476.596	75.31
476.814	87.31
477.033	74.31
477.252	87.31
477.471	79.31
477.69	84.31
477.908	76.31
478.127	81.31
478.346	78.31
478.564	79.31
478.783	84.31
479.002	76.31
479.22	73.31
479.439	84.31
479.658	77.31
479.876	82.31
480.095	85.31
480.313	75.31
480.532	95.31
480.751	82.31
480.969	70.31
481.188	74.31
481.406	87.31
481.624	76.31
481.843	85.31
482.061	86.31
482.28	82.31
482.498	82.31
482.717	82.31
482.935	75.31
483.153	85.31
483.372	78.31
483.59	66.31
483.808	83.31
484.027	90.31
484.245	74.31
484.463	85.31
484.681	93.31
484.9	77.31
485.118	83.31
485.336	69.31
485.554	94.31
485.772	90.31
485.99	82.31
486.209	85.31
486.427	74.31
486.645	93.31
486.863	81.31
487.081	96.31
487.299	94.31
487.517	91.31
487.735	89.31
487.953	85.31
488.171	86.31
488.389	85.31
488.607	82.31
488.825	83.31
489.043	83.31
489.261	80.31
489.479	72.31
489.696	96.31
489.914	85.31
490.132	88.31
490.35	90.31
490.568	87.31
490.786	78.31
491.003	77.31
491.221	84.31
491.439	81.31
491.657	91.31
491.874	82.31
492.092	81.31
492.31	82.31
492.527	97.31
492.745	86.31
492.963	87.31
493.18	85.31
493.398	83.31
493.615	89.31
493.833	85.31
494.05	90.31
494.268	81.31
494.485	86.31
494.703	85.31
494.92	83.31
495.138	103.31
495.355	81.31
495.573	76.31
495.79	89.31
496.008	93.31
496.225	93.31
496.442	88.31
496.66	83.31
496.877	89.31
497.094	91.31
497.312	92.31
497.529	70.31
497.746	89.31
497.963	93.31
498.181	89.31
498.398	93.31
498.615	86.31
498.832	71.31
499.049	68.31
499.267	89.31
499.484	85.31
499.701	83.31
499.918	97.31
500.135	98.31
500.352	87.31
500.569	90.31
500.786	89.31
501.003	78.31
501.22	70.31
501.437	77.31
501.654	88.31
501.871	97.31
502.088	90.31
502.305	103.31
502.522	76.31
502.739	99.31
502.956	88.31
503.172	93.31
503.389	73.31
503.606	83.31
503.823	90.31
504.04	78.31
504.256	96.31
504.473	97.31
504.69	87.31
504.907	85.31
505.123	78.31
505.34	91.31
505.557	76.31
505.773	82.31
505.99	81.31
506.207	85.31
506.423	71.31
506.64	95.31
506.856	87.31
507.073	96.31
507.289	81.31
507.506	104.31
507.722	83.31
507.939	90.31
508.155	87.31
508.372	84.31
508.588	82.31
508.805	88.31
509.021	74.31
509.238	87.31
509.454	80.31
509.67	79.31
509.887	93.31
510.103	87.31
510.319	83.31
510.536	79.31
510.752	75.31
510.968	87.31
511.184	81.31
511.401	76.31
511.617	95.31
511.833	93.31
512.049	88.31
512.265	87.31
512.481	89.31
512.698	80.31
512.914	74.31
513.13	90.31
513.346	81.31
513.562	88.31
513.778	87.31
513.994	90.31
514.21	84.31
514.426	77.31
514.642	69.31
514.858	97.31
515.074	89.31
515.29	75.31
515.506	91.31
515.721	85.31
515.937	86.31
516.153	86.31
516.369	83.31
516.585	75.31
516.801	93.31
517.016	74.31
517.232	78.31
517.448	83.31
517.664	90.31
517.879	90.31
518.095	85.31
518.311	94.31
518.527	92.31
518.742	88.31
518.958	78.31
519.173	81.31
519.389	73.31
519.605	72.31
519.82	87.31
520.036	86.31
520.251	82.31
520.467	85.31
520.682	69.31
520.898	81.31
521.113	80.31
521.329	91.31
521.544	82.31
521.76	89.31
521.975	90.31
522.19	78.31
522.406	72.31
522.621	77.31
522.836	96.31
523.052	95.31
523.267	79.31
523.482	86.31
523.698	89.31
523.913	89.31
524.128	89.31
524.343	81.31
524.559	96.31
524.774	94.31
524.989	102.31
525.204	76.31
525.419	95.31
525.634	85.31
525.849	73.31
526.064	91.31
526.28	79.31
526.495	86.31
526.71	74.31
526.925	77.31
527.14	75.31
527.355	95.31
527.57	82.31
527.785	86.31
527.999	80.31
528.214	96.31
528.429	74.31
528.644	76.31
528.859	89.31
529.074	74.31
529.289	87.31
529.503	88.31
529.718	86.31
529.933	79.31
530.148	84.31
530.363	97.31
530.577	86.31
530.792	87.31
531.007	75.31
531.221	83.31
531.436	82.31
531.651	95.31
531.865	77.31
532.08	87.31
532.295	95.31
532.509	96.31
532.724	76.31
532.938	69.31
533.153	92.31
533.367	99.31
533.582	89.31
533.796	81.31
534.011	94.31
534.225	87.31
534.44	90.31
534.654	82.31
534.868	88.31
535.083	88.31
535.297	82.31
535.511	86.31
535.726	85.31
535.94	76.31
536.154	82.31
536.369	87.31
536.583	85.31
536.797	93.31
537.011	75.31
537.225	86.31
537.44	81.31
537.654	94.31
537.868	93.31
538.082	75.31
538.296	93.31
538.51	74.31
538.724	79.31
538.938	75.31
539.153	82.31
539.367	78.31
539.581	92.31
539.795	96.31
540.009	81.31
540.222	73.31
540.436	81.31
540.65	68.31
540.864	82.31
541.078	101.31
541.292	89.31
541.506	78.31
541.72	79.31
541.934	94.31
542.147	81.31
542.361	94.31
542.575	89.31
542.789	84.31
543.002	81.31
543.216	88.31
543.43	99.31
543.644	91.31
543.857	89.31
544.071	87.31
544.285	102.31
544.498	85.31
544.712	90.31
544.925	89.31
545.139	81.31
545.352	90.31
545.566	91.31
545.779	86.31
545.993	87.31
546.206	92.31
546.42	102.31
546.633	93.31
546.847	102.31
547.06	97.31
547.274	92.31
547.487	82.31
547.7	74.31
547.914	74.31
548.127	81.31
548.34	81.31
548.554	81.31
548.767	82.31
548.98	87.31
549.193	79.31
549.407	87.31
549.62	85.31
549.833	91.31
550.046	93.31
550.259	89.31
550.473	75.31
550.686	87.31
550.899	88.31
551.112	95.31
551.325	92.31
551.538	91.31
551.751	93.31
551.964	99.31
552.177	88.31
552.39	78.31
552.603	77.31
552.816	93.31
553.029	84.31
553.242	87.31
553.455	92.31
553.667	74.31
553.88	88.31
554.093	84.31
554.306	78.31
554.519	85.31
554.732	91.31
554.944	87.31
555.157	75.31
555.37	89.31
555.583	83.31
555.795	88.31
556.008	84.31
556.221	73.31
556.433	86.31
556.646	101.31
556.859	110.31
557.071	87.31
557.284	85.31
557.496	100.31
557.709	76.31
557.921	89.31
558.134	73.31
558.346	75.31
558.559	99.31
558.771	80.31
558.984	85.31
559.196	93.31
559.409	83.31
559.621	76.31
559.833	76.31
560.046	91.31
560.258	88.31
560.47	78.31
560.683	81.31
560.895	92.31
561.107	89.31
561.32	95.31
561.532	87.31
561.744	93.31
561.956	75.31
562.168	94.31
562.381	82.31
562.593	63.31
562.805	86.31
563.017	81.31
563.229	77.31
563.441	93.31
563.653	89.31
563.865	87.31
564.077	85.31
564.289	91.31
564.501	79.31
564.713	69.31
564.925	83.31
565.137	87.31
565.349	95.31
565.561	89.31
565.773	91.31
565.985	79.31
566.197	81.31
566.408	91.31
566.62	91.31
566.832	100.31
567.044	78.31
567.255	86.31
567.467	77.31
567.679	89.31
567.891	87.31
568.102	87.31
568.314	94.31
568.526	104.31
568.737	95.31
568.949	86.31
569.161	79.31
569.372	84.31
569.584	83.31
569.795	101.31
570.007	86.31
570.218	80.31
570.43	96.31
570.641	83.31
570.853	81.31
571.064	87.31
571.276	83.31
571.487	88.31
571.698	89.31
571.91	84.31
572.121	98.31
572.333	97.31
572.544	87.31
572.755	97.31
572.966	93.31
573.178	71.31
573.389	72.31
573.6	92.31
573.811	78.31
574.023	80.31
574.234	82.31
574.445	87.31
574.656	69.31
574.867	87.31
575.078	67.31
575.289	75.31
575.501	81.31
575.712	87.31
575.923	101.31
576.134	86.31
576.345	76.31
576.556	97.31
576.767	89.31
576.978	97.31
577.188	81.31
577.399	94.31
577.61	95.31
577.821	89.31
578.032	82.31
578.243	85.31
578.454	102.31
578.665	81.31
578.875	85.31
579.086	88.31
579.297	84.31
579.508	93.31
579.718	89.31
579.929	102.31
580.14	95.31
580.35	92.31
580.561	95.31
580.772	75.31
580.982	88.31
581.193	91.31
581.403	87.31
581.614	93.31
581.825	81.31
582.035	72.31
582.246	99.31
582.456	75.31
582.667	83.31
582.877	85.31
583.087	79.31
583.298	82.31
583.508	89.31
583.719	76.31
583.929	99.31
584.139	90.31
584.35	86.31
584.56	88.31
584.77	96.31
584.981	85.31
585.191	88.31
585.401	82.31
585.611	92.31
585.821	85.31
586.032	88.31
586.242	92.31
586.452	79.31
586.662	76.31
586.872	85.31
587.082	87.31
587.292	79.31
587.502	97.31
587.713	81.31
587.923	84.31
588.133	80.31
588.343	82.31
588.553	84.31
588.762	103.31
588.972	92.31
589.182	117.31
589.392	103.31
589.602	89.31
589.812	111.31
590.022	93.31
590.232	85.31
590.441	79.31
590.651	81.31
590.861	83.31
591.071	89.31
591.281	87.31
591.49	89.31
591.7	94.31
591.91	95.31
592.119	89.31
592.329	93.31
592.539	85.31
592.748	88.31
592.958	81.31
593.167	89.31
593.377	79.31
593.587	102.31
593.796	89.31
594.006	88.31
594.215	102.31
594.424	87.31
594.634	94.31
594.843	72.31
595.053	89.31
595.262	86.31
595.472	82.31
595.681	85.31
595.89	82.31
596.1	89.31
596.309	101.31
596.518	67.31
596.727	91.31
596.937	91.31
597.146	85.31
597.355	80.31
597.564	75.31
597.774	77.31
597.983	79.31
598.192	82.31
598.401	83.31
598.61	90.31
598.819	80.31
599.028	83.31
599.237	95.31
599.446	79.31
599.655	87.31
599.864	85.31
600.073	109.31
600.282	95.31
600.491	99.31
600.7	84.31
600.909	87.31
601.118	87.31
601.327	98.31
601.536	90.31
601.745	89.31
601.953	75.31
602.162	85.31
602.371	87.31
602.58	89.31
602.789	93.31
602.997	84.31
603.206	77.31
603.415	91.31
603.623	83.31
603.832	81.31
604.041	89.31
604.249	98.31
604.458	89.31
604.666	91.31
604.875	95.31
605.084	84.31
605.292	83.31
605.501	76.31
605.709	93.31
605.918	91.31
606.126	81.31
606.334	88.31
606.543	94.31
606.751	93.31
606.96	88.31
607.168	106.31
607.376	80.31
607.585	71.31
607.793	79.31
608.001	89.31
608.21	83.31
608.418	92.31
608.626	72.31
608.834	86.31
609.043	97.31
609.251	71.31
609.459	83.31
609.667	69.31
609.875	93.31
610.083	91.31
610.291	84.31
610.499	68.31
610.707	93.31
610.916	83.31
611.124	79.31
611.332	87.31
611.54	95.31
611.748	83.31
611.955	73.31
612.163	86.31
612.371	89.31
612.579	85.31
612.787	90.31
612.995	93.31
613.203	89.31
613.411	89.31
613.618	70.31
613.826	80.31
614.034	97.31
614.242	96.31
614.449	82.31
614.657	78.31
614.865	89.31
615.072	90.31
615.28	92.31
615.488	89.31
615.695	73.31
615.903	95.31
616.111	83.31
616.318	88.31
616.526	83.31
616.733	94.31
616.941	85.31
617.148	98.31
617.356	72.31
617.563	85.31
617.771	87.31
617.978	75.31
618.185	97.31
618.393	88.31
618.6	84.31
618.807	90.31
619.015	79.31
619.222	81.31
619.429	91.31
619.637	85.31
619.844	80.31
620.051	85.31
620.258	81.31
620.466	75.31
620.673	99.31
620.88	88.31
621.087	83.31
621.294	93.31
621.501	91.31
621.708	77.31
621.915	90.31
622.122	79.31
622.329	88.31
622.536	88.31
622.743	95.31
622.95	89.31
623.157	70.31
623.364	91.31
623.571	91.31
623.778	84.31
623.985	83.31
624.192	77.31
624.399	72.31
624.606	83.31
624.812	81.31
625.019	96.31
625.226	75.31
625.433	84.31
625.639	83.31
625.846	85.31
626.053	82.31
626.259	83.31
626.466	81.31
626.673	69.31
626.879	72.31
627.086	97.31
627.293	99.31
627.499	97.31
627.706	68.31
627.912	79.31
628.119	89.31
628.325	87.31
628.532	93.31
628.738	87.31
628.945	81.31
629.151	81.31
629.357	70.31
629.564	79.31
629.77	67.31
629.976	85.31
630.183	82.31
630.389	75.31
630.595	80.31
630.802	89.31
631.008	93.31
631.214	81.31
631.42	86.31
631.627	93.31
631.833	93.31
632.039	100.31
632.245	97.31
632.451	90.31
632.657	89.31
632.863	89.31
633.069	83.31
633.275	85.31
633.481	89.31
633.688	89.31
633.893	84.31
634.099	70.31
634.305	81.31
634.511	95.31
634.717	74.31
634.923	85.31
635.129	81.31
635.335	85.31
635.541	89.31
635.747	81.31
635.952	81.31
636.158	97.31
636.364	84.31
636.57	74.31
636.775	83.31
636.981	75.31
637.187	84.31
637.392	89.31
637.598	81.31
637.804	88.31
638.009	72.31
638.215	64.31
638.421	72.31
638.626	85.31
638.832	84.31
639.037	93.31
639.243	99.31
639.448	85.31
639.654	93.31
639.859	85.31
640.065	83.31
640.27	81.31
640.475	86.31
640.681	81.31
640.886	85.31
641.091	84.31
641.297	78.31
641.502	89.31
641.707	90.31
641.913	77.31
642.118	83.31
642.323	79.31
642.528	85.31
642.733	99.31
642.939	77.31
643.144	89.31
643.349	87.31
643.554	96.31
643.759	81.31
643.964	87.31
644.169	85.31
644.374	86.31
644.579	108.31
644.784	96.31
644.989	91.31
645.194	74.31
645.399	96.31
645.604	74.31
645.809	78.31
646.014	97.31
646.219	79.31
646.423	72.31
646.628	81.31
646.833	70.31
647.038	82.31
647.243	97.31
647.447	75.31
647.652	83.31
647.857	79.31
648.062	91.31
648.266	85.31
648.471	101.31
648.676	95.31
648.88	81.31
649.085	90.31
649.289	93.31
649.494	97.31
649.698	86.31
649.903	89.31
650.107	92.31
650.312	97.31
650.516	96.31
650.721	88.31
650.925	87.31
651.13	91.31
651.334	88.31
651.539	88.31
651.743	93.31
651.947	89.31
652.152	84.31
652.356	90.31
652.56	81.31
652.764	84.31
652.969	77.31
653.173	86.31
653.377	85.31
653.581	79.31
653.785	82.31
653.99	82.31
654.194	88.31
654.398	86.31
654.602	74.31
654.806	88.31
655.01	85.31
655.214	88.31
655.418	91.31
655.622	87.31
655.826	98.31
656.03	77.31
656.234	74.31
656.438	87.31
656.642	78.31
656.846	90.31
657.049	80.31
657.253	86.31
657.457	78.31
657.661	89.31
657.865	103.31
658.068	81.31
658.272	80.31
658.476	65.31
658.68	99.31
658.883	85.31
659.087	65.31
659.291	89.31
659.494	94.31
659.698	90.31
659.901	90.31
660.105	86.31
660.309	77.31
660.512	88.31
660.716	87.31
660.919	81.31
661.123	95.31
661.326	90.31
661.53	85.31
661.733	81.31
661.936	83.31
662.14	82.31
662.343	85.31
662.546	71.31
662.75	88.31
662.953	85.31
663.156	93.31
663.36	86.31
663.563	101.31
663.766	96.31
663.969	83.31
664.173	80.31
664.376	82.31
664.579	81.31
664.782	87.31
664.985	82.31
665.188	76.31
665.391	87.31
665.594	92.31
665.797	79.31
666	89.31
666.203	82.31
666.406	82.31
666.609	82.31
666.812	98.31
667.015	91.31
667.218	99.31
667.421	86.31
667.624	82.31
667.827	89.31
668.03	73.31
668.232	83.31
668.435	83.31
668.638	85.31
668.841	91.31
669.043	80.31
669.246	81.31
669.449	75.31
669.651	98.31
669.854	77.31
670.057	86.31
670.259	99.31
670.462	91.31
670.665	80.31
670.867	74.31
671.07	88.31
671.272	79.31
671.475	64.31
671.677	85.31
671.88	90.31
672.082	71.31
672.284	82.31
672.487	80.31
672.689	80.31
672.892	83.31
