Data from 17600_1_HRD10591_00016.txt Node
Date: Mon Jan 19 14:07:32 EST 2026
User: Yrep
Spectrometer: HR+D1059
Trigger mode: 1
Integration Time (sec): 1.000000E-1
Scans to average: 1
Electric dark correction enabled: true
Nonlinearity correction enabled: false
Boxcar width: 0
XAxis mode: Wavelengths
Number of Pixels in Spectrum: 2048
>>>>>Begin Spectral Data<<<<<
223.165	-25.81
223.4	-25.81
223.635	-25.81
223.869	-30.81
224.104	-3.81
224.338	-15.81
224.573	-15.81
224.808	-22.81
225.042	-4.81
225.277	-16.81
225.511	-6.81
225.746	6.19
225.98	-3.81
226.215	13.19
226.449	31.19
226.683	23.19
226.918	34.19
227.152	39.19
227.387	43.19
227.621	21.19
227.856	44.19
228.09	44.19
228.324	46.19
228.559	57.19
228.793	64.19
229.027	63.19
229.262	52.19
229.496	51.19
229.73	64.19
229.964	67.19
230.199	73.19
230.433	73.19
230.667	87.19
230.901	75.19
231.136	72.19
231.37	84.19
231.604	93.19
231.838	68.19
232.072	64.19
232.306	79.19
232.541	74.19
232.775	82.19
233.009	76.19
233.243	105.19
233.477	78.19
233.711	74.19
233.945	86.19
234.179	82.19
234.413	81.19
234.647	95.19
234.881	74.19
235.115	74.19
235.349	97.19
235.583	87.19
235.817	80.19
236.051	86.19
236.285	71.19
236.519	69.19
236.753	83.19
236.987	84.19
237.221	59.19
237.455	61.19
237.689	85.19
237.922	73.19
238.156	78.19
238.39	70.19
238.624	72.19
238.858	68.19
239.091	67.19
239.325	65.19
239.559	91.19
239.793	79.19
240.027	80.19
240.26	70.19
240.494	69.19
240.728	86.19
240.961	69.19
241.195	81.19
241.429	69.19
241.662	60.19
241.896	71.19
242.13	71.19
242.363	77.19
242.597	78.19
242.83	63.19
243.064	68.19
243.298	61.19
243.531	60.19
243.765	83.19
243.998	66.19
244.232	62.19
244.465	76.19
244.699	81.19
244.932	72.19
245.166	94.19
245.399	71.19
245.633	77.19
245.866	93.19
246.099	81.19
246.333	69.19
246.566	75.19
246.8	71.19
247.033	71.19
247.266	83.19
247.5	73.19
247.733	71.19
247.966	82.19
248.2	70.19
248.433	72.19
248.666	80.19
248.899	76.19
249.133	82.19
249.366	70.19
249.599	74.19
249.832	73.19
250.066	87.19
250.299	74.19
250.532	79.19
250.765	71.19
250.998	84.19
251.231	77.19
251.465	88.19
251.698	71.19
251.931	69.19
252.164	77.19
252.397	87.19
252.63	70.19
252.863	85.19
253.096	83.19
253.329	79.19
253.562	70.19
253.795	86.19
254.028	79.19
254.261	75.19
254.494	78.19
254.727	76.19
254.96	71.19
255.193	64.19
255.426	80.19
255.659	71.19
255.892	73.19
256.124	87.19
256.357	70.19
256.59	75.19
256.823	83.19
257.056	73.19
257.289	75.19
257.521	83.19
257.754	85.19
257.987	87.19
258.22	95.19
258.452	79.19
258.685	73.19
258.918	83.19
259.151	77.19
259.383	75.19
259.616	73.19
259.849	70.19
260.081	79.19
260.314	83.19
260.547	95.19
260.779	82.19
261.012	91.19
261.244	94.19
261.477	93.19
261.71	87.19
261.942	84.19
262.175	79.19
262.407	91.19
262.64	77.19
262.872	78.19
263.105	82.19
263.337	80.19
263.57	84.19
263.802	85.19
264.035	103.19
264.267	71.19
264.499	87.19
264.732	78.19
264.964	79.19
265.197	87.19
265.429	75.19
265.661	71.19
265.894	87.19
266.126	85.19
266.358	85.19
266.591	76.19
266.823	80.19
267.055	75.19
267.287	91.19
267.52	75.19
267.752	71.19
267.984	81.19
268.216	71.19
268.448	80.19
268.681	63.19
268.913	87.19
269.145	81.19
269.377	89.19
269.609	72.19
269.841	71.19
270.073	70.19
270.306	69.19
270.538	80.19
270.77	79.19
271.002	75.19
271.234	87.19
271.466	92.19
271.698	79.19
271.93	74.19
272.162	90.19
272.394	88.19
272.626	82.19
272.858	85.19
273.09	93.19
273.322	96.19
273.553	76.19
273.785	77.19
274.017	80.19
274.249	70.19
274.481	82.19
274.713	75.19
274.945	76.19
275.176	87.19
275.408	100.19
275.64	93.19
275.872	88.19
276.104	77.19
276.335	84.19
276.567	75.19
276.799	87.19
277.031	75.19
277.262	82.19
277.494	89.19
277.726	79.19
277.957	67.19
278.189	73.19
278.421	80.19
278.652	97.19
278.884	73.19
279.115	97.19
279.347	88.19
279.579	94.19
279.81	83.19
280.042	87.19
280.273	81.19
280.505	83.19
280.736	96.19
280.968	91.19
281.199	94.19
281.431	83.19
281.662	95.19
281.894	89.19
282.125	87.19
282.356	77.19
282.588	79.19
282.819	88.19
283.051	82.19
283.282	77.19
283.513	82.19
283.745	72.19
283.976	84.19
284.207	79.19
284.439	83.19
284.67	93.19
284.901	68.19
285.132	87.19
285.364	77.19
285.595	73.19
285.826	79.19
286.057	89.19
286.288	92.19
286.52	84.19
286.751	96.19
286.982	94.19
287.213	70.19
287.444	84.19
287.675	71.19
287.906	68.19
288.138	105.19
288.369	91.19
288.6	94.19
288.831	73.19
289.062	75.19
289.293	85.19
289.524	82.19
289.755	73.19
289.986	80.19
290.217	86.19
290.448	85.19
290.679	72.19
290.91	87.19
291.141	83.19
291.371	85.19
291.602	88.19
291.833	86.19
292.064	77.19
292.295	81.19
292.526	85.19
292.757	83.19
292.987	90.19
293.218	70.19
293.449	83.19
293.68	87.19
293.91	86.19
294.141	94.19
294.372	77.19
294.603	87.19
294.833	83.19
295.064	76.19
295.295	69.19
295.525	68.19
295.756	90.19
295.987	73.19
296.217	74.19
296.448	86.19
296.679	82.19
296.909	98.19
297.14	88.19
297.37	83.19
297.601	73.19
297.831	78.19
298.062	80.19
298.292	80.19
298.523	87.19
298.753	72.19
298.984	67.19
299.214	78.19
299.445	91.19
299.675	79.19
299.905	84.19
300.136	82.19
300.366	78.19
300.597	79.19
300.827	89.19
301.057	76.19
301.288	89.19
301.518	68.19
301.748	81.19
301.979	87.19
302.209	77.19
302.439	84.19
302.669	77.19
302.9	72.19
303.13	95.19
303.36	87.19
303.59	92.19
303.82	74.19
304.051	81.19
304.281	89.19
304.511	80.19
304.741	87.19
304.971	78.19
305.201	87.19
305.431	93.19
305.661	63.19
305.891	65.19
306.121	85.19
306.352	83.19
306.582	93.19
306.812	98.19
307.042	79.19
307.272	85.19
307.502	92.19
307.731	77.19
307.961	85.19
308.191	98.19
308.421	72.19
308.651	80.19
308.881	96.19
309.111	88.19
309.341	89.19
309.571	74.19
309.8	79.19
310.03	82.19
310.26	88.19
310.49	87.19
310.72	93.19
310.949	87.19
311.179	76.19
311.409	74.19
311.639	80.19
311.868	76.19
312.098	97.19
312.328	91.19
312.557	82.19
312.787	99.19
313.017	85.19
313.246	78.19
313.476	89.19
313.706	93.19
313.935	83.19
314.165	81.19
314.394	77.19
314.624	85.19
314.853	89.19
315.083	87.19
315.312	88.19
315.542	84.19
315.771	99.19
316.001	89.19
316.23	89.19
316.46	77.19
316.689	86.19
316.919	89.19
317.148	83.19
317.377	87.19
317.607	98.19
317.836	94.19
318.065	124.19
318.295	98.19
318.524	63.19
318.753	86.19
318.983	89.19
319.212	91.19
319.441	64.19
319.67	90.19
319.9	75.19
320.129	72.19
320.358	95.19
320.587	73.19
320.816	77.19
321.046	79.19
321.275	81.19
321.504	84.19
321.733	79.19
321.962	73.19
322.191	80.19
322.42	99.19
322.649	69.19
322.878	87.19
323.108	104.19
323.337	70.19
323.566	77.19
323.795	85.19
324.024	68.19
324.253	78.19
324.482	81.19
324.71	93.19
324.939	83.19
325.168	83.19
325.397	97.19
325.626	91.19
325.855	81.19
326.084	92.19
326.313	72.19
326.542	87.19
326.77	87.19
326.999	87.19
327.228	72.19
327.457	74.19
327.686	79.19
327.914	87.19
328.143	78.19
328.372	73.19
328.6	83.19
328.829	84.19
329.058	85.19
329.287	81.19
329.515	77.19
329.744	94.19
329.972	88.19
330.201	81.19
330.43	74.19
330.658	71.19
330.887	78.19
331.115	73.19
331.344	82.19
331.572	84.19
331.801	78.19
332.03	96.19
332.258	81.19
332.486	77.19
332.715	78.19
332.943	79.19
333.172	76.19
333.4	91.19
333.629	99.19
333.857	89.19
334.085	81.19
334.314	81.19
334.542	83.19
334.771	89.19
334.999	90.19
335.227	93.19
335.455	71.19
335.684	88.19
335.912	91.19
336.14	89.19
336.369	91.19
336.597	86.19
336.825	83.19
337.053	81.19
337.281	87.19
337.51	85.19
337.738	88.19
337.966	75.19
338.194	78.19
338.422	72.19
338.65	83.19
338.878	73.19
339.106	75.19
339.334	87.19
339.562	86.19
339.79	93.19
340.018	77.19
340.246	84.19
340.474	79.19
340.702	76.19
340.93	85.19
341.158	75.19
341.386	99.19
341.614	80.19
341.842	87.19
342.07	75.19
342.298	89.19
342.526	90.19
342.754	87.19
342.981	91.19
343.209	81.19
343.437	80.19
343.665	88.19
343.893	79.19
344.12	85.19
344.348	75.19
344.576	80.19
344.804	85.19
345.031	77.19
345.259	72.19
345.487	91.19
345.714	83.19
345.942	75.19
346.17	83.19
346.397	82.19
346.625	78.19
346.853	92.19
347.08	73.19
347.308	89.19
347.535	70.19
347.763	80.19
347.99	82.19
348.218	89.19
348.445	77.19
348.673	72.19
348.9	90.19
349.128	79.19
349.355	91.19
349.583	72.19
349.81	79.19
350.037	79.19
350.265	89.19
350.492	86.19
350.72	88.19
350.947	83.19
351.174	77.19
351.402	73.19
351.629	69.19
351.856	89.19
352.083	87.19
352.311	92.19
352.538	79.19
352.765	87.19
352.992	88.19
353.22	83.19
353.447	66.19
353.674	86.19
353.901	94.19
354.128	87.19
354.355	88.19
354.583	91.19
354.81	85.19
355.037	87.19
355.264	89.19
355.491	82.19
355.718	92.19
355.945	87.19
356.172	80.19
356.399	83.19
356.626	86.19
356.853	91.19
357.08	81.19
357.307	86.19
357.534	73.19
357.761	87.19
357.988	68.19
358.215	85.19
358.441	90.19
358.668	83.19
358.895	79.19
359.122	84.19
359.349	87.19
359.576	79.19
359.802	102.19
360.029	87.19
360.256	93.19
360.483	75.19
360.709	89.19
360.936	73.19
361.163	67.19
361.39	93.19
361.616	84.19
361.843	89.19
362.07	87.19
362.296	92.19
362.523	84.19
362.749	73.19
362.976	83.19
363.203	101.19
363.429	87.19
363.656	85.19
363.882	89.19
364.109	73.19
364.335	75.19
364.562	93.19
364.788	93.19
365.015	82.19
365.241	89.19
365.468	75.19
365.694	86.19
365.92	87.19
366.147	74.19
366.373	82.19
366.599	82.19
366.826	83.19
367.052	79.19
367.278	72.19
367.505	84.19
367.731	94.19
367.957	88.19
368.184	85.19
368.41	87.19
368.636	88.19
368.862	85.19
369.089	81.19
369.315	85.19
369.541	77.19
369.767	82.19
369.993	87.19
370.219	85.19
370.445	93.19
370.672	85.19
370.898	85.19
371.124	98.19
371.35	72.19
371.576	87.19
371.802	92.19
372.028	75.19
372.254	74.19
372.48	89.19
372.706	83.19
372.932	80.19
373.158	97.19
373.384	90.19
373.61	109.19
373.835	116.19
374.061	99.19
374.287	93.19
374.513	77.19
374.739	101.19
374.965	84.19
375.191	97.19
375.416	84.19
375.642	78.19
375.868	87.19
376.094	84.19
376.319	82.19
376.545	84.19
376.771	87.19
376.997	70.19
377.222	86.19
377.448	77.19
377.674	79.19
377.899	67.19
378.125	75.19
378.35	80.19
378.576	74.19
378.802	85.19
379.027	83.19
379.253	88.19
379.478	92.19
379.704	76.19
379.929	74.19
380.155	80.19
380.38	90.19
380.606	70.19
380.831	81.19
381.057	82.19
381.282	95.19
381.507	88.19
381.733	94.19
381.958	91.19
382.184	90.19
382.409	80.19
382.634	93.19
382.86	83.19
383.085	67.19
383.31	112.19
383.535	83.19
383.761	79.19
383.986	81.19
384.211	81.19
384.436	78.19
384.662	96.19
384.887	82.19
385.112	94.19
385.337	79.19
385.562	95.19
385.787	80.19
386.013	90.19
386.238	101.19
386.463	84.19
386.688	74.19
386.913	82.19
387.138	83.19
387.363	90.19
387.588	83.19
387.813	84.19
388.038	97.19
388.263	93.19
388.488	88.19
388.713	89.19
388.938	73.19
389.163	74.19
389.387	87.19
389.612	84.19
389.837	95.19
390.062	89.19
390.287	96.19
390.512	81.19
390.736	90.19
390.961	79.19
391.186	94.19
391.411	87.19
391.636	85.19
391.86	85.19
392.085	101.19
392.31	88.19
392.534	88.19
392.759	103.19
392.984	156.19
393.208	273.19
393.433	419.19
393.658	321.19
393.882	134.19
394.107	95.19
394.331	96.19
394.556	103.19
394.78	99.19
395.005	96.19
395.229	83.19
395.454	93.19
395.678	83.19
395.903	109.19
396.127	123.19
396.352	139.19
396.576	173.19
396.801	283.19
397.025	352.19
397.249	175.19
397.474	91.19
397.698	97.19
397.922	91.19
398.147	71.19
398.371	85.19
398.595	95.19
398.82	87.19
399.044	85.19
399.268	65.19
399.492	79.19
399.717	87.19
399.941	80.19
400.165	79.19
400.389	87.19
400.613	88.19
400.837	93.19
401.062	67.19
401.286	91.19
401.51	80.19
401.734	71.19
401.958	72.19
402.182	82.19
402.406	75.19
402.63	87.19
402.854	79.19
403.078	67.19
403.302	71.19
403.526	78.19
403.75	85.19
403.974	79.19
404.198	81.19
404.422	62.19
404.645	77.19
404.869	81.19
405.093	80.19
405.317	73.19
405.541	80.19
405.765	84.19
405.988	78.19
406.212	77.19
406.436	96.19
406.66	88.19
406.883	82.19
407.107	71.19
407.331	83.19
407.555	110.19
407.778	115.19
408.002	115.19
408.226	77.19
408.449	77.19
408.673	88.19
408.896	87.19
409.12	85.19
409.344	91.19
409.567	87.19
409.791	93.19
410.014	85.19
410.238	99.19
410.461	97.19
410.685	75.19
410.908	72.19
411.132	59.19
411.355	83.19
411.578	79.19
411.802	79.19
412.025	60.19
412.249	69.19
412.472	93.19
412.695	79.19
412.919	77.19
413.142	75.19
413.365	83.19
413.589	85.19
413.812	87.19
414.035	83.19
414.258	88.19
414.482	77.19
414.705	88.19
414.928	87.19
415.151	96.19
415.374	72.19
415.597	83.19
415.821	75.19
416.044	78.19
416.267	87.19
416.49	68.19
416.713	79.19
416.936	82.19
417.159	75.19
417.382	82.19
417.605	83.19
417.828	86.19
418.051	88.19
418.274	84.19
418.497	71.19
418.72	88.19
418.943	79.19
419.166	67.19
419.389	78.19
419.611	79.19
419.834	64.19
420.057	85.19
420.28	87.19
420.503	80.19
420.726	96.19
420.948	94.19
421.171	84.19
421.394	85.19
421.617	124.19
421.839	120.19
422.062	104.19
422.285	114.19
422.507	175.19
422.73	260.19
422.953	224.19
423.175	113.19
423.398	93.19
423.621	76.19
423.843	85.19
424.066	80.19
424.288	90.19
424.511	82.19
424.733	93.19
424.956	87.19
425.178	73.19
425.401	88.19
425.623	90.19
425.846	83.19
426.068	83.19
426.291	80.19
426.513	76.19
426.735	85.19
426.958	91.19
427.18	84.19
427.402	79.19
427.625	79.19
427.847	76.19
428.069	82.19
428.292	98.19
428.514	105.19
428.736	111.19
428.958	96.19
429.181	93.19
429.403	88.19
429.625	75.19
429.847	89.19
430.069	103.19
430.292	131.19
430.514	131.19
430.736	103.19
430.958	127.19
431.18	89.19
431.402	76.19
431.624	59.19
431.846	85.19
432.068	95.19
432.29	75.19
432.512	82.19
432.734	74.19
432.956	86.19
433.178	89.19
433.4	79.19
433.622	77.19
433.844	85.19
434.066	85.19
434.287	75.19
434.509	76.19
434.731	81.19
434.953	83.19
435.175	79.19
435.397	71.19
435.618	81.19
435.84	81.19
436.062	92.19
436.284	79.19
436.505	79.19
436.727	82.19
436.949	80.19
437.17	78.19
437.392	85.19
437.614	71.19
437.835	72.19
438.057	64.19
438.278	81.19
438.5	85.19
438.721	75.19
438.943	72.19
439.165	74.19
439.386	72.19
439.608	71.19
439.829	73.19
440.05	81.19
440.272	68.19
440.493	79.19
440.715	87.19
440.936	67.19
441.158	81.19
441.379	82.19
441.6	62.19
441.822	69.19
442.043	80.19
442.264	84.19
442.486	97.19
442.707	113.19
442.928	105.19
443.149	104.19
443.371	107.19
443.592	136.19
443.813	138.19
444.034	91.19
444.255	79.19
444.476	78.19
444.698	83.19
444.919	67.19
445.14	164.19
445.361	143.19
445.582	148.19
445.803	143.19
446.024	77.19
446.245	83.19
446.466	79.19
446.687	63.19
446.908	73.19
447.129	83.19
447.35	79.19
447.571	78.19
447.792	89.19
448.013	79.19
448.234	92.19
448.455	82.19
448.675	85.19
448.896	76.19
449.117	80.19
449.338	86.19
449.559	85.19
449.779	59.19
450	88.19
450.221	67.19
450.442	83.19
450.662	68.19
450.883	89.19
451.104	85.19
451.324	79.19
451.545	73.19
451.766	86.19
451.986	81.19
452.207	86.19
452.428	82.19
452.648	72.19
452.869	91.19
453.089	81.19
453.31	92.19
453.53	86.19
453.751	87.19
453.971	83.19
454.192	80.19
454.412	95.19
454.633	83.19
454.853	70.19
455.073	77.19
455.294	87.19
455.514	93.19
455.734	67.19
455.955	89.19
456.175	72.19
456.395	88.19
456.616	96.19
456.836	96.19
457.056	76.19
457.276	85.19
457.497	91.19
457.717	72.19
457.937	91.19
458.157	75.19
458.377	104.19
458.598	71.19
458.818	91.19
459.038	91.19
459.258	90.19
459.478	65.19
459.698	80.19
459.918	79.19
460.138	82.19
460.358	72.19
460.578	92.19
460.798	99.19
461.018	98.19
461.238	81.19
461.458	83.19
461.678	88.19
461.898	84.19
462.118	83.19
462.338	88.19
462.558	79.19
462.777	56.19
462.997	89.19
463.217	74.19
463.437	84.19
463.657	81.19
463.876	81.19
464.096	74.19
464.316	78.19
464.536	72.19
464.755	79.19
464.975	81.19
465.195	77.19
465.414	71.19
465.634	87.19
465.854	85.19
466.073	89.19
466.293	93.19
466.512	80.19
466.732	85.19
466.951	86.19
467.171	77.19
467.391	67.19
467.61	77.19
467.829	85.19
468.049	63.19
468.268	83.19
468.488	75.19
468.707	79.19
468.927	92.19
469.146	83.19
469.365	83.19
469.585	80.19
469.804	74.19
470.023	79.19
470.243	95.19
470.462	82.19
470.681	76.19
470.901	79.19
471.12	79.19
471.339	72.19
471.558	80.19
471.777	94.19
471.997	73.19
472.216	95.19
472.435	80.19
472.654	87.19
472.873	71.19
473.092	72.19
473.311	73.19
473.53	68.19
473.749	81.19
473.968	75.19
474.187	107.19
474.406	75.19
474.625	74.19
474.844	82.19
475.063	87.19
475.282	96.19
475.501	77.19
475.72	94.19
475.939	80.19
476.158	90.19
476.377	97.19
476.596	88.19
476.814	92.19
477.033	79.19
477.252	90.19
477.471	67.19
477.69	81.19
477.908	73.19
478.127	89.19
478.346	62.19
478.564	79.19
478.783	77.19
479.002	69.19
479.22	71.19
479.439	80.19
479.658	59.19
479.876	80.19
480.095	89.19
480.313	85.19
480.532	73.19
480.751	71.19
480.969	74.19
481.188	79.19
481.406	68.19
481.624	72.19
481.843	87.19
482.061	85.19
482.28	78.19
482.498	79.19
482.717	81.19
482.935	70.19
483.153	78.19
483.372	79.19
483.59	74.19
483.808	79.19
484.027	92.19
484.245	84.19
484.463	74.19
484.681	94.19
484.9	81.19
485.118	81.19
485.336	83.19
485.554	79.19
485.772	79.19
485.99	76.19
486.209	73.19
486.427	79.19
486.645	82.19
486.863	79.19
487.081	86.19
487.299	92.19
487.517	87.19
487.735	91.19
487.953	118.19
488.171	101.19
488.389	79.19
488.607	83.19
488.825	68.19
489.043	90.19
489.261	84.19
489.479	85.19
489.696	86.19
489.914	68.19
490.132	74.19
490.35	75.19
490.568	91.19
490.786	73.19
491.003	81.19
491.221	90.19
491.439	71.19
491.657	87.19
491.874	65.19
492.092	105.19
492.31	69.19
492.527	83.19
492.745	83.19
492.963	74.19
493.18	77.19
493.398	84.19
493.615	88.19
493.833	84.19
494.05	76.19
494.268	69.19
494.485	74.19
494.703	70.19
494.92	84.19
495.138	98.19
495.355	88.19
495.573	89.19
495.79	89.19
496.008	74.19
496.225	91.19
496.442	76.19
496.66	77.19
496.877	85.19
497.094	94.19
497.312	88.19
497.529	79.19
497.746	83.19
497.963	82.19
498.181	79.19
498.398	73.19
498.615	80.19
498.832	93.19
499.049	88.19
499.267	71.19
499.484	91.19
499.701	83.19
499.918	84.19
500.135	92.19
500.352	78.19
500.569	84.19
500.786	97.19
501.003	78.19
501.22	84.19
501.437	90.19
501.654	88.19
501.871	83.19
502.088	84.19
502.305	87.19
502.522	87.19
502.739	72.19
502.956	84.19
503.172	76.19
503.389	84.19
503.606	98.19
503.823	85.19
504.04	92.19
504.256	89.19
504.473	96.19
504.69	81.19
504.907	85.19
505.123	70.19
505.34	89.19
505.557	77.19
505.773	81.19
505.99	73.19
506.207	84.19
506.423	77.19
506.64	85.19
506.856	62.19
507.073	73.19
507.289	80.19
507.506	95.19
507.722	89.19
507.939	78.19
508.155	75.19
508.372	92.19
508.588	86.19
508.805	91.19
509.021	70.19
509.238	82.19
509.454	71.19
509.67	86.19
509.887	67.19
510.103	86.19
510.319	89.19
510.536	88.19
510.752	83.19
510.968	91.19
511.184	101.19
511.401	75.19
511.617	72.19
511.833	72.19
512.049	84.19
512.265	79.19
512.481	73.19
512.698	93.19
512.914	96.19
513.13	93.19
513.346	80.19
513.562	77.19
513.778	80.19
513.994	79.19
514.21	100.19
514.426	88.19
514.642	77.19
514.858	92.19
515.074	77.19
515.29	71.19
515.506	67.19
515.721	84.19
515.937	99.19
516.153	93.19
516.369	87.19
516.585	78.19
516.801	80.19
517.016	87.19
517.232	79.19
517.448	83.19
517.664	77.19
517.879	75.19
518.095	77.19
518.311	84.19
518.527	78.19
518.742	85.19
518.958	102.19
519.173	98.19
519.389	83.19
519.605	71.19
519.82	79.19
520.036	91.19
520.251	69.19
520.467	96.19
520.682	93.19
520.898	83.19
521.113	93.19
521.329	83.19
521.544	87.19
521.76	81.19
521.975	89.19
522.19	86.19
522.406	99.19
522.621	71.19
522.836	90.19
523.052	97.19
523.267	88.19
523.482	91.19
523.698	89.19
523.913	85.19
524.128	79.19
524.343	78.19
524.559	93.19
524.774	84.19
524.989	88.19
525.204	87.19
525.419	76.19
525.634	87.19
525.849	94.19
526.064	90.19
526.28	124.19
526.495	135.19
526.71	162.19
526.925	124.19
527.14	147.19
527.355	139.19
527.57	95.19
527.785	79.19
527.999	95.19
528.214	78.19
528.429	83.19
528.644	87.19
528.859	82.19
529.074	73.19
529.289	89.19
529.503	73.19
529.718	84.19
529.933	89.19
530.148	79.19
530.363	82.19
530.577	97.19
530.792	79.19
531.007	91.19
531.221	89.19
531.436	90.19
531.651	76.19
531.865	86.19
532.08	89.19
532.295	72.19
532.509	71.19
532.724	74.19
532.938	95.19
533.153	75.19
533.367	81.19
533.582	79.19
533.796	82.19
534.011	91.19
534.225	86.19
534.44	91.19
534.654	81.19
534.868	91.19
535.083	104.19
535.297	104.19
535.511	90.19
535.726	85.19
535.94	79.19
536.154	92.19
536.369	89.19
536.583	85.19
536.797	101.19
537.011	73.19
537.225	89.19
537.44	81.19
537.654	73.19
537.868	86.19
538.082	92.19
538.296	75.19
538.51	96.19
538.724	91.19
538.938	83.19
539.153	79.19
539.367	89.19
539.581	81.19
539.795	81.19
540.009	74.19
540.222	65.19
540.436	95.19
540.65	81.19
540.864	88.19
541.078	102.19
541.292	81.19
541.506	79.19
541.72	83.19
541.934	92.19
542.147	77.19
542.361	96.19
542.575	81.19
542.789	87.19
543.002	87.19
543.216	82.19
543.43	79.19
543.644	77.19
543.857	82.19
544.071	83.19
544.285	101.19
544.498	84.19
544.712	83.19
544.925	77.19
545.139	73.19
545.352	87.19
545.566	99.19
545.779	89.19
545.993	88.19
546.206	84.19
546.42	81.19
546.633	77.19
546.847	83.19
547.06	84.19
547.274	114.19
547.487	103.19
547.7	111.19
547.914	88.19
548.127	115.19
548.34	115.19
548.554	116.19
548.767	108.19
548.98	99.19
549.193	120.19
549.407	89.19
549.62	113.19
549.833	109.19
550.046	120.19
550.259	123.19
550.473	107.19
550.686	144.19
550.899	111.19
551.112	151.19
551.325	131.19
551.538	142.19
551.751	140.19
551.964	135.19
552.177	102.19
552.39	122.19
552.603	117.19
552.816	136.19
553.029	126.19
553.242	132.19
553.455	104.19
553.667	123.19
553.88	126.19
554.093	123.19
554.306	130.19
554.519	132.19
554.732	123.19
554.944	124.19
555.157	127.19
555.37	122.19
555.583	119.19
555.795	107.19
556.008	104.19
556.221	103.19
556.433	101.19
556.646	104.19
556.859	97.19
557.071	110.19
557.284	103.19
557.496	97.19
557.709	108.19
557.921	92.19
558.134	97.19
558.346	131.19
558.559	114.19
558.771	107.19
558.984	187.19
559.196	215.19
559.409	139.19
559.621	163.19
559.833	135.19
560.046	155.19
560.258	128.19
560.47	127.19
560.683	100.19
560.895	92.19
561.107	85.19
561.32	77.19
561.532	81.19
561.744	96.19
561.956	83.19
562.168	85.19
562.381	81.19
562.593	81.19
562.805	80.19
563.017	93.19
563.229	82.19
563.441	80.19
563.653	79.19
563.865	65.19
564.077	78.19
564.289	85.19
564.501	95.19
564.713	77.19
564.925	97.19
565.137	80.19
565.349	91.19
565.561	86.19
565.773	88.19
565.985	87.19
566.197	100.19
566.408	87.19
566.62	79.19
566.832	87.19
567.044	77.19
567.255	80.19
567.467	94.19
567.679	94.19
567.891	99.19
568.102	93.19
568.314	91.19
568.526	100.19
568.737	86.19
568.949	91.19
569.161	91.19
569.372	71.19
569.584	94.19
569.795	73.19
570.007	88.19
570.218	92.19
570.43	88.19
570.641	79.19
570.853	80.19
571.064	85.19
571.276	69.19
571.487	92.19
571.698	79.19
571.91	89.19
572.121	101.19
572.333	67.19
572.544	85.19
572.755	88.19
572.966	80.19
573.178	80.19
573.389	99.19
573.6	85.19
573.811	71.19
574.023	87.19
574.234	88.19
574.445	80.19
574.656	95.19
574.867	110.19
575.078	82.19
575.289	88.19
575.501	78.19
575.712	76.19
575.923	87.19
576.134	81.19
576.345	84.19
576.556	90.19
576.767	103.19
576.978	92.19
577.188	103.19
577.399	80.19
577.61	90.19
577.821	97.19
578.032	86.19
578.243	75.19
578.454	79.19
578.665	86.19
578.875	86.19
579.086	88.19
579.297	86.19
579.508	67.19
579.718	101.19
579.929	100.19
580.14	72.19
580.35	96.19
580.561	87.19
580.772	91.19
580.982	87.19
581.193	88.19
581.403	80.19
581.614	95.19
581.825	92.19
582.035	90.19
582.246	87.19
582.456	89.19
582.667	76.19
582.877	86.19
583.087	83.19
583.298	75.19
583.508	75.19
583.719	83.19
583.929	89.19
584.139	89.19
584.35	74.19
584.56	83.19
584.77	101.19
584.981	79.19
585.191	87.19
585.401	102.19
585.611	97.19
585.821	122.19
586.032	135.19
586.242	96.19
586.452	91.19
586.662	83.19
586.872	95.19
587.082	80.19
587.292	81.19
587.502	93.19
587.713	92.19
587.923	84.19
588.133	86.19
588.343	81.19
588.553	90.19
588.762	101.19
588.972	145.19
589.182	355.19
589.392	215.19
589.602	156.19
589.812	299.19
590.022	167.19
590.232	107.19
590.441	97.19
590.651	88.19
590.861	97.19
591.071	87.19
591.281	89.19
591.49	86.19
591.7	73.19
591.91	79.19
592.119	86.19
592.329	85.19
592.539	83.19
592.748	99.19
592.958	92.19
593.167	90.19
593.377	82.19
593.587	91.19
593.796	79.19
594.006	98.19
594.215	101.19
594.424	91.19
594.634	90.19
594.843	96.19
595.053	80.19
595.262	93.19
595.472	100.19
595.681	103.19
595.89	94.19
596.1	87.19
596.309	95.19
596.518	107.19
596.727	108.19
596.937	102.19
597.146	102.19
597.355	102.19
597.564	114.19
597.774	107.19
597.983	121.19
598.192	101.19
598.401	99.19
598.61	94.19
598.819	97.19
599.028	111.19
599.237	109.19
599.446	101.19
599.655	111.19
599.864	98.19
600.073	112.19
600.282	93.19
600.491	123.19
600.7	112.19
600.909	107.19
601.118	102.19
601.327	92.19
601.536	100.19
601.745	88.19
601.953	107.19
602.162	89.19
602.371	103.19
602.58	103.19
602.789	109.19
602.997	114.19
603.206	112.19
603.415	105.19
603.623	104.19
603.832	111.19
604.041	107.19
604.249	111.19
604.458	97.19
604.666	104.19
604.875	103.19
605.084	117.19
605.292	124.19
605.501	115.19
605.709	109.19
605.918	113.19
606.126	124.19
606.334	112.19
606.543	110.19
606.751	122.19
606.96	126.19
607.168	100.19
607.376	117.19
607.585	114.19
607.793	119.19
608.001	109.19
608.21	113.19
608.418	103.19
608.626	113.19
608.834	102.19
609.043	114.19
609.251	106.19
609.459	116.19
609.667	107.19
609.875	131.19
610.083	121.19
610.291	127.19
610.499	149.19
610.707	121.19
610.916	135.19
611.124	113.19
611.332	130.19
611.54	133.19
611.748	125.19
611.955	105.19
612.163	123.19
612.371	181.19
612.579	167.19
612.787	138.19
612.995	141.19
613.203	129.19
613.411	121.19
613.618	119.19
613.826	111.19
614.034	125.19
614.242	132.19
614.449	124.19
614.657	122.19
614.865	113.19
615.072	120.19
615.28	124.19
615.488	119.19
615.695	123.19
615.903	125.19
616.111	150.19
616.318	191.19
616.526	205.19
616.733	146.19
616.941	145.19
617.148	154.19
617.356	130.19
617.563	124.19
617.771	124.19
617.978	109.19
618.185	138.19
618.393	114.19
618.6	116.19
618.807	115.19
619.015	100.19
619.222	111.19
619.429	100.19
619.637	122.19
619.844	103.19
620.051	107.19
620.258	113.19
620.466	105.19
620.673	107.19
620.88	113.19
621.087	108.19
621.294	104.19
621.501	122.19
621.708	104.19
621.915	104.19
622.122	115.19
622.329	119.19
622.536	116.19
622.743	116.19
622.95	105.19
623.157	99.19
623.364	117.19
623.571	113.19
623.778	111.19
623.985	120.19
624.192	102.19
624.399	116.19
624.606	109.19
624.812	99.19
625.019	118.19
625.226	96.19
625.433	113.19
625.639	112.19
625.846	116.19
626.053	110.19
626.259	94.19
626.466	118.19
626.673	104.19
626.879	100.19
627.086	99.19
627.293	97.19
627.499	103.19
627.706	96.19
627.912	87.19
628.119	91.19
628.325	91.19
628.532	80.19
628.738	106.19
628.945	88.19
629.151	79.19
629.357	87.19
629.564	88.19
629.77	91.19
629.976	85.19
630.183	69.19
630.389	86.19
630.595	85.19
630.802	83.19
631.008	93.19
631.214	82.19
631.42	69.19
631.627	102.19
631.833	92.19
632.039	78.19
632.245	103.19
632.451	89.19
632.657	80.19
632.863	78.19
633.069	88.19
633.275	94.19
633.481	80.19
633.688	89.19
633.893	91.19
634.099	84.19
634.305	81.19
634.511	82.19
634.717	108.19
634.923	83.19
635.129	78.19
635.335	89.19
635.541	98.19
635.747	95.19
635.952	96.19
636.158	71.19
636.364	83.19
636.57	83.19
636.775	95.19
636.981	83.19
637.187	85.19
637.392	91.19
637.598	88.19
637.804	101.19
638.009	70.19
638.215	81.19
638.421	77.19
638.626	91.19
638.832	87.19
639.037	81.19
639.243	85.19
639.448	91.19
639.654	99.19
639.859	88.19
640.065	79.19
640.27	74.19
640.475	83.19
640.681	84.19
640.886	91.19
641.091	84.19
641.297	92.19
641.502	82.19
641.707	72.19
641.913	95.19
642.118	61.19
642.323	80.19
642.528	75.19
642.733	83.19
642.939	95.19
643.144	87.19
643.349	77.19
643.554	89.19
643.759	96.19
643.964	93.19
644.169	124.19
644.374	93.19
644.579	93.19
644.784	89.19
644.989	98.19
645.194	104.19
645.399	93.19
645.604	87.19
645.809	89.19
646.014	92.19
646.219	85.19
646.423	134.19
646.628	98.19
646.833	100.19
647.038	88.19
647.243	86.19
647.447	91.19
647.652	80.19
647.857	87.19
648.062	83.19
648.266	84.19
648.471	73.19
648.676	97.19
648.88	88.19
649.085	84.19
649.289	76.19
649.494	93.19
649.698	91.19
649.903	76.19
650.107	88.19
650.312	80.19
650.516	85.19
650.721	100.19
650.925	78.19
651.13	91.19
651.334	90.19
651.539	84.19
651.743	77.19
651.947	89.19
652.152	89.19
652.356	81.19
652.56	95.19
652.764	90.19
652.969	88.19
653.173	83.19
653.377	85.19
653.581	83.19
653.785	79.19
653.99	86.19
654.194	63.19
654.398	72.19
654.602	97.19
654.806	72.19
655.01	77.19
655.214	74.19
655.418	66.19
655.622	75.19
655.826	63.19
656.03	75.19
656.234	85.19
656.438	79.19
656.642	93.19
656.846	89.19
657.049	78.19
657.253	85.19
657.457	83.19
657.661	79.19
657.865	87.19
658.068	86.19
658.272	86.19
658.476	74.19
658.68	74.19
658.883	78.19
659.087	81.19
659.291	73.19
659.494	78.19
659.698	73.19
659.901	71.19
660.105	84.19
660.309	81.19
660.512	76.19
660.716	77.19
660.919	73.19
661.123	76.19
661.326	83.19
661.53	73.19
661.733	87.19
661.936	83.19
662.14	79.19
662.343	80.19
662.546	79.19
662.75	70.19
662.953	93.19
663.156	91.19
663.36	82.19
663.563	79.19
663.766	85.19
663.969	88.19
664.173	80.19
664.376	76.19
664.579	56.19
664.782	69.19
664.985	76.19
665.188	83.19
665.391	98.19
665.594	83.19
665.797	79.19
666	88.19
666.203	94.19
666.406	91.19
666.609	73.19
666.812	97.19
667.015	95.19
667.218	73.19
667.421	82.19
667.624	83.19
667.827	77.19
668.03	66.19
668.232	73.19
668.435	77.19
668.638	76.19
668.841	76.19
669.043	78.19
669.246	81.19
669.449	83.19
669.651	81.19
669.854	78.19
670.057	63.19
670.259	82.19
670.462	72.19
670.665	69.19
670.867	86.19
671.07	81.19
671.272	90.19
671.475	96.19
671.677	73.19
671.88	81.19
672.082	73.19
672.284	79.19
672.487	70.19
672.689	81.19
672.892	77.19
