Data from 17600_1_HRD10591_00006.txt Node
Date: Mon Jan 19 14:07:27 EST 2026
User: Yrep
Spectrometer: HR+D1059
Trigger mode: 1
Integration Time (sec): 1.000000E-1
Scans to average: 1
Electric dark correction enabled: true
Nonlinearity correction enabled: false
Boxcar width: 0
XAxis mode: Wavelengths
Number of Pixels in Spectrum: 2048
>>>>>Begin Spectral Data<<<<<
223.165	-14.88
223.4	-14.88
223.635	-14.88
223.869	-10.88
224.104	-35.88
224.338	-22.88
224.573	-4.88
224.808	-11.88
225.042	-3.88
225.277	0.12
225.511	7.12
225.746	-0.88
225.98	-2.88
226.215	8.12
226.449	23.12
226.683	18.12
226.918	19.12
227.152	33.12
227.387	16.12
227.621	39.12
227.856	48.12
228.09	51.12
228.324	67.12
228.559	64.12
228.793	45.12
229.027	58.12
229.262	56.12
229.496	63.12
229.73	61.12
229.964	72.12
230.199	74.12
230.433	74.12
230.667	83.12
230.901	80.12
231.136	68.12
231.37	71.12
231.604	77.12
231.838	91.12
232.072	84.12
232.306	86.12
232.541	71.12
232.775	68.12
233.009	79.12
233.243	81.12
233.477	81.12
233.711	74.12
233.945	67.12
234.179	67.12
234.413	75.12
234.647	80.12
234.881	61.12
235.115	91.12
235.349	71.12
235.583	73.12
235.817	81.12
236.051	64.12
236.285	86.12
236.519	82.12
236.753	63.12
236.987	64.12
237.221	66.12
237.455	69.12
237.689	82.12
237.922	84.12
238.156	79.12
238.39	70.12
238.624	60.12
238.858	64.12
239.091	73.12
239.325	66.12
239.559	64.12
239.793	60.12
240.027	80.12
240.26	67.12
240.494	72.12
240.728	65.12
240.961	77.12
241.195	86.12
241.429	85.12
241.662	72.12
241.896	63.12
242.13	64.12
242.363	64.12
242.597	76.12
242.83	77.12
243.064	85.12
243.298	83.12
243.531	63.12
243.765	80.12
243.998	75.12
244.232	75.12
244.465	70.12
244.699	75.12
244.932	82.12
245.166	82.12
245.399	83.12
245.633	77.12
245.866	70.12
246.099	75.12
246.333	82.12
246.566	82.12
246.8	71.12
247.033	77.12
247.266	92.12
247.5	80.12
247.733	76.12
247.966	71.12
248.2	64.12
248.433	76.12
248.666	85.12
248.899	69.12
249.133	76.12
249.366	65.12
249.599	80.12
249.832	80.12
250.066	75.12
250.299	66.12
250.532	80.12
250.765	76.12
250.998	68.12
251.231	89.12
251.465	93.12
251.698	79.12
251.931	82.12
252.164	88.12
252.397	80.12
252.63	72.12
252.863	79.12
253.096	93.12
253.329	87.12
253.562	77.12
253.795	67.12
254.028	90.12
254.261	70.12
254.494	67.12
254.727	70.12
254.96	69.12
255.193	72.12
255.426	81.12
255.659	104.12
255.892	87.12
256.124	90.12
256.357	88.12
256.59	73.12
256.823	80.12
257.056	66.12
257.289	79.12
257.521	77.12
257.754	77.12
257.987	82.12
258.22	79.12
258.452	72.12
258.685	70.12
258.918	67.12
259.151	72.12
259.383	90.12
259.616	86.12
259.849	80.12
260.081	84.12
260.314	86.12
260.547	87.12
260.779	74.12
261.012	80.12
261.244	89.12
261.477	94.12
261.71	69.12
261.942	84.12
262.175	84.12
262.407	86.12
262.64	77.12
262.872	70.12
263.105	77.12
263.337	74.12
263.57	78.12
263.802	86.12
264.035	78.12
264.267	78.12
264.499	77.12
264.732	74.12
264.964	72.12
265.197	87.12
265.429	76.12
265.661	89.12
265.894	91.12
266.126	82.12
266.358	83.12
266.591	78.12
266.823	72.12
267.055	73.12
267.287	71.12
267.52	80.12
267.752	76.12
267.984	93.12
268.216	83.12
268.448	84.12
268.681	75.12
268.913	82.12
269.145	76.12
269.377	76.12
269.609	69.12
269.841	90.12
270.073	92.12
270.306	87.12
270.538	89.12
270.77	62.12
271.002	69.12
271.234	85.12
271.466	77.12
271.698	71.12
271.93	84.12
272.162	70.12
272.394	80.12
272.626	86.12
272.858	79.12
273.09	82.12
273.322	87.12
273.553	92.12
273.785	69.12
274.017	86.12
274.249	96.12
274.481	69.12
274.713	98.12
274.945	90.12
275.176	78.12
275.408	84.12
275.64	89.12
275.872	88.12
276.104	66.12
276.335	76.12
276.567	84.12
276.799	82.12
277.031	82.12
277.262	86.12
277.494	99.12
277.726	71.12
277.957	77.12
278.189	78.12
278.421	86.12
278.652	71.12
278.884	79.12
279.115	95.12
279.347	77.12
279.579	90.12
279.81	77.12
280.042	99.12
280.273	88.12
280.505	92.12
280.736	80.12
280.968	88.12
281.199	92.12
281.431	83.12
281.662	86.12
281.894	91.12
282.125	94.12
282.356	93.12
282.588	83.12
282.819	90.12
283.051	82.12
283.282	84.12
283.513	96.12
283.745	75.12
283.976	77.12
284.207	79.12
284.439	92.12
284.67	76.12
284.901	83.12
285.132	104.12
285.364	94.12
285.595	90.12
285.826	92.12
286.057	95.12
286.288	94.12
286.52	80.12
286.751	79.12
286.982	104.12
287.213	73.12
287.444	96.12
287.675	94.12
287.906	89.12
288.138	88.12
288.369	96.12
288.6	84.12
288.831	92.12
289.062	77.12
289.293	92.12
289.524	86.12
289.755	83.12
289.986	81.12
290.217	79.12
290.448	85.12
290.679	90.12
290.91	81.12
291.141	83.12
291.371	99.12
291.602	96.12
291.833	75.12
292.064	87.12
292.295	84.12
292.526	80.12
292.757	94.12
292.987	74.12
293.218	86.12
293.449	94.12
293.68	97.12
293.91	94.12
294.141	98.12
294.372	88.12
294.603	95.12
294.833	83.12
295.064	87.12
295.295	76.12
295.525	86.12
295.756	87.12
295.987	84.12
296.217	72.12
296.448	82.12
296.679	70.12
296.909	86.12
297.14	84.12
297.37	75.12
297.601	81.12
297.831	88.12
298.062	83.12
298.292	82.12
298.523	87.12
298.753	87.12
298.984	102.12
299.214	92.12
299.445	97.12
299.675	81.12
299.905	88.12
300.136	92.12
300.366	75.12
300.597	82.12
300.827	88.12
301.057	92.12
301.288	99.12
301.518	95.12
301.748	75.12
301.979	106.12
302.209	104.12
302.439	94.12
302.669	71.12
302.9	75.12
303.13	80.12
303.36	84.12
303.59	88.12
303.82	75.12
304.051	91.12
304.281	95.12
304.511	90.12
304.741	68.12
304.971	97.12
305.201	82.12
305.431	83.12
305.661	91.12
305.891	87.12
306.121	85.12
306.352	83.12
306.582	88.12
306.812	80.12
307.042	72.12
307.272	76.12
307.502	81.12
307.731	75.12
307.961	99.12
308.191	104.12
308.421	77.12
308.651	91.12
308.881	93.12
309.111	108.12
309.341	95.12
309.571	101.12
309.8	81.12
310.03	97.12
310.26	81.12
310.49	94.12
310.72	80.12
310.949	94.12
311.179	87.12
311.409	80.12
311.639	81.12
311.868	88.12
312.098	83.12
312.328	94.12
312.557	69.12
312.787	88.12
313.017	92.12
313.246	101.12
313.476	96.12
313.706	73.12
313.935	89.12
314.165	93.12
314.394	83.12
314.624	86.12
314.853	76.12
315.083	87.12
315.312	88.12
315.542	89.12
315.771	111.12
316.001	113.12
316.23	99.12
316.46	85.12
316.689	80.12
316.919	85.12
317.148	103.12
317.377	91.12
317.607	114.12
317.836	121.12
318.065	108.12
318.295	98.12
318.524	84.12
318.753	82.12
318.983	93.12
319.212	82.12
319.441	92.12
319.67	77.12
319.9	92.12
320.129	95.12
320.358	94.12
320.587	83.12
320.816	79.12
321.046	92.12
321.275	87.12
321.504	97.12
321.733	90.12
321.962	74.12
322.191	89.12
322.42	76.12
322.649	86.12
322.878	100.12
323.108	97.12
323.337	90.12
323.566	96.12
323.795	89.12
324.024	75.12
324.253	85.12
324.482	90.12
324.71	93.12
324.939	97.12
325.168	77.12
325.397	85.12
325.626	86.12
325.855	91.12
326.084	95.12
326.313	97.12
326.542	82.12
326.77	102.12
326.999	84.12
327.228	84.12
327.457	75.12
327.686	82.12
327.914	93.12
328.143	76.12
328.372	85.12
328.6	92.12
328.829	90.12
329.058	87.12
329.287	72.12
329.515	77.12
329.744	95.12
329.972	86.12
330.201	95.12
330.43	100.12
330.658	87.12
330.887	93.12
331.115	73.12
331.344	88.12
331.572	94.12
331.801	96.12
332.03	79.12
332.258	85.12
332.486	71.12
332.715	76.12
332.943	88.12
333.172	99.12
333.4	102.12
333.629	92.12
333.857	102.12
334.085	94.12
334.314	95.12
334.542	90.12
334.771	88.12
334.999	96.12
335.227	100.12
335.455	82.12
335.684	103.12
335.912	103.12
336.14	105.12
336.369	87.12
336.597	80.12
336.825	92.12
337.053	99.12
337.281	96.12
337.51	80.12
337.738	87.12
337.966	89.12
338.194	100.12
338.422	104.12
338.65	82.12
338.878	94.12
339.106	88.12
339.334	92.12
339.562	81.12
339.79	76.12
340.018	82.12
340.246	79.12
340.474	103.12
340.702	90.12
340.93	86.12
341.158	82.12
341.386	76.12
341.614	88.12
341.842	98.12
342.07	83.12
342.298	60.12
342.526	100.12
342.754	89.12
342.981	86.12
343.209	99.12
343.437	85.12
343.665	87.12
343.893	88.12
344.12	100.12
344.348	91.12
344.576	84.12
344.804	98.12
345.031	89.12
345.259	93.12
345.487	77.12
345.714	89.12
345.942	90.12
346.17	90.12
346.397	83.12
346.625	79.12
346.853	90.12
347.08	96.12
347.308	86.12
347.535	100.12
347.763	93.12
347.99	96.12
348.218	98.12
348.445	98.12
348.673	95.12
348.9	75.12
349.128	82.12
349.355	92.12
349.583	88.12
349.81	85.12
350.037	77.12
350.265	99.12
350.492	90.12
350.72	90.12
350.947	68.12
351.174	91.12
351.402	90.12
351.629	90.12
351.856	86.12
352.083	91.12
352.311	92.12
352.538	86.12
352.765	94.12
352.992	89.12
353.22	80.12
353.447	88.12
353.674	97.12
353.901	99.12
354.128	89.12
354.355	86.12
354.583	103.12
354.81	91.12
355.037	70.12
355.264	84.12
355.491	77.12
355.718	77.12
355.945	86.12
356.172	81.12
356.399	91.12
356.626	86.12
356.853	97.12
357.08	96.12
357.307	78.12
357.534	102.12
357.761	83.12
357.988	107.12
358.215	107.12
358.441	111.12
358.668	109.12
358.895	100.12
359.122	89.12
359.349	86.12
359.576	86.12
359.802	87.12
360.029	82.12
360.256	101.12
360.483	87.12
360.709	88.12
360.936	102.12
361.163	96.12
361.39	83.12
361.616	92.12
361.843	85.12
362.07	98.12
362.296	105.12
362.523	110.12
362.749	124.12
362.976	140.12
363.203	129.12
363.429	96.12
363.656	97.12
363.882	105.12
364.109	104.12
364.335	143.12
364.562	154.12
364.788	128.12
365.015	114.12
365.241	88.12
365.468	100.12
365.694	94.12
365.92	90.12
366.147	76.12
366.373	81.12
366.599	79.12
366.826	97.12
367.052	90.12
367.278	76.12
367.505	90.12
367.731	95.12
367.957	96.12
368.184	98.12
368.41	92.12
368.636	92.12
368.862	86.12
369.089	83.12
369.315	87.12
369.541	96.12
369.767	100.12
369.993	84.12
370.219	82.12
370.445	106.12
370.672	113.12
370.898	100.12
371.124	96.12
371.35	94.12
371.576	101.12
371.802	90.12
372.028	110.12
372.254	104.12
372.48	98.12
372.706	95.12
372.932	91.12
373.158	92.12
373.384	111.12
373.61	144.12
373.835	127.12
374.061	114.12
374.287	112.12
374.513	97.12
374.739	114.12
374.965	106.12
375.191	99.12
375.416	115.12
375.642	110.12
375.868	105.12
376.094	101.12
376.319	104.12
376.545	99.12
376.771	91.12
376.997	98.12
377.222	94.12
377.448	77.12
377.674	89.12
377.899	104.12
378.125	91.12
378.35	84.12
378.576	89.12
378.802	78.12
379.027	85.12
379.253	95.12
379.478	104.12
379.704	100.12
379.929	104.12
380.155	101.12
380.38	97.12
380.606	89.12
380.831	83.12
381.057	98.12
381.282	103.12
381.507	94.12
381.733	96.12
381.958	101.12
382.184	106.12
382.409	122.12
382.634	112.12
382.86	111.12
383.085	107.12
383.31	105.12
383.535	120.12
383.761	121.12
383.986	116.12
384.211	116.12
384.436	97.12
384.662	80.12
384.887	111.12
385.112	83.12
385.337	99.12
385.562	105.12
385.787	114.12
386.013	101.12
386.238	106.12
386.463	111.12
386.688	116.12
386.913	103.12
387.138	98.12
387.363	104.12
387.588	120.12
387.813	99.12
388.038	110.12
388.263	112.12
388.488	104.12
388.713	99.12
388.938	98.12
389.163	103.12
389.387	105.12
389.612	95.12
389.837	91.12
390.062	99.12
390.287	91.12
390.512	86.12
390.736	86.12
390.961	96.12
391.186	97.12
391.411	88.12
391.636	104.12
391.86	100.12
392.085	101.12
392.31	114.12
392.534	122.12
392.759	155.12
392.984	243.12
393.208	486.12
393.433	691.12
393.658	506.12
393.882	212.12
394.107	153.12
394.331	138.12
394.556	150.12
394.78	120.12
395.005	102.12
395.229	94.12
395.454	106.12
395.678	114.12
395.903	132.12
396.127	184.12
396.352	239.12
396.576	259.12
396.801	472.12
397.025	538.12
397.249	262.12
397.474	158.12
397.698	121.12
397.922	94.12
398.147	97.12
398.371	97.12
398.595	100.12
398.82	96.12
399.044	96.12
399.268	82.12
399.492	91.12
399.717	84.12
399.941	95.12
400.165	95.12
400.389	92.12
400.613	83.12
400.837	91.12
401.062	92.12
401.286	97.12
401.51	91.12
401.734	86.12
401.958	95.12
402.182	83.12
402.406	81.12
402.63	89.12
402.854	91.12
403.078	86.12
403.302	89.12
403.526	106.12
403.75	94.12
403.974	80.12
404.198	90.12
404.422	107.12
404.645	103.12
404.869	94.12
405.093	82.12
405.317	92.12
405.541	91.12
405.765	97.12
405.988	88.12
406.212	81.12
406.436	102.12
406.66	90.12
406.883	96.12
407.107	98.12
407.331	103.12
407.555	114.12
407.778	146.12
408.002	161.12
408.226	94.12
408.449	79.12
408.673	100.12
408.896	72.12
409.12	84.12
409.344	107.12
409.567	111.12
409.791	107.12
410.014	106.12
410.238	97.12
410.461	100.12
410.685	83.12
410.908	100.12
411.132	98.12
411.355	85.12
411.578	86.12
411.802	77.12
412.025	82.12
412.249	86.12
412.472	86.12
412.695	89.12
412.919	90.12
413.142	86.12
413.365	90.12
413.589	82.12
413.812	83.12
414.035	88.12
414.258	96.12
414.482	88.12
414.705	86.12
414.928	89.12
415.151	87.12
415.374	94.12
415.597	68.12
415.821	94.12
416.044	92.12
416.267	69.12
416.49	84.12
416.713	77.12
416.936	95.12
417.159	78.12
417.382	99.12
417.605	83.12
417.828	86.12
418.051	92.12
418.274	90.12
418.497	78.12
418.72	79.12
418.943	100.12
419.166	88.12
419.389	90.12
419.611	84.12
419.834	92.12
420.057	93.12
420.28	100.12
420.503	85.12
420.726	85.12
420.948	95.12
421.171	98.12
421.394	112.12
421.617	146.12
421.839	138.12
422.062	165.12
422.285	223.12
422.507	421.12
422.73	696.12
422.953	602.12
423.175	287.12
423.398	164.12
423.621	119.12
423.843	112.12
424.066	95.12
424.288	94.12
424.511	104.12
424.733	91.12
424.956	85.12
425.178	89.12
425.401	97.12
425.623	98.12
425.846	102.12
426.068	91.12
426.291	99.12
426.513	96.12
426.735	81.12
426.958	85.12
427.18	84.12
427.402	103.12
427.625	86.12
427.847	81.12
428.069	100.12
428.292	170.12
428.514	180.12
428.736	140.12
428.958	162.12
429.181	169.12
429.403	106.12
429.625	119.12
429.847	144.12
430.069	185.12
430.292	249.12
430.514	230.12
430.736	174.12
430.958	189.12
431.18	110.12
431.402	125.12
431.624	107.12
431.846	146.12
432.068	155.12
432.29	107.12
432.512	100.12
432.734	83.12
432.956	82.12
433.178	85.12
433.4	98.12
433.622	82.12
433.844	84.12
434.066	78.12
434.287	85.12
434.509	94.12
434.731	90.12
434.953	77.12
435.175	73.12
435.397	98.12
435.618	96.12
435.84	102.12
436.062	100.12
436.284	86.12
436.505	83.12
436.727	90.12
436.949	83.12
437.17	85.12
437.392	92.12
437.614	99.12
437.835	88.12
438.057	86.12
438.278	91.12
438.5	90.12
438.721	91.12
438.943	83.12
439.165	84.12
439.386	94.12
439.608	94.12
439.829	81.12
440.05	98.12
440.272	86.12
440.493	87.12
440.715	89.12
440.936	100.12
441.158	100.12
441.379	81.12
441.6	90.12
441.822	93.12
442.043	91.12
442.264	99.12
442.486	146.12
442.707	222.12
442.928	137.12
443.149	133.12
443.371	192.12
443.592	339.12
443.813	276.12
444.034	127.12
444.255	104.12
444.476	94.12
444.698	89.12
444.919	92.12
445.14	191.12
445.361	242.12
445.582	405.12
445.803	345.12
446.024	142.12
446.245	116.12
446.466	86.12
446.687	82.12
446.908	104.12
447.129	75.12
447.35	83.12
447.571	74.12
447.792	84.12
448.013	98.12
448.234	94.12
448.455	88.12
448.675	84.12
448.896	71.12
449.117	73.12
449.338	82.12
449.559	86.12
449.779	91.12
450	73.12
450.221	92.12
450.442	89.12
450.662	80.12
450.883	94.12
451.104	84.12
451.324	88.12
451.545	83.12
451.766	74.12
451.986	85.12
452.207	99.12
452.428	91.12
452.648	119.12
452.869	100.12
453.089	100.12
453.31	106.12
453.53	103.12
453.751	103.12
453.971	91.12
454.192	88.12
454.412	84.12
454.633	107.12
454.853	93.12
455.073	86.12
455.294	90.12
455.514	90.12
455.734	89.12
455.955	87.12
456.175	92.12
456.395	87.12
456.616	84.12
456.836	87.12
457.056	92.12
457.276	87.12
457.497	82.12
457.717	88.12
457.937	124.12
458.157	126.12
458.377	141.12
458.598	124.12
458.818	160.12
459.038	94.12
459.258	102.12
459.478	96.12
459.698	76.12
459.918	94.12
460.138	84.12
460.358	84.12
460.578	125.12
460.798	163.12
461.018	148.12
461.238	88.12
461.458	92.12
461.678	91.12
461.898	90.12
462.118	95.12
462.338	89.12
462.558	83.12
462.777	85.12
462.997	98.12
463.217	86.12
463.437	95.12
463.657	82.12
463.876	83.12
464.096	88.12
464.316	80.12
464.536	92.12
464.755	85.12
464.975	85.12
465.195	88.12
465.414	84.12
465.634	90.12
465.854	76.12
466.073	82.12
466.293	93.12
466.512	72.12
466.732	73.12
466.951	89.12
467.171	85.12
467.391	80.12
467.61	93.12
467.829	100.12
468.049	86.12
468.268	83.12
468.488	89.12
468.707	94.12
468.927	90.12
469.146	87.12
469.365	79.12
469.585	88.12
469.804	67.12
470.023	80.12
470.243	79.12
470.462	86.12
470.681	78.12
470.901	87.12
471.12	86.12
471.339	87.12
471.558	70.12
471.777	92.12
471.997	83.12
472.216	83.12
472.435	90.12
472.654	82.12
472.873	105.12
473.092	99.12
473.311	83.12
473.53	83.12
473.749	82.12
473.968	107.12
474.187	88.12
474.406	96.12
474.625	77.12
474.844	82.12
475.063	91.12
475.282	83.12
475.501	87.12
475.72	96.12
475.939	82.12
476.158	80.12
476.377	98.12
476.596	95.12
476.814	90.12
477.033	81.12
477.252	96.12
477.471	84.12
477.69	84.12
477.908	96.12
478.127	92.12
478.346	74.12
478.564	82.12
478.783	84.12
479.002	89.12
479.22	99.12
479.439	87.12
479.658	115.12
479.876	91.12
480.095	99.12
480.313	81.12
480.532	91.12
480.751	79.12
480.969	89.12
481.188	92.12
481.406	98.12
481.624	86.12
481.843	92.12
482.061	91.12
482.28	82.12
482.498	84.12
482.717	99.12
482.935	91.12
483.153	92.12
483.372	104.12
483.59	91.12
483.808	92.12
484.027	90.12
484.245	95.12
484.463	87.12
484.681	108.12
484.9	107.12
485.118	79.12
485.336	79.12
485.554	83.12
485.772	92.12
485.99	89.12
486.209	71.12
486.427	86.12
486.645	87.12
486.863	87.12
487.081	82.12
487.299	107.12
487.517	111.12
487.735	129.12
487.953	191.12
488.171	175.12
488.389	107.12
488.607	95.12
488.825	80.12
489.043	91.12
489.261	97.12
489.479	93.12
489.696	95.12
489.914	95.12
490.132	87.12
490.35	83.12
490.568	107.12
490.786	76.12
491.003	83.12
491.221	82.12
491.439	99.12
491.657	95.12
491.874	104.12
492.092	89.12
492.31	90.12
492.527	88.12
492.745	87.12
492.963	83.12
493.18	79.12
493.398	82.12
493.615	101.12
493.833	94.12
494.05	90.12
494.268	84.12
494.485	86.12
494.703	85.12
494.92	99.12
495.138	87.12
495.355	86.12
495.573	84.12
495.79	94.12
496.008	102.12
496.225	104.12
496.442	103.12
496.66	104.12
496.877	81.12
497.094	89.12
497.312	82.12
497.529	89.12
497.746	93.12
497.963	94.12
498.181	103.12
498.398	110.12
498.615	98.12
498.832	97.12
499.049	89.12
499.267	92.12
499.484	100.12
499.701	99.12
499.918	90.12
500.135	99.12
500.352	91.12
500.569	96.12
500.786	103.12
501.003	82.12
501.22	90.12
501.437	89.12
501.654	110.12
501.871	107.12
502.088	88.12
502.305	85.12
502.522	91.12
502.739	93.12
502.956	92.12
503.172	93.12
503.389	94.12
503.606	97.12
503.823	90.12
504.04	104.12
504.256	154.12
504.473	159.12
504.69	94.12
504.907	95.12
505.123	87.12
505.34	94.12
505.557	82.12
505.773	89.12
505.99	106.12
506.207	95.12
506.423	91.12
506.64	97.12
506.856	100.12
507.073	84.12
507.289	95.12
507.506	98.12
507.722	91.12
507.939	75.12
508.155	93.12
508.372	87.12
508.588	80.12
508.805	98.12
509.021	85.12
509.238	93.12
509.454	81.12
509.67	83.12
509.887	96.12
510.103	92.12
510.319	98.12
510.536	70.12
510.752	87.12
510.968	74.12
511.184	88.12
511.401	77.12
511.617	102.12
511.833	88.12
512.049	92.12
512.265	83.12
512.481	98.12
512.698	96.12
512.914	90.12
513.13	93.12
513.346	86.12
513.562	92.12
513.778	94.12
513.994	89.12
514.21	82.12
514.426	83.12
514.642	102.12
514.858	88.12
515.074	86.12
515.29	99.12
515.506	82.12
515.721	79.12
515.937	96.12
516.153	94.12
516.369	93.12
516.585	80.12
516.801	99.12
517.016	110.12
517.232	92.12
517.448	99.12
517.664	83.12
517.879	88.12
518.095	96.12
518.311	98.12
518.527	132.12
518.742	113.12
518.958	166.12
519.173	198.12
519.389	99.12
519.605	104.12
519.82	91.12
520.036	84.12
520.251	89.12
520.467	88.12
520.682	96.12
520.898	92.12
521.113	83.12
521.329	116.12
521.544	98.12
521.76	90.12
521.975	90.12
522.19	94.12
522.406	78.12
522.621	82.12
522.836	94.12
523.052	102.12
523.267	106.12
523.482	95.12
523.698	74.12
523.913	104.12
524.128	98.12
524.343	82.12
524.559	97.12
524.774	103.12
524.989	87.12
525.204	100.12
525.419	99.12
525.634	110.12
525.849	114.12
526.064	140.12
526.28	289.12
526.495	413.12
526.71	421.12
526.925	268.12
527.14	382.12
527.355	321.12
527.57	123.12
527.785	106.12
527.999	86.12
528.214	98.12
528.429	92.12
528.644	103.12
528.859	83.12
529.074	87.12
529.289	94.12
529.503	86.12
529.718	99.12
529.933	104.12
530.148	107.12
530.363	105.12
530.577	97.12
530.792	85.12
531.007	100.12
531.221	94.12
531.436	99.12
531.651	108.12
531.865	95.12
532.08	103.12
532.295	99.12
532.509	92.12
532.724	95.12
532.938	96.12
533.153	107.12
533.367	111.12
533.582	115.12
533.796	99.12
534.011	80.12
534.225	105.12
534.44	102.12
534.654	122.12
534.868	126.12
535.083	204.12
535.297	150.12
535.511	112.12
535.726	114.12
535.94	105.12
536.154	110.12
536.369	96.12
536.583	86.12
536.797	95.12
537.011	103.12
537.225	93.12
537.44	108.12
537.654	111.12
537.868	110.12
538.082	91.12
538.296	108.12
538.51	114.12
538.724	105.12
538.938	102.12
539.153	104.12
539.367	105.12
539.581	104.12
539.795	103.12
540.009	115.12
540.222	113.12
540.436	129.12
540.65	91.12
540.864	117.12
541.078	114.12
541.292	112.12
541.506	112.12
541.72	116.12
541.934	107.12
542.147	120.12
542.361	114.12
542.575	108.12
542.789	107.12
543.002	104.12
543.216	104.12
543.43	92.12
543.644	118.12
543.857	106.12
544.071	90.12
544.285	95.12
544.498	114.12
544.712	110.12
544.925	114.12
545.139	111.12
545.352	124.12
545.566	113.12
545.779	118.12
545.993	124.12
546.206	117.12
546.42	131.12
546.633	138.12
546.847	125.12
547.06	118.12
547.274	151.12
547.487	177.12
547.7	212.12
547.914	217.12
548.127	202.12
548.34	224.12
548.554	237.12
548.767	218.12
548.98	224.12
549.193	213.12
549.407	232.12
549.62	244.12
549.833	251.12
550.046	276.12
550.259	295.12
550.473	290.12
550.686	296.12
550.899	330.12
551.112	360.12
551.325	393.12
551.538	418.12
551.751	375.12
551.964	368.12
552.177	376.12
552.39	353.12
552.603	334.12
552.816	346.12
553.029	358.12
553.242	352.12
553.455	361.12
553.667	379.12
553.88	381.12
554.093	370.12
554.306	400.12
554.519	401.12
554.732	374.12
554.944	392.12
555.157	356.12
555.37	363.12
555.583	356.12
555.795	332.12
556.008	319.12
556.221	295.12
556.433	288.12
556.646	258.12
556.859	256.12
557.071	262.12
557.284	216.12
557.496	212.12
557.709	206.12
557.921	212.12
558.134	220.12
558.346	291.12
558.559	248.12
558.771	230.12
558.984	443.12
559.196	563.12
559.409	275.12
559.621	418.12
559.833	323.12
560.046	377.12
560.258	320.12
560.47	319.12
560.683	199.12
560.895	150.12
561.107	153.12
561.32	118.12
561.532	111.12
561.744	114.12
561.956	110.12
562.168	121.12
562.381	123.12
562.593	126.12
562.805	112.12
563.017	123.12
563.229	123.12
563.441	117.12
563.653	113.12
563.865	111.12
564.077	106.12
564.289	104.12
564.501	106.12
564.713	103.12
564.925	103.12
565.137	94.12
565.349	101.12
565.561	103.12
565.773	105.12
565.985	113.12
566.197	107.12
566.408	104.12
566.62	104.12
566.832	103.12
567.044	92.12
567.255	99.12
567.467	105.12
567.679	94.12
567.891	112.12
568.102	114.12
568.314	119.12
568.526	108.12
568.737	114.12
568.949	106.12
569.161	113.12
569.372	111.12
569.584	110.12
569.795	85.12
570.007	103.12
570.218	114.12
570.43	121.12
570.641	107.12
570.853	107.12
571.064	103.12
571.276	99.12
571.487	98.12
571.698	108.12
571.91	114.12
572.121	114.12
572.333	117.12
572.544	114.12
572.755	112.12
572.966	117.12
573.178	122.12
573.389	90.12
573.6	101.12
573.811	104.12
574.023	114.12
574.234	108.12
574.445	113.12
574.656	86.12
574.867	113.12
575.078	91.12
575.289	110.12
575.501	100.12
575.712	114.12
575.923	86.12
576.134	88.12
576.345	110.12
576.556	105.12
576.767	96.12
576.978	101.12
577.188	91.12
577.399	101.12
577.61	98.12
577.821	102.12
578.032	94.12
578.243	100.12
578.454	102.12
578.665	98.12
578.875	109.12
579.086	90.12
579.297	102.12
579.508	123.12
579.718	98.12
579.929	101.12
580.14	106.12
580.35	89.12
580.561	100.12
580.772	94.12
580.982	86.12
581.193	81.12
581.403	96.12
581.614	99.12
581.825	103.12
582.035	108.12
582.246	111.12
582.456	83.12
582.667	96.12
582.877	96.12
583.087	104.12
583.298	99.12
583.508	107.12
583.719	98.12
583.929	116.12
584.139	115.12
584.35	108.12
584.56	103.12
584.77	109.12
584.981	112.12
585.191	111.12
585.401	90.12
585.611	119.12
585.821	200.12
586.032	292.12
586.242	150.12
586.452	120.12
586.662	111.12
586.872	112.12
587.082	103.12
587.292	111.12
587.502	112.12
587.713	112.12
587.923	123.12
588.133	137.12
588.343	131.12
588.553	141.12
588.762	202.12
588.972	352.12
589.182	926.12
589.392	618.12
589.602	426.12
589.812	806.12
590.022	412.12
590.232	186.12
590.441	142.12
590.651	131.12
590.861	120.12
591.071	128.12
591.281	131.12
591.49	131.12
591.7	127.12
591.91	120.12
592.119	143.12
592.329	134.12
592.539	139.12
592.748	140.12
592.958	137.12
593.167	118.12
593.377	146.12
593.587	150.12
593.796	145.12
594.006	156.12
594.215	154.12
594.424	152.12
594.634	161.12
594.843	160.12
595.053	158.12
595.262	173.12
595.472	166.12
595.681	176.12
595.89	190.12
596.1	176.12
596.309	185.12
596.518	192.12
596.727	210.12
596.937	218.12
597.146	219.12
597.355	225.12
597.564	236.12
597.774	217.12
597.983	230.12
598.192	204.12
598.401	227.12
598.61	232.12
598.819	237.12
599.028	245.12
599.237	241.12
599.446	234.12
599.655	241.12
599.864	235.12
600.073	221.12
600.282	223.12
600.491	259.12
600.7	250.12
600.909	231.12
601.118	225.12
601.327	208.12
601.536	202.12
601.745	222.12
601.953	213.12
602.162	207.12
602.371	238.12
602.58	224.12
602.789	221.12
602.997	228.12
603.206	218.12
603.415	241.12
603.623	230.12
603.832	236.12
604.041	218.12
604.249	244.12
604.458	235.12
604.666	240.12
604.875	250.12
605.084	264.12
605.292	276.12
605.501	269.12
605.709	265.12
605.918	267.12
606.126	313.12
606.334	291.12
606.543	279.12
606.751	282.12
606.96	302.12
607.168	255.12
607.376	240.12
607.585	276.12
607.793	279.12
608.001	252.12
608.21	263.12
608.418	263.12
608.626	265.12
608.834	273.12
609.043	284.12
609.251	294.12
609.459	279.12
609.667	270.12
609.875	311.12
610.083	288.12
610.291	310.12
610.499	434.12
610.707	317.12
610.916	272.12
611.124	285.12
611.332	302.12
611.54	297.12
611.748	307.12
611.955	316.12
612.163	352.12
612.371	559.12
612.579	483.12
612.787	356.12
612.995	354.12
613.203	328.12
613.411	308.12
613.618	294.12
613.826	307.12
614.034	328.12
614.242	323.12
614.449	340.12
614.657	318.12
614.865	330.12
615.072	318.12
615.28	312.12
615.488	320.12
615.695	332.12
615.903	334.12
616.111	366.12
616.318	546.12
616.526	650.12
616.733	406.12
616.941	383.12
617.148	462.12
617.356	372.12
617.563	337.12
617.771	315.12
617.978	325.12
618.185	316.12
618.393	320.12
618.6	314.12
618.807	301.12
619.015	310.12
619.222	300.12
619.429	299.12
619.637	311.12
619.844	294.12
620.051	311.12
620.258	290.12
620.466	310.12
620.673	298.12
620.88	289.12
621.087	295.12
621.294	290.12
621.501	303.12
621.708	310.12
621.915	307.12
622.122	310.12
622.329	322.12
622.536	304.12
622.743	304.12
622.95	315.12
623.157	308.12
623.364	315.12
623.571	312.12
623.778	300.12
623.985	294.12
624.192	299.12
624.399	300.12
624.606	306.12
624.812	314.12
625.019	318.12
625.226	282.12
625.433	284.12
625.639	291.12
625.846	274.12
626.053	259.12
626.259	265.12
626.466	258.12
626.673	234.12
626.879	234.12
627.086	247.12
627.293	228.12
627.499	210.12
627.706	228.12
627.912	216.12
628.119	192.12
628.325	171.12
628.532	174.12
628.738	148.12
628.945	159.12
629.151	145.12
629.357	138.12
629.564	137.12
629.77	132.12
629.976	135.12
630.183	132.12
630.389	144.12
630.595	114.12
630.802	124.12
631.008	115.12
631.214	125.12
631.42	126.12
631.627	112.12
631.833	120.12
632.039	131.12
632.245	120.12
632.451	118.12
632.657	122.12
632.863	112.12
633.069	112.12
633.275	125.12
633.481	110.12
633.688	107.12
633.893	116.12
634.099	122.12
634.305	127.12
634.511	126.12
634.717	126.12
634.923	117.12
635.129	119.12
635.335	127.12
635.541	122.12
635.747	120.12
635.952	108.12
636.158	123.12
636.364	123.12
636.57	125.12
636.775	114.12
636.981	118.12
637.187	128.12
637.392	104.12
637.598	120.12
637.804	115.12
638.009	97.12
638.215	106.12
638.421	121.12
638.626	114.12
638.832	107.12
639.037	108.12
639.243	121.12
639.448	126.12
639.654	120.12
639.859	114.12
640.065	111.12
640.27	131.12
640.475	112.12
640.681	119.12
640.886	124.12
641.091	112.12
641.297	122.12
641.502	112.12
641.707	106.12
641.913	123.12
642.118	110.12
642.323	107.12
642.528	114.12
642.733	106.12
642.939	110.12
643.144	124.12
643.349	111.12
643.554	124.12
643.759	124.12
643.964	175.12
644.169	228.12
644.374	139.12
644.579	107.12
644.784	107.12
644.989	125.12
645.194	159.12
645.399	130.12
645.604	113.12
645.809	124.12
646.014	113.12
646.219	119.12
646.423	224.12
646.628	158.12
646.833	118.12
647.038	103.12
647.243	127.12
647.447	135.12
647.652	108.12
647.857	103.12
648.062	123.12
648.266	104.12
648.471	118.12
648.676	93.12
648.88	78.12
649.085	100.12
649.289	101.12
649.494	145.12
649.698	148.12
649.903	105.12
650.107	119.12
650.312	106.12
650.516	111.12
650.721	102.12
650.925	88.12
651.13	74.12
651.334	81.12
651.539	97.12
651.743	96.12
651.947	79.12
652.152	95.12
652.356	81.12
652.56	83.12
652.764	85.12
652.969	91.12
653.173	87.12
653.377	103.12
653.581	86.12
653.785	98.12
653.99	94.12
654.194	80.12
654.398	88.12
654.602	86.12
654.806	84.12
655.01	87.12
655.214	92.12
655.418	96.12
655.622	87.12
655.826	107.12
656.03	98.12
656.234	86.12
656.438	89.12
656.642	69.12
656.846	88.12
657.049	102.12
657.253	91.12
657.457	81.12
657.661	86.12
657.865	80.12
658.068	96.12
658.272	76.12
658.476	96.12
658.68	93.12
658.883	80.12
659.087	82.12
659.291	87.12
659.494	78.12
659.698	84.12
659.901	82.12
660.105	89.12
660.309	83.12
660.512	89.12
660.716	91.12
660.919	76.12
661.123	96.12
661.326	72.12
661.53	77.12
661.733	90.12
661.936	75.12
662.14	80.12
662.343	71.12
662.546	92.12
662.75	88.12
662.953	95.12
663.156	99.12
663.36	71.12
663.563	82.12
663.766	87.12
663.969	94.12
664.173	86.12
664.376	86.12
664.579	81.12
664.782	83.12
664.985	88.12
665.188	81.12
665.391	73.12
665.594	85.12
665.797	91.12
666	75.12
666.203	74.12
666.406	88.12
666.609	82.12
666.812	90.12
667.015	81.12
667.218	78.12
667.421	83.12
667.624	99.12
667.827	76.12
668.03	65.12
668.232	94.12
668.435	79.12
668.638	80.12
668.841	92.12
669.043	69.12
669.246	84.12
669.449	80.12
669.651	71.12
669.854	70.12
670.057	69.12
670.259	84.12
670.462	90.12
670.665	83.12
670.867	87.12
671.07	70.12
671.272	84.12
671.475	93.12
671.677	84.12
671.88	90.12
672.082	95.12
672.284	76.12
672.487	88.12
672.689	81.12
672.892	79.12
