Data from Uncirc_1982_H10_HRD10591_00088.txt Node
Date: Wed Jan 03 12:29:42 EST 2024
User: Yrep
Spectrometer: HR+D1059
Trigger mode: 1
Integration Time (sec): 1.000000E-1
Scans to average: 1
Electric dark correction enabled: true
Nonlinearity correction enabled: false
Boxcar width: 0
XAxis mode: Wavelengths
Number of Pixels in Spectrum: 2048
>>>>>Begin Spectral Data<<<<<
223.165	-17.5
223.4	-17.5
223.635	-17.5
223.869	-18.5
224.104	-7.5
224.338	-13.5
224.573	-10.5
224.808	-18.5
225.042	-5.5
225.277	-12.5
225.511	-0.5
225.746	8.5
225.98	2.5
226.215	1.5
226.449	21.5
226.683	19.5
226.918	19.5
227.152	31.5
227.387	39.5
227.621	51.5
227.856	49.5
228.09	59.5
228.324	55.5
228.559	70.5
228.793	50.5
229.027	64.5
229.262	64.5
229.496	72.5
229.73	88.5
229.964	80.5
230.199	90.5
230.433	86.5
230.667	91.5
230.901	83.5
231.136	85.5
231.37	85.5
231.604	77.5
231.838	74.5
232.072	81.5
232.306	84.5
232.541	79.5
232.775	82.5
233.009	78.5
233.243	80.5
233.477	91.5
233.711	71.5
233.945	69.5
234.179	67.5
234.413	85.5
234.647	93.5
234.881	92.5
235.115	90.5
235.349	77.5
235.583	89.5
235.817	70.5
236.051	89.5
236.285	94.5
236.519	89.5
236.753	83.5
236.987	83.5
237.221	87.5
237.455	88.5
237.689	86.5
237.922	84.5
238.156	74.5
238.39	83.5
238.624	79.5
238.858	86.5
239.091	75.5
239.325	89.5
239.559	73.5
239.793	83.5
240.027	76.5
240.26	73.5
240.494	71.5
240.728	84.5
240.961	83.5
241.195	87.5
241.429	72.5
241.662	71.5
241.896	78.5
242.13	78.5
242.363	75.5
242.597	91.5
242.83	72.5
243.064	71.5
243.298	80.5
243.531	76.5
243.765	87.5
243.998	74.5
244.232	80.5
244.465	80.5
244.699	78.5
244.932	66.5
245.166	85.5
245.399	84.5
245.633	84.5
245.866	69.5
246.099	76.5
246.333	93.5
246.566	92.5
246.8	79.5
247.033	88.5
247.266	68.5
247.5	85.5
247.733	80.5
247.966	67.5
248.2	83.5
248.433	73.5
248.666	78.5
248.899	81.5
249.133	90.5
249.366	80.5
249.599	91.5
249.832	69.5
250.066	91.5
250.299	92.5
250.532	91.5
250.765	89.5
250.998	85.5
251.231	73.5
251.465	79.5
251.698	81.5
251.931	90.5
252.164	70.5
252.397	83.5
252.63	77.5
252.863	72.5
253.096	76.5
253.329	75.5
253.562	85.5
253.795	85.5
254.028	86.5
254.261	87.5
254.494	76.5
254.727	97.5
254.96	78.5
255.193	76.5
255.426	83.5
255.659	94.5
255.892	79.5
256.124	93.5
256.357	77.5
256.59	90.5
256.823	96.5
257.056	93.5
257.289	79.5
257.521	87.5
257.754	108.5
257.987	89.5
258.22	75.5
258.452	85.5
258.685	78.5
258.918	85.5
259.151	97.5
259.383	93.5
259.616	97.5
259.849	86.5
260.081	90.5
260.314	87.5
260.547	63.5
260.779	75.5
261.012	83.5
261.244	78.5
261.477	87.5
261.71	114.5
261.942	103.5
262.175	112.5
262.407	102.5
262.64	83.5
262.872	79.5
263.105	93.5
263.337	96.5
263.57	89.5
263.802	89.5
264.035	83.5
264.267	75.5
264.499	89.5
264.732	81.5
264.964	84.5
265.197	85.5
265.429	85.5
265.661	84.5
265.894	83.5
266.126	93.5
266.358	84.5
266.591	83.5
266.823	76.5
267.055	93.5
267.287	73.5
267.52	83.5
267.752	83.5
267.984	91.5
268.216	92.5
268.448	89.5
268.681	86.5
268.913	89.5
269.145	85.5
269.377	96.5
269.609	94.5
269.841	84.5
270.073	87.5
270.306	95.5
270.538	84.5
270.77	89.5
271.002	85.5
271.234	81.5
271.466	79.5
271.698	89.5
271.93	95.5
272.162	73.5
272.394	85.5
272.626	79.5
272.858	87.5
273.09	99.5
273.322	82.5
273.553	85.5
273.785	72.5
274.017	89.5
274.249	92.5
274.481	83.5
274.713	90.5
274.945	92.5
275.176	96.5
275.408	95.5
275.64	94.5
275.872	80.5
276.104	96.5
276.335	100.5
276.567	91.5
276.799	107.5
277.031	108.5
277.262	84.5
277.494	83.5
277.726	78.5
277.957	99.5
278.189	93.5
278.421	96.5
278.652	89.5
278.884	101.5
279.115	83.5
279.347	93.5
279.579	87.5
279.81	73.5
280.042	93.5
280.273	85.5
280.505	79.5
280.736	94.5
280.968	84.5
281.199	106.5
281.431	87.5
281.662	92.5
281.894	96.5
282.125	94.5
282.356	107.5
282.588	109.5
282.819	106.5
283.051	92.5
283.282	89.5
283.513	90.5
283.745	95.5
283.976	93.5
284.207	96.5
284.439	88.5
284.67	93.5
284.901	102.5
285.132	92.5
285.364	75.5
285.595	87.5
285.826	91.5
286.057	88.5
286.288	94.5
286.52	87.5
286.751	72.5
286.982	76.5
287.213	83.5
287.444	107.5
287.675	99.5
287.906	101.5
288.138	85.5
288.369	97.5
288.6	101.5
288.831	81.5
289.062	90.5
289.293	79.5
289.524	100.5
289.755	83.5
289.986	91.5
290.217	95.5
290.448	81.5
290.679	81.5
290.91	73.5
291.141	93.5
291.371	87.5
291.602	87.5
291.833	94.5
292.064	74.5
292.295	103.5
292.526	99.5
292.757	95.5
292.987	97.5
293.218	73.5
293.449	111.5
293.68	107.5
293.91	99.5
294.141	104.5
294.372	105.5
294.603	91.5
294.833	101.5
295.064	81.5
295.295	79.5
295.525	84.5
295.756	101.5
295.987	107.5
296.217	128.5
296.448	107.5
296.679	71.5
296.909	86.5
297.14	83.5
297.37	100.5
297.601	96.5
297.831	78.5
298.062	93.5
298.292	95.5
298.523	95.5
298.753	67.5
298.984	99.5
299.214	74.5
299.445	100.5
299.675	92.5
299.905	90.5
300.136	99.5
300.366	101.5
300.597	102.5
300.827	84.5
301.057	100.5
301.288	102.5
301.518	98.5
301.748	80.5
301.979	117.5
302.209	99.5
302.439	98.5
302.669	101.5
302.9	86.5
303.13	92.5
303.36	89.5
303.59	92.5
303.82	97.5
304.051	98.5
304.281	95.5
304.511	95.5
304.741	99.5
304.971	101.5
305.201	90.5
305.431	88.5
305.661	94.5
305.891	94.5
306.121	79.5
306.352	107.5
306.582	107.5
306.812	87.5
307.042	106.5
307.272	104.5
307.502	95.5
307.731	79.5
307.961	94.5
308.191	95.5
308.421	100.5
308.651	80.5
308.881	103.5
309.111	87.5
309.341	94.5
309.571	96.5
309.8	91.5
310.03	96.5
310.26	88.5
310.49	98.5
310.72	104.5
310.949	96.5
311.179	99.5
311.409	111.5
311.639	107.5
311.868	92.5
312.098	107.5
312.328	103.5
312.557	103.5
312.787	104.5
313.017	113.5
313.246	83.5
313.476	105.5
313.706	91.5
313.935	105.5
314.165	97.5
314.394	83.5
314.624	88.5
314.853	94.5
315.083	90.5
315.312	89.5
315.542	90.5
315.771	84.5
316.001	87.5
316.23	95.5
316.46	85.5
316.689	88.5
316.919	99.5
317.148	101.5
317.377	70.5
317.607	92.5
317.836	103.5
318.065	92.5
318.295	85.5
318.524	94.5
318.753	105.5
318.983	87.5
319.212	98.5
319.441	104.5
319.67	111.5
319.9	94.5
320.129	101.5
320.358	92.5
320.587	95.5
320.816	108.5
321.046	111.5
321.275	89.5
321.504	96.5
321.733	109.5
321.962	103.5
322.191	97.5
322.42	101.5
322.649	102.5
322.878	124.5
323.108	115.5
323.337	111.5
323.566	138.5
323.795	148.5
324.024	192.5
324.253	360.5
324.482	736.5
324.71	1473.5
324.939	1930.5
325.168	711.5
325.397	227.5
325.626	155.5
325.855	132.5
326.084	111.5
326.313	119.5
326.542	148.5
326.77	219.5
326.999	412.5
327.228	830.5
327.457	1522.5
327.686	1212.5
327.914	347.5
328.143	200.5
328.372	148.5
328.6	125.5
328.829	124.5
329.058	111.5
329.287	111.5
329.515	120.5
329.744	108.5
329.972	106.5
330.201	120.5
330.43	126.5
330.658	125.5
330.887	140.5
331.115	124.5
331.344	110.5
331.572	115.5
331.801	95.5
332.03	104.5
332.258	102.5
332.486	95.5
332.715	90.5
332.943	75.5
333.172	94.5
333.4	111.5
333.629	99.5
333.857	111.5
334.085	121.5
334.314	135.5
334.542	133.5
334.771	137.5
334.999	106.5
335.227	101.5
335.455	101.5
335.684	100.5
335.912	97.5
336.14	89.5
336.369	89.5
336.597	101.5
336.825	101.5
337.053	109.5
337.281	105.5
337.51	104.5
337.738	95.5
337.966	101.5
338.194	104.5
338.422	102.5
338.65	95.5
338.878	95.5
339.106	92.5
339.334	106.5
339.562	88.5
339.79	105.5
340.018	101.5
340.246	93.5
340.474	95.5
340.702	83.5
340.93	97.5
341.158	105.5
341.386	92.5
341.614	83.5
341.842	79.5
342.07	107.5
342.298	98.5
342.526	88.5
342.754	78.5
342.981	101.5
343.209	97.5
343.437	88.5
343.665	86.5
343.893	105.5
344.12	91.5
344.348	89.5
344.576	86.5
344.804	96.5
345.031	99.5
345.259	95.5
345.487	98.5
345.714	100.5
345.942	84.5
346.17	81.5
346.397	91.5
346.625	102.5
346.853	95.5
347.08	93.5
347.308	99.5
347.535	93.5
347.763	96.5
347.99	100.5
348.218	108.5
348.445	100.5
348.673	101.5
348.9	104.5
349.128	90.5
349.355	85.5
349.583	98.5
349.81	106.5
350.037	104.5
350.265	116.5
350.492	86.5
350.72	88.5
350.947	108.5
351.174	103.5
351.402	107.5
351.629	98.5
351.856	108.5
352.083	102.5
352.311	94.5
352.538	116.5
352.765	97.5
352.992	113.5
353.22	107.5
353.447	80.5
353.674	101.5
353.901	95.5
354.128	100.5
354.355	91.5
354.583	105.5
354.81	102.5
355.037	104.5
355.264	92.5
355.491	110.5
355.718	101.5
355.945	100.5
356.172	94.5
356.399	99.5
356.626	108.5
356.853	96.5
357.08	93.5
357.307	87.5
357.534	101.5
357.761	111.5
357.988	101.5
358.215	101.5
358.441	100.5
358.668	87.5
358.895	102.5
359.122	90.5
359.349	93.5
359.576	98.5
359.802	95.5
360.029	126.5
360.256	92.5
360.483	92.5
360.709	105.5
360.936	96.5
361.163	112.5
361.39	89.5
361.616	101.5
361.843	93.5
362.07	93.5
362.296	102.5
362.523	88.5
362.749	85.5
362.976	89.5
363.203	101.5
363.429	81.5
363.656	88.5
363.882	96.5
364.109	98.5
364.335	91.5
364.562	98.5
364.788	87.5
365.015	100.5
365.241	107.5
365.468	102.5
365.694	108.5
365.92	89.5
366.147	95.5
366.373	87.5
366.599	87.5
366.826	90.5
367.052	78.5
367.278	97.5
367.505	90.5
367.731	100.5
367.957	82.5
368.184	107.5
368.41	95.5
368.636	116.5
368.862	128.5
369.089	96.5
369.315	92.5
369.541	97.5
369.767	97.5
369.993	116.5
370.219	98.5
370.445	89.5
370.672	94.5
370.898	100.5
371.124	96.5
371.35	99.5
371.576	87.5
371.802	80.5
372.028	98.5
372.254	96.5
372.48	97.5
372.706	78.5
372.932	86.5
373.158	91.5
373.384	95.5
373.61	87.5
373.835	87.5
374.061	89.5
374.287	88.5
374.513	93.5
374.739	97.5
374.965	106.5
375.191	93.5
375.416	97.5
375.642	106.5
375.868	96.5
376.094	88.5
376.319	97.5
376.545	79.5
376.771	94.5
376.997	101.5
377.222	86.5
377.448	93.5
377.674	81.5
377.899	91.5
378.125	82.5
378.35	90.5
378.576	87.5
378.802	99.5
379.027	97.5
379.253	92.5
379.478	100.5
379.704	96.5
379.929	93.5
380.155	92.5
380.38	95.5
380.606	87.5
380.831	100.5
381.057	102.5
381.282	87.5
381.507	89.5
381.733	93.5
381.958	106.5
382.184	95.5
382.409	101.5
382.634	95.5
382.86	99.5
383.085	105.5
383.31	104.5
383.535	88.5
383.761	95.5
383.986	101.5
384.211	108.5
384.436	95.5
384.662	96.5
384.887	101.5
385.112	110.5
385.337	103.5
385.562	107.5
385.787	97.5
386.013	100.5
386.238	113.5
386.463	105.5
386.688	116.5
386.913	111.5
387.138	91.5
387.363	93.5
387.588	88.5
387.813	98.5
388.038	102.5
388.263	88.5
388.488	112.5
388.713	105.5
388.938	101.5
389.163	105.5
389.387	83.5
389.612	102.5
389.837	85.5
390.062	105.5
390.287	103.5
390.512	97.5
390.736	90.5
390.961	92.5
391.186	103.5
391.411	81.5
391.636	86.5
391.86	97.5
392.085	104.5
392.31	104.5
392.534	86.5
392.759	84.5
392.984	102.5
393.208	89.5
393.433	94.5
393.658	85.5
393.882	88.5
394.107	78.5
394.331	77.5
394.556	81.5
394.78	86.5
395.005	85.5
395.229	91.5
395.454	78.5
395.678	90.5
395.903	97.5
396.127	102.5
396.352	94.5
396.576	78.5
396.801	80.5
397.025	100.5
397.249	87.5
397.474	95.5
397.698	94.5
397.922	100.5
398.147	89.5
398.371	80.5
398.595	87.5
398.82	79.5
399.044	93.5
399.268	83.5
399.492	83.5
399.717	87.5
399.941	99.5
400.165	91.5
400.389	100.5
400.613	87.5
400.837	83.5
401.062	93.5
401.286	79.5
401.51	96.5
401.734	92.5
401.958	114.5
402.182	114.5
402.406	132.5
402.63	107.5
402.854	101.5
403.078	95.5
403.302	96.5
403.526	99.5
403.75	107.5
403.974	95.5
404.198	76.5
404.422	72.5
404.645	90.5
404.869	112.5
405.093	97.5
405.317	93.5
405.541	103.5
405.765	105.5
405.988	114.5
406.212	153.5
406.436	199.5
406.66	120.5
406.883	95.5
407.107	97.5
407.331	99.5
407.555	94.5
407.778	83.5
408.002	104.5
408.226	90.5
408.449	98.5
408.673	93.5
408.896	99.5
409.12	94.5
409.344	94.5
409.567	87.5
409.791	91.5
410.014	103.5
410.238	99.5
410.461	85.5
410.685	94.5
410.908	116.5
411.132	126.5
411.355	103.5
411.578	95.5
411.802	94.5
412.025	88.5
412.249	77.5
412.472	90.5
412.695	99.5
412.919	97.5
413.142	101.5
413.365	89.5
413.589	90.5
413.812	83.5
414.035	91.5
414.258	86.5
414.482	92.5
414.705	93.5
414.928	101.5
415.151	80.5
415.374	91.5
415.597	95.5
415.821	105.5
416.044	74.5
416.267	89.5
416.49	106.5
416.713	87.5
416.936	77.5
417.159	73.5
417.382	90.5
417.605	75.5
417.828	96.5
418.051	85.5
418.274	87.5
418.497	85.5
418.72	93.5
418.943	85.5
419.166	90.5
419.389	81.5
419.611	80.5
419.834	85.5
420.057	91.5
420.28	89.5
420.503	98.5
420.726	96.5
420.948	93.5
421.171	103.5
421.394	91.5
421.617	102.5
421.839	95.5
422.062	99.5
422.285	104.5
422.507	97.5
422.73	94.5
422.953	90.5
423.175	86.5
423.398	95.5
423.621	93.5
423.843	95.5
424.066	94.5
424.288	97.5
424.511	96.5
424.733	91.5
424.956	107.5
425.178	108.5
425.401	108.5
425.623	97.5
425.846	92.5
426.068	88.5
426.291	89.5
426.513	87.5
426.735	93.5
426.958	94.5
427.18	100.5
427.402	124.5
427.625	146.5
427.847	115.5
428.069	120.5
428.292	93.5
428.514	88.5
428.736	94.5
428.958	81.5
429.181	96.5
429.403	85.5
429.625	86.5
429.847	79.5
430.069	97.5
430.292	95.5
430.514	79.5
430.736	83.5
430.958	95.5
431.18	86.5
431.402	90.5
431.624	93.5
431.846	78.5
432.068	91.5
432.29	77.5
432.512	92.5
432.734	94.5
432.956	101.5
433.178	103.5
433.4	95.5
433.622	84.5
433.844	77.5
434.066	97.5
434.287	86.5
434.509	84.5
434.731	92.5
434.953	99.5
435.175	98.5
435.397	107.5
435.618	98.5
435.84	117.5
436.062	128.5
436.284	116.5
436.505	96.5
436.727	102.5
436.949	85.5
437.17	91.5
437.392	91.5
437.614	97.5
437.835	90.5
438.057	109.5
438.278	94.5
438.5	101.5
438.721	96.5
438.943	101.5
439.165	78.5
439.386	91.5
439.608	103.5
439.829	89.5
440.05	102.5
440.272	133.5
440.493	116.5
440.715	93.5
440.936	75.5
441.158	90.5
441.379	90.5
441.6	101.5
441.822	108.5
442.043	93.5
442.264	96.5
442.486	90.5
442.707	80.5
442.928	94.5
443.149	113.5
443.371	120.5
443.592	113.5
443.813	106.5
444.034	112.5
444.255	92.5
444.476	84.5
444.698	101.5
444.919	93.5
445.14	144.5
445.361	123.5
445.582	112.5
445.803	112.5
446.024	138.5
446.245	133.5
446.466	110.5
446.687	99.5
446.908	91.5
447.129	92.5
447.35	99.5
447.571	89.5
447.792	87.5
448.013	95.5
448.234	109.5
448.455	103.5
448.675	109.5
448.896	111.5
449.117	102.5
449.338	93.5
449.559	118.5
449.779	123.5
450	98.5
450.221	85.5
450.442	89.5
450.662	87.5
450.883	102.5
451.104	106.5
451.324	92.5
451.545	87.5
451.766	101.5
451.986	99.5
452.207	83.5
452.428	73.5
452.648	94.5
452.869	105.5
453.089	100.5
453.31	110.5
453.53	98.5
453.751	88.5
453.971	108.5
454.192	99.5
454.412	101.5
454.633	101.5
454.853	88.5
455.073	79.5
455.294	85.5
455.514	85.5
455.734	102.5
455.955	90.5
456.175	93.5
456.395	75.5
456.616	70.5
456.836	80.5
457.056	80.5
457.276	94.5
457.497	90.5
457.717	74.5
457.937	76.5
458.157	91.5
458.377	89.5
458.598	104.5
458.818	133.5
459.038	149.5
459.258	98.5
459.478	96.5
459.698	89.5
459.918	83.5
460.138	102.5
460.358	81.5
460.578	85.5
460.798	95.5
461.018	106.5
461.238	93.5
461.458	90.5
461.678	88.5
461.898	89.5
462.118	96.5
462.338	101.5
462.558	98.5
462.777	107.5
462.997	65.5
463.217	88.5
463.437	91.5
463.657	79.5
463.876	89.5
464.096	101.5
464.316	84.5
464.536	70.5
464.755	89.5
464.975	103.5
465.195	157.5
465.414	133.5
465.634	98.5
465.854	97.5
466.073	88.5
466.293	96.5
466.512	101.5
466.732	90.5
466.951	89.5
467.171	78.5
467.391	92.5
467.61	105.5
467.829	97.5
468.049	103.5
468.268	101.5
468.488	89.5
468.707	86.5
468.927	88.5
469.146	95.5
469.365	83.5
469.585	100.5
469.804	96.5
470.023	113.5
470.243	99.5
470.462	88.5
470.681	110.5
470.901	96.5
471.12	83.5
471.339	81.5
471.558	87.5
471.777	87.5
471.997	87.5
472.216	101.5
472.435	143.5
472.654	105.5
472.873	102.5
473.092	98.5
473.311	93.5
473.53	91.5
473.749	71.5
473.968	87.5
474.187	87.5
474.406	87.5
474.625	87.5
474.844	96.5
475.063	98.5
475.282	96.5
475.501	84.5
475.72	73.5
475.939	85.5
476.158	83.5
476.377	82.5
476.596	91.5
476.814	99.5
477.033	75.5
477.252	80.5
477.471	91.5
477.69	82.5
477.908	91.5
478.127	97.5
478.346	79.5
478.564	76.5
478.783	75.5
479.002	87.5
479.22	83.5
479.439	105.5
479.658	101.5
479.876	90.5
480.095	74.5
480.313	89.5
480.532	87.5
480.751	100.5
480.969	116.5
481.188	188.5
481.406	145.5
481.624	100.5
481.843	102.5
482.061	100.5
482.28	81.5
482.498	97.5
482.717	102.5
482.935	87.5
483.153	92.5
483.372	104.5
483.59	76.5
483.808	95.5
484.027	99.5
484.245	94.5
484.463	93.5
484.681	97.5
484.9	105.5
485.118	93.5
485.336	94.5
485.554	87.5
485.772	93.5
485.99	115.5
486.209	98.5
486.427	103.5
486.645	106.5
486.863	107.5
487.081	83.5
487.299	76.5
487.517	92.5
487.735	94.5
487.953	95.5
488.171	93.5
488.389	80.5
488.607	94.5
488.825	92.5
489.043	109.5
489.261	99.5
489.479	100.5
489.696	84.5
489.914	87.5
490.132	96.5
490.35	104.5
490.568	86.5
490.786	96.5
491.003	83.5
491.221	91.5
491.439	85.5
491.657	91.5
491.874	95.5
492.092	81.5
492.31	93.5
492.527	93.5
492.745	103.5
492.963	98.5
493.18	105.5
493.398	87.5
493.615	96.5
493.833	101.5
494.05	91.5
494.268	100.5
494.485	96.5
494.703	87.5
494.92	100.5
495.138	85.5
495.355	93.5
495.573	95.5
495.79	97.5
496.008	94.5
496.225	99.5
496.442	89.5
496.66	94.5
496.877	98.5
497.094	89.5
497.312	102.5
497.529	107.5
497.746	95.5
497.963	98.5
498.181	104.5
498.398	81.5
498.615	113.5
498.832	94.5
499.049	90.5
499.267	94.5
499.484	86.5
499.701	105.5
499.918	99.5
500.135	92.5
500.352	90.5
500.569	95.5
500.786	95.5
501.003	88.5
501.22	97.5
501.437	95.5
501.654	100.5
501.871	103.5
502.088	97.5
502.305	103.5
502.522	86.5
502.739	89.5
502.956	85.5
503.172	84.5
503.389	97.5
503.606	107.5
503.823	88.5
504.04	101.5
504.256	100.5
504.473	83.5
504.69	94.5
504.907	100.5
505.123	95.5
505.34	112.5
505.557	85.5
505.773	80.5
505.99	92.5
506.207	93.5
506.423	91.5
506.64	95.5
506.856	94.5
507.073	92.5
507.289	90.5
507.506	94.5
507.722	111.5
507.939	109.5
508.155	84.5
508.372	101.5
508.588	89.5
508.805	105.5
509.021	91.5
509.238	103.5
509.454	92.5
509.67	108.5
509.887	108.5
510.103	137.5
510.319	206.5
510.536	679.5
510.752	2030.5
510.968	567.5
511.184	151.5
511.401	108.5
511.617	109.5
511.833	88.5
512.049	100.5
512.265	93.5
512.481	103.5
512.698	100.5
512.914	84.5
513.13	103.5
513.346	93.5
513.562	80.5
513.778	101.5
513.994	98.5
514.21	101.5
514.426	115.5
514.642	131.5
514.858	109.5
515.074	148.5
515.29	357.5
515.506	1177.5
515.721	425.5
515.937	132.5
516.153	113.5
516.369	92.5
516.585	91.5
516.801	105.5
517.016	93.5
517.232	94.5
517.448	106.5
517.664	99.5
517.879	83.5
518.095	89.5
518.311	94.5
518.527	98.5
518.742	107.5
518.958	107.5
519.173	99.5
519.389	109.5
519.605	93.5
519.82	97.5
520.036	113.5
520.251	121.5
520.467	104.5
520.682	103.5
520.898	102.5
521.113	102.5
521.329	126.5
521.544	181.5
521.76	448.5
521.975	1974.5
522.19	1141.5
522.406	267.5
522.621	112.5
522.836	108.5
523.052	95.5
523.267	88.5
523.482	106.5
523.698	98.5
523.913	114.5
524.128	98.5
524.343	107.5
524.559	101.5
524.774	94.5
524.989	88.5
525.204	92.5
525.419	106.5
525.634	74.5
525.849	96.5
526.064	97.5
526.28	96.5
526.495	94.5
526.71	98.5
526.925	96.5
527.14	95.5
527.355	79.5
527.57	95.5
527.785	87.5
527.999	89.5
528.214	102.5
528.429	97.5
528.644	99.5
528.859	94.5
529.074	85.5
529.289	127.5
529.503	149.5
529.718	87.5
529.933	94.5
530.148	109.5
530.363	93.5
530.577	92.5
530.792	90.5
531.007	93.5
531.221	90.5
531.436	79.5
531.651	81.5
531.865	107.5
532.08	90.5
532.295	77.5
532.509	98.5
532.724	107.5
532.938	107.5
533.153	94.5
533.367	86.5
533.582	93.5
533.796	91.5
534.011	104.5
534.225	92.5
534.44	118.5
534.654	94.5
534.868	99.5
535.083	89.5
535.297	96.5
535.511	96.5
535.726	109.5
535.94	93.5
536.154	100.5
536.369	89.5
536.583	106.5
536.797	93.5
537.011	85.5
537.225	91.5
537.44	101.5
537.654	98.5
537.868	96.5
538.082	107.5
538.296	95.5
538.51	91.5
538.724	102.5
538.938	108.5
539.153	95.5
539.367	107.5
539.581	85.5
539.795	97.5
540.009	97.5
540.222	110.5
540.436	80.5
540.65	77.5
540.864	89.5
541.078	90.5
541.292	89.5
541.506	101.5
541.72	97.5
541.934	83.5
542.147	85.5
542.361	92.5
542.575	89.5
542.789	102.5
543.002	91.5
543.216	85.5
543.43	87.5
543.644	93.5
543.857	102.5
544.071	87.5
544.285	91.5
544.498	74.5
544.712	100.5
544.925	99.5
545.139	104.5
545.352	97.5
545.566	99.5
545.779	93.5
545.993	81.5
546.206	85.5
546.42	94.5
546.633	97.5
546.847	108.5
547.06	92.5
547.274	100.5
547.487	91.5
547.7	96.5
547.914	99.5
548.127	97.5
548.34	88.5
548.554	84.5
548.767	99.5
548.98	84.5
549.193	79.5
549.407	91.5
549.62	100.5
549.833	93.5
550.046	85.5
550.259	87.5
550.473	86.5
550.686	97.5
550.899	90.5
551.112	89.5
551.325	100.5
551.538	103.5
551.751	88.5
551.964	89.5
552.177	96.5
552.39	88.5
552.603	90.5
552.816	95.5
553.029	90.5
553.242	97.5
553.455	93.5
553.667	113.5
553.88	104.5
554.093	102.5
554.306	77.5
554.519	87.5
554.732	83.5
554.944	101.5
555.157	97.5
555.37	86.5
555.583	95.5
555.795	109.5
556.008	93.5
556.221	92.5
556.433	94.5
556.646	105.5
556.859	104.5
557.071	91.5
557.284	86.5
557.496	86.5
557.709	108.5
557.921	74.5
558.134	78.5
558.346	92.5
558.559	89.5
558.771	94.5
558.984	89.5
559.196	79.5
559.409	87.5
559.621	91.5
559.833	87.5
560.046	105.5
560.258	92.5
560.47	77.5
560.683	95.5
560.895	101.5
561.107	99.5
561.32	92.5
561.532	80.5
561.744	79.5
561.956	87.5
562.168	93.5
562.381	96.5
562.593	103.5
562.805	89.5
563.017	93.5
563.229	89.5
563.441	90.5
563.653	92.5
563.865	85.5
564.077	92.5
564.289	107.5
564.501	91.5
564.713	91.5
564.925	95.5
565.137	93.5
565.349	104.5
565.561	93.5
565.773	96.5
565.985	87.5
566.197	85.5
566.408	86.5
566.62	89.5
566.832	101.5
567.044	100.5
567.255	103.5
567.467	89.5
567.679	94.5
567.891	94.5
568.102	91.5
568.314	98.5
568.526	102.5
568.737	101.5
568.949	94.5
569.161	91.5
569.372	80.5
569.584	97.5
569.795	93.5
570.007	118.5
570.218	228.5
570.43	126.5
570.641	83.5
570.853	88.5
571.064	85.5
571.276	90.5
571.487	86.5
571.698	91.5
571.91	84.5
572.121	95.5
572.333	102.5
572.544	84.5
572.755	101.5
572.966	95.5
573.178	97.5
573.389	74.5
573.6	88.5
573.811	91.5
574.023	83.5
574.234	91.5
574.445	94.5
574.656	90.5
574.867	92.5
575.078	79.5
575.289	74.5
575.501	87.5
575.712	100.5
575.923	97.5
576.134	101.5
576.345	93.5
576.556	83.5
576.767	94.5
576.978	94.5
577.188	84.5
577.399	101.5
577.61	99.5
577.821	101.5
578.032	118.5
578.243	260.5
578.454	674.5
578.665	194.5
578.875	103.5
579.086	78.5
579.297	78.5
579.508	92.5
579.718	87.5
579.929	91.5
580.14	81.5
580.35	77.5
580.561	103.5
580.772	83.5
580.982	93.5
581.193	87.5
581.403	90.5
581.614	86.5
581.825	90.5
582.035	87.5
582.246	99.5
582.456	93.5
582.667	93.5
582.877	95.5
583.087	94.5
583.298	93.5
583.508	96.5
583.719	79.5
583.929	89.5
584.139	90.5
584.35	98.5
584.56	95.5
584.77	91.5
584.981	92.5
585.191	94.5
585.401	84.5
585.611	91.5
585.821	93.5
586.032	91.5
586.242	93.5
586.452	87.5
586.662	96.5
586.872	96.5
587.082	98.5
587.292	71.5
587.502	91.5
587.713	76.5
587.923	91.5
588.133	87.5
588.343	91.5
588.553	88.5
588.762	81.5
588.972	80.5
589.182	77.5
589.392	80.5
589.602	102.5
589.812	90.5
590.022	101.5
590.232	86.5
590.441	92.5
590.651	81.5
590.861	95.5
591.071	73.5
591.281	87.5
591.49	93.5
591.7	87.5
591.91	94.5
592.119	91.5
592.329	89.5
592.539	94.5
592.748	99.5
592.958	83.5
593.167	96.5
593.377	72.5
593.587	85.5
593.796	82.5
594.006	80.5
594.215	91.5
594.424	85.5
594.634	92.5
594.843	91.5
595.053	89.5
595.262	83.5
595.472	87.5
595.681	87.5
595.89	87.5
596.1	100.5
596.309	83.5
596.518	94.5
596.727	89.5
596.937	94.5
597.146	71.5
597.355	107.5
597.564	96.5
597.774	88.5
597.983	96.5
598.192	75.5
598.401	98.5
598.61	85.5
598.819	91.5
599.028	100.5
599.237	95.5
599.446	89.5
599.655	100.5
599.864	98.5
600.073	89.5
600.282	78.5
600.491	95.5
600.7	106.5
600.909	90.5
601.118	88.5
601.327	95.5
601.536	102.5
601.745	105.5
601.953	85.5
602.162	79.5
602.371	83.5
602.58	91.5
602.789	89.5
602.997	101.5
603.206	96.5
603.415	100.5
603.623	99.5
603.832	86.5
604.041	83.5
604.249	87.5
604.458	91.5
604.666	85.5
604.875	86.5
605.084	92.5
605.292	99.5
605.501	79.5
605.709	88.5
605.918	71.5
606.126	91.5
606.334	68.5
606.543	107.5
606.751	95.5
606.96	83.5
607.168	98.5
607.376	96.5
607.585	91.5
607.793	80.5
608.001	93.5
608.21	93.5
608.418	104.5
608.626	87.5
608.834	95.5
609.043	85.5
609.251	99.5
609.459	93.5
609.667	89.5
609.875	101.5
610.083	74.5
610.291	85.5
610.499	99.5
610.707	95.5
610.916	101.5
611.124	87.5
611.332	84.5
611.54	89.5
611.748	93.5
611.955	103.5
612.163	92.5
612.371	95.5
612.579	80.5
612.787	86.5
612.995	99.5
613.203	108.5
613.411	97.5
613.618	88.5
613.826	85.5
614.034	95.5
614.242	97.5
614.449	85.5
614.657	85.5
614.865	72.5
615.072	77.5
615.28	97.5
615.488	73.5
615.695	96.5
615.903	99.5
616.111	94.5
616.318	107.5
616.526	95.5
616.733	96.5
616.941	87.5
617.148	80.5
617.356	79.5
617.563	92.5
617.771	87.5
617.978	83.5
618.185	88.5
618.393	104.5
618.6	86.5
618.807	92.5
619.015	63.5
619.222	78.5
619.429	88.5
619.637	102.5
619.844	92.5
620.051	83.5
620.258	80.5
620.466	79.5
620.673	87.5
620.88	77.5
621.087	100.5
621.294	88.5
621.501	83.5
621.708	100.5
621.915	88.5
622.122	79.5
622.329	86.5
622.536	87.5
622.743	81.5
622.95	83.5
623.157	83.5
623.364	95.5
623.571	83.5
623.778	86.5
623.985	91.5
624.192	79.5
624.399	89.5
624.606	79.5
624.812	83.5
625.019	88.5
625.226	81.5
625.433	100.5
625.639	95.5
625.846	87.5
626.053	79.5
626.259	91.5
626.466	83.5
626.673	99.5
626.879	87.5
627.086	83.5
627.293	87.5
627.499	83.5
627.706	86.5
627.912	80.5
628.119	88.5
628.325	75.5
628.532	87.5
628.738	89.5
628.945	106.5
629.151	77.5
629.357	91.5
629.564	89.5
629.77	95.5
629.976	84.5
630.183	92.5
630.389	101.5
630.595	76.5
630.802	94.5
631.008	95.5
631.214	88.5
631.42	92.5
631.627	103.5
631.833	75.5
632.039	95.5
632.245	68.5
632.451	87.5
632.657	81.5
632.863	75.5
633.069	88.5
633.275	93.5
633.481	76.5
633.688	77.5
633.893	83.5
634.099	89.5
634.305	90.5
634.511	95.5
634.717	83.5
634.923	79.5
635.129	89.5
635.335	78.5
635.541	87.5
635.747	95.5
635.952	90.5
636.158	87.5
636.364	104.5
636.57	81.5
636.775	93.5
636.981	95.5
637.187	80.5
637.392	88.5
637.598	89.5
637.804	90.5
638.009	92.5
638.215	101.5
638.421	80.5
638.626	79.5
638.832	87.5
639.037	81.5
639.243	89.5
639.448	87.5
639.654	93.5
639.859	88.5
640.065	85.5
640.27	83.5
640.475	96.5
640.681	96.5
640.886	83.5
641.091	74.5
641.297	77.5
641.502	81.5
641.707	88.5
641.913	97.5
642.118	96.5
642.323	76.5
642.528	83.5
642.733	102.5
642.939	91.5
643.144	75.5
643.349	64.5
643.554	80.5
643.759	95.5
643.964	85.5
644.169	85.5
644.374	86.5
644.579	90.5
644.784	79.5
644.989	93.5
645.194	87.5
645.399	85.5
645.604	69.5
645.809	86.5
646.014	84.5
646.219	91.5
646.423	93.5
646.628	80.5
646.833	77.5
647.038	84.5
647.243	81.5
647.447	75.5
647.652	96.5
647.857	73.5
648.062	81.5
648.266	76.5
648.471	95.5
648.676	119.5
648.88	103.5
649.085	106.5
649.289	101.5
649.494	98.5
649.698	120.5
649.903	107.5
650.107	80.5
650.312	83.5
650.516	91.5
650.721	95.5
650.925	102.5
651.13	80.5
651.334	77.5
651.539	76.5
651.743	86.5
651.947	77.5
652.152	76.5
652.356	91.5
652.56	94.5
652.764	101.5
652.969	81.5
653.173	84.5
653.377	94.5
653.581	83.5
653.785	88.5
653.99	69.5
654.194	86.5
654.398	72.5
654.602	93.5
654.806	100.5
655.01	99.5
655.214	83.5
655.418	75.5
655.622	87.5
655.826	91.5
656.03	95.5
656.234	83.5
656.438	99.5
656.642	90.5
656.846	93.5
657.049	87.5
657.253	100.5
657.457	78.5
657.661	92.5
657.865	93.5
658.068	90.5
658.272	76.5
658.476	75.5
658.68	80.5
658.883	83.5
659.087	95.5
659.291	87.5
659.494	69.5
659.698	89.5
659.901	83.5
660.105	80.5
660.309	76.5
660.512	78.5
660.716	73.5
660.919	83.5
661.123	87.5
661.326	74.5
661.53	72.5
661.733	93.5
661.936	101.5
662.14	65.5
662.343	84.5
662.546	83.5
662.75	92.5
662.953	83.5
663.156	77.5
663.36	62.5
663.563	89.5
663.766	83.5
663.969	70.5
664.173	83.5
664.376	91.5
664.579	80.5
664.782	78.5
664.985	91.5
665.188	79.5
665.391	79.5
665.594	90.5
665.797	77.5
666	104.5
666.203	80.5
666.406	72.5
666.609	87.5
666.812	74.5
667.015	88.5
667.218	73.5
667.421	84.5
667.624	88.5
667.827	94.5
668.03	88.5
668.232	83.5
668.435	79.5
668.638	75.5
668.841	80.5
669.043	83.5
669.246	79.5
669.449	58.5
669.651	85.5
669.854	83.5
670.057	77.5
670.259	83.5
670.462	80.5
670.665	87.5
670.867	95.5
671.07	89.5
671.272	88.5
671.475	78.5
671.677	80.5
671.88	79.5
672.082	76.5
672.284	85.5
672.487	89.5
672.689	91.5
672.892	79.5
