Data from Uncirc_1982_H10_HRD10591_00009.txt Node
Date: Wed Jan 03 12:29:26 EST 2024
User: Yrep
Spectrometer: HR+D1059
Trigger mode: 1
Integration Time (sec): 1.000000E-1
Scans to average: 1
Electric dark correction enabled: true
Nonlinearity correction enabled: false
Boxcar width: 0
XAxis mode: Wavelengths
Number of Pixels in Spectrum: 2048
>>>>>Begin Spectral Data<<<<<
223.165	-11.88
223.4	-11.88
223.635	-11.88
223.869	-18.88
224.104	-19.88
224.338	-11.88
224.573	-8.88
224.808	-13.88
225.042	-19.88
225.277	-3.88
225.511	-12.88
225.746	6.12
225.98	11.12
226.215	1.12
226.449	15.12
226.683	22.12
226.918	30.12
227.152	36.12
227.387	37.12
227.621	37.12
227.856	48.12
228.09	61.12
228.324	58.12
228.559	50.12
228.793	59.12
229.027	46.12
229.262	73.12
229.496	75.12
229.73	78.12
229.964	74.12
230.199	77.12
230.433	70.12
230.667	77.12
230.901	79.12
231.136	73.12
231.37	75.12
231.604	87.12
231.838	81.12
232.072	85.12
232.306	83.12
232.541	86.12
232.775	94.12
233.009	77.12
233.243	81.12
233.477	97.12
233.711	90.12
233.945	79.12
234.179	83.12
234.413	82.12
234.647	84.12
234.881	85.12
235.115	72.12
235.349	93.12
235.583	75.12
235.817	83.12
236.051	76.12
236.285	77.12
236.519	69.12
236.753	82.12
236.987	87.12
237.221	79.12
237.455	81.12
237.689	77.12
237.922	76.12
238.156	82.12
238.39	84.12
238.624	89.12
238.858	64.12
239.091	91.12
239.325	74.12
239.559	71.12
239.793	76.12
240.027	88.12
240.26	79.12
240.494	75.12
240.728	88.12
240.961	89.12
241.195	86.12
241.429	84.12
241.662	82.12
241.896	69.12
242.13	93.12
242.363	73.12
242.597	70.12
242.83	86.12
243.064	56.12
243.298	76.12
243.531	88.12
243.765	91.12
243.998	87.12
244.232	73.12
244.465	83.12
244.699	74.12
244.932	71.12
245.166	83.12
245.399	91.12
245.633	84.12
245.866	84.12
246.099	75.12
246.333	83.12
246.566	83.12
246.8	78.12
247.033	71.12
247.266	83.12
247.5	72.12
247.733	83.12
247.966	84.12
248.2	82.12
248.433	80.12
248.666	94.12
248.899	69.12
249.133	91.12
249.366	79.12
249.599	92.12
249.832	66.12
250.066	85.12
250.299	77.12
250.532	85.12
250.765	83.12
250.998	84.12
251.231	87.12
251.465	94.12
251.698	78.12
251.931	88.12
252.164	91.12
252.397	85.12
252.63	85.12
252.863	77.12
253.096	65.12
253.329	93.12
253.562	61.12
253.795	80.12
254.028	83.12
254.261	67.12
254.494	75.12
254.727	75.12
254.96	84.12
255.193	94.12
255.426	83.12
255.659	77.12
255.892	78.12
256.124	70.12
256.357	75.12
256.59	86.12
256.823	99.12
257.056	97.12
257.289	70.12
257.521	85.12
257.754	81.12
257.987	71.12
258.22	83.12
258.452	97.12
258.685	78.12
258.918	87.12
259.151	83.12
259.383	78.12
259.616	85.12
259.849	91.12
260.081	87.12
260.314	72.12
260.547	81.12
260.779	86.12
261.012	80.12
261.244	96.12
261.477	85.12
261.71	85.12
261.942	107.12
262.175	95.12
262.407	91.12
262.64	100.12
262.872	80.12
263.105	68.12
263.337	87.12
263.57	81.12
263.802	89.12
264.035	69.12
264.267	72.12
264.499	87.12
264.732	79.12
264.964	92.12
265.197	84.12
265.429	75.12
265.661	87.12
265.894	83.12
266.126	75.12
266.358	73.12
266.591	83.12
266.823	94.12
267.055	86.12
267.287	85.12
267.52	76.12
267.752	78.12
267.984	83.12
268.216	77.12
268.448	76.12
268.681	78.12
268.913	73.12
269.145	95.12
269.377	97.12
269.609	90.12
269.841	93.12
270.073	81.12
270.306	77.12
270.538	99.12
270.77	91.12
271.002	92.12
271.234	84.12
271.466	72.12
271.698	85.12
271.93	89.12
272.162	88.12
272.394	90.12
272.626	87.12
272.858	95.12
273.09	94.12
273.322	89.12
273.553	89.12
273.785	91.12
274.017	81.12
274.249	98.12
274.481	92.12
274.713	81.12
274.945	93.12
275.176	76.12
275.408	76.12
275.64	86.12
275.872	85.12
276.104	89.12
276.335	85.12
276.567	90.12
276.799	103.12
277.031	92.12
277.262	97.12
277.494	93.12
277.726	82.12
277.957	92.12
278.189	79.12
278.421	93.12
278.652	93.12
278.884	85.12
279.115	83.12
279.347	90.12
279.579	94.12
279.81	97.12
280.042	85.12
280.273	95.12
280.505	94.12
280.736	93.12
280.968	107.12
281.199	79.12
281.431	87.12
281.662	77.12
281.894	87.12
282.125	94.12
282.356	98.12
282.588	104.12
282.819	110.12
283.051	85.12
283.282	83.12
283.513	85.12
283.745	111.12
283.976	102.12
284.207	93.12
284.439	93.12
284.67	86.12
284.901	102.12
285.132	84.12
285.364	71.12
285.595	83.12
285.826	89.12
286.057	88.12
286.288	74.12
286.52	87.12
286.751	85.12
286.982	97.12
287.213	82.12
287.444	87.12
287.675	91.12
287.906	93.12
288.138	90.12
288.369	101.12
288.6	95.12
288.831	100.12
289.062	110.12
289.293	86.12
289.524	89.12
289.755	83.12
289.986	83.12
290.217	86.12
290.448	89.12
290.679	97.12
290.91	88.12
291.141	79.12
291.371	84.12
291.602	85.12
291.833	86.12
292.064	83.12
292.295	85.12
292.526	97.12
292.757	90.12
292.987	93.12
293.218	88.12
293.449	86.12
293.68	85.12
293.91	87.12
294.141	93.12
294.372	99.12
294.603	86.12
294.833	84.12
295.064	87.12
295.295	97.12
295.525	99.12
295.756	89.12
295.987	105.12
296.217	115.12
296.448	115.12
296.679	101.12
296.909	92.12
297.14	83.12
297.37	93.12
297.601	86.12
297.831	87.12
298.062	85.12
298.292	92.12
298.523	90.12
298.753	93.12
298.984	77.12
299.214	98.12
299.445	85.12
299.675	89.12
299.905	102.12
300.136	92.12
300.366	85.12
300.597	94.12
300.827	88.12
301.057	94.12
301.288	95.12
301.518	85.12
301.748	88.12
301.979	109.12
302.209	73.12
302.439	62.12
302.669	101.12
302.9	81.12
303.13	92.12
303.36	92.12
303.59	95.12
303.82	91.12
304.051	85.12
304.281	84.12
304.511	97.12
304.741	85.12
304.971	100.12
305.201	86.12
305.431	89.12
305.661	90.12
305.891	88.12
306.121	94.12
306.352	94.12
306.582	105.12
306.812	102.12
307.042	97.12
307.272	91.12
307.502	89.12
307.731	91.12
307.961	91.12
308.191	96.12
308.421	82.12
308.651	93.12
308.881	100.12
309.111	95.12
309.341	87.12
309.571	90.12
309.8	102.12
310.03	99.12
310.26	90.12
310.49	85.12
310.72	92.12
310.949	95.12
311.179	72.12
311.409	87.12
311.639	83.12
311.868	99.12
312.098	93.12
312.328	89.12
312.557	88.12
312.787	91.12
313.017	101.12
313.246	103.12
313.476	99.12
313.706	97.12
313.935	95.12
314.165	78.12
314.394	83.12
314.624	92.12
314.853	92.12
315.083	97.12
315.312	101.12
315.542	102.12
315.771	97.12
316.001	100.12
316.23	86.12
316.46	85.12
316.689	86.12
316.919	108.12
317.148	97.12
317.377	102.12
317.607	90.12
317.836	92.12
318.065	87.12
318.295	96.12
318.524	79.12
318.753	99.12
318.983	86.12
319.212	101.12
319.441	105.12
319.67	105.12
319.9	97.12
320.129	95.12
320.358	75.12
320.587	79.12
320.816	79.12
321.046	88.12
321.275	93.12
321.504	95.12
321.733	101.12
321.962	103.12
322.191	103.12
322.42	91.12
322.649	90.12
322.878	92.12
323.108	114.12
323.337	106.12
323.566	108.12
323.795	136.12
324.024	169.12
324.253	300.12
324.482	633.12
324.71	1238.12
324.939	1621.12
325.168	586.12
325.397	195.12
325.626	145.12
325.855	112.12
326.084	123.12
326.313	115.12
326.542	131.12
326.77	194.12
326.999	350.12
327.228	735.12
327.457	1319.12
327.686	1027.12
327.914	299.12
328.143	178.12
328.372	142.12
328.6	114.12
328.829	113.12
329.058	97.12
329.287	124.12
329.515	123.12
329.744	111.12
329.972	96.12
330.201	107.12
330.43	113.12
330.658	107.12
330.887	119.12
331.115	105.12
331.344	78.12
331.572	102.12
331.801	100.12
332.03	98.12
332.258	86.12
332.486	99.12
332.715	78.12
332.943	91.12
333.172	98.12
333.4	105.12
333.629	92.12
333.857	110.12
334.085	92.12
334.314	106.12
334.542	118.12
334.771	114.12
334.999	109.12
335.227	82.12
335.455	92.12
335.684	98.12
335.912	103.12
336.14	97.12
336.369	107.12
336.597	99.12
336.825	110.12
337.053	97.12
337.281	105.12
337.51	90.12
337.738	98.12
337.966	102.12
338.194	92.12
338.422	98.12
338.65	89.12
338.878	74.12
339.106	83.12
339.334	107.12
339.562	91.12
339.79	91.12
340.018	91.12
340.246	105.12
340.474	96.12
340.702	93.12
340.93	91.12
341.158	76.12
341.386	96.12
341.614	109.12
341.842	92.12
342.07	97.12
342.298	101.12
342.526	93.12
342.754	83.12
342.981	88.12
343.209	81.12
343.437	107.12
343.665	83.12
343.893	78.12
344.12	105.12
344.348	92.12
344.576	81.12
344.804	99.12
345.031	101.12
345.259	90.12
345.487	93.12
345.714	78.12
345.942	89.12
346.17	97.12
346.397	100.12
346.625	85.12
346.853	100.12
347.08	112.12
347.308	88.12
347.535	82.12
347.763	94.12
347.99	92.12
348.218	100.12
348.445	98.12
348.673	94.12
348.9	99.12
349.128	96.12
349.355	88.12
349.583	89.12
349.81	102.12
350.037	89.12
350.265	95.12
350.492	103.12
350.72	90.12
350.947	85.12
351.174	108.12
351.402	91.12
351.629	105.12
351.856	89.12
352.083	107.12
352.311	100.12
352.538	94.12
352.765	98.12
352.992	103.12
353.22	110.12
353.447	91.12
353.674	102.12
353.901	112.12
354.128	111.12
354.355	110.12
354.583	92.12
354.81	107.12
355.037	106.12
355.264	100.12
355.491	86.12
355.718	103.12
355.945	108.12
356.172	89.12
356.399	109.12
356.626	103.12
356.853	92.12
357.08	90.12
357.307	94.12
357.534	91.12
357.761	98.12
357.988	102.12
358.215	94.12
358.441	86.12
358.668	90.12
358.895	92.12
359.122	106.12
359.349	85.12
359.576	86.12
359.802	91.12
360.029	101.12
360.256	88.12
360.483	87.12
360.709	87.12
360.936	101.12
361.163	92.12
361.39	93.12
361.616	106.12
361.843	94.12
362.07	93.12
362.296	74.12
362.523	76.12
362.749	78.12
362.976	82.12
363.203	98.12
363.429	87.12
363.656	89.12
363.882	92.12
364.109	90.12
364.335	98.12
364.562	79.12
364.788	99.12
365.015	93.12
365.241	99.12
365.468	100.12
365.694	93.12
365.92	99.12
366.147	115.12
366.373	82.12
366.599	89.12
366.826	80.12
367.052	110.12
367.278	90.12
367.505	89.12
367.731	93.12
367.957	101.12
368.184	93.12
368.41	96.12
368.636	89.12
368.862	106.12
369.089	108.12
369.315	99.12
369.541	98.12
369.767	83.12
369.993	82.12
370.219	88.12
370.445	75.12
370.672	81.12
370.898	92.12
371.124	97.12
371.35	98.12
371.576	86.12
371.802	87.12
372.028	101.12
372.254	97.12
372.48	88.12
372.706	95.12
372.932	85.12
373.158	103.12
373.384	104.12
373.61	87.12
373.835	86.12
374.061	100.12
374.287	93.12
374.513	106.12
374.739	89.12
374.965	91.12
375.191	107.12
375.416	91.12
375.642	91.12
375.868	95.12
376.094	101.12
376.319	89.12
376.545	91.12
376.771	85.12
376.997	93.12
377.222	97.12
377.448	83.12
377.674	102.12
377.899	79.12
378.125	93.12
378.35	90.12
378.576	109.12
378.802	115.12
379.027	95.12
379.253	101.12
379.478	93.12
379.704	90.12
379.929	101.12
380.155	96.12
380.38	89.12
380.606	100.12
380.831	105.12
381.057	120.12
381.282	95.12
381.507	105.12
381.733	107.12
381.958	119.12
382.184	110.12
382.409	106.12
382.634	120.12
382.86	103.12
383.085	105.12
383.31	109.12
383.535	108.12
383.761	118.12
383.986	110.12
384.211	102.12
384.436	114.12
384.662	108.12
384.887	106.12
385.112	120.12
385.337	119.12
385.562	120.12
385.787	119.12
386.013	135.12
386.238	132.12
386.463	101.12
386.688	118.12
386.913	118.12
387.138	130.12
387.363	105.12
387.588	111.12
387.813	106.12
388.038	114.12
388.263	132.12
388.488	146.12
388.713	100.12
388.938	101.12
389.163	93.12
389.387	98.12
389.612	113.12
389.837	105.12
390.062	103.12
390.287	105.12
390.512	100.12
390.736	98.12
390.961	95.12
391.186	91.12
391.411	103.12
391.636	105.12
391.86	78.12
392.085	99.12
392.31	88.12
392.534	84.12
392.759	95.12
392.984	105.12
393.208	92.12
393.433	92.12
393.658	112.12
393.882	93.12
394.107	90.12
394.331	89.12
394.556	84.12
394.78	86.12
395.005	85.12
395.229	97.12
395.454	104.12
395.678	90.12
395.903	87.12
396.127	85.12
396.352	89.12
396.576	77.12
396.801	97.12
397.025	100.12
397.249	87.12
397.474	96.12
397.698	81.12
397.922	85.12
398.147	92.12
398.371	75.12
398.595	90.12
398.82	82.12
399.044	89.12
399.268	93.12
399.492	91.12
399.717	95.12
399.941	89.12
400.165	70.12
400.389	85.12
400.613	87.12
400.837	84.12
401.062	86.12
401.286	88.12
401.51	78.12
401.734	90.12
401.958	87.12
402.182	101.12
402.406	121.12
402.63	113.12
402.854	81.12
403.078	86.12
403.302	76.12
403.526	86.12
403.75	89.12
403.974	86.12
404.198	79.12
404.422	95.12
404.645	82.12
404.869	85.12
405.093	104.12
405.317	106.12
405.541	93.12
405.765	94.12
405.988	106.12
406.212	142.12
406.436	175.12
406.66	124.12
406.883	85.12
407.107	94.12
407.331	93.12
407.555	99.12
407.778	93.12
408.002	84.12
408.226	91.12
408.449	92.12
408.673	92.12
408.896	99.12
409.12	91.12
409.344	96.12
409.567	77.12
409.791	87.12
410.014	103.12
410.238	93.12
410.461	101.12
410.685	92.12
410.908	112.12
411.132	92.12
411.355	98.12
411.578	97.12
411.802	77.12
412.025	89.12
412.249	92.12
412.472	94.12
412.695	111.12
412.919	89.12
413.142	85.12
413.365	101.12
413.589	82.12
413.812	91.12
414.035	93.12
414.258	91.12
414.482	104.12
414.705	95.12
414.928	92.12
415.151	94.12
415.374	102.12
415.597	84.12
415.821	90.12
416.044	87.12
416.267	95.12
416.49	101.12
416.713	90.12
416.936	97.12
417.159	95.12
417.382	86.12
417.605	102.12
417.828	99.12
418.051	94.12
418.274	85.12
418.497	90.12
418.72	93.12
418.943	82.12
419.166	105.12
419.389	101.12
419.611	104.12
419.834	92.12
420.057	99.12
420.28	75.12
420.503	91.12
420.726	79.12
420.948	88.12
421.171	102.12
421.394	106.12
421.617	98.12
421.839	95.12
422.062	102.12
422.285	91.12
422.507	84.12
422.73	109.12
422.953	89.12
423.175	87.12
423.398	80.12
423.621	101.12
423.843	94.12
424.066	83.12
424.288	88.12
424.511	101.12
424.733	98.12
424.956	92.12
425.178	82.12
425.401	100.12
425.623	90.12
425.846	88.12
426.068	98.12
426.291	87.12
426.513	86.12
426.735	89.12
426.958	92.12
427.18	89.12
427.402	116.12
427.625	137.12
427.847	127.12
428.069	100.12
428.292	81.12
428.514	78.12
428.736	82.12
428.958	85.12
429.181	84.12
429.403	94.12
429.625	83.12
429.847	89.12
430.069	79.12
430.292	93.12
430.514	86.12
430.736	71.12
430.958	91.12
431.18	90.12
431.402	95.12
431.624	96.12
431.846	100.12
432.068	74.12
432.29	81.12
432.512	89.12
432.734	88.12
432.956	87.12
433.178	102.12
433.4	95.12
433.622	95.12
433.844	77.12
434.066	82.12
434.287	67.12
434.509	94.12
434.731	94.12
434.953	62.12
435.175	77.12
435.397	100.12
435.618	96.12
435.84	100.12
436.062	110.12
436.284	102.12
436.505	99.12
436.727	98.12
436.949	102.12
437.17	94.12
437.392	96.12
437.614	81.12
437.835	91.12
438.057	114.12
438.278	103.12
438.5	96.12
438.721	106.12
438.943	89.12
439.165	87.12
439.386	94.12
439.608	105.12
439.829	86.12
440.05	119.12
440.272	122.12
440.493	90.12
440.715	90.12
440.936	78.12
441.158	84.12
441.379	97.12
441.6	91.12
441.822	97.12
442.043	93.12
442.264	88.12
442.486	106.12
442.707	85.12
442.928	97.12
443.149	116.12
443.371	111.12
443.592	95.12
443.813	109.12
444.034	97.12
444.255	81.12
444.476	91.12
444.698	77.12
444.919	85.12
445.14	125.12
445.361	100.12
445.582	97.12
445.803	120.12
446.024	116.12
446.245	122.12
446.466	102.12
446.687	93.12
446.908	97.12
447.129	101.12
447.35	93.12
447.571	94.12
447.792	94.12
448.013	88.12
448.234	98.12
448.455	94.12
448.675	91.12
448.896	110.12
449.117	103.12
449.338	90.12
449.559	125.12
449.779	106.12
450	103.12
450.221	86.12
450.442	91.12
450.662	90.12
450.883	101.12
451.104	105.12
451.324	94.12
451.545	90.12
451.766	85.12
451.986	100.12
452.207	91.12
452.428	83.12
452.648	104.12
452.869	92.12
453.089	103.12
453.31	111.12
453.53	95.12
453.751	101.12
453.971	93.12
454.192	93.12
454.412	77.12
454.633	86.12
454.853	95.12
455.073	74.12
455.294	87.12
455.514	98.12
455.734	85.12
455.955	93.12
456.175	87.12
456.395	88.12
456.616	85.12
456.836	104.12
457.056	102.12
457.276	92.12
457.497	78.12
457.717	81.12
457.937	89.12
458.157	90.12
458.377	80.12
458.598	93.12
458.818	106.12
459.038	113.12
459.258	97.12
459.478	84.12
459.698	84.12
459.918	86.12
460.138	84.12
460.358	87.12
460.578	82.12
460.798	82.12
461.018	92.12
461.238	84.12
461.458	87.12
461.678	88.12
461.898	83.12
462.118	88.12
462.338	94.12
462.558	90.12
462.777	84.12
462.997	96.12
463.217	88.12
463.437	81.12
463.657	76.12
463.876	92.12
464.096	97.12
464.316	75.12
464.536	84.12
464.755	85.12
464.975	102.12
465.195	122.12
465.414	127.12
465.634	98.12
465.854	83.12
466.073	81.12
466.293	95.12
466.512	110.12
466.732	96.12
466.951	89.12
467.171	84.12
467.391	105.12
467.61	98.12
467.829	90.12
468.049	102.12
468.268	113.12
468.488	99.12
468.707	91.12
468.927	88.12
469.146	82.12
469.365	82.12
469.585	90.12
469.804	84.12
470.023	82.12
470.243	95.12
470.462	102.12
470.681	103.12
470.901	90.12
471.12	93.12
471.339	102.12
471.558	85.12
471.777	95.12
471.997	94.12
472.216	102.12
472.435	128.12
472.654	90.12
472.873	102.12
473.092	93.12
473.311	107.12
473.53	82.12
473.749	98.12
473.968	98.12
474.187	113.12
474.406	84.12
474.625	85.12
474.844	89.12
475.063	86.12
475.282	99.12
475.501	95.12
475.72	100.12
475.939	96.12
476.158	85.12
476.377	86.12
476.596	87.12
476.814	79.12
477.033	95.12
477.252	93.12
477.471	98.12
477.69	76.12
477.908	81.12
478.127	94.12
478.346	91.12
478.564	91.12
478.783	98.12
479.002	83.12
479.22	83.12
479.439	93.12
479.658	77.12
479.876	107.12
480.095	89.12
480.313	98.12
480.532	95.12
480.751	94.12
480.969	116.12
481.188	159.12
481.406	142.12
481.624	94.12
481.843	101.12
482.061	94.12
482.28	82.12
482.498	92.12
482.717	89.12
482.935	97.12
483.153	87.12
483.372	94.12
483.59	105.12
483.808	102.12
484.027	98.12
484.245	101.12
484.463	93.12
484.681	96.12
484.9	87.12
485.118	104.12
485.336	117.12
485.554	107.12
485.772	121.12
485.99	104.12
486.209	101.12
486.427	109.12
486.645	117.12
486.863	115.12
487.081	93.12
487.299	108.12
487.517	109.12
487.735	86.12
487.953	106.12
488.171	94.12
488.389	87.12
488.607	102.12
488.825	100.12
489.043	94.12
489.261	80.12
489.479	93.12
489.696	107.12
489.914	95.12
490.132	93.12
490.35	93.12
490.568	72.12
490.786	91.12
491.003	96.12
491.221	81.12
491.439	95.12
491.657	87.12
491.874	84.12
492.092	103.12
492.31	81.12
492.527	82.12
492.745	110.12
492.963	86.12
493.18	94.12
493.398	85.12
493.615	91.12
493.833	100.12
494.05	83.12
494.268	88.12
494.485	96.12
494.703	93.12
494.92	86.12
495.138	96.12
495.355	95.12
495.573	85.12
495.79	90.12
496.008	94.12
496.225	103.12
496.442	74.12
496.66	108.12
496.877	105.12
497.094	90.12
497.312	93.12
497.529	79.12
497.746	92.12
497.963	80.12
498.181	82.12
498.398	99.12
498.615	105.12
498.832	97.12
499.049	110.12
499.267	94.12
499.484	95.12
499.701	85.12
499.918	92.12
500.135	91.12
500.352	92.12
500.569	104.12
500.786	97.12
501.003	92.12
501.22	91.12
501.437	87.12
501.654	81.12
501.871	86.12
502.088	96.12
502.305	84.12
502.522	107.12
502.739	105.12
502.956	85.12
503.172	89.12
503.389	110.12
503.606	85.12
503.823	105.12
504.04	94.12
504.256	87.12
504.473	85.12
504.69	83.12
504.907	105.12
505.123	86.12
505.34	93.12
505.557	92.12
505.773	87.12
505.99	89.12
506.207	89.12
506.423	108.12
506.64	85.12
506.856	101.12
507.073	109.12
507.289	111.12
507.506	96.12
507.722	96.12
507.939	105.12
508.155	99.12
508.372	97.12
508.588	109.12
508.805	96.12
509.021	100.12
509.238	89.12
509.454	101.12
509.67	114.12
509.887	106.12
510.103	110.12
510.319	159.12
510.536	521.12
510.752	1445.12
510.968	426.12
511.184	129.12
511.401	107.12
511.617	91.12
511.833	86.12
512.049	94.12
512.265	96.12
512.481	90.12
512.698	97.12
512.914	89.12
513.13	93.12
513.346	81.12
513.562	91.12
513.778	87.12
513.994	91.12
514.21	106.12
514.426	114.12
514.642	106.12
514.858	107.12
515.074	140.12
515.29	293.12
515.506	841.12
515.721	323.12
515.937	119.12
516.153	113.12
516.369	87.12
516.585	101.12
516.801	100.12
517.016	92.12
517.232	95.12
517.448	93.12
517.664	98.12
517.879	102.12
518.095	109.12
518.311	89.12
518.527	86.12
518.742	91.12
518.958	97.12
519.173	100.12
519.389	100.12
519.605	101.12
519.82	100.12
520.036	88.12
520.251	111.12
520.467	109.12
520.682	102.12
520.898	106.12
521.113	101.12
521.329	139.12
521.544	158.12
521.76	358.12
521.975	1379.12
522.19	837.12
522.406	196.12
522.621	104.12
522.836	83.12
523.052	79.12
523.267	104.12
523.482	99.12
523.698	104.12
523.913	101.12
524.128	97.12
524.343	91.12
524.559	101.12
524.774	99.12
524.989	95.12
525.204	93.12
525.419	91.12
525.634	87.12
525.849	101.12
526.064	103.12
526.28	102.12
526.495	100.12
526.71	103.12
526.925	96.12
527.14	89.12
527.355	99.12
527.57	89.12
527.785	84.12
527.999	87.12
528.214	105.12
528.429	102.12
528.644	86.12
528.859	86.12
529.074	89.12
529.289	112.12
529.503	126.12
529.718	101.12
529.933	93.12
530.148	94.12
530.363	87.12
530.577	83.12
530.792	73.12
531.007	76.12
531.221	94.12
531.436	96.12
531.651	84.12
531.865	93.12
532.08	99.12
532.295	96.12
532.509	94.12
532.724	87.12
532.938	99.12
533.153	106.12
533.367	85.12
533.582	103.12
533.796	103.12
534.011	96.12
534.225	83.12
534.44	98.12
534.654	97.12
534.868	89.12
535.083	94.12
535.297	88.12
535.511	104.12
535.726	83.12
535.94	85.12
536.154	90.12
536.369	107.12
536.583	96.12
536.797	92.12
537.011	97.12
537.225	98.12
537.44	99.12
537.654	95.12
537.868	85.12
538.082	107.12
538.296	79.12
538.51	88.12
538.724	85.12
538.938	77.12
539.153	98.12
539.367	99.12
539.581	92.12
539.795	92.12
540.009	99.12
540.222	108.12
540.436	90.12
540.65	97.12
540.864	81.12
541.078	94.12
541.292	100.12
541.506	98.12
541.72	88.12
541.934	100.12
542.147	92.12
542.361	74.12
542.575	93.12
542.789	93.12
543.002	88.12
543.216	85.12
543.43	93.12
543.644	92.12
543.857	94.12
544.071	83.12
544.285	81.12
544.498	82.12
544.712	94.12
544.925	83.12
545.139	102.12
545.352	104.12
545.566	85.12
545.779	98.12
545.993	107.12
546.206	81.12
546.42	92.12
546.633	95.12
546.847	104.12
547.06	90.12
547.274	86.12
547.487	93.12
547.7	95.12
547.914	75.12
548.127	87.12
548.34	96.12
548.554	87.12
548.767	98.12
548.98	81.12
549.193	85.12
549.407	85.12
549.62	92.12
549.833	105.12
550.046	95.12
550.259	82.12
550.473	87.12
550.686	84.12
550.899	90.12
551.112	76.12
551.325	87.12
551.538	89.12
551.751	86.12
551.964	87.12
552.177	96.12
552.39	89.12
552.603	109.12
552.816	88.12
553.029	101.12
553.242	88.12
553.455	93.12
553.667	105.12
553.88	104.12
554.093	102.12
554.306	91.12
554.519	93.12
554.732	85.12
554.944	92.12
555.157	92.12
555.37	92.12
555.583	84.12
555.795	106.12
556.008	92.12
556.221	101.12
556.433	93.12
556.646	90.12
556.859	94.12
557.071	101.12
557.284	93.12
557.496	83.12
557.709	83.12
557.921	105.12
558.134	88.12
558.346	95.12
558.559	97.12
558.771	75.12
558.984	75.12
559.196	93.12
559.409	91.12
559.621	92.12
559.833	88.12
560.046	86.12
560.258	91.12
560.47	94.12
560.683	76.12
560.895	99.12
561.107	93.12
561.32	90.12
561.532	83.12
561.744	97.12
561.956	86.12
562.168	86.12
562.381	102.12
562.593	97.12
562.805	115.12
563.017	91.12
563.229	90.12
563.441	105.12
563.653	96.12
563.865	93.12
564.077	99.12
564.289	100.12
564.501	93.12
564.713	104.12
564.925	99.12
565.137	92.12
565.349	90.12
565.561	97.12
565.773	92.12
565.985	83.12
566.197	74.12
566.408	83.12
566.62	82.12
566.832	94.12
567.044	83.12
567.255	97.12
567.467	88.12
567.679	82.12
567.891	92.12
568.102	83.12
568.314	89.12
568.526	97.12
568.737	102.12
568.949	84.12
569.161	74.12
569.372	97.12
569.584	93.12
569.795	70.12
570.007	94.12
570.218	185.12
570.43	119.12
570.641	95.12
570.853	77.12
571.064	98.12
571.276	84.12
571.487	85.12
571.698	86.12
571.91	92.12
572.121	85.12
572.333	87.12
572.544	93.12
572.755	77.12
572.966	85.12
573.178	90.12
573.389	87.12
573.6	87.12
573.811	85.12
574.023	89.12
574.234	83.12
574.445	92.12
574.656	94.12
574.867	85.12
575.078	92.12
575.289	101.12
575.501	93.12
575.712	92.12
575.923	89.12
576.134	97.12
576.345	91.12
576.556	97.12
576.767	83.12
576.978	88.12
577.188	96.12
577.399	103.12
577.61	89.12
577.821	106.12
578.032	109.12
578.243	215.12
578.454	510.12
578.665	169.12
578.875	93.12
579.086	86.12
579.297	91.12
579.508	78.12
579.718	82.12
579.929	100.12
580.14	85.12
580.35	85.12
580.561	87.12
580.772	100.12
580.982	84.12
581.193	100.12
581.403	94.12
581.614	99.12
581.825	95.12
582.035	81.12
582.246	87.12
582.456	98.12
582.667	97.12
582.877	97.12
583.087	83.12
583.298	95.12
583.508	96.12
583.719	84.12
583.929	83.12
584.139	103.12
584.35	86.12
584.56	87.12
584.77	99.12
584.981	89.12
585.191	97.12
585.401	101.12
585.611	84.12
585.821	89.12
586.032	90.12
586.242	94.12
586.452	83.12
586.662	85.12
586.872	77.12
587.082	93.12
587.292	91.12
587.502	87.12
587.713	96.12
587.923	94.12
588.133	81.12
588.343	100.12
588.553	89.12
588.762	85.12
588.972	108.12
589.182	101.12
589.392	88.12
589.602	93.12
589.812	115.12
590.022	91.12
590.232	96.12
590.441	75.12
590.651	85.12
590.861	88.12
591.071	92.12
591.281	81.12
591.49	84.12
591.7	111.12
591.91	97.12
592.119	76.12
592.329	93.12
592.539	96.12
592.748	94.12
592.958	100.12
593.167	93.12
593.377	82.12
593.587	80.12
593.796	82.12
594.006	83.12
594.215	101.12
594.424	90.12
594.634	97.12
594.843	89.12
595.053	80.12
595.262	87.12
595.472	84.12
595.681	100.12
595.89	97.12
596.1	83.12
596.309	85.12
596.518	86.12
596.727	79.12
596.937	98.12
597.146	81.12
597.355	88.12
597.564	90.12
597.774	95.12
597.983	73.12
598.192	77.12
598.401	89.12
598.61	101.12
598.819	73.12
599.028	89.12
599.237	86.12
599.446	88.12
599.655	86.12
599.864	97.12
600.073	97.12
600.282	99.12
600.491	78.12
600.7	91.12
600.909	94.12
601.118	99.12
601.327	102.12
601.536	93.12
601.745	91.12
601.953	94.12
602.162	79.12
602.371	99.12
602.58	98.12
602.789	79.12
602.997	87.12
603.206	99.12
603.415	99.12
603.623	87.12
603.832	85.12
604.041	81.12
604.249	83.12
604.458	88.12
604.666	87.12
604.875	89.12
605.084	94.12
605.292	76.12
605.501	94.12
605.709	82.12
605.918	74.12
606.126	94.12
606.334	83.12
606.543	86.12
606.751	89.12
606.96	77.12
607.168	64.12
607.376	97.12
607.585	86.12
607.793	89.12
608.001	92.12
608.21	89.12
608.418	81.12
608.626	104.12
608.834	85.12
609.043	78.12
609.251	84.12
609.459	78.12
609.667	94.12
609.875	82.12
610.083	96.12
610.291	83.12
610.499	90.12
610.707	73.12
610.916	88.12
611.124	77.12
611.332	70.12
611.54	85.12
611.748	85.12
611.955	89.12
612.163	94.12
612.371	102.12
612.579	85.12
612.787	90.12
612.995	89.12
613.203	86.12
613.411	82.12
613.618	76.12
613.826	89.12
614.034	81.12
614.242	99.12
614.449	85.12
614.657	81.12
614.865	78.12
615.072	81.12
615.28	98.12
615.488	94.12
615.695	96.12
615.903	101.12
616.111	109.12
616.318	93.12
616.526	112.12
616.733	91.12
616.941	99.12
617.148	89.12
617.356	90.12
617.563	95.12
617.771	84.12
617.978	92.12
618.185	93.12
618.393	100.12
618.6	91.12
618.807	78.12
619.015	85.12
619.222	88.12
619.429	79.12
619.637	95.12
619.844	90.12
620.051	101.12
620.258	98.12
620.466	103.12
620.673	104.12
620.88	74.12
621.087	84.12
621.294	94.12
621.501	91.12
621.708	76.12
621.915	78.12
622.122	79.12
622.329	85.12
622.536	79.12
622.743	87.12
622.95	91.12
623.157	104.12
623.364	80.12
623.571	86.12
623.778	79.12
623.985	83.12
624.192	86.12
624.399	89.12
624.606	92.12
624.812	100.12
625.019	79.12
625.226	102.12
625.433	101.12
625.639	84.12
625.846	79.12
626.053	85.12
626.259	94.12
626.466	97.12
626.673	77.12
626.879	80.12
627.086	78.12
627.293	73.12
627.499	93.12
627.706	86.12
627.912	90.12
628.119	85.12
628.325	100.12
628.532	68.12
628.738	86.12
628.945	78.12
629.151	71.12
629.357	86.12
629.564	93.12
629.77	92.12
629.976	85.12
630.183	90.12
630.389	93.12
630.595	83.12
630.802	93.12
631.008	75.12
631.214	84.12
631.42	85.12
631.627	89.12
631.833	102.12
632.039	67.12
632.245	81.12
632.451	88.12
632.657	73.12
632.863	87.12
633.069	85.12
633.275	114.12
633.481	87.12
633.688	91.12
633.893	85.12
634.099	81.12
634.305	78.12
634.511	83.12
634.717	85.12
634.923	99.12
635.129	90.12
635.335	86.12
635.541	71.12
635.747	87.12
635.952	84.12
636.158	88.12
636.364	109.12
636.57	83.12
636.775	84.12
636.981	89.12
637.187	89.12
637.392	82.12
637.598	75.12
637.804	81.12
638.009	77.12
638.215	83.12
638.421	85.12
638.626	73.12
638.832	79.12
639.037	90.12
639.243	75.12
639.448	70.12
639.654	80.12
639.859	93.12
640.065	94.12
640.27	72.12
640.475	87.12
640.681	90.12
640.886	97.12
641.091	100.12
641.297	89.12
641.502	98.12
641.707	82.12
641.913	87.12
642.118	89.12
642.323	89.12
642.528	76.12
642.733	95.12
642.939	86.12
643.144	105.12
643.349	85.12
643.554	78.12
643.759	83.12
643.964	105.12
644.169	84.12
644.374	95.12
644.579	69.12
644.784	90.12
644.989	83.12
645.194	99.12
645.399	94.12
645.604	77.12
645.809	93.12
646.014	78.12
646.219	94.12
646.423	83.12
646.628	94.12
646.833	79.12
647.038	103.12
647.243	88.12
647.447	88.12
647.652	78.12
647.857	93.12
648.062	98.12
648.266	100.12
648.471	98.12
648.676	105.12
648.88	105.12
649.085	89.12
649.289	68.12
649.494	105.12
649.698	114.12
649.903	89.12
650.107	105.12
650.312	85.12
650.516	91.12
650.721	79.12
650.925	80.12
651.13	87.12
651.334	92.12
651.539	75.12
651.743	75.12
651.947	79.12
652.152	71.12
652.356	85.12
652.56	90.12
652.764	83.12
652.969	81.12
653.173	70.12
653.377	84.12
653.581	93.12
653.785	86.12
653.99	78.12
654.194	85.12
654.398	85.12
654.602	90.12
654.806	87.12
655.01	89.12
655.214	88.12
655.418	84.12
655.622	84.12
655.826	101.12
656.03	88.12
656.234	92.12
656.438	95.12
656.642	105.12
656.846	89.12
657.049	97.12
657.253	75.12
657.457	85.12
657.661	72.12
657.865	77.12
658.068	83.12
658.272	78.12
658.476	91.12
658.68	74.12
658.883	76.12
659.087	92.12
659.291	80.12
659.494	78.12
659.698	76.12
659.901	77.12
660.105	79.12
660.309	99.12
660.512	87.12
660.716	90.12
660.919	86.12
661.123	95.12
661.326	93.12
661.53	93.12
661.733	97.12
661.936	92.12
662.14	85.12
662.343	69.12
662.546	82.12
662.75	79.12
662.953	89.12
663.156	88.12
663.36	60.12
663.563	76.12
663.766	86.12
663.969	69.12
664.173	95.12
664.376	84.12
664.579	70.12
664.782	71.12
664.985	93.12
665.188	89.12
665.391	80.12
665.594	89.12
665.797	75.12
666	80.12
666.203	98.12
666.406	90.12
666.609	97.12
666.812	76.12
667.015	83.12
667.218	91.12
667.421	60.12
667.624	72.12
667.827	94.12
668.03	82.12
668.232	88.12
668.435	95.12
668.638	81.12
668.841	91.12
669.043	71.12
669.246	90.12
669.449	78.12
669.651	82.12
669.854	90.12
670.057	83.12
670.259	97.12
670.462	85.12
670.665	80.12
670.867	89.12
671.07	73.12
671.272	73.12
671.475	90.12
671.677	83.12
671.88	90.12
672.082	86.12
672.284	90.12
672.487	97.12
672.689	77.12
672.892	88.12
