Data from Uncirc_1982_H10_HRD10591_00085.txt Node
Date: Wed Jan 03 12:29:42 EST 2024
User: Yrep
Spectrometer: HR+D1059
Trigger mode: 1
Integration Time (sec): 1.000000E-1
Scans to average: 1
Electric dark correction enabled: true
Nonlinearity correction enabled: false
Boxcar width: 0
XAxis mode: Wavelengths
Number of Pixels in Spectrum: 2048
>>>>>Begin Spectral Data<<<<<
223.165	-2.31
223.4	-2.31
223.635	-2.31
223.869	-24.31
224.104	-24.31
224.338	-19.31
224.573	-22.31
224.808	-10.31
225.042	-14.31
225.277	-9.31
225.511	-0.31
225.746	7.69
225.98	21.69
226.215	14.69
226.449	7.69
226.683	20.69
226.918	21.69
227.152	32.69
227.387	37.69
227.621	31.69
227.856	46.69
228.09	59.69
228.324	54.69
228.559	63.69
228.793	50.69
229.027	60.69
229.262	39.69
229.496	84.69
229.73	85.69
229.964	84.69
230.199	68.69
230.433	70.69
230.667	80.69
230.901	73.69
231.136	78.69
231.37	82.69
231.604	76.69
231.838	77.69
232.072	79.69
232.306	76.69
232.541	73.69
232.775	83.69
233.009	74.69
233.243	85.69
233.477	67.69
233.711	93.69
233.945	83.69
234.179	79.69
234.413	74.69
234.647	93.69
234.881	85.69
235.115	92.69
235.349	79.69
235.583	99.69
235.817	86.69
236.051	75.69
236.285	80.69
236.519	76.69
236.753	84.69
236.987	73.69
237.221	85.69
237.455	77.69
237.689	74.69
237.922	65.69
238.156	72.69
238.39	69.69
238.624	83.69
238.858	65.69
239.091	79.69
239.325	71.69
239.559	87.69
239.793	80.69
240.027	77.69
240.26	74.69
240.494	60.69
240.728	78.69
240.961	81.69
241.195	61.69
241.429	62.69
241.662	69.69
241.896	63.69
242.13	70.69
242.363	76.69
242.597	72.69
242.83	73.69
243.064	84.69
243.298	85.69
243.531	65.69
243.765	84.69
243.998	62.69
244.232	66.69
244.465	75.69
244.699	72.69
244.932	85.69
245.166	73.69
245.399	88.69
245.633	84.69
245.866	92.69
246.099	82.69
246.333	74.69
246.566	88.69
246.8	76.69
247.033	78.69
247.266	72.69
247.5	65.69
247.733	83.69
247.966	74.69
248.2	82.69
248.433	79.69
248.666	88.69
248.899	56.69
249.133	88.69
249.366	90.69
249.599	92.69
249.832	81.69
250.066	79.69
250.299	77.69
250.532	73.69
250.765	67.69
250.998	73.69
251.231	67.69
251.465	87.69
251.698	83.69
251.931	86.69
252.164	64.69
252.397	93.69
252.63	87.69
252.863	71.69
253.096	72.69
253.329	59.69
253.562	87.69
253.795	82.69
254.028	73.69
254.261	85.69
254.494	92.69
254.727	96.69
254.96	74.69
255.193	80.69
255.426	69.69
255.659	78.69
255.892	73.69
256.124	75.69
256.357	92.69
256.59	86.69
256.823	70.69
257.056	93.69
257.289	72.69
257.521	86.69
257.754	87.69
257.987	77.69
258.22	96.69
258.452	84.69
258.685	87.69
258.918	78.69
259.151	72.69
259.383	84.69
259.616	104.69
259.849	83.69
260.081	63.69
260.314	75.69
260.547	77.69
260.779	63.69
261.012	73.69
261.244	69.69
261.477	81.69
261.71	91.69
261.942	106.69
262.175	109.69
262.407	84.69
262.64	77.69
262.872	79.69
263.105	65.69
263.337	77.69
263.57	76.69
263.802	83.69
264.035	87.69
264.267	80.69
264.499	88.69
264.732	77.69
264.964	90.69
265.197	79.69
265.429	86.69
265.661	80.69
265.894	69.69
266.126	81.69
266.358	76.69
266.591	91.69
266.823	93.69
267.055	86.69
267.287	68.69
267.52	75.69
267.752	97.69
267.984	91.69
268.216	86.69
268.448	92.69
268.681	76.69
268.913	91.69
269.145	72.69
269.377	71.69
269.609	72.69
269.841	96.69
270.073	84.69
270.306	77.69
270.538	93.69
270.77	88.69
271.002	79.69
271.234	89.69
271.466	74.69
271.698	71.69
271.93	85.69
272.162	81.69
272.394	86.69
272.626	78.69
272.858	84.69
273.09	89.69
273.322	78.69
273.553	84.69
273.785	66.69
274.017	73.69
274.249	72.69
274.481	83.69
274.713	101.69
274.945	100.69
275.176	87.69
275.408	88.69
275.64	87.69
275.872	80.69
276.104	89.69
276.335	87.69
276.567	98.69
276.799	98.69
277.031	105.69
277.262	88.69
277.494	90.69
277.726	80.69
277.957	74.69
278.189	72.69
278.421	82.69
278.652	86.69
278.884	101.69
279.115	93.69
279.347	87.69
279.579	78.69
279.81	80.69
280.042	89.69
280.273	71.69
280.505	77.69
280.736	79.69
280.968	101.69
281.199	87.69
281.431	90.69
281.662	85.69
281.894	91.69
282.125	96.69
282.356	119.69
282.588	122.69
282.819	92.69
283.051	92.69
283.282	103.69
283.513	91.69
283.745	84.69
283.976	88.69
284.207	100.69
284.439	90.69
284.67	87.69
284.901	90.69
285.132	102.69
285.364	82.69
285.595	69.69
285.826	70.69
286.057	76.69
286.288	87.69
286.52	91.69
286.751	85.69
286.982	74.69
287.213	97.69
287.444	77.69
287.675	95.69
287.906	91.69
288.138	94.69
288.369	89.69
288.6	97.69
288.831	98.69
289.062	90.69
289.293	92.69
289.524	85.69
289.755	76.69
289.986	93.69
290.217	78.69
290.448	104.69
290.679	89.69
290.91	89.69
291.141	85.69
291.371	96.69
291.602	80.69
291.833	89.69
292.064	96.69
292.295	94.69
292.526	70.69
292.757	88.69
292.987	88.69
293.218	82.69
293.449	92.69
293.68	87.69
293.91	80.69
294.141	78.69
294.372	80.69
294.603	82.69
294.833	92.69
295.064	85.69
295.295	88.69
295.525	93.69
295.756	106.69
295.987	103.69
296.217	109.69
296.448	125.69
296.679	91.69
296.909	84.69
297.14	95.69
297.37	83.69
297.601	79.69
297.831	79.69
298.062	99.69
298.292	83.69
298.523	104.69
298.753	97.69
298.984	96.69
299.214	80.69
299.445	106.69
299.675	93.69
299.905	91.69
300.136	79.69
300.366	84.69
300.597	85.69
300.827	79.69
301.057	95.69
301.288	101.69
301.518	86.69
301.748	74.69
301.979	108.69
302.209	77.69
302.439	90.69
302.669	101.69
302.9	91.69
303.13	86.69
303.36	88.69
303.59	89.69
303.82	102.69
304.051	81.69
304.281	88.69
304.511	99.69
304.741	87.69
304.971	92.69
305.201	90.69
305.431	93.69
305.661	92.69
305.891	95.69
306.121	100.69
306.352	109.69
306.582	97.69
306.812	93.69
307.042	85.69
307.272	95.69
307.502	97.69
307.731	92.69
307.961	85.69
308.191	91.69
308.421	93.69
308.651	97.69
308.881	85.69
309.111	86.69
309.341	112.69
309.571	92.69
309.8	95.69
310.03	100.69
310.26	96.69
310.49	99.69
310.72	96.69
310.949	111.69
311.179	103.69
311.409	92.69
311.639	104.69
311.868	88.69
312.098	91.69
312.328	92.69
312.557	83.69
312.787	87.69
313.017	83.69
313.246	93.69
313.476	91.69
313.706	103.69
313.935	100.69
314.165	92.69
314.394	99.69
314.624	101.69
314.853	91.69
315.083	106.69
315.312	99.69
315.542	94.69
315.771	96.69
316.001	87.69
316.23	74.69
316.46	85.69
316.689	93.69
316.919	74.69
317.148	92.69
317.377	88.69
317.607	104.69
317.836	93.69
318.065	97.69
318.295	91.69
318.524	90.69
318.753	92.69
318.983	88.69
319.212	86.69
319.441	93.69
319.67	109.69
319.9	88.69
320.129	90.69
320.358	85.69
320.587	84.69
320.816	98.69
321.046	91.69
321.275	99.69
321.504	95.69
321.733	96.69
321.962	88.69
322.191	100.69
322.42	104.69
322.649	101.69
322.878	121.69
323.108	99.69
323.337	119.69
323.566	126.69
323.795	149.69
324.024	183.69
324.253	354.69
324.482	743.69
324.71	1557.69
324.939	2036.69
325.168	730.69
325.397	215.69
325.626	152.69
325.855	115.69
326.084	119.69
326.313	132.69
326.542	127.69
326.77	198.69
326.999	402.69
327.228	845.69
327.457	1596.69
327.686	1257.69
327.914	335.69
328.143	173.69
328.372	143.69
328.6	121.69
328.829	109.69
329.058	125.69
329.287	129.69
329.515	97.69
329.744	106.69
329.972	101.69
330.201	121.69
330.43	126.69
330.658	130.69
330.887	130.69
331.115	118.69
331.344	102.69
331.572	94.69
331.801	102.69
332.03	91.69
332.258	103.69
332.486	95.69
332.715	91.69
332.943	83.69
333.172	93.69
333.4	84.69
333.629	96.69
333.857	115.69
334.085	112.69
334.314	113.69
334.542	136.69
334.771	123.69
334.999	95.69
335.227	88.69
335.455	85.69
335.684	81.69
335.912	91.69
336.14	89.69
336.369	88.69
336.597	96.69
336.825	86.69
337.053	92.69
337.281	101.69
337.51	84.69
337.738	103.69
337.966	91.69
338.194	93.69
338.422	104.69
338.65	90.69
338.878	66.69
339.106	93.69
339.334	90.69
339.562	87.69
339.79	81.69
340.018	84.69
340.246	89.69
340.474	87.69
340.702	95.69
340.93	101.69
341.158	88.69
341.386	104.69
341.614	93.69
341.842	88.69
342.07	81.69
342.298	100.69
342.526	82.69
342.754	85.69
342.981	87.69
343.209	98.69
343.437	92.69
343.665	97.69
343.893	95.69
344.12	88.69
344.348	101.69
344.576	83.69
344.804	100.69
345.031	94.69
345.259	88.69
345.487	100.69
345.714	97.69
345.942	101.69
346.17	87.69
346.397	97.69
346.625	84.69
346.853	104.69
347.08	89.69
347.308	99.69
347.535	88.69
347.763	103.69
347.99	96.69
348.218	100.69
348.445	108.69
348.673	96.69
348.9	87.69
349.128	99.69
349.355	96.69
349.583	104.69
349.81	100.69
350.037	89.69
350.265	88.69
350.492	100.69
350.72	88.69
350.947	115.69
351.174	112.69
351.402	97.69
351.629	96.69
351.856	92.69
352.083	92.69
352.311	104.69
352.538	109.69
352.765	108.69
352.992	107.69
353.22	104.69
353.447	88.69
353.674	88.69
353.901	100.69
354.128	107.69
354.355	90.69
354.583	96.69
354.81	90.69
355.037	91.69
355.264	89.69
355.491	92.69
355.718	97.69
355.945	88.69
356.172	95.69
356.399	76.69
356.626	79.69
356.853	95.69
357.08	94.69
357.307	102.69
357.534	93.69
357.761	90.69
357.988	80.69
358.215	100.69
358.441	89.69
358.668	89.69
358.895	92.69
359.122	77.69
359.349	91.69
359.576	97.69
359.802	94.69
360.029	103.69
360.256	100.69
360.483	101.69
360.709	95.69
360.936	96.69
361.163	96.69
361.39	107.69
361.616	88.69
361.843	74.69
362.07	95.69
362.296	87.69
362.523	88.69
362.749	83.69
362.976	91.69
363.203	90.69
363.429	93.69
363.656	91.69
363.882	92.69
364.109	87.69
364.335	91.69
364.562	70.69
364.788	86.69
365.015	97.69
365.241	98.69
365.468	106.69
365.694	101.69
365.92	80.69
366.147	84.69
366.373	79.69
366.599	75.69
366.826	86.69
367.052	80.69
367.278	92.69
367.505	93.69
367.731	84.69
367.957	77.69
368.184	97.69
368.41	90.69
368.636	105.69
368.862	111.69
369.089	109.69
369.315	91.69
369.541	95.69
369.767	96.69
369.993	88.69
370.219	85.69
370.445	82.69
370.672	85.69
370.898	93.69
371.124	97.69
371.35	93.69
371.576	75.69
371.802	84.69
372.028	83.69
372.254	90.69
372.48	82.69
372.706	93.69
372.932	83.69
373.158	92.69
373.384	89.69
373.61	85.69
373.835	92.69
374.061	85.69
374.287	85.69
374.513	95.69
374.739	89.69
374.965	87.69
375.191	81.69
375.416	84.69
375.642	90.69
375.868	102.69
376.094	89.69
376.319	97.69
376.545	74.69
376.771	97.69
376.997	99.69
377.222	85.69
377.448	86.69
377.674	85.69
377.899	92.69
378.125	96.69
378.35	75.69
378.576	88.69
378.802	98.69
379.027	93.69
379.253	82.69
379.478	81.69
379.704	97.69
379.929	96.69
380.155	92.69
380.38	83.69
380.606	92.69
380.831	87.69
381.057	96.69
381.282	109.69
381.507	93.69
381.733	88.69
381.958	90.69
382.184	94.69
382.409	91.69
382.634	98.69
382.86	95.69
383.085	89.69
383.31	88.69
383.535	92.69
383.761	95.69
383.986	103.69
384.211	104.69
384.436	89.69
384.662	90.69
384.887	86.69
385.112	103.69
385.337	98.69
385.562	105.69
385.787	97.69
386.013	99.69
386.238	104.69
386.463	83.69
386.688	91.69
386.913	91.69
387.138	97.69
387.363	109.69
387.588	93.69
387.813	97.69
388.038	118.69
388.263	107.69
388.488	103.69
388.713	87.69
388.938	84.69
389.163	97.69
389.387	89.69
389.612	97.69
389.837	82.69
390.062	101.69
390.287	93.69
390.512	90.69
390.736	80.69
390.961	83.69
391.186	96.69
391.411	91.69
391.636	93.69
391.86	78.69
392.085	82.69
392.31	82.69
392.534	80.69
392.759	82.69
392.984	97.69
393.208	88.69
393.433	82.69
393.658	79.69
393.882	81.69
394.107	86.69
394.331	88.69
394.556	66.69
394.78	77.69
395.005	84.69
395.229	79.69
395.454	84.69
395.678	84.69
395.903	88.69
396.127	98.69
396.352	79.69
396.576	76.69
396.801	82.69
397.025	62.69
397.249	75.69
397.474	73.69
397.698	93.69
397.922	76.69
398.147	69.69
398.371	105.69
398.595	99.69
398.82	79.69
399.044	74.69
399.268	73.69
399.492	92.69
399.717	79.69
399.941	87.69
400.165	88.69
400.389	93.69
400.613	84.69
400.837	102.69
401.062	96.69
401.286	94.69
401.51	70.69
401.734	79.69
401.958	88.69
402.182	108.69
402.406	128.69
402.63	92.69
402.854	83.69
403.078	91.69
403.302	95.69
403.526	89.69
403.75	71.69
403.974	86.69
404.198	83.69
404.422	66.69
404.645	85.69
404.869	99.69
405.093	87.69
405.317	102.69
405.541	92.69
405.765	106.69
405.988	107.69
406.212	146.69
406.436	185.69
406.66	136.69
406.883	91.69
407.107	92.69
407.331	79.69
407.555	105.69
407.778	91.69
408.002	96.69
408.226	95.69
408.449	93.69
408.673	103.69
408.896	100.69
409.12	92.69
409.344	91.69
409.567	80.69
409.791	88.69
410.014	104.69
410.238	86.69
410.461	87.69
410.685	115.69
410.908	103.69
411.132	104.69
411.355	91.69
411.578	83.69
411.802	73.69
412.025	78.69
412.249	85.69
412.472	72.69
412.695	91.69
412.919	89.69
413.142	82.69
413.365	89.69
413.589	76.69
413.812	81.69
414.035	83.69
414.258	100.69
414.482	90.69
414.705	98.69
414.928	81.69
415.151	105.69
415.374	99.69
415.597	99.69
415.821	90.69
416.044	83.69
416.267	84.69
416.49	85.69
416.713	79.69
416.936	99.69
417.159	86.69
417.382	74.69
417.605	75.69
417.828	88.69
418.051	83.69
418.274	96.69
418.497	86.69
418.72	68.69
418.943	83.69
419.166	86.69
419.389	92.69
419.611	75.69
419.834	74.69
420.057	84.69
420.28	82.69
420.503	73.69
420.726	73.69
420.948	87.69
421.171	91.69
421.394	97.69
421.617	92.69
421.839	73.69
422.062	91.69
422.285	93.69
422.507	98.69
422.73	93.69
422.953	88.69
423.175	74.69
423.398	83.69
423.621	85.69
423.843	78.69
424.066	87.69
424.288	77.69
424.511	104.69
424.733	101.69
424.956	80.69
425.178	95.69
425.401	91.69
425.623	90.69
425.846	74.69
426.068	86.69
426.291	100.69
426.513	85.69
426.735	72.69
426.958	108.69
427.18	108.69
427.402	115.69
427.625	150.69
427.847	112.69
428.069	106.69
428.292	92.69
428.514	99.69
428.736	89.69
428.958	92.69
429.181	96.69
429.403	95.69
429.625	87.69
429.847	76.69
430.069	93.69
430.292	92.69
430.514	92.69
430.736	101.69
430.958	80.69
431.18	73.69
431.402	89.69
431.624	78.69
431.846	73.69
432.068	92.69
432.29	85.69
432.512	90.69
432.734	105.69
432.956	101.69
433.178	101.69
433.4	99.69
433.622	92.69
433.844	85.69
434.066	89.69
434.287	90.69
434.509	83.69
434.731	94.69
434.953	98.69
435.175	91.69
435.397	77.69
435.618	89.69
435.84	89.69
436.062	108.69
436.284	97.69
436.505	96.69
436.727	100.69
436.949	90.69
437.17	75.69
437.392	81.69
437.614	89.69
437.835	88.69
438.057	112.69
438.278	104.69
438.5	100.69
438.721	127.69
438.943	94.69
439.165	80.69
439.386	90.69
439.608	83.69
439.829	84.69
440.05	112.69
440.272	116.69
440.493	98.69
440.715	84.69
440.936	87.69
441.158	83.69
441.379	91.69
441.6	84.69
441.822	92.69
442.043	99.69
442.264	98.69
442.486	98.69
442.707	89.69
442.928	102.69
443.149	115.69
443.371	119.69
443.592	99.69
443.813	96.69
444.034	89.69
444.255	87.69
444.476	88.69
444.698	77.69
444.919	87.69
445.14	137.69
445.361	122.69
445.582	91.69
445.803	121.69
446.024	116.69
446.245	136.69
446.466	105.69
446.687	98.69
446.908	87.69
447.129	99.69
447.35	94.69
447.571	97.69
447.792	90.69
448.013	109.69
448.234	96.69
448.455	101.69
448.675	105.69
448.896	100.69
449.117	93.69
449.338	104.69
449.559	121.69
449.779	112.69
450	89.69
450.221	86.69
450.442	94.69
450.662	101.69
450.883	91.69
451.104	96.69
451.324	92.69
451.545	85.69
451.766	87.69
451.986	74.69
452.207	83.69
452.428	89.69
452.648	89.69
452.869	115.69
453.089	112.69
453.31	105.69
453.53	99.69
453.751	87.69
453.971	86.69
454.192	99.69
454.412	102.69
454.633	82.69
454.853	77.69
455.073	91.69
455.294	88.69
455.514	94.69
455.734	90.69
455.955	70.69
456.175	80.69
456.395	87.69
456.616	93.69
456.836	78.69
457.056	77.69
457.276	82.69
457.497	79.69
457.717	73.69
457.937	91.69
458.157	84.69
458.377	88.69
458.598	99.69
458.818	127.69
459.038	135.69
459.258	95.69
459.478	79.69
459.698	85.69
459.918	87.69
460.138	90.69
460.358	74.69
460.578	87.69
460.798	98.69
461.018	101.69
461.238	83.69
461.458	73.69
461.678	71.69
461.898	83.69
462.118	79.69
462.338	81.69
462.558	76.69
462.777	81.69
462.997	93.69
463.217	73.69
463.437	87.69
463.657	85.69
463.876	85.69
464.096	85.69
464.316	74.69
464.536	101.69
464.755	89.69
464.975	105.69
465.195	127.69
465.414	144.69
465.634	98.69
465.854	86.69
466.073	87.69
466.293	103.69
466.512	91.69
466.732	74.69
466.951	79.69
467.171	95.69
467.391	107.69
467.61	101.69
467.829	119.69
468.049	101.69
468.268	103.69
468.488	86.69
468.707	91.69
468.927	91.69
469.146	90.69
469.365	100.69
469.585	87.69
469.804	79.69
470.023	96.69
470.243	88.69
470.462	100.69
470.681	102.69
470.901	93.69
471.12	92.69
471.339	87.69
471.558	81.69
471.777	91.69
471.997	91.69
472.216	106.69
472.435	140.69
472.654	95.69
472.873	90.69
473.092	92.69
473.311	79.69
473.53	96.69
473.749	89.69
473.968	88.69
474.187	93.69
474.406	82.69
474.625	79.69
474.844	90.69
475.063	77.69
475.282	83.69
475.501	87.69
475.72	91.69
475.939	82.69
476.158	96.69
476.377	77.69
476.596	82.69
476.814	89.69
477.033	86.69
477.252	85.69
477.471	75.69
477.69	87.69
477.908	75.69
478.127	80.69
478.346	93.69
478.564	85.69
478.783	99.69
479.002	85.69
479.22	93.69
479.439	109.69
479.658	81.69
479.876	99.69
480.095	91.69
480.313	100.69
480.532	79.69
480.751	93.69
480.969	106.69
481.188	180.69
481.406	138.69
481.624	99.69
481.843	75.69
482.061	87.69
482.28	83.69
482.498	88.69
482.717	92.69
482.935	99.69
483.153	95.69
483.372	85.69
483.59	90.69
483.808	85.69
484.027	83.69
484.245	87.69
484.463	73.69
484.681	90.69
484.9	82.69
485.118	94.69
485.336	90.69
485.554	91.69
485.772	98.69
485.99	106.69
486.209	93.69
486.427	98.69
486.645	107.69
486.863	106.69
487.081	104.69
487.299	83.69
487.517	95.69
487.735	96.69
487.953	86.69
488.171	91.69
488.389	80.69
488.607	104.69
488.825	82.69
489.043	83.69
489.261	82.69
489.479	97.69
489.696	95.69
489.914	93.69
490.132	94.69
490.35	86.69
490.568	86.69
490.786	89.69
491.003	83.69
491.221	88.69
491.439	89.69
491.657	87.69
491.874	88.69
492.092	93.69
492.31	87.69
492.527	87.69
492.745	84.69
492.963	87.69
493.18	96.69
493.398	101.69
493.615	87.69
493.833	97.69
494.05	91.69
494.268	76.69
494.485	84.69
494.703	85.69
494.92	96.69
495.138	91.69
495.355	79.69
495.573	94.69
495.79	87.69
496.008	82.69
496.225	88.69
496.442	90.69
496.66	82.69
496.877	91.69
497.094	83.69
497.312	91.69
497.529	96.69
497.746	79.69
497.963	85.69
498.181	95.69
498.398	90.69
498.615	102.69
498.832	109.69
499.049	88.69
499.267	93.69
499.484	106.69
499.701	101.69
499.918	93.69
500.135	93.69
500.352	89.69
500.569	82.69
500.786	90.69
501.003	88.69
501.22	83.69
501.437	97.69
501.654	82.69
501.871	100.69
502.088	95.69
502.305	91.69
502.522	83.69
502.739	89.69
502.956	96.69
503.172	91.69
503.389	83.69
503.606	89.69
503.823	93.69
504.04	80.69
504.256	81.69
504.473	88.69
504.69	96.69
504.907	91.69
505.123	86.69
505.34	84.69
505.557	99.69
505.773	86.69
505.99	85.69
506.207	94.69
506.423	86.69
506.64	100.69
506.856	81.69
507.073	95.69
507.289	84.69
507.506	100.69
507.722	83.69
507.939	99.69
508.155	86.69
508.372	98.69
508.588	86.69
508.805	81.69
509.021	93.69
509.238	85.69
509.454	92.69
509.67	97.69
509.887	90.69
510.103	138.69
510.319	208.69
510.536	697.69
510.752	2074.69
510.968	554.69
511.184	159.69
511.401	100.69
511.617	88.69
511.833	91.69
512.049	101.69
512.265	106.69
512.481	88.69
512.698	87.69
512.914	90.69
513.13	92.69
513.346	79.69
513.562	79.69
513.778	77.69
513.994	89.69
514.21	99.69
514.426	98.69
514.642	119.69
514.858	106.69
515.074	147.69
515.29	401.69
515.506	1246.69
515.721	452.69
515.937	135.69
516.153	98.69
516.369	110.69
516.585	92.69
516.801	89.69
517.016	101.69
517.232	85.69
517.448	88.69
517.664	82.69
517.879	92.69
518.095	89.69
518.311	89.69
518.527	102.69
518.742	89.69
518.958	105.69
519.173	89.69
519.389	88.69
519.605	94.69
519.82	97.69
520.036	96.69
520.251	108.69
520.467	109.69
520.682	107.69
520.898	96.69
521.113	100.69
521.329	114.69
521.544	190.69
521.76	496.69
521.975	2068.69
522.19	1198.69
522.406	259.69
522.621	111.69
522.836	93.69
523.052	71.69
523.267	97.69
523.482	83.69
523.698	88.69
523.913	101.69
524.128	95.69
524.343	83.69
524.559	87.69
524.774	75.69
524.989	93.69
525.204	105.69
525.419	103.69
525.634	86.69
525.849	107.69
526.064	88.69
526.28	83.69
526.495	77.69
526.71	92.69
526.925	89.69
527.14	92.69
527.355	92.69
527.57	89.69
527.785	89.69
527.999	86.69
528.214	93.69
528.429	104.69
528.644	94.69
528.859	92.69
529.074	89.69
529.289	113.69
529.503	139.69
529.718	86.69
529.933	93.69
530.148	89.69
530.363	85.69
530.577	77.69
530.792	80.69
531.007	87.69
531.221	108.69
531.436	100.69
531.651	90.69
531.865	81.69
532.08	91.69
532.295	82.69
532.509	106.69
532.724	99.69
532.938	103.69
533.153	90.69
533.367	88.69
533.582	90.69
533.796	92.69
534.011	95.69
534.225	85.69
534.44	90.69
534.654	98.69
534.868	68.69
535.083	92.69
535.297	87.69
535.511	101.69
535.726	106.69
535.94	97.69
536.154	87.69
536.369	83.69
536.583	89.69
536.797	99.69
537.011	87.69
537.225	92.69
537.44	90.69
537.654	92.69
537.868	92.69
538.082	91.69
538.296	83.69
538.51	89.69
538.724	97.69
538.938	102.69
539.153	86.69
539.367	107.69
539.581	96.69
539.795	87.69
540.009	84.69
540.222	74.69
540.436	90.69
540.65	96.69
540.864	82.69
541.078	100.69
541.292	97.69
541.506	92.69
541.72	99.69
541.934	92.69
542.147	83.69
542.361	71.69
542.575	75.69
542.789	75.69
543.002	97.69
543.216	88.69
543.43	90.69
543.644	107.69
543.857	87.69
544.071	91.69
544.285	104.69
544.498	71.69
544.712	76.69
544.925	95.69
545.139	83.69
545.352	78.69
545.566	93.69
545.779	73.69
545.993	85.69
546.206	113.69
546.42	100.69
546.633	93.69
546.847	77.69
547.06	86.69
547.274	86.69
547.487	91.69
547.7	92.69
547.914	91.69
548.127	89.69
548.34	79.69
548.554	86.69
548.767	79.69
548.98	87.69
549.193	95.69
549.407	99.69
549.62	87.69
549.833	98.69
550.046	91.69
550.259	84.69
550.473	96.69
550.686	94.69
550.899	90.69
551.112	94.69
551.325	103.69
551.538	91.69
551.751	92.69
551.964	93.69
552.177	102.69
552.39	95.69
552.603	90.69
552.816	87.69
553.029	89.69
553.242	90.69
553.455	90.69
553.667	108.69
553.88	98.69
554.093	89.69
554.306	85.69
554.519	97.69
554.732	93.69
554.944	97.69
555.157	89.69
555.37	82.69
555.583	96.69
555.795	100.69
556.008	103.69
556.221	89.69
556.433	101.69
556.646	85.69
556.859	92.69
557.071	81.69
557.284	95.69
557.496	93.69
557.709	85.69
557.921	89.69
558.134	91.69
558.346	97.69
558.559	89.69
558.771	88.69
558.984	87.69
559.196	82.69
559.409	97.69
559.621	95.69
559.833	61.69
560.046	93.69
560.258	84.69
560.47	85.69
560.683	84.69
560.895	92.69
561.107	80.69
561.32	84.69
561.532	79.69
561.744	99.69
561.956	88.69
562.168	89.69
562.381	84.69
562.593	99.69
562.805	85.69
563.017	93.69
563.229	88.69
563.441	96.69
563.653	100.69
563.865	96.69
564.077	80.69
564.289	82.69
564.501	86.69
564.713	95.69
564.925	82.69
565.137	90.69
565.349	92.69
565.561	92.69
565.773	93.69
565.985	83.69
566.197	81.69
566.408	88.69
566.62	92.69
566.832	80.69
567.044	89.69
567.255	96.69
567.467	106.69
567.679	84.69
567.891	97.69
568.102	89.69
568.314	91.69
568.526	84.69
568.737	81.69
568.949	97.69
569.161	90.69
569.372	100.69
569.584	84.69
569.795	92.69
570.007	98.69
570.218	220.69
570.43	109.69
570.641	89.69
570.853	86.69
571.064	87.69
571.276	82.69
571.487	83.69
571.698	77.69
571.91	95.69
572.121	79.69
572.333	80.69
572.544	79.69
572.755	96.69
572.966	87.69
573.178	91.69
573.389	70.69
573.6	94.69
573.811	91.69
574.023	85.69
574.234	90.69
574.445	92.69
574.656	82.69
574.867	76.69
575.078	102.69
575.289	94.69
575.501	76.69
575.712	80.69
575.923	90.69
576.134	82.69
576.345	80.69
576.556	93.69
576.767	92.69
576.978	88.69
577.188	101.69
577.399	103.69
577.61	83.69
577.821	91.69
578.032	122.69
578.243	259.69
578.454	667.69
578.665	200.69
578.875	89.69
579.086	90.69
579.297	76.69
579.508	83.69
579.718	91.69
579.929	81.69
580.14	86.69
580.35	87.69
580.561	76.69
580.772	82.69
580.982	92.69
581.193	87.69
581.403	85.69
581.614	92.69
581.825	98.69
582.035	89.69
582.246	83.69
582.456	106.69
582.667	90.69
582.877	94.69
583.087	88.69
583.298	80.69
583.508	80.69
583.719	90.69
583.929	88.69
584.139	89.69
584.35	98.69
584.56	79.69
584.77	89.69
584.981	86.69
585.191	87.69
585.401	89.69
585.611	79.69
585.821	96.69
586.032	88.69
586.242	96.69
586.452	86.69
586.662	80.69
586.872	79.69
587.082	85.69
587.292	87.69
587.502	88.69
587.713	80.69
587.923	83.69
588.133	86.69
588.343	81.69
588.553	89.69
588.762	90.69
588.972	87.69
589.182	95.69
589.392	91.69
589.602	82.69
589.812	101.69
590.022	90.69
590.232	72.69
590.441	82.69
590.651	95.69
590.861	72.69
591.071	84.69
591.281	92.69
591.49	83.69
591.7	81.69
591.91	86.69
592.119	69.69
592.329	98.69
592.539	99.69
592.748	90.69
592.958	75.69
593.167	89.69
593.377	79.69
593.587	75.69
593.796	101.69
594.006	92.69
594.215	91.69
594.424	82.69
594.634	88.69
594.843	89.69
595.053	84.69
595.262	82.69
595.472	79.69
595.681	99.69
595.89	76.69
596.1	93.69
596.309	89.69
596.518	74.69
596.727	96.69
596.937	76.69
597.146	85.69
597.355	104.69
597.564	87.69
597.774	91.69
597.983	84.69
598.192	93.69
598.401	75.69
598.61	94.69
598.819	97.69
599.028	84.69
599.237	81.69
599.446	92.69
599.655	83.69
599.864	69.69
600.073	80.69
600.282	88.69
600.491	94.69
600.7	72.69
600.909	87.69
601.118	75.69
601.327	72.69
601.536	93.69
601.745	88.69
601.953	77.69
602.162	81.69
602.371	98.69
602.58	87.69
602.789	78.69
602.997	76.69
603.206	91.69
603.415	87.69
603.623	80.69
603.832	81.69
604.041	75.69
604.249	71.69
604.458	75.69
604.666	75.69
604.875	81.69
605.084	87.69
605.292	83.69
605.501	93.69
605.709	77.69
605.918	100.69
606.126	80.69
606.334	85.69
606.543	83.69
606.751	80.69
606.96	86.69
607.168	85.69
607.376	87.69
607.585	84.69
607.793	100.69
608.001	69.69
608.21	74.69
608.418	75.69
608.626	84.69
608.834	85.69
609.043	85.69
609.251	96.69
609.459	79.69
609.667	85.69
609.875	75.69
610.083	93.69
610.291	88.69
610.499	84.69
610.707	99.69
610.916	93.69
611.124	81.69
611.332	86.69
611.54	87.69
611.748	88.69
611.955	79.69
612.163	95.69
612.371	66.69
612.579	83.69
612.787	84.69
612.995	75.69
613.203	76.69
613.411	82.69
613.618	72.69
613.826	96.69
614.034	83.69
614.242	74.69
614.449	75.69
614.657	82.69
614.865	84.69
615.072	91.69
615.28	92.69
615.488	80.69
615.695	89.69
615.903	86.69
616.111	89.69
616.318	97.69
616.526	105.69
616.733	108.69
616.941	86.69
617.148	87.69
617.356	95.69
617.563	79.69
617.771	84.69
617.978	83.69
618.185	84.69
618.393	70.69
618.6	73.69
618.807	80.69
619.015	91.69
619.222	84.69
619.429	83.69
619.637	86.69
619.844	69.69
620.051	83.69
620.258	67.69
620.466	80.69
620.673	100.69
620.88	88.69
621.087	87.69
621.294	93.69
621.501	93.69
621.708	74.69
621.915	62.69
622.122	81.69
622.329	75.69
622.536	85.69
622.743	80.69
622.95	86.69
623.157	80.69
623.364	90.69
623.571	72.69
623.778	67.69
623.985	89.69
624.192	69.69
624.399	93.69
624.606	87.69
624.812	74.69
625.019	74.69
625.226	74.69
625.433	82.69
625.639	93.69
625.846	83.69
626.053	69.69
626.259	87.69
626.466	87.69
626.673	79.69
626.879	82.69
627.086	91.69
627.293	75.69
627.499	80.69
627.706	92.69
627.912	73.69
628.119	87.69
628.325	87.69
628.532	66.69
628.738	86.69
628.945	85.69
629.151	81.69
629.357	85.69
629.564	87.69
629.77	100.69
629.976	87.69
630.183	91.69
630.389	103.69
630.595	89.69
630.802	84.69
631.008	87.69
631.214	91.69
631.42	83.69
631.627	84.69
631.833	78.69
632.039	90.69
632.245	91.69
632.451	64.69
632.657	71.69
632.863	67.69
633.069	85.69
633.275	86.69
633.481	78.69
633.688	71.69
633.893	92.69
634.099	87.69
634.305	75.69
634.511	79.69
634.717	82.69
634.923	89.69
635.129	80.69
635.335	68.69
635.541	83.69
635.747	72.69
635.952	84.69
636.158	77.69
636.364	84.69
636.57	96.69
636.775	92.69
636.981	79.69
637.187	72.69
637.392	89.69
637.598	82.69
637.804	85.69
638.009	80.69
638.215	89.69
638.421	94.69
638.626	78.69
638.832	89.69
639.037	87.69
639.243	75.69
639.448	66.69
639.654	81.69
639.859	85.69
640.065	91.69
640.27	80.69
640.475	82.69
640.681	84.69
640.886	81.69
641.091	80.69
641.297	83.69
641.502	86.69
641.707	84.69
641.913	91.69
642.118	86.69
642.323	76.69
642.528	77.69
642.733	92.69
642.939	74.69
643.144	74.69
643.349	83.69
643.554	84.69
643.759	80.69
643.964	76.69
644.169	87.69
644.374	75.69
644.579	72.69
644.784	82.69
644.989	71.69
645.194	81.69
645.399	77.69
645.604	90.69
645.809	87.69
646.014	79.69
646.219	75.69
646.423	83.69
646.628	80.69
646.833	82.69
647.038	96.69
647.243	96.69
647.447	83.69
647.652	98.69
647.857	86.69
648.062	79.69
648.266	85.69
648.471	73.69
648.676	91.69
648.88	91.69
649.085	83.69
649.289	82.69
649.494	88.69
649.698	124.69
649.903	88.69
650.107	80.69
650.312	85.69
650.516	76.69
650.721	89.69
650.925	100.69
651.13	89.69
651.334	85.69
651.539	97.69
651.743	87.69
651.947	84.69
652.152	72.69
652.356	67.69
652.56	79.69
652.764	77.69
652.969	81.69
653.173	81.69
653.377	86.69
653.581	79.69
653.785	82.69
653.99	74.69
654.194	83.69
654.398	87.69
654.602	65.69
654.806	84.69
655.01	101.69
655.214	87.69
655.418	83.69
655.622	77.69
655.826	102.69
656.03	90.69
656.234	93.69
656.438	100.69
656.642	111.69
656.846	76.69
657.049	91.69
657.253	93.69
657.457	89.69
657.661	88.69
657.865	71.69
658.068	68.69
658.272	85.69
658.476	70.69
658.68	71.69
658.883	68.69
659.087	85.69
659.291	97.69
659.494	68.69
659.698	85.69
659.901	72.69
660.105	86.69
660.309	88.69
660.512	89.69
660.716	91.69
660.919	86.69
661.123	86.69
661.326	77.69
661.53	84.69
661.733	83.69
661.936	70.69
662.14	69.69
662.343	68.69
662.546	89.69
662.75	90.69
662.953	91.69
663.156	71.69
663.36	76.69
663.563	80.69
663.766	73.69
663.969	95.69
664.173	82.69
664.376	72.69
664.579	71.69
664.782	77.69
664.985	79.69
665.188	71.69
665.391	83.69
665.594	85.69
665.797	71.69
666	85.69
666.203	70.69
666.406	69.69
666.609	70.69
666.812	87.69
667.015	78.69
667.218	77.69
667.421	81.69
667.624	81.69
667.827	83.69
668.03	87.69
668.232	65.69
668.435	85.69
668.638	76.69
668.841	88.69
669.043	68.69
669.246	91.69
669.449	80.69
669.651	81.69
669.854	88.69
670.057	85.69
670.259	93.69
670.462	89.69
670.665	72.69
670.867	93.69
671.07	89.69
671.272	89.69
671.475	96.69
671.677	82.69
671.88	68.69
672.082	68.69
672.284	82.69
672.487	75.69
672.689	72.69
672.892	82.69
