Data from Uncirc_1982_H10_HRD10591_00018.txt Node
Date: Wed Jan 03 12:29:28 EST 2024
User: Yrep
Spectrometer: HR+D1059
Trigger mode: 1
Integration Time (sec): 1.000000E-1
Scans to average: 1
Electric dark correction enabled: true
Nonlinearity correction enabled: false
Boxcar width: 0
XAxis mode: Wavelengths
Number of Pixels in Spectrum: 2048
>>>>>Begin Spectral Data<<<<<
223.165	-10.75
223.4	-10.75
223.635	-10.75
223.869	-33.75
224.104	-10.75
224.338	-32.75
224.573	-16.75
224.808	-1.75
225.042	-8.75
225.277	-4.75
225.511	-6.75
225.746	6.25
225.98	0.25
226.215	14.25
226.449	12.25
226.683	32.25
226.918	31.25
227.152	30.25
227.387	41.25
227.621	48.25
227.856	47.25
228.09	37.25
228.324	55.25
228.559	63.25
228.793	54.25
229.027	69.25
229.262	61.25
229.496	75.25
229.73	80.25
229.964	79.25
230.199	72.25
230.433	91.25
230.667	80.25
230.901	81.25
231.136	70.25
231.37	69.25
231.604	85.25
231.838	91.25
232.072	93.25
232.306	90.25
232.541	97.25
232.775	94.25
233.009	79.25
233.243	83.25
233.477	71.25
233.711	72.25
233.945	76.25
234.179	95.25
234.413	78.25
234.647	91.25
234.881	91.25
235.115	64.25
235.349	85.25
235.583	94.25
235.817	70.25
236.051	93.25
236.285	80.25
236.519	87.25
236.753	96.25
236.987	73.25
237.221	84.25
237.455	80.25
237.689	83.25
237.922	78.25
238.156	83.25
238.39	55.25
238.624	75.25
238.858	67.25
239.091	71.25
239.325	77.25
239.559	80.25
239.793	85.25
240.027	88.25
240.26	93.25
240.494	79.25
240.728	83.25
240.961	67.25
241.195	90.25
241.429	95.25
241.662	75.25
241.896	73.25
242.13	78.25
242.363	83.25
242.597	89.25
242.83	70.25
243.064	74.25
243.298	77.25
243.531	85.25
243.765	92.25
243.998	80.25
244.232	85.25
244.465	87.25
244.699	95.25
244.932	93.25
245.166	84.25
245.399	80.25
245.633	88.25
245.866	94.25
246.099	90.25
246.333	79.25
246.566	72.25
246.8	77.25
247.033	97.25
247.266	91.25
247.5	80.25
247.733	82.25
247.966	80.25
248.2	79.25
248.433	87.25
248.666	86.25
248.899	89.25
249.133	73.25
249.366	73.25
249.599	104.25
249.832	79.25
250.066	81.25
250.299	97.25
250.532	101.25
250.765	90.25
250.998	91.25
251.231	93.25
251.465	84.25
251.698	72.25
251.931	91.25
252.164	85.25
252.397	79.25
252.63	85.25
252.863	80.25
253.096	72.25
253.329	102.25
253.562	82.25
253.795	88.25
254.028	88.25
254.261	86.25
254.494	92.25
254.727	76.25
254.96	79.25
255.193	73.25
255.426	76.25
255.659	87.25
255.892	78.25
256.124	86.25
256.357	91.25
256.59	93.25
256.823	88.25
257.056	84.25
257.289	73.25
257.521	84.25
257.754	85.25
257.987	81.25
258.22	87.25
258.452	83.25
258.685	87.25
258.918	84.25
259.151	80.25
259.383	85.25
259.616	82.25
259.849	85.25
260.081	78.25
260.314	92.25
260.547	81.25
260.779	72.25
261.012	90.25
261.244	71.25
261.477	78.25
261.71	98.25
261.942	83.25
262.175	105.25
262.407	95.25
262.64	87.25
262.872	95.25
263.105	80.25
263.337	88.25
263.57	95.25
263.802	93.25
264.035	75.25
264.267	78.25
264.499	78.25
264.732	78.25
264.964	84.25
265.197	72.25
265.429	88.25
265.661	91.25
265.894	88.25
266.126	108.25
266.358	76.25
266.591	88.25
266.823	89.25
267.055	94.25
267.287	89.25
267.52	88.25
267.752	94.25
267.984	95.25
268.216	85.25
268.448	87.25
268.681	86.25
268.913	73.25
269.145	74.25
269.377	91.25
269.609	87.25
269.841	95.25
270.073	93.25
270.306	87.25
270.538	73.25
270.77	88.25
271.002	94.25
271.234	77.25
271.466	89.25
271.698	94.25
271.93	92.25
272.162	84.25
272.394	90.25
272.626	84.25
272.858	80.25
273.09	79.25
273.322	75.25
273.553	78.25
273.785	99.25
274.017	91.25
274.249	90.25
274.481	93.25
274.713	89.25
274.945	87.25
275.176	86.25
275.408	94.25
275.64	92.25
275.872	103.25
276.104	85.25
276.335	88.25
276.567	91.25
276.799	91.25
277.031	109.25
277.262	89.25
277.494	89.25
277.726	99.25
277.957	93.25
278.189	88.25
278.421	94.25
278.652	89.25
278.884	85.25
279.115	81.25
279.347	101.25
279.579	99.25
279.81	91.25
280.042	84.25
280.273	83.25
280.505	79.25
280.736	75.25
280.968	92.25
281.199	87.25
281.431	85.25
281.662	85.25
281.894	103.25
282.125	117.25
282.356	116.25
282.588	106.25
282.819	105.25
283.051	85.25
283.282	84.25
283.513	98.25
283.745	82.25
283.976	92.25
284.207	94.25
284.439	76.25
284.67	75.25
284.901	87.25
285.132	85.25
285.364	79.25
285.595	101.25
285.826	70.25
286.057	93.25
286.288	81.25
286.52	87.25
286.751	78.25
286.982	89.25
287.213	87.25
287.444	93.25
287.675	97.25
287.906	87.25
288.138	94.25
288.369	87.25
288.6	87.25
288.831	99.25
289.062	95.25
289.293	80.25
289.524	83.25
289.755	108.25
289.986	77.25
290.217	100.25
290.448	82.25
290.679	89.25
290.91	95.25
291.141	104.25
291.371	99.25
291.602	88.25
291.833	73.25
292.064	91.25
292.295	90.25
292.526	87.25
292.757	101.25
292.987	95.25
293.218	107.25
293.449	84.25
293.68	92.25
293.91	85.25
294.141	93.25
294.372	88.25
294.603	72.25
294.833	91.25
295.064	83.25
295.295	90.25
295.525	91.25
295.756	107.25
295.987	102.25
296.217	121.25
296.448	98.25
296.679	101.25
296.909	88.25
297.14	106.25
297.37	89.25
297.601	100.25
297.831	97.25
298.062	101.25
298.292	93.25
298.523	105.25
298.753	90.25
298.984	99.25
299.214	84.25
299.445	97.25
299.675	95.25
299.905	92.25
300.136	87.25
300.366	93.25
300.597	76.25
300.827	97.25
301.057	95.25
301.288	96.25
301.518	98.25
301.748	94.25
301.979	113.25
302.209	93.25
302.439	90.25
302.669	109.25
302.9	106.25
303.13	89.25
303.36	95.25
303.59	99.25
303.82	102.25
304.051	92.25
304.281	99.25
304.511	80.25
304.741	80.25
304.971	95.25
305.201	95.25
305.431	97.25
305.661	99.25
305.891	85.25
306.121	99.25
306.352	95.25
306.582	101.25
306.812	92.25
307.042	91.25
307.272	89.25
307.502	91.25
307.731	97.25
307.961	100.25
308.191	90.25
308.421	91.25
308.651	94.25
308.881	100.25
309.111	93.25
309.341	104.25
309.571	100.25
309.8	91.25
310.03	97.25
310.26	105.25
310.49	106.25
310.72	97.25
310.949	95.25
311.179	94.25
311.409	75.25
311.639	102.25
311.868	92.25
312.098	91.25
312.328	91.25
312.557	87.25
312.787	104.25
313.017	107.25
313.246	91.25
313.476	109.25
313.706	95.25
313.935	92.25
314.165	91.25
314.394	104.25
314.624	99.25
314.853	90.25
315.083	87.25
315.312	93.25
315.542	79.25
315.771	96.25
316.001	90.25
316.23	104.25
316.46	97.25
316.689	93.25
316.919	105.25
317.148	92.25
317.377	109.25
317.607	83.25
317.836	86.25
318.065	91.25
318.295	102.25
318.524	86.25
318.753	89.25
318.983	105.25
319.212	97.25
319.441	94.25
319.67	96.25
319.9	98.25
320.129	97.25
320.358	97.25
320.587	101.25
320.816	102.25
321.046	107.25
321.275	105.25
321.504	108.25
321.733	97.25
321.962	96.25
322.191	85.25
322.42	109.25
322.649	104.25
322.878	98.25
323.108	116.25
323.337	117.25
323.566	121.25
323.795	127.25
324.024	168.25
324.253	339.25
324.482	688.25
324.71	1341.25
324.939	1771.25
325.168	664.25
325.397	217.25
325.626	129.25
325.855	120.25
326.084	112.25
326.313	122.25
326.542	148.25
326.77	191.25
326.999	390.25
327.228	797.25
327.457	1418.25
327.686	1109.25
327.914	314.25
328.143	148.25
328.372	131.25
328.6	126.25
328.829	122.25
329.058	101.25
329.287	117.25
329.515	104.25
329.744	104.25
329.972	109.25
330.201	122.25
330.43	115.25
330.658	110.25
330.887	135.25
331.115	104.25
331.344	99.25
331.572	110.25
331.801	103.25
332.03	100.25
332.258	100.25
332.486	99.25
332.715	85.25
332.943	89.25
333.172	102.25
333.4	105.25
333.629	116.25
333.857	96.25
334.085	101.25
334.314	101.25
334.542	123.25
334.771	123.25
334.999	92.25
335.227	91.25
335.455	94.25
335.684	89.25
335.912	93.25
336.14	99.25
336.369	108.25
336.597	101.25
336.825	89.25
337.053	89.25
337.281	95.25
337.51	103.25
337.738	91.25
337.966	85.25
338.194	81.25
338.422	100.25
338.65	91.25
338.878	97.25
339.106	83.25
339.334	77.25
339.562	91.25
339.79	89.25
340.018	99.25
340.246	89.25
340.474	93.25
340.702	90.25
340.93	85.25
341.158	84.25
341.386	87.25
341.614	107.25
341.842	93.25
342.07	111.25
342.298	96.25
342.526	101.25
342.754	94.25
342.981	100.25
343.209	90.25
343.437	96.25
343.665	99.25
343.893	101.25
344.12	90.25
344.348	95.25
344.576	83.25
344.804	93.25
345.031	101.25
345.259	83.25
345.487	99.25
345.714	100.25
345.942	94.25
346.17	109.25
346.397	96.25
346.625	99.25
346.853	89.25
347.08	93.25
347.308	101.25
347.535	96.25
347.763	106.25
347.99	109.25
348.218	93.25
348.445	106.25
348.673	100.25
348.9	103.25
349.128	97.25
349.355	83.25
349.583	92.25
349.81	103.25
350.037	101.25
350.265	104.25
350.492	99.25
350.72	94.25
350.947	101.25
351.174	114.25
351.402	100.25
351.629	108.25
351.856	100.25
352.083	87.25
352.311	102.25
352.538	99.25
352.765	112.25
352.992	111.25
353.22	108.25
353.447	117.25
353.674	106.25
353.901	105.25
354.128	108.25
354.355	102.25
354.583	116.25
354.81	95.25
355.037	106.25
355.264	92.25
355.491	99.25
355.718	97.25
355.945	109.25
356.172	106.25
356.399	99.25
356.626	111.25
356.853	113.25
357.08	96.25
357.307	120.25
357.534	105.25
357.761	99.25
357.988	96.25
358.215	99.25
358.441	94.25
358.668	93.25
358.895	107.25
359.122	103.25
359.349	85.25
359.576	87.25
359.802	89.25
360.029	94.25
360.256	85.25
360.483	93.25
360.709	92.25
360.936	110.25
361.163	101.25
361.39	91.25
361.616	96.25
361.843	110.25
362.07	101.25
362.296	97.25
362.523	99.25
362.749	99.25
362.976	93.25
363.203	99.25
363.429	97.25
363.656	91.25
363.882	92.25
364.109	92.25
364.335	92.25
364.562	97.25
364.788	87.25
365.015	102.25
365.241	104.25
365.468	99.25
365.694	121.25
365.92	102.25
366.147	102.25
366.373	100.25
366.599	85.25
366.826	90.25
367.052	106.25
367.278	85.25
367.505	88.25
367.731	91.25
367.957	110.25
368.184	89.25
368.41	103.25
368.636	105.25
368.862	103.25
369.089	93.25
369.315	99.25
369.541	94.25
369.767	86.25
369.993	91.25
370.219	95.25
370.445	83.25
370.672	101.25
370.898	92.25
371.124	91.25
371.35	89.25
371.576	91.25
371.802	78.25
372.028	94.25
372.254	86.25
372.48	84.25
372.706	85.25
372.932	84.25
373.158	100.25
373.384	91.25
373.61	103.25
373.835	105.25
374.061	92.25
374.287	92.25
374.513	95.25
374.739	101.25
374.965	112.25
375.191	71.25
375.416	111.25
375.642	92.25
375.868	99.25
376.094	96.25
376.319	88.25
376.545	86.25
376.771	102.25
376.997	106.25
377.222	80.25
377.448	100.25
377.674	94.25
377.899	95.25
378.125	101.25
378.35	94.25
378.576	75.25
378.802	95.25
379.027	83.25
379.253	96.25
379.478	103.25
379.704	101.25
379.929	89.25
380.155	104.25
380.38	119.25
380.606	111.25
380.831	109.25
381.057	104.25
381.282	103.25
381.507	107.25
381.733	107.25
381.958	101.25
382.184	102.25
382.409	120.25
382.634	109.25
382.86	100.25
383.085	108.25
383.31	116.25
383.535	105.25
383.761	112.25
383.986	92.25
384.211	106.25
384.436	121.25
384.662	108.25
384.887	101.25
385.112	116.25
385.337	118.25
385.562	115.25
385.787	127.25
386.013	131.25
386.238	116.25
386.463	125.25
386.688	119.25
386.913	115.25
387.138	121.25
387.363	122.25
387.588	111.25
387.813	111.25
388.038	102.25
388.263	131.25
388.488	119.25
388.713	93.25
388.938	109.25
389.163	117.25
389.387	94.25
389.612	95.25
389.837	88.25
390.062	99.25
390.287	87.25
390.512	110.25
390.736	99.25
390.961	88.25
391.186	88.25
391.411	104.25
391.636	95.25
391.86	99.25
392.085	94.25
392.31	103.25
392.534	93.25
392.759	84.25
392.984	88.25
393.208	99.25
393.433	93.25
393.658	78.25
393.882	75.25
394.107	87.25
394.331	100.25
394.556	103.25
394.78	85.25
395.005	87.25
395.229	75.25
395.454	87.25
395.678	99.25
395.903	96.25
396.127	84.25
396.352	91.25
396.576	96.25
396.801	96.25
397.025	95.25
397.249	85.25
397.474	91.25
397.698	92.25
397.922	99.25
398.147	75.25
398.371	75.25
398.595	88.25
398.82	94.25
399.044	81.25
399.268	94.25
399.492	90.25
399.717	83.25
399.941	92.25
400.165	105.25
400.389	81.25
400.613	106.25
400.837	83.25
401.062	85.25
401.286	103.25
401.51	98.25
401.734	110.25
401.958	95.25
402.182	115.25
402.406	144.25
402.63	107.25
402.854	75.25
403.078	89.25
403.302	91.25
403.526	81.25
403.75	80.25
403.974	85.25
404.198	78.25
404.422	88.25
404.645	118.25
404.869	89.25
405.093	87.25
405.317	100.25
405.541	96.25
405.765	92.25
405.988	99.25
406.212	135.25
406.436	161.25
406.66	133.25
406.883	91.25
407.107	99.25
407.331	90.25
407.555	103.25
407.778	85.25
408.002	104.25
408.226	103.25
408.449	99.25
408.673	78.25
408.896	85.25
409.12	93.25
409.344	96.25
409.567	87.25
409.791	89.25
410.014	95.25
410.238	80.25
410.461	85.25
410.685	107.25
410.908	108.25
411.132	104.25
411.355	97.25
411.578	101.25
411.802	86.25
412.025	100.25
412.249	92.25
412.472	88.25
412.695	100.25
412.919	95.25
413.142	87.25
413.365	78.25
413.589	79.25
413.812	99.25
414.035	92.25
414.258	110.25
414.482	87.25
414.705	89.25
414.928	94.25
415.151	107.25
415.374	104.25
415.597	99.25
415.821	97.25
416.044	94.25
416.267	91.25
416.49	92.25
416.713	95.25
416.936	91.25
417.159	82.25
417.382	91.25
417.605	94.25
417.828	90.25
418.051	91.25
418.274	94.25
418.497	99.25
418.72	104.25
418.943	87.25
419.166	75.25
419.389	84.25
419.611	104.25
419.834	96.25
420.057	90.25
420.28	93.25
420.503	80.25
420.726	80.25
420.948	80.25
421.171	96.25
421.394	94.25
421.617	98.25
421.839	80.25
422.062	109.25
422.285	93.25
422.507	92.25
422.73	99.25
422.953	97.25
423.175	99.25
423.398	89.25
423.621	106.25
423.843	85.25
424.066	91.25
424.288	94.25
424.511	105.25
424.733	102.25
424.956	105.25
425.178	90.25
425.401	98.25
425.623	114.25
425.846	107.25
426.068	91.25
426.291	107.25
426.513	93.25
426.735	89.25
426.958	85.25
427.18	113.25
427.402	113.25
427.625	129.25
427.847	118.25
428.069	108.25
428.292	93.25
428.514	94.25
428.736	89.25
428.958	91.25
429.181	94.25
429.403	85.25
429.625	100.25
429.847	92.25
430.069	101.25
430.292	79.25
430.514	103.25
430.736	96.25
430.958	88.25
431.18	101.25
431.402	83.25
431.624	90.25
431.846	88.25
432.068	84.25
432.29	94.25
432.512	98.25
432.734	88.25
432.956	85.25
433.178	85.25
433.4	108.25
433.622	88.25
433.844	73.25
434.066	86.25
434.287	75.25
434.509	96.25
434.731	85.25
434.953	90.25
435.175	70.25
435.397	87.25
435.618	100.25
435.84	88.25
436.062	110.25
436.284	95.25
436.505	102.25
436.727	100.25
436.949	78.25
437.17	101.25
437.392	90.25
437.614	99.25
437.835	93.25
438.057	108.25
438.278	93.25
438.5	90.25
438.721	98.25
438.943	95.25
439.165	88.25
439.386	75.25
439.608	88.25
439.829	103.25
440.05	117.25
440.272	134.25
440.493	107.25
440.715	78.25
440.936	83.25
441.158	93.25
441.379	102.25
441.6	101.25
441.822	95.25
442.043	93.25
442.264	80.25
442.486	99.25
442.707	91.25
442.928	100.25
443.149	109.25
443.371	121.25
443.592	87.25
443.813	88.25
444.034	107.25
444.255	89.25
444.476	103.25
444.698	108.25
444.919	84.25
445.14	145.25
445.361	114.25
445.582	97.25
445.803	113.25
446.024	106.25
446.245	114.25
446.466	103.25
446.687	93.25
446.908	95.25
447.129	90.25
447.35	95.25
447.571	95.25
447.792	77.25
448.013	92.25
448.234	82.25
448.455	87.25
448.675	108.25
448.896	104.25
449.117	77.25
449.338	101.25
449.559	118.25
449.779	125.25
450	92.25
450.221	87.25
450.442	97.25
450.662	93.25
450.883	88.25
451.104	118.25
451.324	110.25
451.545	74.25
451.766	83.25
451.986	84.25
452.207	87.25
452.428	91.25
452.648	102.25
452.869	99.25
453.089	87.25
453.31	98.25
453.53	94.25
453.751	93.25
453.971	88.25
454.192	91.25
454.412	86.25
454.633	78.25
454.853	85.25
455.073	98.25
455.294	100.25
455.514	93.25
455.734	98.25
455.955	91.25
456.175	82.25
456.395	87.25
456.616	85.25
456.836	91.25
457.056	92.25
457.276	83.25
457.497	83.25
457.717	100.25
457.937	96.25
458.157	94.25
458.377	96.25
458.598	93.25
458.818	117.25
459.038	126.25
459.258	99.25
459.478	77.25
459.698	102.25
459.918	81.25
460.138	78.25
460.358	79.25
460.578	87.25
460.798	95.25
461.018	87.25
461.238	95.25
461.458	81.25
461.678	78.25
461.898	88.25
462.118	93.25
462.338	88.25
462.558	91.25
462.777	91.25
462.997	96.25
463.217	92.25
463.437	91.25
463.657	95.25
463.876	88.25
464.096	90.25
464.316	105.25
464.536	103.25
464.755	88.25
464.975	92.25
465.195	130.25
465.414	117.25
465.634	104.25
465.854	91.25
466.073	91.25
466.293	85.25
466.512	83.25
466.732	91.25
466.951	88.25
467.171	93.25
467.391	85.25
467.61	118.25
467.829	112.25
468.049	97.25
468.268	100.25
468.488	75.25
468.707	87.25
468.927	76.25
469.146	85.25
469.365	73.25
469.585	88.25
469.804	103.25
470.023	105.25
470.243	97.25
470.462	101.25
470.681	85.25
470.901	93.25
471.12	85.25
471.339	91.25
471.558	79.25
471.777	100.25
471.997	89.25
472.216	104.25
472.435	119.25
472.654	95.25
472.873	94.25
473.092	107.25
473.311	100.25
473.53	90.25
473.749	99.25
473.968	101.25
474.187	102.25
474.406	77.25
474.625	98.25
474.844	107.25
475.063	98.25
475.282	105.25
475.501	93.25
475.72	89.25
475.939	92.25
476.158	104.25
476.377	91.25
476.596	91.25
476.814	93.25
477.033	80.25
477.252	79.25
477.471	86.25
477.69	90.25
477.908	103.25
478.127	92.25
478.346	94.25
478.564	103.25
478.783	91.25
479.002	86.25
479.22	105.25
479.439	83.25
479.658	90.25
479.876	83.25
480.095	104.25
480.313	80.25
480.532	93.25
480.751	93.25
480.969	117.25
481.188	151.25
481.406	122.25
481.624	95.25
481.843	85.25
482.061	89.25
482.28	109.25
482.498	105.25
482.717	91.25
482.935	81.25
483.153	106.25
483.372	80.25
483.59	95.25
483.808	99.25
484.027	106.25
484.245	75.25
484.463	89.25
484.681	109.25
484.9	92.25
485.118	99.25
485.336	113.25
485.554	102.25
485.772	107.25
485.99	102.25
486.209	115.25
486.427	112.25
486.645	107.25
486.863	114.25
487.081	102.25
487.299	91.25
487.517	97.25
487.735	90.25
487.953	96.25
488.171	117.25
488.389	93.25
488.607	94.25
488.825	80.25
489.043	91.25
489.261	94.25
489.479	111.25
489.696	96.25
489.914	87.25
490.132	84.25
490.35	93.25
490.568	92.25
490.786	96.25
491.003	97.25
491.221	105.25
491.439	104.25
491.657	105.25
491.874	93.25
492.092	83.25
492.31	101.25
492.527	89.25
492.745	89.25
492.963	98.25
493.18	91.25
493.398	91.25
493.615	106.25
493.833	88.25
494.05	89.25
494.268	104.25
494.485	91.25
494.703	92.25
494.92	94.25
495.138	84.25
495.355	75.25
495.573	90.25
495.79	92.25
496.008	100.25
496.225	100.25
496.442	91.25
496.66	93.25
496.877	97.25
497.094	105.25
497.312	94.25
497.529	101.25
497.746	96.25
497.963	80.25
498.181	84.25
498.398	90.25
498.615	99.25
498.832	97.25
499.049	104.25
499.267	95.25
499.484	93.25
499.701	91.25
499.918	95.25
500.135	92.25
500.352	101.25
500.569	84.25
500.786	93.25
501.003	92.25
501.22	79.25
501.437	83.25
501.654	99.25
501.871	110.25
502.088	87.25
502.305	91.25
502.522	94.25
502.739	104.25
502.956	83.25
503.172	87.25
503.389	95.25
503.606	109.25
503.823	113.25
504.04	97.25
504.256	95.25
504.473	83.25
504.69	86.25
504.907	93.25
505.123	97.25
505.34	88.25
505.557	91.25
505.773	89.25
505.99	94.25
506.207	96.25
506.423	92.25
506.64	85.25
506.856	88.25
507.073	92.25
507.289	102.25
507.506	102.25
507.722	102.25
507.939	96.25
508.155	91.25
508.372	102.25
508.588	101.25
508.805	101.25
509.021	110.25
509.238	91.25
509.454	95.25
509.67	99.25
509.887	104.25
510.103	126.25
510.319	165.25
510.536	544.25
510.752	1475.25
510.968	423.25
511.184	142.25
511.401	112.25
511.617	111.25
511.833	95.25
512.049	109.25
512.265	101.25
512.481	98.25
512.698	101.25
512.914	87.25
513.13	95.25
513.346	96.25
513.562	106.25
513.778	103.25
513.994	95.25
514.21	103.25
514.426	114.25
514.642	133.25
514.858	107.25
515.074	126.25
515.29	290.25
515.506	853.25
515.721	323.25
515.937	122.25
516.153	104.25
516.369	109.25
516.585	89.25
516.801	100.25
517.016	105.25
517.232	91.25
517.448	98.25
517.664	95.25
517.879	102.25
518.095	104.25
518.311	104.25
518.527	100.25
518.742	104.25
518.958	97.25
519.173	103.25
519.389	99.25
519.605	111.25
519.82	101.25
520.036	95.25
520.251	101.25
520.467	99.25
520.682	113.25
520.898	94.25
521.113	99.25
521.329	127.25
521.544	161.25
521.76	359.25
521.975	1393.25
522.19	830.25
522.406	218.25
522.621	112.25
522.836	104.25
523.052	89.25
523.267	112.25
523.482	112.25
523.698	100.25
523.913	100.25
524.128	99.25
524.343	98.25
524.559	101.25
524.774	100.25
524.989	97.25
525.204	94.25
525.419	111.25
525.634	98.25
525.849	79.25
526.064	97.25
526.28	99.25
526.495	99.25
526.71	87.25
526.925	83.25
527.14	87.25
527.355	87.25
527.57	99.25
527.785	96.25
527.999	80.25
528.214	102.25
528.429	109.25
528.644	92.25
528.859	91.25
529.074	104.25
529.289	101.25
529.503	139.25
529.718	95.25
529.933	89.25
530.148	92.25
530.363	103.25
530.577	78.25
530.792	83.25
531.007	93.25
531.221	96.25
531.436	96.25
531.651	99.25
531.865	93.25
532.08	88.25
532.295	90.25
532.509	107.25
532.724	103.25
532.938	96.25
533.153	94.25
533.367	93.25
533.582	109.25
533.796	84.25
534.011	96.25
534.225	92.25
534.44	97.25
534.654	96.25
534.868	97.25
535.083	103.25
535.297	99.25
535.511	111.25
535.726	95.25
535.94	87.25
536.154	94.25
536.369	89.25
536.583	100.25
536.797	104.25
537.011	76.25
537.225	99.25
537.44	95.25
537.654	95.25
537.868	85.25
538.082	80.25
538.296	97.25
538.51	89.25
538.724	94.25
538.938	79.25
539.153	91.25
539.367	102.25
539.581	87.25
539.795	79.25
540.009	100.25
540.222	94.25
540.436	97.25
540.65	86.25
540.864	90.25
541.078	88.25
541.292	110.25
541.506	93.25
541.72	96.25
541.934	101.25
542.147	93.25
542.361	86.25
542.575	97.25
542.789	95.25
543.002	95.25
543.216	91.25
543.43	90.25
543.644	97.25
543.857	84.25
544.071	93.25
544.285	97.25
544.498	84.25
544.712	93.25
544.925	84.25
545.139	91.25
545.352	102.25
545.566	87.25
545.779	82.25
545.993	85.25
546.206	95.25
546.42	88.25
546.633	91.25
546.847	99.25
547.06	110.25
547.274	88.25
547.487	89.25
547.7	99.25
547.914	90.25
548.127	93.25
548.34	89.25
548.554	87.25
548.767	85.25
548.98	98.25
549.193	91.25
549.407	69.25
549.62	96.25
549.833	100.25
550.046	93.25
550.259	95.25
550.473	88.25
550.686	95.25
550.899	96.25
551.112	95.25
551.325	95.25
551.538	91.25
551.751	77.25
551.964	95.25
552.177	90.25
552.39	100.25
552.603	79.25
552.816	93.25
553.029	99.25
553.242	93.25
553.455	101.25
553.667	105.25
553.88	101.25
554.093	91.25
554.306	91.25
554.519	95.25
554.732	107.25
554.944	105.25
555.157	86.25
555.37	83.25
555.583	93.25
555.795	96.25
556.008	99.25
556.221	95.25
556.433	99.25
556.646	85.25
556.859	97.25
557.071	105.25
557.284	94.25
557.496	91.25
557.709	104.25
557.921	97.25
558.134	92.25
558.346	92.25
558.559	86.25
558.771	97.25
558.984	90.25
559.196	73.25
559.409	88.25
559.621	84.25
559.833	96.25
560.046	88.25
560.258	88.25
560.47	96.25
560.683	104.25
560.895	96.25
561.107	98.25
561.32	94.25
561.532	96.25
561.744	97.25
561.956	93.25
562.168	93.25
562.381	99.25
562.593	93.25
562.805	107.25
563.017	95.25
563.229	92.25
563.441	112.25
563.653	101.25
563.865	88.25
564.077	85.25
564.289	80.25
564.501	83.25
564.713	96.25
564.925	97.25
565.137	100.25
565.349	94.25
565.561	102.25
565.773	91.25
565.985	77.25
566.197	90.25
566.408	93.25
566.62	75.25
566.832	95.25
567.044	80.25
567.255	89.25
567.467	80.25
567.679	92.25
567.891	103.25
568.102	90.25
568.314	73.25
568.526	83.25
568.737	81.25
568.949	95.25
569.161	83.25
569.372	89.25
569.584	93.25
569.795	83.25
570.007	124.25
570.218	193.25
570.43	124.25
570.641	95.25
570.853	91.25
571.064	91.25
571.276	89.25
571.487	100.25
571.698	83.25
571.91	69.25
572.121	86.25
572.333	106.25
572.544	94.25
572.755	90.25
572.966	93.25
573.178	81.25
573.389	99.25
573.6	91.25
573.811	88.25
574.023	93.25
574.234	88.25
574.445	92.25
574.656	92.25
574.867	89.25
575.078	78.25
575.289	92.25
575.501	91.25
575.712	99.25
575.923	78.25
576.134	78.25
576.345	81.25
576.556	90.25
576.767	101.25
576.978	94.25
577.188	90.25
577.399	101.25
577.61	86.25
577.821	96.25
578.032	113.25
578.243	207.25
578.454	513.25
578.665	167.25
578.875	92.25
579.086	86.25
579.297	92.25
579.508	79.25
579.718	85.25
579.929	93.25
580.14	84.25
580.35	80.25
580.561	76.25
580.772	82.25
580.982	78.25
581.193	88.25
581.403	96.25
581.614	85.25
581.825	92.25
582.035	103.25
582.246	85.25
582.456	106.25
582.667	98.25
582.877	101.25
583.087	99.25
583.298	87.25
583.508	78.25
583.719	92.25
583.929	85.25
584.139	93.25
584.35	86.25
584.56	85.25
584.77	95.25
584.981	92.25
585.191	85.25
585.401	72.25
585.611	94.25
585.821	79.25
586.032	94.25
586.242	85.25
586.452	95.25
586.662	88.25
586.872	91.25
587.082	93.25
587.292	74.25
587.502	83.25
587.713	90.25
587.923	93.25
588.133	102.25
588.343	91.25
588.553	84.25
588.762	104.25
588.972	93.25
589.182	105.25
589.392	94.25
589.602	97.25
589.812	99.25
590.022	97.25
590.232	103.25
590.441	79.25
590.651	99.25
590.861	78.25
591.071	79.25
591.281	89.25
591.49	89.25
591.7	92.25
591.91	86.25
592.119	91.25
592.329	88.25
592.539	90.25
592.748	78.25
592.958	99.25
593.167	101.25
593.377	96.25
593.587	101.25
593.796	83.25
594.006	107.25
594.215	95.25
594.424	92.25
594.634	106.25
594.843	99.25
595.053	81.25
595.262	101.25
595.472	90.25
595.681	86.25
595.89	72.25
596.1	83.25
596.309	89.25
596.518	91.25
596.727	79.25
596.937	87.25
597.146	109.25
597.355	106.25
597.564	86.25
597.774	91.25
597.983	80.25
598.192	81.25
598.401	83.25
598.61	74.25
598.819	92.25
599.028	93.25
599.237	100.25
599.446	93.25
599.655	94.25
599.864	94.25
600.073	98.25
600.282	97.25
600.491	87.25
600.7	88.25
600.909	98.25
601.118	98.25
601.327	79.25
601.536	98.25
601.745	101.25
601.953	96.25
602.162	94.25
602.371	86.25
602.58	94.25
602.789	87.25
602.997	76.25
603.206	93.25
603.415	85.25
603.623	88.25
603.832	85.25
604.041	94.25
604.249	91.25
604.458	90.25
604.666	89.25
604.875	72.25
605.084	80.25
605.292	83.25
605.501	102.25
605.709	91.25
605.918	74.25
606.126	91.25
606.334	95.25
606.543	97.25
606.751	96.25
606.96	77.25
607.168	97.25
607.376	91.25
607.585	83.25
607.793	79.25
608.001	103.25
608.21	77.25
608.418	97.25
608.626	97.25
608.834	90.25
609.043	75.25
609.251	98.25
609.459	79.25
609.667	105.25
609.875	91.25
610.083	103.25
610.291	109.25
610.499	80.25
610.707	77.25
610.916	99.25
611.124	99.25
611.332	92.25
611.54	95.25
611.748	88.25
611.955	109.25
612.163	71.25
612.371	96.25
612.579	94.25
612.787	88.25
612.995	109.25
613.203	86.25
613.411	91.25
613.618	98.25
613.826	100.25
614.034	91.25
614.242	101.25
614.449	95.25
614.657	91.25
614.865	93.25
615.072	93.25
615.28	83.25
615.488	91.25
615.695	105.25
615.903	115.25
616.111	105.25
616.318	113.25
616.526	106.25
616.733	103.25
616.941	97.25
617.148	97.25
617.356	79.25
617.563	89.25
617.771	93.25
617.978	89.25
618.185	73.25
618.393	86.25
618.6	96.25
618.807	89.25
619.015	79.25
619.222	90.25
619.429	82.25
619.637	84.25
619.844	92.25
620.051	88.25
620.258	80.25
620.466	77.25
620.673	80.25
620.88	94.25
621.087	97.25
621.294	94.25
621.501	91.25
621.708	94.25
621.915	95.25
622.122	90.25
622.329	83.25
622.536	71.25
622.743	87.25
622.95	69.25
623.157	92.25
623.364	101.25
623.571	91.25
623.778	76.25
623.985	99.25
624.192	88.25
624.399	80.25
624.606	100.25
624.812	103.25
625.019	92.25
625.226	76.25
625.433	91.25
625.639	83.25
625.846	99.25
626.053	90.25
626.259	92.25
626.466	100.25
626.673	87.25
626.879	78.25
627.086	73.25
627.293	94.25
627.499	83.25
627.706	101.25
627.912	80.25
628.119	83.25
628.325	88.25
628.532	92.25
628.738	96.25
628.945	78.25
629.151	97.25
629.357	88.25
629.564	79.25
629.77	89.25
629.976	93.25
630.183	77.25
630.389	96.25
630.595	106.25
630.802	87.25
631.008	88.25
631.214	73.25
631.42	67.25
631.627	88.25
631.833	81.25
632.039	85.25
632.245	90.25
632.451	94.25
632.657	104.25
632.863	80.25
633.069	91.25
633.275	86.25
633.481	89.25
633.688	89.25
633.893	95.25
634.099	101.25
634.305	88.25
634.511	97.25
634.717	93.25
634.923	96.25
635.129	88.25
635.335	88.25
635.541	83.25
635.747	78.25
635.952	80.25
636.158	104.25
636.364	85.25
636.57	95.25
636.775	85.25
636.981	84.25
637.187	109.25
637.392	85.25
637.598	87.25
637.804	90.25
638.009	85.25
638.215	92.25
638.421	88.25
638.626	85.25
638.832	81.25
639.037	85.25
639.243	102.25
639.448	109.25
639.654	101.25
639.859	94.25
640.065	80.25
640.27	96.25
640.475	79.25
640.681	98.25
640.886	95.25
641.091	92.25
641.297	101.25
641.502	79.25
641.707	97.25
641.913	105.25
642.118	73.25
642.323	79.25
642.528	90.25
642.733	85.25
642.939	88.25
643.144	101.25
643.349	85.25
643.554	100.25
643.759	76.25
643.964	91.25
644.169	89.25
644.374	91.25
644.579	97.25
644.784	87.25
644.989	93.25
645.194	95.25
645.399	78.25
645.604	85.25
645.809	88.25
646.014	103.25
646.219	95.25
646.423	79.25
646.628	90.25
646.833	85.25
647.038	81.25
647.243	95.25
647.447	91.25
647.652	98.25
647.857	88.25
648.062	87.25
648.266	83.25
648.471	92.25
648.676	99.25
648.88	85.25
649.085	88.25
649.289	108.25
649.494	107.25
649.698	145.25
649.903	114.25
650.107	95.25
650.312	93.25
650.516	76.25
650.721	85.25
650.925	74.25
651.13	79.25
651.334	73.25
651.539	91.25
651.743	96.25
651.947	88.25
652.152	86.25
652.356	96.25
652.56	95.25
652.764	95.25
652.969	86.25
653.173	92.25
653.377	89.25
653.581	70.25
653.785	81.25
653.99	87.25
654.194	79.25
654.398	95.25
654.602	82.25
654.806	96.25
655.01	96.25
655.214	95.25
655.418	95.25
655.622	88.25
655.826	100.25
656.03	92.25
656.234	106.25
656.438	95.25
656.642	101.25
656.846	78.25
657.049	79.25
657.253	104.25
657.457	95.25
657.661	95.25
657.865	97.25
658.068	93.25
658.272	92.25
658.476	86.25
658.68	96.25
658.883	91.25
659.087	83.25
659.291	88.25
659.494	102.25
659.698	87.25
659.901	72.25
660.105	79.25
660.309	92.25
660.512	95.25
660.716	89.25
660.919	87.25
661.123	74.25
661.326	95.25
661.53	79.25
661.733	79.25
661.936	75.25
662.14	84.25
662.343	87.25
662.546	83.25
662.75	84.25
662.953	75.25
663.156	95.25
663.36	90.25
663.563	77.25
663.766	92.25
663.969	73.25
664.173	87.25
664.376	73.25
664.579	101.25
664.782	84.25
664.985	77.25
665.188	89.25
665.391	79.25
665.594	71.25
665.797	75.25
666	76.25
666.203	81.25
666.406	89.25
666.609	92.25
666.812	100.25
667.015	89.25
667.218	90.25
667.421	81.25
667.624	84.25
667.827	85.25
668.03	95.25
668.232	71.25
668.435	76.25
668.638	86.25
668.841	90.25
669.043	88.25
669.246	88.25
669.449	87.25
669.651	80.25
669.854	76.25
670.057	102.25
670.259	92.25
670.462	89.25
670.665	95.25
670.867	78.25
671.07	70.25
671.272	67.25
671.475	77.25
671.677	82.25
671.88	89.25
672.082	82.25
672.284	75.25
672.487	80.25
672.689	89.25
672.892	83.25
