Data from Uncirc_1982_H10_HRD10591_00075.txt Node
Date: Wed Jan 03 12:29:40 EST 2024
User: Yrep
Spectrometer: HR+D1059
Trigger mode: 1
Integration Time (sec): 1.000000E-1
Scans to average: 1
Electric dark correction enabled: true
Nonlinearity correction enabled: false
Boxcar width: 0
XAxis mode: Wavelengths
Number of Pixels in Spectrum: 2048
>>>>>Begin Spectral Data<<<<<
223.165	-31.88
223.4	-31.88
223.635	-31.88
223.869	-13.88
224.104	-21.88
224.338	-19.88
224.573	-28.88
224.808	-14.88
225.042	-15.88
225.277	-6.88
225.511	7.12
225.746	16.12
225.98	13.12
226.215	8.12
226.449	14.12
226.683	34.12
226.918	36.12
227.152	25.12
227.387	30.12
227.621	35.12
227.856	46.12
228.09	43.12
228.324	39.12
228.559	51.12
228.793	59.12
229.027	49.12
229.262	70.12
229.496	68.12
229.73	68.12
229.964	73.12
230.199	66.12
230.433	75.12
230.667	75.12
230.901	79.12
231.136	75.12
231.37	70.12
231.604	55.12
231.838	78.12
232.072	82.12
232.306	76.12
232.541	85.12
232.775	82.12
233.009	69.12
233.243	82.12
233.477	78.12
233.711	78.12
233.945	80.12
234.179	81.12
234.413	73.12
234.647	67.12
234.881	85.12
235.115	78.12
235.349	76.12
235.583	73.12
235.817	68.12
236.051	86.12
236.285	81.12
236.519	92.12
236.753	76.12
236.987	79.12
237.221	78.12
237.455	81.12
237.689	80.12
237.922	72.12
238.156	74.12
238.39	77.12
238.624	81.12
238.858	73.12
239.091	76.12
239.325	72.12
239.559	72.12
239.793	76.12
240.027	73.12
240.26	80.12
240.494	87.12
240.728	69.12
240.961	58.12
241.195	74.12
241.429	73.12
241.662	78.12
241.896	80.12
242.13	80.12
242.363	57.12
242.597	70.12
242.83	89.12
243.064	76.12
243.298	78.12
243.531	84.12
243.765	80.12
243.998	70.12
244.232	76.12
244.465	89.12
244.699	78.12
244.932	78.12
245.166	84.12
245.399	75.12
245.633	69.12
245.866	82.12
246.099	78.12
246.333	82.12
246.566	63.12
246.8	72.12
247.033	76.12
247.266	76.12
247.5	77.12
247.733	83.12
247.966	81.12
248.2	84.12
248.433	78.12
248.666	72.12
248.899	87.12
249.133	85.12
249.366	93.12
249.599	88.12
249.832	67.12
250.066	94.12
250.299	85.12
250.532	84.12
250.765	79.12
250.998	72.12
251.231	93.12
251.465	72.12
251.698	72.12
251.931	64.12
252.164	74.12
252.397	77.12
252.63	77.12
252.863	62.12
253.096	92.12
253.329	80.12
253.562	83.12
253.795	86.12
254.028	78.12
254.261	74.12
254.494	79.12
254.727	70.12
254.96	64.12
255.193	80.12
255.426	80.12
255.659	61.12
255.892	82.12
256.124	77.12
256.357	78.12
256.59	73.12
256.823	68.12
257.056	72.12
257.289	81.12
257.521	84.12
257.754	71.12
257.987	80.12
258.22	73.12
258.452	80.12
258.685	79.12
258.918	79.12
259.151	77.12
259.383	73.12
259.616	85.12
259.849	68.12
260.081	86.12
260.314	69.12
260.547	73.12
260.779	82.12
261.012	78.12
261.244	80.12
261.477	93.12
261.71	78.12
261.942	100.12
262.175	109.12
262.407	87.12
262.64	89.12
262.872	70.12
263.105	70.12
263.337	91.12
263.57	88.12
263.802	84.12
264.035	80.12
264.267	87.12
264.499	68.12
264.732	80.12
264.964	74.12
265.197	79.12
265.429	76.12
265.661	82.12
265.894	88.12
266.126	63.12
266.358	86.12
266.591	86.12
266.823	82.12
267.055	80.12
267.287	73.12
267.52	84.12
267.752	82.12
267.984	84.12
268.216	76.12
268.448	76.12
268.681	85.12
268.913	86.12
269.145	67.12
269.377	81.12
269.609	78.12
269.841	82.12
270.073	80.12
270.306	78.12
270.538	83.12
270.77	71.12
271.002	86.12
271.234	86.12
271.466	82.12
271.698	71.12
271.93	80.12
272.162	90.12
272.394	82.12
272.626	69.12
272.858	86.12
273.09	69.12
273.322	64.12
273.553	80.12
273.785	84.12
274.017	76.12
274.249	84.12
274.481	77.12
274.713	78.12
274.945	87.12
275.176	82.12
275.408	84.12
275.64	84.12
275.872	81.12
276.104	70.12
276.335	92.12
276.567	80.12
276.799	87.12
277.031	100.12
277.262	70.12
277.494	88.12
277.726	95.12
277.957	85.12
278.189	76.12
278.421	77.12
278.652	83.12
278.884	84.12
279.115	101.12
279.347	97.12
279.579	75.12
279.81	56.12
280.042	76.12
280.273	82.12
280.505	77.12
280.736	76.12
280.968	80.12
281.199	90.12
281.431	72.12
281.662	89.12
281.894	92.12
282.125	96.12
282.356	102.12
282.588	114.12
282.819	98.12
283.051	84.12
283.282	74.12
283.513	82.12
283.745	88.12
283.976	85.12
284.207	69.12
284.439	82.12
284.67	76.12
284.901	97.12
285.132	74.12
285.364	96.12
285.595	92.12
285.826	80.12
286.057	81.12
286.288	86.12
286.52	73.12
286.751	88.12
286.982	79.12
287.213	81.12
287.444	78.12
287.675	81.12
287.906	86.12
288.138	84.12
288.369	77.12
288.6	96.12
288.831	85.12
289.062	74.12
289.293	85.12
289.524	87.12
289.755	82.12
289.986	76.12
290.217	81.12
290.448	92.12
290.679	72.12
290.91	82.12
291.141	86.12
291.371	81.12
291.602	71.12
291.833	72.12
292.064	79.12
292.295	85.12
292.526	82.12
292.757	88.12
292.987	79.12
293.218	70.12
293.449	89.12
293.68	88.12
293.91	76.12
294.141	84.12
294.372	87.12
294.603	96.12
294.833	82.12
295.064	79.12
295.295	95.12
295.525	82.12
295.756	103.12
295.987	97.12
296.217	145.12
296.448	120.12
296.679	101.12
296.909	87.12
297.14	82.12
297.37	88.12
297.601	86.12
297.831	84.12
298.062	95.12
298.292	79.12
298.523	81.12
298.753	82.12
298.984	84.12
299.214	83.12
299.445	73.12
299.675	86.12
299.905	105.12
300.136	88.12
300.366	88.12
300.597	85.12
300.827	83.12
301.057	80.12
301.288	94.12
301.518	91.12
301.748	85.12
301.979	95.12
302.209	84.12
302.439	98.12
302.669	101.12
302.9	80.12
303.13	89.12
303.36	73.12
303.59	97.12
303.82	96.12
304.051	86.12
304.281	93.12
304.511	81.12
304.741	86.12
304.971	81.12
305.201	101.12
305.431	91.12
305.661	90.12
305.891	87.12
306.121	77.12
306.352	103.12
306.582	101.12
306.812	89.12
307.042	89.12
307.272	98.12
307.502	81.12
307.731	89.12
307.961	83.12
308.191	86.12
308.421	91.12
308.651	82.12
308.881	98.12
309.111	85.12
309.341	93.12
309.571	96.12
309.8	89.12
310.03	96.12
310.26	88.12
310.49	79.12
310.72	92.12
310.949	84.12
311.179	94.12
311.409	102.12
311.639	80.12
311.868	94.12
312.098	94.12
312.328	98.12
312.557	99.12
312.787	92.12
313.017	100.12
313.246	87.12
313.476	80.12
313.706	84.12
313.935	73.12
314.165	93.12
314.394	96.12
314.624	89.12
314.853	110.12
315.083	100.12
315.312	81.12
315.542	88.12
315.771	71.12
316.001	98.12
316.23	83.12
316.46	101.12
316.689	95.12
316.919	95.12
317.148	88.12
317.377	94.12
317.607	99.12
317.836	96.12
318.065	85.12
318.295	90.12
318.524	88.12
318.753	82.12
318.983	83.12
319.212	89.12
319.441	97.12
319.67	103.12
319.9	96.12
320.129	103.12
320.358	102.12
320.587	93.12
320.816	85.12
321.046	88.12
321.275	105.12
321.504	90.12
321.733	82.12
321.962	88.12
322.191	96.12
322.42	104.12
322.649	105.12
322.878	102.12
323.108	118.12
323.337	104.12
323.566	106.12
323.795	135.12
324.024	189.12
324.253	354.12
324.482	777.12
324.71	1525.12
324.939	2068.12
325.168	764.12
325.397	233.12
325.626	128.12
325.855	134.12
326.084	105.12
326.313	135.12
326.542	144.12
326.77	208.12
326.999	427.12
327.228	892.12
327.457	1598.12
327.686	1283.12
327.914	350.12
328.143	169.12
328.372	130.12
328.6	123.12
328.829	108.12
329.058	119.12
329.287	114.12
329.515	105.12
329.744	97.12
329.972	94.12
330.201	100.12
330.43	116.12
330.658	124.12
330.887	124.12
331.115	110.12
331.344	92.12
331.572	108.12
331.801	89.12
332.03	108.12
332.258	100.12
332.486	96.12
332.715	86.12
332.943	106.12
333.172	98.12
333.4	91.12
333.629	111.12
333.857	117.12
334.085	105.12
334.314	123.12
334.542	127.12
334.771	123.12
334.999	93.12
335.227	82.12
335.455	83.12
335.684	85.12
335.912	81.12
336.14	98.12
336.369	91.12
336.597	86.12
336.825	85.12
337.053	99.12
337.281	90.12
337.51	86.12
337.738	109.12
337.966	79.12
338.194	89.12
338.422	96.12
338.65	106.12
338.878	81.12
339.106	88.12
339.334	85.12
339.562	81.12
339.79	97.12
340.018	85.12
340.246	69.12
340.474	90.12
340.702	88.12
340.93	81.12
341.158	86.12
341.386	90.12
341.614	82.12
341.842	88.12
342.07	78.12
342.298	81.12
342.526	96.12
342.754	89.12
342.981	97.12
343.209	84.12
343.437	87.12
343.665	78.12
343.893	91.12
344.12	80.12
344.348	97.12
344.576	83.12
344.804	87.12
345.031	88.12
345.259	105.12
345.487	88.12
345.714	76.12
345.942	74.12
346.17	93.12
346.397	78.12
346.625	71.12
346.853	86.12
347.08	80.12
347.308	101.12
347.535	106.12
347.763	82.12
347.99	80.12
348.218	94.12
348.445	106.12
348.673	93.12
348.9	91.12
349.128	93.12
349.355	104.12
349.583	86.12
349.81	84.12
350.037	98.12
350.265	92.12
350.492	95.12
350.72	85.12
350.947	91.12
351.174	101.12
351.402	90.12
351.629	97.12
351.856	73.12
352.083	88.12
352.311	95.12
352.538	101.12
352.765	105.12
352.992	96.12
353.22	111.12
353.447	84.12
353.674	98.12
353.901	102.12
354.128	94.12
354.355	87.12
354.583	71.12
354.81	98.12
355.037	92.12
355.264	96.12
355.491	90.12
355.718	102.12
355.945	87.12
356.172	94.12
356.399	93.12
356.626	106.12
356.853	87.12
357.08	89.12
357.307	80.12
357.534	77.12
357.761	88.12
357.988	105.12
358.215	92.12
358.441	72.12
358.668	99.12
358.895	90.12
359.122	91.12
359.349	86.12
359.576	89.12
359.802	94.12
360.029	100.12
360.256	104.12
360.483	86.12
360.709	90.12
360.936	78.12
361.163	89.12
361.39	90.12
361.616	95.12
361.843	82.12
362.07	76.12
362.296	93.12
362.523	85.12
362.749	81.12
362.976	77.12
363.203	91.12
363.429	92.12
363.656	77.12
363.882	94.12
364.109	92.12
364.335	82.12
364.562	100.12
364.788	87.12
365.015	100.12
365.241	100.12
365.468	95.12
365.694	80.12
365.92	69.12
366.147	71.12
366.373	77.12
366.599	91.12
366.826	79.12
367.052	77.12
367.278	89.12
367.505	93.12
367.731	92.12
367.957	84.12
368.184	84.12
368.41	96.12
368.636	112.12
368.862	111.12
369.089	104.12
369.315	87.12
369.541	75.12
369.767	74.12
369.993	73.12
370.219	85.12
370.445	88.12
370.672	82.12
370.898	88.12
371.124	86.12
371.35	105.12
371.576	99.12
371.802	93.12
372.028	84.12
372.254	84.12
372.48	88.12
372.706	80.12
372.932	87.12
373.158	68.12
373.384	80.12
373.61	86.12
373.835	76.12
374.061	72.12
374.287	69.12
374.513	68.12
374.739	78.12
374.965	86.12
375.191	84.12
375.416	89.12
375.642	86.12
375.868	79.12
376.094	87.12
376.319	80.12
376.545	86.12
376.771	84.12
376.997	87.12
377.222	100.12
377.448	85.12
377.674	86.12
377.899	85.12
378.125	71.12
378.35	86.12
378.576	95.12
378.802	96.12
379.027	95.12
379.253	87.12
379.478	92.12
379.704	80.12
379.929	85.12
380.155	88.12
380.38	72.12
380.606	89.12
380.831	78.12
381.057	87.12
381.282	88.12
381.507	86.12
381.733	92.12
381.958	83.12
382.184	82.12
382.409	85.12
382.634	94.12
382.86	96.12
383.085	103.12
383.31	104.12
383.535	83.12
383.761	82.12
383.986	92.12
384.211	89.12
384.436	96.12
384.662	92.12
384.887	105.12
385.112	101.12
385.337	99.12
385.562	99.12
385.787	106.12
386.013	94.12
386.238	109.12
386.463	93.12
386.688	88.12
386.913	103.12
387.138	97.12
387.363	102.12
387.588	88.12
387.813	101.12
388.038	96.12
388.263	114.12
388.488	114.12
388.713	89.12
388.938	97.12
389.163	90.12
389.387	96.12
389.612	103.12
389.837	101.12
390.062	87.12
390.287	88.12
390.512	79.12
390.736	81.12
390.961	93.12
391.186	93.12
391.411	93.12
391.636	91.12
391.86	97.12
392.085	88.12
392.31	76.12
392.534	68.12
392.759	80.12
392.984	81.12
393.208	89.12
393.433	83.12
393.658	87.12
393.882	81.12
394.107	68.12
394.331	80.12
394.556	90.12
394.78	83.12
395.005	92.12
395.229	78.12
395.454	77.12
395.678	75.12
395.903	90.12
396.127	94.12
396.352	81.12
396.576	77.12
396.801	87.12
397.025	86.12
397.249	67.12
397.474	83.12
397.698	85.12
397.922	79.12
398.147	74.12
398.371	95.12
398.595	92.12
398.82	86.12
399.044	72.12
399.268	72.12
399.492	88.12
399.717	80.12
399.941	93.12
400.165	83.12
400.389	72.12
400.613	73.12
400.837	88.12
401.062	82.12
401.286	88.12
401.51	76.12
401.734	80.12
401.958	99.12
402.182	110.12
402.406	140.12
402.63	112.12
402.854	80.12
403.078	88.12
403.302	78.12
403.526	84.12
403.75	101.12
403.974	79.12
404.198	94.12
404.422	78.12
404.645	89.12
404.869	93.12
405.093	92.12
405.317	93.12
405.541	96.12
405.765	85.12
405.988	117.12
406.212	162.12
406.436	190.12
406.66	116.12
406.883	105.12
407.107	92.12
407.331	65.12
407.555	84.12
407.778	85.12
408.002	80.12
408.226	97.12
408.449	86.12
408.673	86.12
408.896	101.12
409.12	93.12
409.344	80.12
409.567	93.12
409.791	88.12
410.014	94.12
410.238	92.12
410.461	87.12
410.685	83.12
410.908	100.12
411.132	102.12
411.355	80.12
411.578	100.12
411.802	88.12
412.025	82.12
412.249	88.12
412.472	85.12
412.695	85.12
412.919	90.12
413.142	77.12
413.365	71.12
413.589	90.12
413.812	83.12
414.035	83.12
414.258	80.12
414.482	84.12
414.705	77.12
414.928	77.12
415.151	89.12
415.374	92.12
415.597	89.12
415.821	98.12
416.044	85.12
416.267	85.12
416.49	78.12
416.713	69.12
416.936	82.12
417.159	84.12
417.382	72.12
417.605	91.12
417.828	81.12
418.051	81.12
418.274	77.12
418.497	86.12
418.72	69.12
418.943	90.12
419.166	71.12
419.389	85.12
419.611	79.12
419.834	85.12
420.057	86.12
420.28	73.12
420.503	80.12
420.726	77.12
420.948	85.12
421.171	89.12
421.394	80.12
421.617	90.12
421.839	87.12
422.062	77.12
422.285	84.12
422.507	94.12
422.73	102.12
422.953	88.12
423.175	95.12
423.398	76.12
423.621	83.12
423.843	84.12
424.066	92.12
424.288	78.12
424.511	89.12
424.733	90.12
424.956	85.12
425.178	87.12
425.401	92.12
425.623	92.12
425.846	86.12
426.068	102.12
426.291	87.12
426.513	94.12
426.735	83.12
426.958	88.12
427.18	98.12
427.402	117.12
427.625	134.12
427.847	123.12
428.069	113.12
428.292	98.12
428.514	87.12
428.736	86.12
428.958	90.12
429.181	70.12
429.403	67.12
429.625	78.12
429.847	80.12
430.069	95.12
430.292	90.12
430.514	84.12
430.736	83.12
430.958	82.12
431.18	76.12
431.402	83.12
431.624	76.12
431.846	85.12
432.068	87.12
432.29	80.12
432.512	75.12
432.734	73.12
432.956	89.12
433.178	85.12
433.4	95.12
433.622	97.12
433.844	84.12
434.066	95.12
434.287	85.12
434.509	99.12
434.731	64.12
434.953	93.12
435.175	81.12
435.397	67.12
435.618	89.12
435.84	96.12
436.062	110.12
436.284	96.12
436.505	89.12
436.727	94.12
436.949	99.12
437.17	76.12
437.392	85.12
437.614	78.12
437.835	101.12
438.057	107.12
438.278	109.12
438.5	99.12
438.721	104.12
438.943	83.12
439.165	74.12
439.386	68.12
439.608	93.12
439.829	97.12
440.05	106.12
440.272	126.12
440.493	73.12
440.715	68.12
440.936	89.12
441.158	85.12
441.379	80.12
441.6	82.12
441.822	71.12
442.043	92.12
442.264	90.12
442.486	96.12
442.707	74.12
442.928	81.12
443.149	117.12
443.371	110.12
443.592	94.12
443.813	100.12
444.034	96.12
444.255	81.12
444.476	90.12
444.698	87.12
444.919	82.12
445.14	128.12
445.361	120.12
445.582	104.12
445.803	132.12
446.024	115.12
446.245	121.12
446.466	106.12
446.687	94.12
446.908	105.12
447.129	86.12
447.35	76.12
447.571	98.12
447.792	90.12
448.013	97.12
448.234	89.12
448.455	86.12
448.675	103.12
448.896	103.12
449.117	78.12
449.338	100.12
449.559	117.12
449.779	125.12
450	87.12
450.221	80.12
450.442	71.12
450.662	72.12
450.883	100.12
451.104	112.12
451.324	100.12
451.545	79.12
451.766	83.12
451.986	89.12
452.207	87.12
452.428	85.12
452.648	92.12
452.869	91.12
453.089	99.12
453.31	96.12
453.53	95.12
453.751	78.12
453.971	99.12
454.192	108.12
454.412	80.12
454.633	88.12
454.853	83.12
455.073	74.12
455.294	102.12
455.514	92.12
455.734	78.12
455.955	79.12
456.175	66.12
456.395	93.12
456.616	86.12
456.836	82.12
457.056	76.12
457.276	88.12
457.497	78.12
457.717	86.12
457.937	85.12
458.157	69.12
458.377	79.12
458.598	89.12
458.818	128.12
459.038	125.12
459.258	110.12
459.478	99.12
459.698	86.12
459.918	73.12
460.138	80.12
460.358	66.12
460.578	87.12
460.798	93.12
461.018	80.12
461.238	70.12
461.458	84.12
461.678	82.12
461.898	79.12
462.118	88.12
462.338	81.12
462.558	90.12
462.777	88.12
462.997	71.12
463.217	79.12
463.437	93.12
463.657	94.12
463.876	82.12
464.096	63.12
464.316	73.12
464.536	85.12
464.755	98.12
464.975	90.12
465.195	128.12
465.414	140.12
465.634	81.12
465.854	86.12
466.073	84.12
466.293	89.12
466.512	94.12
466.732	92.12
466.951	78.12
467.171	80.12
467.391	93.12
467.61	98.12
467.829	85.12
468.049	89.12
468.268	100.12
468.488	75.12
468.707	91.12
468.927	100.12
469.146	86.12
469.365	97.12
469.585	87.12
469.804	82.12
470.023	94.12
470.243	98.12
470.462	103.12
470.681	85.12
470.901	83.12
471.12	87.12
471.339	87.12
471.558	81.12
471.777	88.12
471.997	84.12
472.216	120.12
472.435	129.12
472.654	91.12
472.873	93.12
473.092	72.12
473.311	85.12
473.53	84.12
473.749	84.12
473.968	93.12
474.187	84.12
474.406	80.12
474.625	78.12
474.844	62.12
475.063	88.12
475.282	90.12
475.501	89.12
475.72	89.12
475.939	78.12
476.158	81.12
476.377	80.12
476.596	100.12
476.814	105.12
477.033	94.12
477.252	84.12
477.471	78.12
477.69	85.12
477.908	84.12
478.127	85.12
478.346	85.12
478.564	78.12
478.783	100.12
479.002	96.12
479.22	88.12
479.439	106.12
479.658	87.12
479.876	85.12
480.095	87.12
480.313	83.12
480.532	92.12
480.751	86.12
480.969	107.12
481.188	189.12
481.406	134.12
481.624	80.12
481.843	78.12
482.061	85.12
482.28	89.12
482.498	93.12
482.717	86.12
482.935	80.12
483.153	92.12
483.372	82.12
483.59	78.12
483.808	81.12
484.027	85.12
484.245	82.12
484.463	81.12
484.681	89.12
484.9	94.12
485.118	94.12
485.336	89.12
485.554	87.12
485.772	103.12
485.99	90.12
486.209	97.12
486.427	100.12
486.645	105.12
486.863	109.12
487.081	111.12
487.299	99.12
487.517	83.12
487.735	78.12
487.953	75.12
488.171	95.12
488.389	92.12
488.607	85.12
488.825	87.12
489.043	78.12
489.261	81.12
489.479	102.12
489.696	87.12
489.914	102.12
490.132	78.12
490.35	91.12
490.568	104.12
490.786	89.12
491.003	88.12
491.221	79.12
491.439	94.12
491.657	86.12
491.874	100.12
492.092	91.12
492.31	92.12
492.527	95.12
492.745	86.12
492.963	85.12
493.18	91.12
493.398	88.12
493.615	96.12
493.833	101.12
494.05	88.12
494.268	81.12
494.485	86.12
494.703	80.12
494.92	92.12
495.138	81.12
495.355	83.12
495.573	89.12
495.79	88.12
496.008	92.12
496.225	82.12
496.442	76.12
496.66	96.12
496.877	70.12
497.094	94.12
497.312	94.12
497.529	74.12
497.746	98.12
497.963	87.12
498.181	88.12
498.398	81.12
498.615	103.12
498.832	85.12
499.049	85.12
499.267	90.12
499.484	88.12
499.701	89.12
499.918	86.12
500.135	80.12
500.352	83.12
500.569	86.12
500.786	78.12
501.003	84.12
501.22	78.12
501.437	74.12
501.654	100.12
501.871	104.12
502.088	86.12
502.305	73.12
502.522	81.12
502.739	64.12
502.956	106.12
503.172	78.12
503.389	87.12
503.606	80.12
503.823	108.12
504.04	102.12
504.256	78.12
504.473	88.12
504.69	85.12
504.907	94.12
505.123	89.12
505.34	104.12
505.557	84.12
505.773	74.12
505.99	86.12
506.207	78.12
506.423	83.12
506.64	82.12
506.856	92.12
507.073	85.12
507.289	93.12
507.506	92.12
507.722	106.12
507.939	106.12
508.155	80.12
508.372	87.12
508.588	90.12
508.805	96.12
509.021	93.12
509.238	105.12
509.454	94.12
509.67	94.12
509.887	106.12
510.103	120.12
510.319	199.12
510.536	678.12
510.752	2122.12
510.968	569.12
511.184	138.12
511.401	123.12
511.617	85.12
511.833	88.12
512.049	71.12
512.265	92.12
512.481	83.12
512.698	103.12
512.914	87.12
513.13	82.12
513.346	96.12
513.562	88.12
513.778	90.12
513.994	93.12
514.21	95.12
514.426	104.12
514.642	109.12
514.858	127.12
515.074	160.12
515.29	392.12
515.506	1255.12
515.721	434.12
515.937	142.12
516.153	97.12
516.369	88.12
516.585	92.12
516.801	81.12
517.016	96.12
517.232	77.12
517.448	94.12
517.664	91.12
517.879	98.12
518.095	85.12
518.311	96.12
518.527	97.12
518.742	100.12
518.958	102.12
519.173	98.12
519.389	92.12
519.605	97.12
519.82	88.12
520.036	98.12
520.251	97.12
520.467	118.12
520.682	103.12
520.898	97.12
521.113	111.12
521.329	128.12
521.544	183.12
521.76	503.12
521.975	2095.12
522.19	1196.12
522.406	263.12
522.621	129.12
522.836	103.12
523.052	80.12
523.267	87.12
523.482	98.12
523.698	81.12
523.913	105.12
524.128	100.12
524.343	82.12
524.559	85.12
524.774	90.12
524.989	88.12
525.204	105.12
525.419	89.12
525.634	71.12
525.849	83.12
526.064	92.12
526.28	86.12
526.495	68.12
526.71	89.12
526.925	89.12
527.14	93.12
527.355	96.12
527.57	87.12
527.785	90.12
527.999	86.12
528.214	83.12
528.429	103.12
528.644	78.12
528.859	76.12
529.074	87.12
529.289	113.12
529.503	155.12
529.718	108.12
529.933	84.12
530.148	101.12
530.363	88.12
530.577	92.12
530.792	92.12
531.007	80.12
531.221	105.12
531.436	84.12
531.651	89.12
531.865	95.12
532.08	73.12
532.295	88.12
532.509	93.12
532.724	90.12
532.938	100.12
533.153	86.12
533.367	95.12
533.582	91.12
533.796	89.12
534.011	98.12
534.225	76.12
534.44	93.12
534.654	95.12
534.868	84.12
535.083	72.12
535.297	89.12
535.511	102.12
535.726	105.12
535.94	88.12
536.154	93.12
536.369	94.12
536.583	67.12
536.797	84.12
537.011	91.12
537.225	76.12
537.44	94.12
537.654	94.12
537.868	100.12
538.082	89.12
538.296	87.12
538.51	92.12
538.724	81.12
538.938	106.12
539.153	84.12
539.367	100.12
539.581	87.12
539.795	90.12
540.009	75.12
540.222	106.12
540.436	82.12
540.65	88.12
540.864	91.12
541.078	86.12
541.292	89.12
541.506	92.12
541.72	78.12
541.934	79.12
542.147	92.12
542.361	65.12
542.575	75.12
542.789	95.12
543.002	87.12
543.216	96.12
543.43	93.12
543.644	92.12
543.857	94.12
544.071	90.12
544.285	89.12
544.498	80.12
544.712	81.12
544.925	83.12
545.139	85.12
545.352	88.12
545.566	84.12
545.779	86.12
545.993	83.12
546.206	95.12
546.42	80.12
546.633	80.12
546.847	98.12
547.06	80.12
547.274	85.12
547.487	84.12
547.7	86.12
547.914	87.12
548.127	71.12
548.34	95.12
548.554	82.12
548.767	96.12
548.98	85.12
549.193	81.12
549.407	88.12
549.62	92.12
549.833	90.12
550.046	86.12
550.259	77.12
550.473	80.12
550.686	83.12
550.899	80.12
551.112	88.12
551.325	82.12
551.538	86.12
551.751	71.12
551.964	76.12
552.177	88.12
552.39	92.12
552.603	85.12
552.816	105.12
553.029	84.12
553.242	100.12
553.455	80.12
553.667	94.12
553.88	80.12
554.093	83.12
554.306	83.12
554.519	95.12
554.732	78.12
554.944	84.12
555.157	81.12
555.37	92.12
555.583	80.12
555.795	85.12
556.008	72.12
556.221	87.12
556.433	99.12
556.646	84.12
556.859	98.12
557.071	91.12
557.284	76.12
557.496	90.12
557.709	92.12
557.921	94.12
558.134	80.12
558.346	103.12
558.559	82.12
558.771	85.12
558.984	97.12
559.196	95.12
559.409	91.12
559.621	78.12
559.833	70.12
560.046	84.12
560.258	84.12
560.47	92.12
560.683	78.12
560.895	100.12
561.107	71.12
561.32	78.12
561.532	82.12
561.744	96.12
561.956	105.12
562.168	102.12
562.381	96.12
562.593	76.12
562.805	86.12
563.017	99.12
563.229	80.12
563.441	64.12
563.653	81.12
563.865	90.12
564.077	82.12
564.289	104.12
564.501	76.12
564.713	86.12
564.925	83.12
565.137	111.12
565.349	94.12
565.561	78.12
565.773	82.12
565.985	63.12
566.197	86.12
566.408	67.12
566.62	84.12
566.832	88.12
567.044	90.12
567.255	85.12
567.467	84.12
567.679	78.12
567.891	92.12
568.102	82.12
568.314	96.12
568.526	82.12
568.737	94.12
568.949	81.12
569.161	100.12
569.372	80.12
569.584	89.12
569.795	89.12
570.007	94.12
570.218	213.12
570.43	135.12
570.641	86.12
570.853	81.12
571.064	82.12
571.276	99.12
571.487	86.12
571.698	78.12
571.91	83.12
572.121	77.12
572.333	89.12
572.544	72.12
572.755	76.12
572.966	90.12
573.178	78.12
573.389	95.12
573.6	95.12
573.811	83.12
574.023	93.12
574.234	78.12
574.445	78.12
574.656	72.12
574.867	71.12
575.078	81.12
575.289	95.12
575.501	80.12
575.712	66.12
575.923	93.12
576.134	82.12
576.345	92.12
576.556	95.12
576.767	89.12
576.978	92.12
577.188	88.12
577.399	79.12
577.61	87.12
577.821	93.12
578.032	108.12
578.243	234.12
578.454	684.12
578.665	215.12
578.875	94.12
579.086	102.12
579.297	79.12
579.508	95.12
579.718	74.12
579.929	77.12
580.14	76.12
580.35	95.12
580.561	70.12
580.772	90.12
580.982	79.12
581.193	83.12
581.403	88.12
581.614	82.12
581.825	78.12
582.035	84.12
582.246	81.12
582.456	82.12
582.667	93.12
582.877	96.12
583.087	79.12
583.298	80.12
583.508	90.12
583.719	78.12
583.929	72.12
584.139	89.12
584.35	84.12
584.56	80.12
584.77	64.12
584.981	82.12
585.191	74.12
585.401	76.12
585.611	82.12
585.821	84.12
586.032	89.12
586.242	102.12
586.452	92.12
586.662	95.12
586.872	67.12
587.082	89.12
587.292	78.12
587.502	77.12
587.713	79.12
587.923	80.12
588.133	91.12
588.343	80.12
588.553	86.12
588.762	85.12
588.972	85.12
589.182	89.12
589.392	82.12
589.602	96.12
589.812	89.12
590.022	78.12
590.232	84.12
590.441	95.12
590.651	68.12
590.861	97.12
591.071	85.12
591.281	79.12
591.49	84.12
591.7	97.12
591.91	78.12
592.119	71.12
592.329	82.12
592.539	88.12
592.748	77.12
592.958	85.12
593.167	79.12
593.377	94.12
593.587	94.12
593.796	80.12
594.006	78.12
594.215	98.12
594.424	68.12
594.634	85.12
594.843	87.12
595.053	85.12
595.262	92.12
595.472	83.12
595.681	92.12
595.89	80.12
596.1	74.12
596.309	89.12
596.518	90.12
596.727	85.12
596.937	70.12
597.146	86.12
597.355	73.12
597.564	73.12
597.774	96.12
597.983	86.12
598.192	92.12
598.401	74.12
598.61	76.12
598.819	80.12
599.028	85.12
599.237	70.12
599.446	80.12
599.655	73.12
599.864	74.12
600.073	84.12
600.282	88.12
600.491	78.12
600.7	95.12
600.909	94.12
601.118	107.12
601.327	86.12
601.536	98.12
601.745	74.12
601.953	96.12
602.162	76.12
602.371	75.12
602.58	72.12
602.789	80.12
602.997	85.12
603.206	82.12
603.415	84.12
603.623	88.12
603.832	77.12
604.041	83.12
604.249	70.12
604.458	81.12
604.666	83.12
604.875	78.12
605.084	90.12
605.292	83.12
605.501	86.12
605.709	76.12
605.918	90.12
606.126	90.12
606.334	86.12
606.543	71.12
606.751	88.12
606.96	86.12
607.168	90.12
607.376	82.12
607.585	87.12
607.793	80.12
608.001	78.12
608.21	78.12
608.418	84.12
608.626	82.12
608.834	68.12
609.043	68.12
609.251	74.12
609.459	76.12
609.667	65.12
609.875	70.12
610.083	78.12
610.291	91.12
610.499	82.12
610.707	82.12
610.916	83.12
611.124	82.12
611.332	80.12
611.54	85.12
611.748	84.12
611.955	78.12
612.163	85.12
612.371	89.12
612.579	88.12
612.787	87.12
612.995	84.12
613.203	74.12
613.411	100.12
613.618	78.12
613.826	73.12
614.034	73.12
614.242	80.12
614.449	80.12
614.657	81.12
614.865	92.12
615.072	85.12
615.28	84.12
615.488	80.12
615.695	96.12
615.903	96.12
616.111	87.12
616.318	111.12
616.526	91.12
616.733	87.12
616.941	85.12
617.148	80.12
617.356	99.12
617.563	84.12
617.771	88.12
617.978	96.12
618.185	83.12
618.393	78.12
618.6	83.12
618.807	80.12
619.015	70.12
619.222	70.12
619.429	82.12
619.637	100.12
619.844	72.12
620.051	79.12
620.258	85.12
620.466	79.12
620.673	84.12
620.88	76.12
621.087	73.12
621.294	74.12
621.501	71.12
621.708	70.12
621.915	86.12
622.122	76.12
622.329	73.12
622.536	87.12
622.743	84.12
622.95	76.12
623.157	100.12
623.364	85.12
623.571	70.12
623.778	84.12
623.985	98.12
624.192	89.12
624.399	80.12
624.606	93.12
624.812	72.12
625.019	76.12
625.226	84.12
625.433	79.12
625.639	83.12
625.846	84.12
626.053	81.12
626.259	65.12
626.466	75.12
626.673	84.12
626.879	86.12
627.086	85.12
627.293	69.12
627.499	80.12
627.706	78.12
627.912	87.12
628.119	81.12
628.325	68.12
628.532	82.12
628.738	80.12
628.945	92.12
629.151	90.12
629.357	71.12
629.564	71.12
629.77	64.12
629.976	90.12
630.183	80.12
630.389	73.12
630.595	85.12
630.802	77.12
631.008	65.12
631.214	87.12
631.42	68.12
631.627	84.12
631.833	94.12
632.039	71.12
632.245	84.12
632.451	86.12
632.657	77.12
632.863	96.12
633.069	80.12
633.275	86.12
633.481	79.12
633.688	85.12
633.893	82.12
634.099	76.12
634.305	93.12
634.511	71.12
634.717	77.12
634.923	83.12
635.129	82.12
635.335	70.12
635.541	76.12
635.747	70.12
635.952	73.12
636.158	71.12
636.364	90.12
636.57	78.12
636.775	78.12
636.981	90.12
637.187	77.12
637.392	87.12
637.598	73.12
637.804	96.12
638.009	76.12
638.215	78.12
638.421	69.12
638.626	68.12
638.832	84.12
639.037	89.12
639.243	73.12
639.448	86.12
639.654	72.12
639.859	66.12
640.065	80.12
640.27	85.12
640.475	67.12
640.681	85.12
640.886	81.12
641.091	83.12
641.297	82.12
641.502	81.12
641.707	68.12
641.913	76.12
642.118	81.12
642.323	74.12
642.528	83.12
642.733	69.12
642.939	76.12
643.144	90.12
643.349	80.12
643.554	84.12
643.759	74.12
643.964	80.12
644.169	82.12
644.374	84.12
644.579	72.12
644.784	79.12
644.989	73.12
645.194	92.12
645.399	87.12
645.604	76.12
645.809	100.12
646.014	72.12
646.219	79.12
646.423	76.12
646.628	96.12
646.833	74.12
647.038	85.12
647.243	73.12
647.447	79.12
647.652	78.12
647.857	71.12
648.062	84.12
648.266	78.12
648.471	90.12
648.676	80.12
648.88	90.12
649.085	92.12
649.289	92.12
649.494	93.12
649.698	118.12
649.903	95.12
650.107	84.12
650.312	83.12
650.516	76.12
650.721	92.12
650.925	76.12
651.13	73.12
651.334	78.12
651.539	80.12
651.743	71.12
651.947	93.12
652.152	69.12
652.356	81.12
652.56	86.12
652.764	68.12
652.969	78.12
653.173	78.12
653.377	66.12
653.581	90.12
653.785	88.12
653.99	88.12
654.194	86.12
654.398	93.12
654.602	88.12
654.806	78.12
655.01	104.12
655.214	86.12
655.418	74.12
655.622	76.12
655.826	80.12
656.03	85.12
656.234	77.12
656.438	79.12
656.642	83.12
656.846	83.12
657.049	77.12
657.253	70.12
657.457	82.12
657.661	76.12
657.865	84.12
658.068	70.12
658.272	71.12
658.476	73.12
658.68	66.12
658.883	72.12
659.087	77.12
659.291	70.12
659.494	72.12
659.698	86.12
659.901	80.12
660.105	66.12
660.309	84.12
660.512	82.12
660.716	68.12
660.919	92.12
661.123	94.12
661.326	79.12
661.53	82.12
661.733	89.12
661.936	81.12
662.14	68.12
662.343	68.12
662.546	71.12
662.75	76.12
662.953	80.12
663.156	89.12
663.36	78.12
663.563	90.12
663.766	69.12
663.969	80.12
664.173	76.12
664.376	80.12
664.579	80.12
664.782	88.12
664.985	78.12
665.188	80.12
665.391	87.12
665.594	84.12
665.797	81.12
666	81.12
666.203	70.12
666.406	73.12
666.609	88.12
666.812	94.12
667.015	62.12
667.218	80.12
667.421	64.12
667.624	70.12
667.827	77.12
668.03	80.12
668.232	86.12
668.435	75.12
668.638	71.12
668.841	75.12
669.043	78.12
669.246	79.12
669.449	67.12
669.651	73.12
669.854	76.12
670.057	72.12
670.259	90.12
670.462	90.12
670.665	81.12
670.867	82.12
671.07	72.12
671.272	76.12
671.475	72.12
671.677	70.12
671.88	89.12
672.082	78.12
672.284	88.12
672.487	74.12
672.689	73.12
672.892	76.12
