Data from Super_Dry_Prop_75_1_HRD10591_00016.txt Node
Date: Wed Dec 03 15:00:57 EST 2025
User: Yrep
Spectrometer: HR+D1059
Trigger mode: 1
Integration Time (sec): 1.000000E-1
Scans to average: 1
Electric dark correction enabled: true
Nonlinearity correction enabled: false
Boxcar width: 0
XAxis mode: Wavelengths
Number of Pixels in Spectrum: 2048
>>>>>Begin Spectral Data<<<<<
223.165	-11.81
223.4	-11.81
223.635	-11.81
223.869	-27.81
224.104	-15.81
224.338	-4.81
224.573	-27.81
224.808	-9.81
225.042	-8.81
225.277	-0.81
225.511	-2.81
225.746	-3.81
225.98	5.19
226.215	6.19
226.449	26.19
226.683	27.19
226.918	17.19
227.152	32.19
227.387	32.19
227.621	40.19
227.856	45.19
228.09	41.19
228.324	47.19
228.559	61.19
228.793	56.19
229.027	50.19
229.262	54.19
229.496	63.19
229.73	56.19
229.964	87.19
230.199	77.19
230.433	70.19
230.667	71.19
230.901	86.19
231.136	81.19
231.37	79.19
231.604	74.19
231.838	78.19
232.072	86.19
232.306	79.19
232.541	93.19
232.775	79.19
233.009	72.19
233.243	75.19
233.477	85.19
233.711	76.19
233.945	75.19
234.179	67.19
234.413	73.19
234.647	77.19
234.881	94.19
235.115	74.19
235.349	85.19
235.583	71.19
235.817	71.19
236.051	72.19
236.285	67.19
236.519	78.19
236.753	78.19
236.987	78.19
237.221	74.19
237.455	65.19
237.689	83.19
237.922	81.19
238.156	80.19
238.39	64.19
238.624	80.19
238.858	75.19
239.091	73.19
239.325	80.19
239.559	74.19
239.793	76.19
240.027	70.19
240.26	78.19
240.494	76.19
240.728	89.19
240.961	76.19
241.195	62.19
241.429	84.19
241.662	71.19
241.896	62.19
242.13	86.19
242.363	71.19
242.597	80.19
242.83	78.19
243.064	71.19
243.298	78.19
243.531	86.19
243.765	69.19
243.998	71.19
244.232	87.19
244.465	76.19
244.699	62.19
244.932	69.19
245.166	80.19
245.399	70.19
245.633	74.19
245.866	73.19
246.099	77.19
246.333	73.19
246.566	75.19
246.8	78.19
247.033	77.19
247.266	57.19
247.5	88.19
247.733	79.19
247.966	80.19
248.2	76.19
248.433	62.19
248.666	82.19
248.899	93.19
249.133	79.19
249.366	85.19
249.599	77.19
249.832	79.19
250.066	88.19
250.299	79.19
250.532	84.19
250.765	80.19
250.998	86.19
251.231	67.19
251.465	81.19
251.698	74.19
251.931	78.19
252.164	88.19
252.397	79.19
252.63	87.19
252.863	81.19
253.096	81.19
253.329	82.19
253.562	85.19
253.795	69.19
254.028	90.19
254.261	80.19
254.494	67.19
254.727	80.19
254.96	88.19
255.193	74.19
255.426	94.19
255.659	82.19
255.892	66.19
256.124	98.19
256.357	57.19
256.59	84.19
256.823	68.19
257.056	87.19
257.289	83.19
257.521	77.19
257.754	92.19
257.987	75.19
258.22	83.19
258.452	80.19
258.685	74.19
258.918	96.19
259.151	96.19
259.383	86.19
259.616	74.19
259.849	75.19
260.081	82.19
260.314	76.19
260.547	83.19
260.779	77.19
261.012	80.19
261.244	70.19
261.477	86.19
261.71	87.19
261.942	83.19
262.175	78.19
262.407	93.19
262.64	75.19
262.872	77.19
263.105	79.19
263.337	86.19
263.57	75.19
263.802	82.19
264.035	71.19
264.267	81.19
264.499	70.19
264.732	80.19
264.964	78.19
265.197	78.19
265.429	72.19
265.661	83.19
265.894	73.19
266.126	85.19
266.358	72.19
266.591	74.19
266.823	90.19
267.055	79.19
267.287	85.19
267.52	84.19
267.752	79.19
267.984	73.19
268.216	78.19
268.448	108.19
268.681	92.19
268.913	86.19
269.145	79.19
269.377	76.19
269.609	86.19
269.841	74.19
270.073	75.19
270.306	71.19
270.538	80.19
270.77	83.19
271.002	96.19
271.234	75.19
271.466	80.19
271.698	85.19
271.93	73.19
272.162	84.19
272.394	78.19
272.626	78.19
272.858	74.19
273.09	85.19
273.322	80.19
273.553	71.19
273.785	96.19
274.017	80.19
274.249	71.19
274.481	69.19
274.713	78.19
274.945	84.19
275.176	83.19
275.408	76.19
275.64	70.19
275.872	83.19
276.104	90.19
276.335	83.19
276.567	103.19
276.799	82.19
277.031	88.19
277.262	74.19
277.494	90.19
277.726	79.19
277.957	85.19
278.189	84.19
278.421	79.19
278.652	81.19
278.884	73.19
279.115	76.19
279.347	95.19
279.579	76.19
279.81	85.19
280.042	83.19
280.273	100.19
280.505	85.19
280.736	78.19
280.968	87.19
281.199	97.19
281.431	68.19
281.662	76.19
281.894	97.19
282.125	84.19
282.356	66.19
282.588	71.19
282.819	81.19
283.051	80.19
283.282	85.19
283.513	99.19
283.745	99.19
283.976	94.19
284.207	80.19
284.439	73.19
284.67	84.19
284.901	75.19
285.132	82.19
285.364	78.19
285.595	88.19
285.826	82.19
286.057	85.19
286.288	91.19
286.52	84.19
286.751	72.19
286.982	88.19
287.213	99.19
287.444	90.19
287.675	94.19
287.906	81.19
288.138	84.19
288.369	85.19
288.6	87.19
288.831	71.19
289.062	83.19
289.293	90.19
289.524	93.19
289.755	102.19
289.986	95.19
290.217	92.19
290.448	78.19
290.679	88.19
290.91	75.19
291.141	75.19
291.371	80.19
291.602	84.19
291.833	86.19
292.064	92.19
292.295	84.19
292.526	73.19
292.757	80.19
292.987	88.19
293.218	82.19
293.449	81.19
293.68	90.19
293.91	98.19
294.141	95.19
294.372	88.19
294.603	74.19
294.833	87.19
295.064	80.19
295.295	82.19
295.525	96.19
295.756	90.19
295.987	87.19
296.217	84.19
296.448	87.19
296.679	69.19
296.909	93.19
297.14	83.19
297.37	83.19
297.601	93.19
297.831	71.19
298.062	84.19
298.292	84.19
298.523	81.19
298.753	77.19
298.984	76.19
299.214	91.19
299.445	86.19
299.675	74.19
299.905	95.19
300.136	72.19
300.366	79.19
300.597	87.19
300.827	76.19
301.057	87.19
301.288	90.19
301.518	79.19
301.748	89.19
301.979	112.19
302.209	91.19
302.439	85.19
302.669	81.19
302.9	92.19
303.13	92.19
303.36	86.19
303.59	76.19
303.82	88.19
304.051	91.19
304.281	92.19
304.511	70.19
304.741	80.19
304.971	86.19
305.201	87.19
305.431	74.19
305.661	85.19
305.891	75.19
306.121	83.19
306.352	70.19
306.582	81.19
306.812	78.19
307.042	84.19
307.272	87.19
307.502	78.19
307.731	101.19
307.961	70.19
308.191	76.19
308.421	91.19
308.651	72.19
308.881	80.19
309.111	88.19
309.341	91.19
309.571	95.19
309.8	70.19
310.03	81.19
310.26	73.19
310.49	75.19
310.72	80.19
310.949	74.19
311.179	77.19
311.409	77.19
311.639	71.19
311.868	81.19
312.098	79.19
312.328	76.19
312.557	94.19
312.787	85.19
313.017	83.19
313.246	87.19
313.476	85.19
313.706	85.19
313.935	79.19
314.165	82.19
314.394	87.19
314.624	86.19
314.853	85.19
315.083	78.19
315.312	88.19
315.542	92.19
315.771	77.19
316.001	84.19
316.23	80.19
316.46	94.19
316.689	82.19
316.919	86.19
317.148	81.19
317.377	90.19
317.607	84.19
317.836	92.19
318.065	80.19
318.295	90.19
318.524	86.19
318.753	86.19
318.983	73.19
319.212	86.19
319.441	91.19
319.67	88.19
319.9	88.19
320.129	85.19
320.358	89.19
320.587	94.19
320.816	87.19
321.046	86.19
321.275	80.19
321.504	74.19
321.733	80.19
321.962	72.19
322.191	92.19
322.42	81.19
322.649	81.19
322.878	87.19
323.108	71.19
323.337	80.19
323.566	72.19
323.795	90.19
324.024	70.19
324.253	93.19
324.482	84.19
324.71	77.19
324.939	88.19
325.168	75.19
325.397	77.19
325.626	65.19
325.855	80.19
326.084	76.19
326.313	79.19
326.542	92.19
326.77	70.19
326.999	74.19
327.228	80.19
327.457	91.19
327.686	90.19
327.914	79.19
328.143	86.19
328.372	75.19
328.6	84.19
328.829	75.19
329.058	92.19
329.287	73.19
329.515	89.19
329.744	106.19
329.972	99.19
330.201	87.19
330.43	97.19
330.658	94.19
330.887	96.19
331.115	93.19
331.344	91.19
331.572	82.19
331.801	87.19
332.03	88.19
332.258	107.19
332.486	90.19
332.715	79.19
332.943	68.19
333.172	69.19
333.4	77.19
333.629	71.19
333.857	91.19
334.085	98.19
334.314	87.19
334.542	81.19
334.771	95.19
334.999	86.19
335.227	77.19
335.455	94.19
335.684	86.19
335.912	77.19
336.14	70.19
336.369	93.19
336.597	82.19
336.825	87.19
337.053	94.19
337.281	82.19
337.51	80.19
337.738	79.19
337.966	77.19
338.194	80.19
338.422	74.19
338.65	78.19
338.878	75.19
339.106	76.19
339.334	96.19
339.562	68.19
339.79	92.19
340.018	80.19
340.246	75.19
340.474	96.19
340.702	101.19
340.93	72.19
341.158	84.19
341.386	70.19
341.614	86.19
341.842	95.19
342.07	94.19
342.298	72.19
342.526	87.19
342.754	76.19
342.981	86.19
343.209	90.19
343.437	96.19
343.665	73.19
343.893	74.19
344.12	67.19
344.348	90.19
344.576	95.19
344.804	94.19
345.031	77.19
345.259	87.19
345.487	93.19
345.714	79.19
345.942	80.19
346.17	93.19
346.397	86.19
346.625	80.19
346.853	86.19
347.08	88.19
347.308	93.19
347.535	78.19
347.763	71.19
347.99	82.19
348.218	77.19
348.445	86.19
348.673	74.19
348.9	85.19
349.128	83.19
349.355	69.19
349.583	101.19
349.81	78.19
350.037	76.19
350.265	86.19
350.492	81.19
350.72	88.19
350.947	77.19
351.174	76.19
351.402	70.19
351.629	90.19
351.856	88.19
352.083	77.19
352.311	80.19
352.538	88.19
352.765	90.19
352.992	79.19
353.22	82.19
353.447	74.19
353.674	98.19
353.901	85.19
354.128	90.19
354.355	86.19
354.583	87.19
354.81	75.19
355.037	72.19
355.264	86.19
355.491	78.19
355.718	79.19
355.945	92.19
356.172	84.19
356.399	82.19
356.626	89.19
356.853	101.19
357.08	91.19
357.307	85.19
357.534	86.19
357.761	87.19
357.988	91.19
358.215	69.19
358.441	86.19
358.668	92.19
358.895	76.19
359.122	69.19
359.349	79.19
359.576	70.19
359.802	84.19
360.029	92.19
360.256	92.19
360.483	77.19
360.709	87.19
360.936	84.19
361.163	90.19
361.39	80.19
361.616	85.19
361.843	80.19
362.07	92.19
362.296	80.19
362.523	78.19
362.749	84.19
362.976	73.19
363.203	89.19
363.429	87.19
363.656	77.19
363.882	80.19
364.109	94.19
364.335	82.19
364.562	80.19
364.788	77.19
365.015	83.19
365.241	82.19
365.468	81.19
365.694	87.19
365.92	83.19
366.147	85.19
366.373	77.19
366.599	95.19
366.826	85.19
367.052	80.19
367.278	71.19
367.505	65.19
367.731	81.19
367.957	90.19
368.184	79.19
368.41	69.19
368.636	92.19
368.862	98.19
369.089	90.19
369.315	89.19
369.541	74.19
369.767	78.19
369.993	85.19
370.219	88.19
370.445	84.19
370.672	86.19
370.898	84.19
371.124	90.19
371.35	68.19
371.576	88.19
371.802	76.19
372.028	77.19
372.254	83.19
372.48	65.19
372.706	71.19
372.932	75.19
373.158	74.19
373.384	87.19
373.61	87.19
373.835	83.19
374.061	70.19
374.287	87.19
374.513	71.19
374.739	81.19
374.965	86.19
375.191	78.19
375.416	84.19
375.642	84.19
375.868	85.19
376.094	85.19
376.319	86.19
376.545	80.19
376.771	93.19
376.997	81.19
377.222	80.19
377.448	93.19
377.674	74.19
377.899	78.19
378.125	78.19
378.35	87.19
378.576	82.19
378.802	84.19
379.027	90.19
379.253	68.19
379.478	76.19
379.704	94.19
379.929	96.19
380.155	78.19
380.38	91.19
380.606	92.19
380.831	87.19
381.057	81.19
381.282	83.19
381.507	84.19
381.733	91.19
381.958	91.19
382.184	75.19
382.409	80.19
382.634	80.19
382.86	87.19
383.085	94.19
383.31	81.19
383.535	84.19
383.761	94.19
383.986	87.19
384.211	89.19
384.436	72.19
384.662	87.19
384.887	75.19
385.112	76.19
385.337	77.19
385.562	89.19
385.787	82.19
386.013	100.19
386.238	88.19
386.463	77.19
386.688	90.19
386.913	77.19
387.138	76.19
387.363	90.19
387.588	83.19
387.813	85.19
388.038	94.19
388.263	94.19
388.488	93.19
388.713	92.19
388.938	88.19
389.163	83.19
389.387	82.19
389.612	92.19
389.837	90.19
390.062	84.19
390.287	84.19
390.512	76.19
390.736	102.19
390.961	79.19
391.186	83.19
391.411	72.19
391.636	81.19
391.86	72.19
392.085	83.19
392.31	92.19
392.534	86.19
392.759	96.19
392.984	93.19
393.208	85.19
393.433	94.19
393.658	90.19
393.882	86.19
394.107	83.19
394.331	87.19
394.556	77.19
394.78	78.19
395.005	75.19
395.229	80.19
395.454	74.19
395.678	71.19
395.903	74.19
396.127	71.19
396.352	84.19
396.576	82.19
396.801	76.19
397.025	91.19
397.249	85.19
397.474	85.19
397.698	78.19
397.922	86.19
398.147	79.19
398.371	84.19
398.595	76.19
398.82	96.19
399.044	89.19
399.268	80.19
399.492	70.19
399.717	93.19
399.941	79.19
400.165	83.19
400.389	71.19
400.613	91.19
400.837	78.19
401.062	76.19
401.286	84.19
401.51	97.19
401.734	80.19
401.958	76.19
402.182	87.19
402.406	86.19
402.63	91.19
402.854	72.19
403.078	92.19
403.302	75.19
403.526	86.19
403.75	81.19
403.974	76.19
404.198	87.19
404.422	72.19
404.645	93.19
404.869	80.19
405.093	82.19
405.317	79.19
405.541	80.19
405.765	79.19
405.988	84.19
406.212	73.19
406.436	82.19
406.66	80.19
406.883	86.19
407.107	81.19
407.331	83.19
407.555	82.19
407.778	72.19
408.002	90.19
408.226	88.19
408.449	83.19
408.673	83.19
408.896	75.19
409.12	79.19
409.344	82.19
409.567	72.19
409.791	83.19
410.014	83.19
410.238	82.19
410.461	66.19
410.685	79.19
410.908	78.19
411.132	82.19
411.355	81.19
411.578	71.19
411.802	82.19
412.025	76.19
412.249	65.19
412.472	78.19
412.695	78.19
412.919	74.19
413.142	83.19
413.365	78.19
413.589	79.19
413.812	84.19
414.035	102.19
414.258	92.19
414.482	85.19
414.705	67.19
414.928	81.19
415.151	87.19
415.374	85.19
415.597	80.19
415.821	80.19
416.044	77.19
416.267	72.19
416.49	90.19
416.713	76.19
416.936	79.19
417.159	83.19
417.382	67.19
417.605	75.19
417.828	105.19
418.051	83.19
418.274	93.19
418.497	90.19
418.72	82.19
418.943	81.19
419.166	85.19
419.389	78.19
419.611	67.19
419.834	81.19
420.057	83.19
420.28	80.19
420.503	88.19
420.726	82.19
420.948	79.19
421.171	81.19
421.394	83.19
421.617	78.19
421.839	87.19
422.062	90.19
422.285	91.19
422.507	91.19
422.73	99.19
422.953	82.19
423.175	75.19
423.398	79.19
423.621	76.19
423.843	77.19
424.066	72.19
424.288	82.19
424.511	73.19
424.733	82.19
424.956	87.19
425.178	81.19
425.401	68.19
425.623	76.19
425.846	78.19
426.068	82.19
426.291	70.19
426.513	79.19
426.735	72.19
426.958	80.19
427.18	75.19
427.402	83.19
427.625	71.19
427.847	82.19
428.069	74.19
428.292	79.19
428.514	88.19
428.736	77.19
428.958	87.19
429.181	90.19
429.403	87.19
429.625	84.19
429.847	85.19
430.069	87.19
430.292	86.19
430.514	99.19
430.736	79.19
430.958	74.19
431.18	83.19
431.402	85.19
431.624	78.19
431.846	90.19
432.068	73.19
432.29	80.19
432.512	104.19
432.734	80.19
432.956	78.19
433.178	81.19
433.4	82.19
433.622	106.19
433.844	87.19
434.066	79.19
434.287	78.19
434.509	78.19
434.731	85.19
434.953	69.19
435.175	82.19
435.397	80.19
435.618	73.19
435.84	72.19
436.062	87.19
436.284	76.19
436.505	64.19
436.727	85.19
436.949	83.19
437.17	90.19
437.392	95.19
437.614	78.19
437.835	87.19
438.057	76.19
438.278	73.19
438.5	87.19
438.721	77.19
438.943	73.19
439.165	77.19
439.386	72.19
439.608	78.19
439.829	80.19
440.05	86.19
440.272	86.19
440.493	92.19
440.715	74.19
440.936	74.19
441.158	74.19
441.379	77.19
441.6	75.19
441.822	75.19
442.043	76.19
442.264	72.19
442.486	82.19
442.707	84.19
442.928	83.19
443.149	85.19
443.371	81.19
443.592	87.19
443.813	93.19
444.034	79.19
444.255	87.19
444.476	79.19
444.698	70.19
444.919	82.19
445.14	142.19
445.361	110.19
445.582	91.19
445.803	84.19
446.024	84.19
446.245	68.19
446.466	72.19
446.687	86.19
446.908	82.19
447.129	92.19
447.35	83.19
447.571	75.19
447.792	75.19
448.013	86.19
448.234	79.19
448.455	86.19
448.675	76.19
448.896	86.19
449.117	71.19
449.338	78.19
449.559	82.19
449.779	70.19
450	73.19
450.221	78.19
450.442	81.19
450.662	71.19
450.883	80.19
451.104	81.19
451.324	81.19
451.545	77.19
451.766	85.19
451.986	77.19
452.207	75.19
452.428	71.19
452.648	67.19
452.869	91.19
453.089	73.19
453.31	88.19
453.53	90.19
453.751	89.19
453.971	82.19
454.192	83.19
454.412	91.19
454.633	80.19
454.853	82.19
455.073	90.19
455.294	66.19
455.514	91.19
455.734	85.19
455.955	80.19
456.175	84.19
456.395	80.19
456.616	82.19
456.836	77.19
457.056	86.19
457.276	64.19
457.497	67.19
457.717	75.19
457.937	70.19
458.157	79.19
458.377	75.19
458.598	82.19
458.818	81.19
459.038	81.19
459.258	70.19
459.478	80.19
459.698	68.19
459.918	72.19
460.138	67.19
460.358	82.19
460.578	96.19
460.798	87.19
461.018	79.19
461.238	86.19
461.458	81.19
461.678	72.19
461.898	70.19
462.118	81.19
462.338	80.19
462.558	86.19
462.777	94.19
462.997	69.19
463.217	80.19
463.437	79.19
463.657	78.19
463.876	76.19
464.096	74.19
464.316	71.19
464.536	82.19
464.755	75.19
464.975	70.19
465.195	81.19
465.414	87.19
465.634	90.19
465.854	79.19
466.073	68.19
466.293	70.19
466.512	71.19
466.732	65.19
466.951	82.19
467.171	77.19
467.391	82.19
467.61	98.19
467.829	90.19
468.049	83.19
468.268	99.19
468.488	83.19
468.707	79.19
468.927	85.19
469.146	84.19
469.365	84.19
469.585	81.19
469.804	79.19
470.023	87.19
470.243	72.19
470.462	81.19
470.681	76.19
470.901	86.19
471.12	75.19
471.339	77.19
471.558	83.19
471.777	88.19
471.997	82.19
472.216	96.19
472.435	78.19
472.654	84.19
472.873	79.19
473.092	77.19
473.311	54.19
473.53	72.19
473.749	95.19
473.968	74.19
474.187	80.19
474.406	97.19
474.625	90.19
474.844	75.19
475.063	72.19
475.282	83.19
475.501	67.19
475.72	79.19
475.939	82.19
476.158	74.19
476.377	76.19
476.596	76.19
476.814	67.19
477.033	70.19
477.252	62.19
477.471	63.19
477.69	77.19
477.908	94.19
478.127	70.19
478.346	66.19
478.564	75.19
478.783	79.19
479.002	73.19
479.22	62.19
479.439	90.19
479.658	71.19
479.876	91.19
480.095	76.19
480.313	77.19
480.532	80.19
480.751	72.19
480.969	85.19
481.188	81.19
481.406	89.19
481.624	80.19
481.843	83.19
482.061	96.19
482.28	92.19
482.498	68.19
482.717	81.19
482.935	87.19
483.153	87.19
483.372	83.19
483.59	75.19
483.808	71.19
484.027	76.19
484.245	88.19
484.463	76.19
484.681	72.19
484.9	70.19
485.118	95.19
485.336	71.19
485.554	92.19
485.772	81.19
485.99	81.19
486.209	70.19
486.427	76.19
486.645	79.19
486.863	79.19
487.081	59.19
487.299	75.19
487.517	81.19
487.735	78.19
487.953	95.19
488.171	93.19
488.389	82.19
488.607	74.19
488.825	64.19
489.043	82.19
489.261	86.19
489.479	85.19
489.696	77.19
489.914	85.19
490.132	79.19
490.35	81.19
490.568	88.19
490.786	79.19
491.003	86.19
491.221	72.19
491.439	81.19
491.657	82.19
491.874	92.19
492.092	87.19
492.31	80.19
492.527	63.19
492.745	81.19
492.963	70.19
493.18	85.19
493.398	79.19
493.615	72.19
493.833	84.19
494.05	77.19
494.268	84.19
494.485	65.19
494.703	96.19
494.92	92.19
495.138	66.19
495.355	106.19
495.573	71.19
495.79	79.19
496.008	94.19
496.225	92.19
496.442	71.19
496.66	92.19
496.877	92.19
497.094	81.19
497.312	90.19
497.529	89.19
497.746	79.19
497.963	91.19
498.181	86.19
498.398	90.19
498.615	76.19
498.832	84.19
499.049	105.19
499.267	80.19
499.484	76.19
499.701	79.19
499.918	83.19
500.135	80.19
500.352	77.19
500.569	72.19
500.786	76.19
501.003	83.19
501.22	82.19
501.437	85.19
501.654	85.19
501.871	93.19
502.088	78.19
502.305	83.19
502.522	77.19
502.739	81.19
502.956	82.19
503.172	82.19
503.389	86.19
503.606	78.19
503.823	79.19
504.04	87.19
504.256	67.19
504.473	84.19
504.69	73.19
504.907	84.19
505.123	86.19
505.34	84.19
505.557	80.19
505.773	81.19
505.99	68.19
506.207	85.19
506.423	79.19
506.64	74.19
506.856	80.19
507.073	76.19
507.289	90.19
507.506	91.19
507.722	76.19
507.939	75.19
508.155	76.19
508.372	88.19
508.588	83.19
508.805	77.19
509.021	83.19
509.238	86.19
509.454	83.19
509.67	87.19
509.887	72.19
510.103	77.19
510.319	74.19
510.536	76.19
510.752	76.19
510.968	79.19
511.184	92.19
511.401	71.19
511.617	72.19
511.833	92.19
512.049	101.19
512.265	82.19
512.481	100.19
512.698	94.19
512.914	88.19
513.13	70.19
513.346	76.19
513.562	72.19
513.778	71.19
513.994	83.19
514.21	84.19
514.426	80.19
514.642	95.19
514.858	77.19
515.074	88.19
515.29	98.19
515.506	79.19
515.721	82.19
515.937	82.19
516.153	80.19
516.369	83.19
516.585	93.19
516.801	78.19
517.016	83.19
517.232	95.19
517.448	80.19
517.664	88.19
517.879	77.19
518.095	87.19
518.311	81.19
518.527	86.19
518.742	76.19
518.958	98.19
519.173	88.19
519.389	80.19
519.605	78.19
519.82	90.19
520.036	87.19
520.251	86.19
520.467	96.19
520.682	91.19
520.898	73.19
521.113	83.19
521.329	67.19
521.544	72.19
521.76	93.19
521.975	89.19
522.19	93.19
522.406	82.19
522.621	80.19
522.836	65.19
523.052	80.19
523.267	91.19
523.482	63.19
523.698	70.19
523.913	85.19
524.128	77.19
524.343	78.19
524.559	81.19
524.774	66.19
524.989	86.19
525.204	84.19
525.419	78.19
525.634	71.19
525.849	82.19
526.064	102.19
526.28	86.19
526.495	74.19
526.71	93.19
526.925	80.19
527.14	79.19
527.355	78.19
527.57	88.19
527.785	76.19
527.999	77.19
528.214	87.19
528.429	85.19
528.644	93.19
528.859	83.19
529.074	72.19
529.289	91.19
529.503	89.19
529.718	90.19
529.933	80.19
530.148	99.19
530.363	81.19
530.577	79.19
530.792	81.19
531.007	75.19
531.221	85.19
531.436	76.19
531.651	102.19
531.865	88.19
532.08	90.19
532.295	70.19
532.509	85.19
532.724	85.19
532.938	75.19
533.153	84.19
533.367	71.19
533.582	77.19
533.796	91.19
534.011	80.19
534.225	68.19
534.44	90.19
534.654	77.19
534.868	74.19
535.083	86.19
535.297	91.19
535.511	82.19
535.726	84.19
535.94	96.19
536.154	93.19
536.369	82.19
536.583	86.19
536.797	81.19
537.011	83.19
537.225	83.19
537.44	78.19
537.654	81.19
537.868	87.19
538.082	75.19
538.296	81.19
538.51	84.19
538.724	72.19
538.938	87.19
539.153	83.19
539.367	78.19
539.581	69.19
539.795	99.19
540.009	96.19
540.222	87.19
540.436	92.19
540.65	84.19
540.864	90.19
541.078	92.19
541.292	83.19
541.506	87.19
541.72	79.19
541.934	85.19
542.147	66.19
542.361	78.19
542.575	90.19
542.789	99.19
543.002	73.19
543.216	94.19
543.43	82.19
543.644	91.19
543.857	83.19
544.071	87.19
544.285	80.19
544.498	78.19
544.712	82.19
544.925	87.19
545.139	99.19
545.352	83.19
545.566	72.19
545.779	84.19
545.993	71.19
546.206	83.19
546.42	85.19
546.633	78.19
546.847	92.19
547.06	80.19
547.274	90.19
547.487	74.19
547.7	91.19
547.914	75.19
548.127	79.19
548.34	84.19
548.554	73.19
548.767	91.19
548.98	93.19
549.193	87.19
549.407	80.19
549.62	79.19
549.833	76.19
550.046	84.19
550.259	80.19
550.473	74.19
550.686	94.19
550.899	82.19
551.112	81.19
551.325	82.19
551.538	88.19
551.751	88.19
551.964	76.19
552.177	80.19
552.39	82.19
552.603	77.19
552.816	79.19
553.029	82.19
553.242	98.19
553.455	85.19
553.667	85.19
553.88	79.19
554.093	80.19
554.306	87.19
554.519	87.19
554.732	89.19
554.944	72.19
555.157	81.19
555.37	93.19
555.583	84.19
555.795	77.19
556.008	87.19
556.221	83.19
556.433	82.19
556.646	95.19
556.859	80.19
557.071	78.19
557.284	100.19
557.496	96.19
557.709	83.19
557.921	79.19
558.134	81.19
558.346	73.19
558.559	95.19
558.771	79.19
558.984	63.19
559.196	72.19
559.409	76.19
559.621	76.19
559.833	79.19
560.046	98.19
560.258	75.19
560.47	75.19
560.683	87.19
560.895	92.19
561.107	92.19
561.32	77.19
561.532	86.19
561.744	81.19
561.956	80.19
562.168	80.19
562.381	87.19
562.593	63.19
562.805	77.19
563.017	87.19
563.229	70.19
563.441	91.19
563.653	90.19
563.865	77.19
564.077	72.19
564.289	80.19
564.501	72.19
564.713	82.19
564.925	86.19
565.137	74.19
565.349	84.19
565.561	84.19
565.773	85.19
565.985	71.19
566.197	83.19
566.408	83.19
566.62	82.19
566.832	76.19
567.044	83.19
567.255	79.19
567.467	85.19
567.679	92.19
567.891	90.19
568.102	71.19
568.314	86.19
568.526	81.19
568.737	100.19
568.949	99.19
569.161	98.19
569.372	88.19
569.584	77.19
569.795	80.19
570.007	98.19
570.218	84.19
570.43	82.19
570.641	96.19
570.853	76.19
571.064	87.19
571.276	80.19
571.487	84.19
571.698	74.19
571.91	70.19
572.121	91.19
572.333	77.19
572.544	83.19
572.755	75.19
572.966	93.19
573.178	80.19
573.389	90.19
573.6	63.19
573.811	79.19
574.023	86.19
574.234	86.19
574.445	82.19
574.656	82.19
574.867	77.19
575.078	94.19
575.289	86.19
575.501	98.19
575.712	86.19
575.923	77.19
576.134	77.19
576.345	78.19
576.556	94.19
576.767	82.19
576.978	84.19
577.188	84.19
577.399	74.19
577.61	68.19
577.821	74.19
578.032	86.19
578.243	73.19
578.454	84.19
578.665	94.19
578.875	87.19
579.086	76.19
579.297	70.19
579.508	90.19
579.718	76.19
579.929	79.19
580.14	83.19
580.35	87.19
580.561	91.19
580.772	88.19
580.982	81.19
581.193	80.19
581.403	76.19
581.614	81.19
581.825	87.19
582.035	81.19
582.246	85.19
582.456	77.19
582.667	79.19
582.877	75.19
583.087	85.19
583.298	79.19
583.508	99.19
583.719	95.19
583.929	72.19
584.139	87.19
584.35	80.19
584.56	86.19
584.77	84.19
584.981	70.19
585.191	73.19
585.401	85.19
585.611	83.19
585.821	81.19
586.032	97.19
586.242	86.19
586.452	90.19
586.662	77.19
586.872	90.19
587.082	80.19
587.292	83.19
587.502	94.19
587.713	96.19
587.923	88.19
588.133	95.19
588.343	84.19
588.553	88.19
588.762	101.19
588.972	146.19
589.182	326.19
589.392	214.19
589.602	166.19
589.812	296.19
590.022	143.19
590.232	103.19
590.441	96.19
590.651	99.19
590.861	73.19
591.071	74.19
591.281	87.19
591.49	70.19
591.7	71.19
591.91	94.19
592.119	86.19
592.329	74.19
592.539	88.19
592.748	107.19
592.958	90.19
593.167	94.19
593.377	93.19
593.587	80.19
593.796	76.19
594.006	88.19
594.215	92.19
594.424	81.19
594.634	73.19
594.843	83.19
595.053	93.19
595.262	79.19
595.472	87.19
595.681	91.19
595.89	77.19
596.1	94.19
596.309	74.19
596.518	70.19
596.727	95.19
596.937	76.19
597.146	94.19
597.355	77.19
597.564	74.19
597.774	92.19
597.983	68.19
598.192	83.19
598.401	71.19
598.61	77.19
598.819	93.19
599.028	94.19
599.237	80.19
599.446	97.19
599.655	83.19
599.864	83.19
600.073	94.19
600.282	74.19
600.491	82.19
600.7	80.19
600.909	84.19
601.118	92.19
601.327	92.19
601.536	81.19
601.745	81.19
601.953	93.19
602.162	84.19
602.371	74.19
602.58	88.19
602.789	78.19
602.997	83.19
603.206	82.19
603.415	80.19
603.623	60.19
603.832	92.19
604.041	82.19
604.249	78.19
604.458	93.19
604.666	88.19
604.875	93.19
605.084	83.19
605.292	75.19
605.501	108.19
605.709	94.19
605.918	87.19
606.126	82.19
606.334	86.19
606.543	83.19
606.751	80.19
606.96	65.19
607.168	86.19
607.376	67.19
607.585	88.19
607.793	84.19
608.001	87.19
608.21	80.19
608.418	95.19
608.626	75.19
608.834	89.19
609.043	91.19
609.251	80.19
609.459	84.19
609.667	94.19
609.875	90.19
610.083	83.19
610.291	83.19
610.499	87.19
610.707	90.19
610.916	78.19
611.124	102.19
611.332	82.19
611.54	83.19
611.748	83.19
611.955	102.19
612.163	74.19
612.371	71.19
612.579	86.19
612.787	72.19
612.995	86.19
613.203	85.19
613.411	84.19
613.618	81.19
613.826	74.19
614.034	68.19
614.242	82.19
614.449	83.19
614.657	78.19
614.865	81.19
615.072	84.19
615.28	75.19
615.488	78.19
615.695	81.19
615.903	79.19
616.111	82.19
616.318	87.19
616.526	92.19
616.733	66.19
616.941	85.19
617.148	78.19
617.356	77.19
617.563	82.19
617.771	80.19
617.978	86.19
618.185	92.19
618.393	76.19
618.6	81.19
618.807	81.19
619.015	91.19
619.222	85.19
619.429	107.19
619.637	83.19
619.844	86.19
620.051	81.19
620.258	76.19
620.466	87.19
620.673	68.19
620.88	95.19
621.087	82.19
621.294	80.19
621.501	90.19
621.708	85.19
621.915	67.19
622.122	90.19
622.329	77.19
622.536	80.19
622.743	74.19
622.95	92.19
623.157	70.19
623.364	82.19
623.571	100.19
623.778	67.19
623.985	92.19
624.192	79.19
624.399	76.19
624.606	92.19
624.812	69.19
625.019	83.19
625.226	83.19
625.433	74.19
625.639	77.19
625.846	72.19
626.053	95.19
626.259	86.19
626.466	78.19
626.673	80.19
626.879	88.19
627.086	80.19
627.293	92.19
627.499	76.19
627.706	76.19
627.912	80.19
628.119	83.19
628.325	83.19
628.532	95.19
628.738	81.19
628.945	79.19
629.151	84.19
629.357	74.19
629.564	76.19
629.77	85.19
629.976	95.19
630.183	102.19
630.389	101.19
630.595	65.19
630.802	90.19
631.008	66.19
631.214	76.19
631.42	83.19
631.627	87.19
631.833	70.19
632.039	79.19
632.245	92.19
632.451	92.19
632.657	76.19
632.863	80.19
633.069	76.19
633.275	90.19
633.481	98.19
633.688	93.19
633.893	94.19
634.099	75.19
634.305	81.19
634.511	82.19
634.717	84.19
634.923	92.19
635.129	87.19
635.335	92.19
635.541	94.19
635.747	79.19
635.952	90.19
636.158	79.19
636.364	72.19
636.57	77.19
636.775	79.19
636.981	86.19
637.187	76.19
637.392	79.19
637.598	83.19
637.804	72.19
638.009	84.19
638.215	99.19
638.421	72.19
638.626	83.19
638.832	88.19
639.037	77.19
639.243	74.19
639.448	100.19
639.654	82.19
639.859	70.19
640.065	79.19
640.27	81.19
640.475	91.19
640.681	82.19
640.886	79.19
641.091	93.19
641.297	90.19
641.502	95.19
641.707	90.19
641.913	86.19
642.118	78.19
642.323	78.19
642.528	81.19
642.733	94.19
642.939	94.19
643.144	78.19
643.349	84.19
643.554	94.19
643.759	66.19
643.964	64.19
644.169	88.19
644.374	92.19
644.579	84.19
644.784	82.19
644.989	94.19
645.194	63.19
645.399	86.19
645.604	75.19
645.809	76.19
646.014	96.19
646.219	86.19
646.423	84.19
646.628	75.19
646.833	87.19
647.038	83.19
647.243	80.19
647.447	83.19
647.652	76.19
647.857	81.19
648.062	79.19
648.266	76.19
648.471	69.19
648.676	63.19
648.88	78.19
649.085	87.19
649.289	67.19
649.494	82.19
649.698	93.19
649.903	93.19
650.107	90.19
650.312	93.19
650.516	86.19
650.721	92.19
650.925	76.19
651.13	75.19
651.334	94.19
651.539	74.19
651.743	89.19
651.947	85.19
652.152	80.19
652.356	81.19
652.56	93.19
652.764	90.19
652.969	83.19
653.173	78.19
653.377	82.19
653.581	96.19
653.785	80.19
653.99	78.19
654.194	84.19
654.398	83.19
654.602	82.19
654.806	64.19
655.01	77.19
655.214	80.19
655.418	90.19
655.622	78.19
655.826	78.19
656.03	97.19
656.234	91.19
656.438	63.19
656.642	79.19
656.846	97.19
657.049	84.19
657.253	82.19
657.457	91.19
657.661	82.19
657.865	88.19
658.068	81.19
658.272	79.19
658.476	94.19
658.68	83.19
658.883	81.19
659.087	83.19
659.291	90.19
659.494	90.19
659.698	85.19
659.901	80.19
660.105	76.19
660.309	84.19
660.512	72.19
660.716	82.19
660.919	87.19
661.123	67.19
661.326	87.19
661.53	93.19
661.733	86.19
661.936	82.19
662.14	84.19
662.343	83.19
662.546	79.19
662.75	71.19
662.953	76.19
663.156	88.19
663.36	86.19
663.563	82.19
663.766	93.19
663.969	89.19
664.173	82.19
664.376	87.19
664.579	75.19
664.782	76.19
664.985	80.19
665.188	83.19
665.391	87.19
665.594	94.19
665.797	74.19
666	82.19
666.203	73.19
666.406	81.19
666.609	75.19
666.812	79.19
667.015	89.19
667.218	88.19
667.421	80.19
667.624	74.19
667.827	82.19
668.03	84.19
668.232	95.19
668.435	71.19
668.638	93.19
668.841	90.19
669.043	77.19
669.246	83.19
669.449	84.19
669.651	70.19
669.854	77.19
670.057	82.19
670.259	75.19
670.462	87.19
670.665	87.19
670.867	83.19
671.07	70.19
671.272	78.19
671.475	91.19
671.677	59.19
671.88	78.19
672.082	86.19
672.284	67.19
672.487	77.19
672.689	78.19
672.892	86.19
