Data from Super_Dry_Prop_75_1_HRD10591_00012.txt Node
Date: Wed Dec 03 15:00:55 EST 2025
User: Yrep
Spectrometer: HR+D1059
Trigger mode: 1
Integration Time (sec): 1.000000E-1
Scans to average: 1
Electric dark correction enabled: true
Nonlinearity correction enabled: false
Boxcar width: 0
XAxis mode: Wavelengths
Number of Pixels in Spectrum: 2048
>>>>>Begin Spectral Data<<<<<
223.165	-14.88
223.4	-14.88
223.635	-14.88
223.869	-21.88
224.104	-13.88
224.338	-11.88
224.573	-10.88
224.808	-13.88
225.042	-13.88
225.277	-2.88
225.511	2.12
225.746	-8.88
225.98	10.12
226.215	6.12
226.449	10.12
226.683	15.12
226.918	31.12
227.152	38.12
227.387	22.12
227.621	39.12
227.856	42.12
228.09	64.12
228.324	37.12
228.559	51.12
228.793	67.12
229.027	67.12
229.262	60.12
229.496	71.12
229.73	62.12
229.964	68.12
230.199	74.12
230.433	77.12
230.667	72.12
230.901	70.12
231.136	68.12
231.37	69.12
231.604	66.12
231.838	74.12
232.072	73.12
232.306	84.12
232.541	78.12
232.775	81.12
233.009	65.12
233.243	68.12
233.477	89.12
233.711	91.12
233.945	87.12
234.179	73.12
234.413	69.12
234.647	73.12
234.881	79.12
235.115	87.12
235.349	80.12
235.583	79.12
235.817	73.12
236.051	79.12
236.285	83.12
236.519	68.12
236.753	77.12
236.987	78.12
237.221	68.12
237.455	62.12
237.689	74.12
237.922	75.12
238.156	84.12
238.39	77.12
238.624	88.12
238.858	83.12
239.091	65.12
239.325	75.12
239.559	81.12
239.793	65.12
240.027	79.12
240.26	71.12
240.494	93.12
240.728	84.12
240.961	75.12
241.195	71.12
241.429	84.12
241.662	77.12
241.896	60.12
242.13	75.12
242.363	66.12
242.597	74.12
242.83	73.12
243.064	77.12
243.298	65.12
243.531	70.12
243.765	80.12
243.998	86.12
244.232	63.12
244.465	81.12
244.699	76.12
244.932	86.12
245.166	73.12
245.399	84.12
245.633	74.12
245.866	70.12
246.099	74.12
246.333	69.12
246.566	67.12
246.8	70.12
247.033	79.12
247.266	84.12
247.5	73.12
247.733	70.12
247.966	85.12
248.2	73.12
248.433	74.12
248.666	81.12
248.899	67.12
249.133	68.12
249.366	87.12
249.599	80.12
249.832	80.12
250.066	79.12
250.299	81.12
250.532	77.12
250.765	67.12
250.998	70.12
251.231	73.12
251.465	89.12
251.698	77.12
251.931	80.12
252.164	69.12
252.397	81.12
252.63	87.12
252.863	91.12
253.096	84.12
253.329	74.12
253.562	80.12
253.795	75.12
254.028	69.12
254.261	80.12
254.494	83.12
254.727	71.12
254.96	89.12
255.193	80.12
255.426	69.12
255.659	77.12
255.892	91.12
256.124	75.12
256.357	75.12
256.59	85.12
256.823	95.12
257.056	77.12
257.289	76.12
257.521	83.12
257.754	77.12
257.987	69.12
258.22	80.12
258.452	93.12
258.685	73.12
258.918	75.12
259.151	85.12
259.383	79.12
259.616	64.12
259.849	78.12
260.081	79.12
260.314	76.12
260.547	81.12
260.779	82.12
261.012	72.12
261.244	85.12
261.477	93.12
261.71	64.12
261.942	74.12
262.175	63.12
262.407	87.12
262.64	82.12
262.872	88.12
263.105	74.12
263.337	82.12
263.57	81.12
263.802	75.12
264.035	79.12
264.267	79.12
264.499	81.12
264.732	88.12
264.964	98.12
265.197	83.12
265.429	84.12
265.661	63.12
265.894	83.12
266.126	81.12
266.358	81.12
266.591	81.12
266.823	81.12
267.055	78.12
267.287	79.12
267.52	81.12
267.752	79.12
267.984	87.12
268.216	91.12
268.448	75.12
268.681	78.12
268.913	95.12
269.145	82.12
269.377	73.12
269.609	81.12
269.841	83.12
270.073	67.12
270.306	83.12
270.538	73.12
270.77	67.12
271.002	73.12
271.234	81.12
271.466	71.12
271.698	77.12
271.93	73.12
272.162	79.12
272.394	91.12
272.626	79.12
272.858	61.12
273.09	84.12
273.322	89.12
273.553	81.12
273.785	85.12
274.017	71.12
274.249	73.12
274.481	77.12
274.713	78.12
274.945	87.12
275.176	72.12
275.408	97.12
275.64	78.12
275.872	93.12
276.104	85.12
276.335	98.12
276.567	94.12
276.799	70.12
277.031	81.12
277.262	82.12
277.494	85.12
277.726	70.12
277.957	91.12
278.189	77.12
278.421	77.12
278.652	73.12
278.884	84.12
279.115	85.12
279.347	78.12
279.579	78.12
279.81	87.12
280.042	76.12
280.273	78.12
280.505	85.12
280.736	81.12
280.968	77.12
281.199	80.12
281.431	84.12
281.662	78.12
281.894	81.12
282.125	66.12
282.356	63.12
282.588	78.12
282.819	76.12
283.051	74.12
283.282	82.12
283.513	74.12
283.745	67.12
283.976	84.12
284.207	94.12
284.439	83.12
284.67	89.12
284.901	78.12
285.132	84.12
285.364	81.12
285.595	93.12
285.826	82.12
286.057	94.12
286.288	73.12
286.52	71.12
286.751	71.12
286.982	77.12
287.213	73.12
287.444	84.12
287.675	68.12
287.906	87.12
288.138	62.12
288.369	82.12
288.6	79.12
288.831	76.12
289.062	90.12
289.293	75.12
289.524	80.12
289.755	82.12
289.986	87.12
290.217	89.12
290.448	83.12
290.679	69.12
290.91	80.12
291.141	83.12
291.371	93.12
291.602	88.12
291.833	97.12
292.064	82.12
292.295	73.12
292.526	81.12
292.757	70.12
292.987	79.12
293.218	82.12
293.449	86.12
293.68	83.12
293.91	83.12
294.141	82.12
294.372	87.12
294.603	79.12
294.833	89.12
295.064	84.12
295.295	84.12
295.525	86.12
295.756	94.12
295.987	83.12
296.217	75.12
296.448	85.12
296.679	87.12
296.909	85.12
297.14	84.12
297.37	86.12
297.601	80.12
297.831	83.12
298.062	76.12
298.292	85.12
298.523	79.12
298.753	85.12
298.984	76.12
299.214	78.12
299.445	83.12
299.675	83.12
299.905	85.12
300.136	73.12
300.366	81.12
300.597	90.12
300.827	73.12
301.057	81.12
301.288	81.12
301.518	85.12
301.748	73.12
301.979	97.12
302.209	82.12
302.439	82.12
302.669	85.12
302.9	90.12
303.13	93.12
303.36	87.12
303.59	91.12
303.82	79.12
304.051	79.12
304.281	73.12
304.511	87.12
304.741	85.12
304.971	86.12
305.201	91.12
305.431	83.12
305.661	89.12
305.891	78.12
306.121	101.12
306.352	80.12
306.582	88.12
306.812	77.12
307.042	73.12
307.272	82.12
307.502	90.12
307.731	87.12
307.961	73.12
308.191	73.12
308.421	83.12
308.651	86.12
308.881	77.12
309.111	71.12
309.341	89.12
309.571	89.12
309.8	83.12
310.03	89.12
310.26	94.12
310.49	89.12
310.72	81.12
310.949	84.12
311.179	78.12
311.409	86.12
311.639	79.12
311.868	77.12
312.098	70.12
312.328	77.12
312.557	89.12
312.787	89.12
313.017	85.12
313.246	85.12
313.476	82.12
313.706	77.12
313.935	78.12
314.165	76.12
314.394	84.12
314.624	90.12
314.853	84.12
315.083	82.12
315.312	83.12
315.542	90.12
315.771	93.12
316.001	87.12
316.23	93.12
316.46	80.12
316.689	77.12
316.919	75.12
317.148	94.12
317.377	89.12
317.607	77.12
317.836	92.12
318.065	93.12
318.295	82.12
318.524	95.12
318.753	69.12
318.983	76.12
319.212	77.12
319.441	79.12
319.67	93.12
319.9	65.12
320.129	74.12
320.358	80.12
320.587	80.12
320.816	80.12
321.046	78.12
321.275	93.12
321.504	76.12
321.733	80.12
321.962	84.12
322.191	84.12
322.42	82.12
322.649	85.12
322.878	84.12
323.108	80.12
323.337	82.12
323.566	73.12
323.795	79.12
324.024	74.12
324.253	94.12
324.482	91.12
324.71	76.12
324.939	78.12
325.168	78.12
325.397	85.12
325.626	93.12
325.855	87.12
326.084	86.12
326.313	73.12
326.542	73.12
326.77	77.12
326.999	92.12
327.228	84.12
327.457	83.12
327.686	72.12
327.914	83.12
328.143	76.12
328.372	77.12
328.6	80.12
328.829	80.12
329.058	80.12
329.287	94.12
329.515	87.12
329.744	84.12
329.972	77.12
330.201	77.12
330.43	85.12
330.658	79.12
330.887	76.12
331.115	83.12
331.344	67.12
331.572	72.12
331.801	94.12
332.03	91.12
332.258	94.12
332.486	72.12
332.715	80.12
332.943	73.12
333.172	96.12
333.4	82.12
333.629	86.12
333.857	80.12
334.085	95.12
334.314	86.12
334.542	83.12
334.771	79.12
334.999	71.12
335.227	78.12
335.455	84.12
335.684	93.12
335.912	85.12
336.14	84.12
336.369	87.12
336.597	81.12
336.825	92.12
337.053	89.12
337.281	81.12
337.51	82.12
337.738	93.12
337.966	85.12
338.194	84.12
338.422	70.12
338.65	74.12
338.878	67.12
339.106	79.12
339.334	73.12
339.562	93.12
339.79	83.12
340.018	80.12
340.246	89.12
340.474	83.12
340.702	99.12
340.93	79.12
341.158	75.12
341.386	85.12
341.614	83.12
341.842	73.12
342.07	62.12
342.298	90.12
342.526	77.12
342.754	83.12
342.981	89.12
343.209	82.12
343.437	93.12
343.665	70.12
343.893	92.12
344.12	81.12
344.348	80.12
344.576	81.12
344.804	80.12
345.031	85.12
345.259	73.12
345.487	74.12
345.714	93.12
345.942	90.12
346.17	74.12
346.397	89.12
346.625	86.12
346.853	80.12
347.08	73.12
347.308	85.12
347.535	88.12
347.763	88.12
347.99	82.12
348.218	95.12
348.445	95.12
348.673	82.12
348.9	65.12
349.128	85.12
349.355	85.12
349.583	70.12
349.81	87.12
350.037	85.12
350.265	79.12
350.492	97.12
350.72	81.12
350.947	86.12
351.174	89.12
351.402	86.12
351.629	83.12
351.856	83.12
352.083	72.12
352.311	87.12
352.538	94.12
352.765	70.12
352.992	75.12
353.22	87.12
353.447	70.12
353.674	87.12
353.901	77.12
354.128	77.12
354.355	87.12
354.583	85.12
354.81	89.12
355.037	79.12
355.264	78.12
355.491	91.12
355.718	78.12
355.945	81.12
356.172	76.12
356.399	98.12
356.626	73.12
356.853	88.12
357.08	79.12
357.307	70.12
357.534	74.12
357.761	92.12
357.988	76.12
358.215	100.12
358.441	65.12
358.668	86.12
358.895	89.12
359.122	80.12
359.349	85.12
359.576	89.12
359.802	78.12
360.029	77.12
360.256	70.12
360.483	74.12
360.709	68.12
360.936	66.12
361.163	89.12
361.39	77.12
361.616	94.12
361.843	81.12
362.07	87.12
362.296	89.12
362.523	79.12
362.749	78.12
362.976	81.12
363.203	83.12
363.429	70.12
363.656	91.12
363.882	92.12
364.109	85.12
364.335	85.12
364.562	80.12
364.788	68.12
365.015	76.12
365.241	73.12
365.468	65.12
365.694	74.12
365.92	85.12
366.147	78.12
366.373	86.12
366.599	78.12
366.826	87.12
367.052	90.12
367.278	71.12
367.505	93.12
367.731	86.12
367.957	95.12
368.184	78.12
368.41	61.12
368.636	74.12
368.862	73.12
369.089	84.12
369.315	78.12
369.541	98.12
369.767	78.12
369.993	80.12
370.219	72.12
370.445	89.12
370.672	76.12
370.898	77.12
371.124	86.12
371.35	78.12
371.576	84.12
371.802	81.12
372.028	61.12
372.254	79.12
372.48	96.12
372.706	84.12
372.932	81.12
373.158	79.12
373.384	85.12
373.61	73.12
373.835	87.12
374.061	83.12
374.287	78.12
374.513	81.12
374.739	78.12
374.965	76.12
375.191	85.12
375.416	68.12
375.642	85.12
375.868	78.12
376.094	86.12
376.319	75.12
376.545	65.12
376.771	73.12
376.997	73.12
377.222	88.12
377.448	81.12
377.674	78.12
377.899	81.12
378.125	80.12
378.35	90.12
378.576	90.12
378.802	85.12
379.027	73.12
379.253	89.12
379.478	75.12
379.704	93.12
379.929	78.12
380.155	72.12
380.38	82.12
380.606	86.12
380.831	90.12
381.057	91.12
381.282	91.12
381.507	79.12
381.733	75.12
381.958	70.12
382.184	77.12
382.409	85.12
382.634	78.12
382.86	84.12
383.085	84.12
383.31	81.12
383.535	73.12
383.761	82.12
383.986	93.12
384.211	87.12
384.436	89.12
384.662	81.12
384.887	84.12
385.112	86.12
385.337	74.12
385.562	68.12
385.787	73.12
386.013	71.12
386.238	79.12
386.463	84.12
386.688	89.12
386.913	82.12
387.138	80.12
387.363	94.12
387.588	86.12
387.813	85.12
388.038	87.12
388.263	86.12
388.488	73.12
388.713	77.12
388.938	77.12
389.163	76.12
389.387	79.12
389.612	76.12
389.837	98.12
390.062	87.12
390.287	89.12
390.512	75.12
390.736	93.12
390.961	83.12
391.186	73.12
391.411	68.12
391.636	88.12
391.86	79.12
392.085	67.12
392.31	81.12
392.534	78.12
392.759	82.12
392.984	83.12
393.208	93.12
393.433	82.12
393.658	84.12
393.882	56.12
394.107	80.12
394.331	79.12
394.556	79.12
394.78	80.12
395.005	95.12
395.229	82.12
395.454	78.12
395.678	75.12
395.903	102.12
396.127	91.12
396.352	77.12
396.576	87.12
396.801	75.12
397.025	82.12
397.249	82.12
397.474	82.12
397.698	79.12
397.922	89.12
398.147	83.12
398.371	81.12
398.595	76.12
398.82	81.12
399.044	71.12
399.268	91.12
399.492	83.12
399.717	75.12
399.941	78.12
400.165	85.12
400.389	65.12
400.613	84.12
400.837	86.12
401.062	74.12
401.286	81.12
401.51	77.12
401.734	91.12
401.958	83.12
402.182	69.12
402.406	69.12
402.63	76.12
402.854	82.12
403.078	78.12
403.302	84.12
403.526	77.12
403.75	84.12
403.974	68.12
404.198	88.12
404.422	81.12
404.645	73.12
404.869	75.12
405.093	84.12
405.317	78.12
405.541	83.12
405.765	80.12
405.988	76.12
406.212	77.12
406.436	69.12
406.66	79.12
406.883	71.12
407.107	76.12
407.331	87.12
407.555	78.12
407.778	88.12
408.002	79.12
408.226	81.12
408.449	76.12
408.673	86.12
408.896	84.12
409.12	71.12
409.344	87.12
409.567	93.12
409.791	89.12
410.014	85.12
410.238	85.12
410.461	79.12
410.685	83.12
410.908	79.12
411.132	65.12
411.355	69.12
411.578	84.12
411.802	79.12
412.025	81.12
412.249	59.12
412.472	73.12
412.695	69.12
412.919	93.12
413.142	80.12
413.365	77.12
413.589	83.12
413.812	82.12
414.035	90.12
414.258	81.12
414.482	66.12
414.705	67.12
414.928	78.12
415.151	87.12
415.374	85.12
415.597	85.12
415.821	77.12
416.044	87.12
416.267	82.12
416.49	74.12
416.713	87.12
416.936	77.12
417.159	68.12
417.382	94.12
417.605	73.12
417.828	76.12
418.051	73.12
418.274	79.12
418.497	65.12
418.72	82.12
418.943	76.12
419.166	93.12
419.389	92.12
419.611	86.12
419.834	89.12
420.057	99.12
420.28	68.12
420.503	78.12
420.726	88.12
420.948	69.12
421.171	93.12
421.394	81.12
421.617	70.12
421.839	83.12
422.062	85.12
422.285	71.12
422.507	76.12
422.73	91.12
422.953	81.12
423.175	80.12
423.398	86.12
423.621	91.12
423.843	83.12
424.066	75.12
424.288	82.12
424.511	63.12
424.733	63.12
424.956	92.12
425.178	80.12
425.401	72.12
425.623	75.12
425.846	62.12
426.068	71.12
426.291	76.12
426.513	75.12
426.735	81.12
426.958	79.12
427.18	81.12
427.402	76.12
427.625	90.12
427.847	74.12
428.069	71.12
428.292	84.12
428.514	85.12
428.736	85.12
428.958	75.12
429.181	68.12
429.403	73.12
429.625	83.12
429.847	73.12
430.069	85.12
430.292	83.12
430.514	73.12
430.736	89.12
430.958	83.12
431.18	91.12
431.402	79.12
431.624	87.12
431.846	73.12
432.068	85.12
432.29	82.12
432.512	73.12
432.734	97.12
432.956	94.12
433.178	81.12
433.4	78.12
433.622	73.12
433.844	90.12
434.066	76.12
434.287	81.12
434.509	70.12
434.731	79.12
434.953	69.12
435.175	85.12
435.397	68.12
435.618	82.12
435.84	69.12
436.062	71.12
436.284	84.12
436.505	67.12
436.727	83.12
436.949	79.12
437.17	90.12
437.392	83.12
437.614	77.12
437.835	76.12
438.057	77.12
438.278	78.12
438.5	77.12
438.721	79.12
438.943	69.12
439.165	71.12
439.386	82.12
439.608	69.12
439.829	73.12
440.05	77.12
440.272	62.12
440.493	81.12
440.715	73.12
440.936	67.12
441.158	69.12
441.379	63.12
441.6	86.12
441.822	90.12
442.043	81.12
442.264	79.12
442.486	98.12
442.707	85.12
442.928	81.12
443.149	63.12
443.371	93.12
443.592	71.12
443.813	78.12
444.034	70.12
444.255	67.12
444.476	87.12
444.698	81.12
444.919	77.12
445.14	155.12
445.361	102.12
445.582	83.12
445.803	72.12
446.024	68.12
446.245	77.12
446.466	78.12
446.687	81.12
446.908	70.12
447.129	83.12
447.35	77.12
447.571	76.12
447.792	73.12
448.013	77.12
448.234	67.12
448.455	69.12
448.675	74.12
448.896	75.12
449.117	91.12
449.338	70.12
449.559	79.12
449.779	92.12
450	80.12
450.221	78.12
450.442	78.12
450.662	76.12
450.883	72.12
451.104	81.12
451.324	84.12
451.545	77.12
451.766	71.12
451.986	73.12
452.207	83.12
452.428	73.12
452.648	83.12
452.869	84.12
453.089	78.12
453.31	77.12
453.53	76.12
453.751	78.12
453.971	77.12
454.192	84.12
454.412	91.12
454.633	91.12
454.853	99.12
455.073	76.12
455.294	75.12
455.514	67.12
455.734	79.12
455.955	73.12
456.175	82.12
456.395	70.12
456.616	83.12
456.836	69.12
457.056	79.12
457.276	73.12
457.497	60.12
457.717	69.12
457.937	74.12
458.157	69.12
458.377	84.12
458.598	76.12
458.818	92.12
459.038	74.12
459.258	70.12
459.478	73.12
459.698	79.12
459.918	91.12
460.138	65.12
460.358	72.12
460.578	87.12
460.798	64.12
461.018	70.12
461.238	82.12
461.458	74.12
461.678	71.12
461.898	66.12
462.118	88.12
462.338	79.12
462.558	84.12
462.777	66.12
462.997	63.12
463.217	67.12
463.437	68.12
463.657	80.12
463.876	78.12
464.096	81.12
464.316	72.12
464.536	69.12
464.755	83.12
464.975	81.12
465.195	78.12
465.414	80.12
465.634	71.12
465.854	79.12
466.073	74.12
466.293	63.12
466.512	93.12
466.732	77.12
466.951	70.12
467.171	77.12
467.391	78.12
467.61	75.12
467.829	79.12
468.049	66.12
468.268	81.12
468.488	68.12
468.707	82.12
468.927	79.12
469.146	75.12
469.365	88.12
469.585	75.12
469.804	82.12
470.023	77.12
470.243	74.12
470.462	76.12
470.681	86.12
470.901	74.12
471.12	85.12
471.339	83.12
471.558	86.12
471.777	91.12
471.997	90.12
472.216	83.12
472.435	78.12
472.654	87.12
472.873	69.12
473.092	82.12
473.311	86.12
473.53	71.12
473.749	87.12
473.968	69.12
474.187	91.12
474.406	78.12
474.625	97.12
474.844	71.12
475.063	75.12
475.282	81.12
475.501	75.12
475.72	73.12
475.939	93.12
476.158	82.12
476.377	69.12
476.596	86.12
476.814	66.12
477.033	79.12
477.252	80.12
477.471	68.12
477.69	89.12
477.908	74.12
478.127	103.12
478.346	71.12
478.564	70.12
478.783	71.12
479.002	74.12
479.22	89.12
479.439	83.12
479.658	74.12
479.876	61.12
480.095	71.12
480.313	90.12
480.532	83.12
480.751	75.12
480.969	78.12
481.188	78.12
481.406	89.12
481.624	85.12
481.843	97.12
482.061	74.12
482.28	84.12
482.498	94.12
482.717	62.12
482.935	74.12
483.153	78.12
483.372	92.12
483.59	84.12
483.808	83.12
484.027	81.12
484.245	78.12
484.463	82.12
484.681	71.12
484.9	70.12
485.118	84.12
485.336	80.12
485.554	84.12
485.772	69.12
485.99	96.12
486.209	82.12
486.427	75.12
486.645	79.12
486.863	90.12
487.081	84.12
487.299	100.12
487.517	97.12
487.735	92.12
487.953	69.12
488.171	74.12
488.389	74.12
488.607	74.12
488.825	79.12
489.043	89.12
489.261	83.12
489.479	75.12
489.696	96.12
489.914	91.12
490.132	69.12
490.35	77.12
490.568	77.12
490.786	98.12
491.003	81.12
491.221	79.12
491.439	79.12
491.657	74.12
491.874	70.12
492.092	86.12
492.31	82.12
492.527	67.12
492.745	70.12
492.963	74.12
493.18	72.12
493.398	75.12
493.615	79.12
493.833	76.12
494.05	74.12
494.268	68.12
494.485	86.12
494.703	90.12
494.92	89.12
495.138	65.12
495.355	77.12
495.573	85.12
495.79	66.12
496.008	74.12
496.225	77.12
496.442	82.12
496.66	86.12
496.877	75.12
497.094	80.12
497.312	68.12
497.529	69.12
497.746	79.12
497.963	71.12
498.181	76.12
498.398	81.12
498.615	82.12
498.832	78.12
499.049	78.12
499.267	91.12
499.484	55.12
499.701	80.12
499.918	89.12
500.135	79.12
500.352	70.12
500.569	66.12
500.786	76.12
501.003	85.12
501.22	101.12
501.437	87.12
501.654	72.12
501.871	82.12
502.088	77.12
502.305	91.12
502.522	69.12
502.739	79.12
502.956	78.12
503.172	83.12
503.389	78.12
503.606	89.12
503.823	76.12
504.04	75.12
504.256	78.12
504.473	83.12
504.69	78.12
504.907	98.12
505.123	82.12
505.34	92.12
505.557	83.12
505.773	80.12
505.99	87.12
506.207	81.12
506.423	86.12
506.64	83.12
506.856	87.12
507.073	86.12
507.289	76.12
507.506	89.12
507.722	87.12
507.939	67.12
508.155	90.12
508.372	77.12
508.588	85.12
508.805	80.12
509.021	78.12
509.238	81.12
509.454	80.12
509.67	75.12
509.887	70.12
510.103	83.12
510.319	74.12
510.536	80.12
510.752	85.12
510.968	67.12
511.184	71.12
511.401	80.12
511.617	79.12
511.833	81.12
512.049	92.12
512.265	82.12
512.481	71.12
512.698	96.12
512.914	91.12
513.13	85.12
513.346	70.12
513.562	77.12
513.778	81.12
513.994	81.12
514.21	79.12
514.426	93.12
514.642	95.12
514.858	69.12
515.074	86.12
515.29	63.12
515.506	80.12
515.721	87.12
515.937	84.12
516.153	77.12
516.369	76.12
516.585	81.12
516.801	81.12
517.016	68.12
517.232	68.12
517.448	92.12
517.664	78.12
517.879	79.12
518.095	77.12
518.311	65.12
518.527	79.12
518.742	85.12
518.958	69.12
519.173	89.12
519.389	87.12
519.605	96.12
519.82	75.12
520.036	75.12
520.251	69.12
520.467	75.12
520.682	71.12
520.898	70.12
521.113	79.12
521.329	81.12
521.544	77.12
521.76	86.12
521.975	78.12
522.19	77.12
522.406	78.12
522.621	76.12
522.836	79.12
523.052	82.12
523.267	84.12
523.482	85.12
523.698	71.12
523.913	80.12
524.128	81.12
524.343	79.12
524.559	82.12
524.774	81.12
524.989	83.12
525.204	81.12
525.419	80.12
525.634	72.12
525.849	86.12
526.064	90.12
526.28	71.12
526.495	77.12
526.71	92.12
526.925	87.12
527.14	93.12
527.355	82.12
527.57	76.12
527.785	81.12
527.999	77.12
528.214	92.12
528.429	90.12
528.644	74.12
528.859	93.12
529.074	92.12
529.289	85.12
529.503	78.12
529.718	83.12
529.933	79.12
530.148	80.12
530.363	52.12
530.577	86.12
530.792	69.12
531.007	82.12
531.221	81.12
531.436	89.12
531.651	79.12
531.865	89.12
532.08	83.12
532.295	83.12
532.509	92.12
532.724	81.12
532.938	91.12
533.153	89.12
533.367	90.12
533.582	81.12
533.796	79.12
534.011	67.12
534.225	71.12
534.44	69.12
534.654	76.12
534.868	93.12
535.083	96.12
535.297	83.12
535.511	81.12
535.726	82.12
535.94	85.12
536.154	77.12
536.369	80.12
536.583	68.12
536.797	82.12
537.011	86.12
537.225	79.12
537.44	85.12
537.654	60.12
537.868	73.12
538.082	88.12
538.296	82.12
538.51	90.12
538.724	78.12
538.938	80.12
539.153	82.12
539.367	94.12
539.581	83.12
539.795	74.12
540.009	67.12
540.222	83.12
540.436	82.12
540.65	86.12
540.864	68.12
541.078	95.12
541.292	62.12
541.506	71.12
541.72	72.12
541.934	77.12
542.147	101.12
542.361	72.12
542.575	79.12
542.789	73.12
543.002	86.12
543.216	89.12
543.43	80.12
543.644	80.12
543.857	86.12
544.071	83.12
544.285	77.12
544.498	63.12
544.712	81.12
544.925	101.12
545.139	69.12
545.352	79.12
545.566	100.12
545.779	79.12
545.993	86.12
546.206	73.12
546.42	77.12
546.633	86.12
546.847	64.12
547.06	79.12
547.274	85.12
547.487	85.12
547.7	78.12
547.914	79.12
548.127	81.12
548.34	81.12
548.554	94.12
548.767	75.12
548.98	75.12
549.193	81.12
549.407	101.12
549.62	86.12
549.833	85.12
550.046	70.12
550.259	83.12
550.473	79.12
550.686	95.12
550.899	79.12
551.112	80.12
551.325	79.12
551.538	84.12
551.751	77.12
551.964	79.12
552.177	94.12
552.39	86.12
552.603	79.12
552.816	70.12
553.029	81.12
553.242	77.12
553.455	77.12
553.667	85.12
553.88	85.12
554.093	83.12
554.306	72.12
554.519	82.12
554.732	83.12
554.944	84.12
555.157	69.12
555.37	89.12
555.583	66.12
555.795	73.12
556.008	73.12
556.221	79.12
556.433	76.12
556.646	97.12
556.859	90.12
557.071	70.12
557.284	85.12
557.496	106.12
557.709	82.12
557.921	75.12
558.134	85.12
558.346	84.12
558.559	65.12
558.771	83.12
558.984	81.12
559.196	89.12
559.409	89.12
559.621	74.12
559.833	93.12
560.046	81.12
560.258	93.12
560.47	83.12
560.683	68.12
560.895	91.12
561.107	78.12
561.32	82.12
561.532	76.12
561.744	87.12
561.956	75.12
562.168	86.12
562.381	68.12
562.593	87.12
562.805	86.12
563.017	77.12
563.229	75.12
563.441	70.12
563.653	77.12
563.865	77.12
564.077	77.12
564.289	94.12
564.501	93.12
564.713	73.12
564.925	77.12
565.137	82.12
565.349	91.12
565.561	79.12
565.773	75.12
565.985	82.12
566.197	89.12
566.408	73.12
566.62	78.12
566.832	84.12
567.044	76.12
567.255	94.12
567.467	74.12
567.679	90.12
567.891	87.12
568.102	83.12
568.314	75.12
568.526	89.12
568.737	95.12
568.949	89.12
569.161	93.12
569.372	82.12
569.584	75.12
569.795	82.12
570.007	79.12
570.218	92.12
570.43	78.12
570.641	83.12
570.853	77.12
571.064	79.12
571.276	76.12
571.487	70.12
571.698	73.12
571.91	67.12
572.121	70.12
572.333	61.12
572.544	72.12
572.755	86.12
572.966	84.12
573.178	71.12
573.389	93.12
573.6	81.12
573.811	93.12
574.023	76.12
574.234	75.12
574.445	89.12
574.656	68.12
574.867	77.12
575.078	82.12
575.289	67.12
575.501	70.12
575.712	71.12
575.923	68.12
576.134	85.12
576.345	87.12
576.556	80.12
576.767	86.12
576.978	92.12
577.188	73.12
577.399	85.12
577.61	93.12
577.821	80.12
578.032	83.12
578.243	89.12
578.454	84.12
578.665	88.12
578.875	60.12
579.086	79.12
579.297	81.12
579.508	81.12
579.718	73.12
579.929	90.12
580.14	93.12
580.35	84.12
580.561	91.12
580.772	80.12
580.982	81.12
581.193	81.12
581.403	85.12
581.614	81.12
581.825	83.12
582.035	90.12
582.246	87.12
582.456	66.12
582.667	86.12
582.877	83.12
583.087	61.12
583.298	89.12
583.508	92.12
583.719	86.12
583.929	94.12
584.139	96.12
584.35	96.12
584.56	81.12
584.77	89.12
584.981	82.12
585.191	92.12
585.401	74.12
585.611	91.12
585.821	80.12
586.032	72.12
586.242	86.12
586.452	87.12
586.662	77.12
586.872	93.12
587.082	85.12
587.292	79.12
587.502	75.12
587.713	78.12
587.923	84.12
588.133	90.12
588.343	72.12
588.553	77.12
588.762	94.12
588.972	116.12
589.182	208.12
589.392	144.12
589.602	134.12
589.812	178.12
590.022	130.12
590.232	96.12
590.441	86.12
590.651	91.12
590.861	90.12
591.071	95.12
591.281	91.12
591.49	87.12
591.7	98.12
591.91	69.12
592.119	91.12
592.329	82.12
592.539	80.12
592.748	77.12
592.958	91.12
593.167	75.12
593.377	95.12
593.587	92.12
593.796	90.12
594.006	90.12
594.215	77.12
594.424	80.12
594.634	86.12
594.843	84.12
595.053	85.12
595.262	98.12
595.472	78.12
595.681	93.12
595.89	83.12
596.1	77.12
596.309	84.12
596.518	91.12
596.727	91.12
596.937	69.12
597.146	95.12
597.355	77.12
597.564	83.12
597.774	85.12
597.983	90.12
598.192	87.12
598.401	84.12
598.61	87.12
598.819	92.12
599.028	92.12
599.237	77.12
599.446	77.12
599.655	76.12
599.864	79.12
600.073	81.12
600.282	91.12
600.491	75.12
600.7	69.12
600.909	83.12
601.118	89.12
601.327	98.12
601.536	96.12
601.745	74.12
601.953	81.12
602.162	82.12
602.371	86.12
602.58	76.12
602.789	78.12
602.997	70.12
603.206	75.12
603.415	93.12
603.623	74.12
603.832	78.12
604.041	81.12
604.249	85.12
604.458	80.12
604.666	85.12
604.875	73.12
605.084	83.12
605.292	78.12
605.501	78.12
605.709	78.12
605.918	79.12
606.126	82.12
606.334	78.12
606.543	86.12
606.751	91.12
606.96	68.12
607.168	80.12
607.376	83.12
607.585	89.12
607.793	83.12
608.001	83.12
608.21	74.12
608.418	85.12
608.626	86.12
608.834	65.12
609.043	91.12
609.251	84.12
609.459	81.12
609.667	78.12
609.875	75.12
610.083	80.12
610.291	85.12
610.499	91.12
610.707	83.12
610.916	85.12
611.124	72.12
611.332	77.12
611.54	85.12
611.748	82.12
611.955	75.12
612.163	88.12
612.371	73.12
612.579	81.12
612.787	81.12
612.995	73.12
613.203	75.12
613.411	87.12
613.618	77.12
613.826	83.12
614.034	85.12
614.242	93.12
614.449	77.12
614.657	75.12
614.865	98.12
615.072	82.12
615.28	92.12
615.488	67.12
615.695	81.12
615.903	68.12
616.111	74.12
616.318	102.12
616.526	94.12
616.733	83.12
616.941	90.12
617.148	81.12
617.356	73.12
617.563	75.12
617.771	93.12
617.978	66.12
618.185	76.12
618.393	80.12
618.6	84.12
618.807	79.12
619.015	66.12
619.222	85.12
619.429	80.12
619.637	68.12
619.844	79.12
620.051	78.12
620.258	89.12
620.466	84.12
620.673	80.12
620.88	89.12
621.087	71.12
621.294	93.12
621.501	70.12
621.708	81.12
621.915	73.12
622.122	83.12
622.329	81.12
622.536	67.12
622.743	73.12
622.95	73.12
623.157	66.12
623.364	81.12
623.571	82.12
623.778	89.12
623.985	95.12
624.192	80.12
624.399	97.12
624.606	77.12
624.812	85.12
625.019	74.12
625.226	71.12
625.433	87.12
625.639	82.12
625.846	86.12
626.053	74.12
626.259	73.12
626.466	101.12
626.673	90.12
626.879	76.12
627.086	75.12
627.293	85.12
627.499	83.12
627.706	74.12
627.912	76.12
628.119	78.12
628.325	82.12
628.532	82.12
628.738	77.12
628.945	76.12
629.151	76.12
629.357	69.12
629.564	85.12
629.77	86.12
629.976	87.12
630.183	75.12
630.389	84.12
630.595	82.12
630.802	83.12
631.008	84.12
631.214	70.12
631.42	87.12
631.627	108.12
631.833	83.12
632.039	83.12
632.245	75.12
632.451	78.12
632.657	84.12
632.863	94.12
633.069	96.12
633.275	82.12
633.481	70.12
633.688	82.12
633.893	83.12
634.099	77.12
634.305	77.12
634.511	84.12
634.717	80.12
634.923	80.12
635.129	84.12
635.335	77.12
635.541	79.12
635.747	74.12
635.952	81.12
636.158	89.12
636.364	92.12
636.57	65.12
636.775	80.12
636.981	77.12
637.187	78.12
637.392	80.12
637.598	81.12
637.804	68.12
638.009	80.12
638.215	75.12
638.421	78.12
638.626	75.12
638.832	75.12
639.037	102.12
639.243	77.12
639.448	97.12
639.654	81.12
639.859	87.12
640.065	87.12
640.27	87.12
640.475	92.12
640.681	82.12
640.886	78.12
641.091	77.12
641.297	76.12
641.502	79.12
641.707	71.12
641.913	85.12
642.118	86.12
642.323	89.12
642.528	95.12
642.733	76.12
642.939	67.12
643.144	87.12
643.349	86.12
643.554	82.12
643.759	70.12
643.964	77.12
644.169	93.12
644.374	77.12
644.579	80.12
644.784	79.12
644.989	59.12
645.194	69.12
645.399	77.12
645.604	89.12
645.809	75.12
646.014	76.12
646.219	70.12
646.423	83.12
646.628	74.12
646.833	84.12
647.038	82.12
647.243	77.12
647.447	68.12
647.652	77.12
647.857	75.12
648.062	83.12
648.266	87.12
648.471	74.12
648.676	75.12
648.88	63.12
649.085	76.12
649.289	85.12
649.494	80.12
649.698	70.12
649.903	76.12
650.107	91.12
650.312	75.12
650.516	77.12
650.721	66.12
650.925	91.12
651.13	79.12
651.334	77.12
651.539	94.12
651.743	87.12
651.947	87.12
652.152	81.12
652.356	80.12
652.56	93.12
652.764	95.12
652.969	87.12
653.173	79.12
653.377	72.12
653.581	82.12
653.785	74.12
653.99	78.12
654.194	76.12
654.398	101.12
654.602	73.12
654.806	86.12
655.01	102.12
655.214	84.12
655.418	87.12
655.622	77.12
655.826	87.12
656.03	73.12
656.234	91.12
656.438	86.12
656.642	75.12
656.846	75.12
657.049	78.12
657.253	85.12
657.457	75.12
657.661	83.12
657.865	83.12
658.068	86.12
658.272	83.12
658.476	74.12
658.68	82.12
658.883	83.12
659.087	81.12
659.291	83.12
659.494	81.12
659.698	68.12
659.901	65.12
660.105	83.12
660.309	77.12
660.512	79.12
660.716	74.12
660.919	72.12
661.123	87.12
661.326	87.12
661.53	83.12
661.733	90.12
661.936	69.12
662.14	85.12
662.343	90.12
662.546	86.12
662.75	83.12
662.953	81.12
663.156	77.12
663.36	90.12
663.563	87.12
663.766	87.12
663.969	97.12
664.173	87.12
664.376	84.12
664.579	69.12
664.782	79.12
664.985	86.12
665.188	75.12
665.391	80.12
665.594	78.12
665.797	91.12
666	89.12
666.203	77.12
666.406	81.12
666.609	79.12
666.812	87.12
667.015	80.12
667.218	78.12
667.421	73.12
667.624	78.12
667.827	89.12
668.03	84.12
668.232	67.12
668.435	85.12
668.638	84.12
668.841	76.12
669.043	86.12
669.246	79.12
669.449	68.12
669.651	89.12
669.854	79.12
670.057	68.12
670.259	82.12
670.462	81.12
670.665	68.12
670.867	85.12
671.07	83.12
671.272	86.12
671.475	86.12
671.677	84.12
671.88	69.12
672.082	89.12
672.284	78.12
672.487	81.12
672.689	84.12
672.892	78.12
