Data from Soil_75_4_HRD10591_00018.txt Node
Date: Thu Feb 19 11:38:22 EST 2026
User: Yrep
Spectrometer: HR+D1059
Trigger mode: 1
Integration Time (sec): 1.000000E-1
Scans to average: 1
Electric dark correction enabled: true
Nonlinearity correction enabled: false
Boxcar width: 0
XAxis mode: Wavelengths
Number of Pixels in Spectrum: 2048
>>>>>Begin Spectral Data<<<<<
223.165	1
223.4	1
223.635	1
223.869	-19
224.104	-28
224.338	-10
224.573	-18
224.808	-18
225.042	2
225.277	-9
225.511	1
225.746	6
225.98	5
226.215	5
226.449	18
226.683	18
226.918	20
227.152	26
227.387	33
227.621	41
227.856	33
228.09	33
228.324	52
228.559	48
228.793	55
229.027	52
229.262	66
229.496	55
229.73	57
229.964	77
230.199	66
230.433	59
230.667	69
230.901	69
231.136	72
231.37	67
231.604	73
231.838	79
232.072	74
232.306	68
232.541	69
232.775	80
233.009	80
233.243	92
233.477	73
233.711	62
233.945	91
234.179	74
234.413	75
234.647	87
234.881	77
235.115	65
235.349	77
235.583	80
235.817	77
236.051	84
236.285	85
236.519	68
236.753	73
236.987	69
237.221	73
237.455	82
237.689	65
237.922	70
238.156	73
238.39	75
238.624	81
238.858	75
239.091	77
239.325	59
239.559	73
239.793	67
240.027	78
240.26	75
240.494	76
240.728	83
240.961	73
241.195	77
241.429	77
241.662	71
241.896	70
242.13	65
242.363	79
242.597	66
242.83	69
243.064	56
243.298	70
243.531	79
243.765	75
243.998	67
244.232	74
244.465	67
244.699	65
244.932	77
245.166	83
245.399	69
245.633	61
245.866	71
246.099	66
246.333	88
246.566	71
246.8	78
247.033	68
247.266	73
247.5	62
247.733	88
247.966	75
248.2	84
248.433	77
248.666	67
248.899	68
249.133	86
249.366	73
249.599	79
249.832	80
250.066	68
250.299	84
250.532	67
250.765	54
250.998	67
251.231	84
251.465	79
251.698	64
251.931	83
252.164	80
252.397	73
252.63	77
252.863	63
253.096	64
253.329	60
253.562	68
253.795	81
254.028	81
254.261	77
254.494	85
254.727	75
254.96	80
255.193	68
255.426	77
255.659	62
255.892	76
256.124	74
256.357	90
256.59	72
256.823	61
257.056	70
257.289	61
257.521	85
257.754	57
257.987	78
258.22	67
258.452	58
258.685	71
258.918	84
259.151	71
259.383	84
259.616	69
259.849	73
260.081	84
260.314	91
260.547	80
260.779	69
261.012	73
261.244	83
261.477	79
261.71	72
261.942	72
262.175	74
262.407	71
262.64	71
262.872	75
263.105	75
263.337	77
263.57	62
263.802	71
264.035	77
264.267	64
264.499	76
264.732	63
264.964	73
265.197	71
265.429	65
265.661	77
265.894	77
266.126	81
266.358	76
266.591	77
266.823	72
267.055	70
267.287	66
267.52	81
267.752	83
267.984	74
268.216	77
268.448	79
268.681	73
268.913	75
269.145	78
269.377	85
269.609	72
269.841	80
270.073	82
270.306	77
270.538	58
270.77	63
271.002	60
271.234	84
271.466	90
271.698	85
271.93	70
272.162	73
272.394	79
272.626	72
272.858	66
273.09	77
273.322	77
273.553	78
273.785	92
274.017	85
274.249	71
274.481	85
274.713	67
274.945	68
275.176	71
275.408	88
275.64	76
275.872	75
276.104	81
276.335	69
276.567	83
276.799	66
277.031	76
277.262	89
277.494	79
277.726	82
277.957	69
278.189	67
278.421	84
278.652	81
278.884	78
279.115	77
279.347	80
279.579	57
279.81	69
280.042	84
280.273	68
280.505	71
280.736	70
280.968	67
281.199	80
281.431	71
281.662	68
281.894	91
282.125	85
282.356	80
282.588	77
282.819	80
283.051	69
283.282	79
283.513	70
283.745	76
283.976	87
284.207	67
284.439	87
284.67	83
284.901	73
285.132	75
285.364	95
285.595	79
285.826	75
286.057	77
286.288	87
286.52	84
286.751	83
286.982	66
287.213	73
287.444	73
287.675	75
287.906	73
288.138	81
288.369	70
288.6	83
288.831	75
289.062	74
289.293	77
289.524	68
289.755	67
289.986	77
290.217	77
290.448	90
290.679	81
290.91	75
291.141	68
291.371	77
291.602	70
291.833	78
292.064	87
292.295	73
292.526	86
292.757	77
292.987	73
293.218	76
293.449	73
293.68	80
293.91	76
294.141	86
294.372	81
294.603	59
294.833	73
295.064	85
295.295	75
295.525	77
295.756	73
295.987	74
296.217	90
296.448	82
296.679	82
296.909	79
297.14	77
297.37	87
297.601	94
297.831	73
298.062	80
298.292	74
298.523	75
298.753	83
298.984	83
299.214	85
299.445	72
299.675	90
299.905	83
300.136	83
300.366	79
300.597	91
300.827	79
301.057	73
301.288	77
301.518	74
301.748	84
301.979	76
302.209	71
302.439	83
302.669	77
302.9	85
303.13	65
303.36	71
303.59	65
303.82	88
304.051	92
304.281	77
304.511	79
304.741	77
304.971	78
305.201	79
305.431	85
305.661	81
305.891	65
306.121	78
306.352	65
306.582	90
306.812	81
307.042	83
307.272	73
307.502	72
307.731	68
307.961	76
308.191	88
308.421	81
308.651	79
308.881	62
309.111	71
309.341	77
309.571	85
309.8	74
310.03	79
310.26	72
310.49	79
310.72	73
310.949	67
311.179	87
311.409	76
311.639	73
311.868	78
312.098	72
312.328	85
312.557	83
312.787	85
313.017	86
313.246	88
313.476	65
313.706	81
313.935	69
314.165	81
314.394	78
314.624	79
314.853	86
315.083	77
315.312	87
315.542	70
315.771	83
316.001	62
316.23	72
316.46	81
316.689	81
316.919	81
317.148	67
317.377	79
317.607	72
317.836	73
318.065	81
318.295	71
318.524	75
318.753	87
318.983	76
319.212	87
319.441	66
319.67	75
319.9	83
320.129	72
320.358	94
320.587	80
320.816	67
321.046	75
321.275	88
321.504	77
321.733	81
321.962	83
322.191	86
322.42	71
322.649	74
322.878	83
323.108	83
323.337	80
323.566	70
323.795	80
324.024	86
324.253	82
324.482	80
324.71	78
324.939	68
325.168	76
325.397	88
325.626	82
325.855	103
326.084	84
326.313	71
326.542	73
326.77	79
326.999	79
327.228	76
327.457	95
327.686	75
327.914	82
328.143	76
328.372	81
328.6	76
328.829	81
329.058	73
329.287	86
329.515	85
329.744	83
329.972	76
330.201	94
330.43	77
330.658	79
330.887	84
331.115	73
331.344	67
331.572	66
331.801	86
332.03	74
332.258	79
332.486	73
332.715	72
332.943	77
333.172	70
333.4	78
333.629	75
333.857	77
334.085	84
334.314	82
334.542	82
334.771	91
334.999	59
335.227	74
335.455	98
335.684	91
335.912	69
336.14	81
336.369	81
336.597	93
336.825	77
337.053	77
337.281	74
337.51	80
337.738	78
337.966	86
338.194	79
338.422	75
338.65	83
338.878	76
339.106	79
339.334	87
339.562	82
339.79	78
340.018	57
340.246	75
340.474	85
340.702	86
340.93	81
341.158	77
341.386	83
341.614	91
341.842	83
342.07	70
342.298	79
342.526	62
342.754	81
342.981	84
343.209	83
343.437	88
343.665	71
343.893	77
344.12	72
344.348	80
344.576	85
344.804	70
345.031	93
345.259	68
345.487	87
345.714	64
345.942	73
346.17	78
346.397	79
346.625	77
346.853	70
347.08	90
347.308	84
347.535	91
347.763	68
347.99	60
348.218	81
348.445	75
348.673	88
348.9	78
349.128	71
349.355	66
349.583	79
349.81	67
350.037	71
350.265	83
350.492	81
350.72	76
350.947	84
351.174	69
351.402	76
351.629	79
351.856	69
352.083	79
352.311	73
352.538	73
352.765	68
352.992	90
353.22	79
353.447	77
353.674	83
353.901	84
354.128	68
354.355	70
354.583	77
354.81	89
355.037	83
355.264	73
355.491	77
355.718	78
355.945	73
356.172	71
356.399	87
356.626	59
356.853	82
357.08	69
357.307	84
357.534	80
357.761	79
357.988	84
358.215	71
358.441	77
358.668	71
358.895	89
359.122	79
359.349	84
359.576	86
359.802	76
360.029	69
360.256	78
360.483	83
360.709	74
360.936	90
361.163	77
361.39	79
361.616	77
361.843	95
362.07	81
362.296	77
362.523	67
362.749	79
362.976	82
363.203	87
363.429	70
363.656	77
363.882	63
364.109	69
364.335	96
364.562	85
364.788	81
365.015	80
365.241	85
365.468	73
365.694	73
365.92	80
366.147	78
366.373	81
366.599	69
366.826	75
367.052	64
367.278	79
367.505	72
367.731	81
367.957	81
368.184	68
368.41	74
368.636	81
368.862	66
369.089	73
369.315	98
369.541	84
369.767	73
369.993	78
370.219	85
370.445	79
370.672	70
370.898	79
371.124	79
371.35	74
371.576	76
371.802	82
372.028	87
372.254	60
372.48	68
372.706	74
372.932	76
373.158	76
373.384	68
373.61	78
373.835	66
374.061	78
374.287	93
374.513	82
374.739	81
374.965	82
375.191	79
375.416	73
375.642	89
375.868	81
376.094	80
376.319	94
376.545	90
376.771	76
376.997	70
377.222	80
377.448	65
377.674	59
377.899	86
378.125	85
378.35	93
378.576	82
378.802	81
379.027	81
379.253	81
379.478	73
379.704	73
379.929	91
380.155	76
380.38	76
380.606	74
380.831	81
381.057	90
381.282	83
381.507	74
381.733	83
381.958	77
382.184	85
382.409	84
382.634	76
382.86	82
383.085	95
383.31	89
383.535	85
383.761	97
383.986	99
384.211	79
384.436	80
384.662	75
384.887	90
385.112	81
385.337	73
385.562	79
385.787	71
386.013	78
386.238	87
386.463	78
386.688	87
386.913	90
387.138	73
387.363	95
387.588	84
387.813	67
388.038	53
388.263	85
388.488	73
388.713	69
388.938	82
389.163	85
389.387	71
389.612	81
389.837	84
390.062	82
390.287	73
390.512	77
390.736	81
390.961	84
391.186	98
391.411	81
391.636	91
391.86	87
392.085	68
392.31	71
392.534	66
392.759	77
392.984	97
393.208	113
393.433	136
393.658	111
393.882	90
394.107	89
394.331	79
394.556	74
394.78	73
395.005	74
395.229	77
395.454	88
395.678	88
395.903	93
396.127	89
396.352	89
396.576	98
396.801	90
397.025	102
397.249	88
397.474	88
397.698	88
397.922	68
398.147	69
398.371	65
398.595	68
398.82	74
399.044	69
399.268	73
399.492	86
399.717	84
399.941	77
400.165	79
400.389	77
400.613	77
400.837	85
401.062	73
401.286	83
401.51	68
401.734	77
401.958	89
402.182	81
402.406	81
402.63	65
402.854	74
403.078	60
403.302	64
403.526	81
403.75	70
403.974	71
404.198	76
404.422	85
404.645	85
404.869	86
405.093	88
405.317	77
405.541	63
405.765	80
405.988	67
406.212	85
406.436	88
406.66	77
406.883	85
407.107	66
407.331	77
407.555	77
407.778	83
408.002	72
408.226	68
408.449	66
408.673	79
408.896	77
409.12	83
409.344	79
409.567	74
409.791	81
410.014	81
410.238	78
410.461	77
410.685	69
410.908	76
411.132	83
411.355	75
411.578	64
411.802	66
412.025	67
412.249	85
412.472	73
412.695	73
412.919	70
413.142	71
413.365	73
413.589	72
413.812	70
414.035	85
414.258	85
414.482	72
414.705	83
414.928	77
415.151	81
415.374	69
415.597	66
415.821	70
416.044	74
416.267	79
416.49	77
416.713	85
416.936	70
417.159	62
417.382	69
417.605	79
417.828	72
418.051	71
418.274	69
418.497	77
418.72	78
418.943	86
419.166	69
419.389	82
419.611	81
419.834	85
420.057	79
420.28	73
420.503	76
420.726	80
420.948	70
421.171	78
421.394	84
421.617	80
421.839	77
422.062	82
422.285	91
422.507	102
422.73	110
422.953	118
423.175	88
423.398	71
423.621	86
423.843	72
424.066	82
424.288	79
424.511	72
424.733	61
424.956	73
425.178	77
425.401	93
425.623	67
425.846	73
426.068	87
426.291	76
426.513	75
426.735	75
426.958	82
427.18	71
427.402	85
427.625	66
427.847	77
428.069	77
428.292	85
428.514	92
428.736	86
428.958	84
429.181	86
429.403	70
429.625	70
429.847	76
430.069	91
430.292	97
430.514	75
430.736	75
430.958	82
431.18	72
431.402	85
431.624	88
431.846	94
432.068	73
432.29	85
432.512	85
432.734	67
432.956	82
433.178	85
433.4	77
433.622	85
433.844	82
434.066	81
434.287	82
434.509	84
434.731	88
434.953	70
435.175	85
435.397	64
435.618	71
435.84	79
436.062	61
436.284	79
436.505	74
436.727	59
436.949	63
437.17	73
437.392	73
437.614	81
437.835	84
438.057	60
438.278	65
438.5	77
438.721	79
438.943	74
439.165	75
439.386	67
439.608	81
439.829	91
440.05	86
440.272	85
440.493	65
440.715	63
440.936	79
441.158	78
441.379	68
441.6	77
441.822	58
442.043	83
442.264	90
442.486	77
442.707	89
442.928	83
443.149	75
443.371	98
443.592	99
443.813	91
444.034	83
444.255	72
444.476	72
444.698	59
444.919	91
445.14	152
445.361	131
445.582	108
445.803	105
446.024	74
446.245	81
446.466	76
446.687	87
446.908	88
447.129	77
447.35	66
447.571	85
447.792	73
448.013	66
448.234	83
448.455	73
448.675	90
448.896	69
449.117	83
449.338	70
449.559	80
449.779	83
450	69
450.221	71
450.442	68
450.662	76
450.883	78
451.104	71
451.324	81
451.545	75
451.766	81
451.986	75
452.207	83
452.428	71
452.648	91
452.869	73
453.089	75
453.31	83
453.53	83
453.751	67
453.971	81
454.192	68
454.412	63
454.633	90
454.853	81
455.073	73
455.294	68
455.514	75
455.734	81
455.955	78
456.175	78
456.395	80
456.616	80
456.836	75
457.056	78
457.276	81
457.497	76
457.717	64
457.937	83
458.157	87
458.377	81
458.598	84
458.818	69
459.038	77
459.258	85
459.478	80
459.698	65
459.918	83
460.138	82
460.358	71
460.578	80
460.798	77
461.018	85
461.238	87
461.458	80
461.678	93
461.898	93
462.118	75
462.338	70
462.558	80
462.777	72
462.997	85
463.217	66
463.437	84
463.657	72
463.876	67
464.096	82
464.316	86
464.536	97
464.755	86
464.975	71
465.195	78
465.414	82
465.634	74
465.854	75
466.073	81
466.293	87
466.512	68
466.732	69
466.951	77
467.171	83
467.391	83
467.61	79
467.829	71
468.049	73
468.268	84
468.488	83
468.707	71
468.927	73
469.146	59
469.365	69
469.585	93
469.804	86
470.023	78
470.243	92
470.462	69
470.681	79
470.901	89
471.12	76
471.339	80
471.558	86
471.777	71
471.997	67
472.216	79
472.435	75
472.654	85
472.873	68
473.092	86
473.311	83
473.53	77
473.749	72
473.968	79
474.187	83
474.406	72
474.625	81
474.844	81
475.063	87
475.282	76
475.501	81
475.72	76
475.939	80
476.158	67
476.377	81
476.596	65
476.814	103
477.033	69
477.252	87
477.471	86
477.69	85
477.908	78
478.127	74
478.346	77
478.564	92
478.783	75
479.002	71
479.22	59
479.439	75
479.658	67
479.876	93
480.095	83
480.313	71
480.532	77
480.751	79
480.969	65
481.188	87
481.406	80
481.624	74
481.843	93
482.061	89
482.28	77
482.498	73
482.717	87
482.935	74
483.153	85
483.372	91
483.59	89
483.808	86
484.027	76
484.245	70
484.463	79
484.681	87
484.9	84
485.118	89
485.336	64
485.554	95
485.772	61
485.99	68
486.209	81
486.427	83
486.645	74
486.863	80
487.081	81
487.299	74
487.517	84
487.735	86
487.953	90
488.171	83
488.389	96
488.607	83
488.825	78
489.043	70
489.261	82
489.479	80
489.696	91
489.914	79
490.132	67
490.35	79
490.568	71
490.786	89
491.003	84
491.221	78
491.439	81
491.657	85
491.874	82
492.092	75
492.31	77
492.527	70
492.745	71
492.963	91
493.18	92
493.398	85
493.615	76
493.833	99
494.05	69
494.268	105
494.485	74
494.703	79
494.92	75
495.138	80
495.355	79
495.573	93
495.79	76
496.008	82
496.225	73
496.442	92
496.66	86
496.877	91
497.094	91
497.312	77
497.529	73
497.746	95
497.963	96
498.181	83
498.398	93
498.615	93
498.832	86
499.049	78
499.267	78
499.484	67
499.701	69
499.918	68
500.135	76
500.352	81
500.569	90
500.786	77
501.003	75
501.22	79
501.437	77
501.654	90
501.871	81
502.088	73
502.305	79
502.522	86
502.739	85
502.956	82
503.172	75
503.389	61
503.606	77
503.823	87
504.04	75
504.256	73
504.473	82
504.69	95
504.907	81
505.123	85
505.34	65
505.557	75
505.773	77
505.99	81
506.207	91
506.423	78
506.64	62
506.856	72
507.073	77
507.289	78
507.506	76
507.722	90
507.939	67
508.155	87
508.372	73
508.588	69
508.805	82
509.021	69
509.238	73
509.454	88
509.67	76
509.887	88
510.103	70
510.319	85
510.536	85
510.752	91
510.968	77
511.184	82
511.401	83
511.617	90
511.833	74
512.049	62
512.265	86
512.481	62
512.698	83
512.914	88
513.13	93
513.346	91
513.562	81
513.778	74
513.994	85
514.21	74
514.426	80
514.642	86
514.858	78
515.074	66
515.29	79
515.506	87
515.721	78
515.937	79
516.153	71
516.369	86
516.585	73
516.801	90
517.016	98
517.232	90
517.448	101
517.664	84
517.879	75
518.095	77
518.311	86
518.527	104
518.742	97
518.958	82
519.173	97
519.389	88
519.605	66
519.82	82
520.036	88
520.251	71
520.467	85
520.682	77
520.898	84
521.113	76
521.329	79
521.544	79
521.76	81
521.975	77
522.19	77
522.406	74
522.621	84
522.836	81
523.052	79
523.267	86
523.482	69
523.698	83
523.913	98
524.128	89
524.343	93
524.559	81
524.774	81
524.989	85
525.204	93
525.419	79
525.634	86
525.849	70
526.064	79
526.28	96
526.495	120
526.71	118
526.925	101
527.14	117
527.355	111
527.57	77
527.785	75
527.999	83
528.214	78
528.429	73
528.644	79
528.859	83
529.074	85
529.289	77
529.503	79
529.718	85
529.933	82
530.148	76
530.363	76
530.577	81
530.792	70
531.007	81
531.221	81
531.436	82
531.651	76
531.865	75
532.08	91
532.295	92
532.509	85
532.724	73
532.938	80
533.153	81
533.367	78
533.582	67
533.796	85
534.011	82
534.225	74
534.44	87
534.654	84
534.868	82
535.083	94
535.297	95
535.511	84
535.726	81
535.94	83
536.154	79
536.369	91
536.583	74
536.797	71
537.011	87
537.225	91
537.44	85
537.654	75
537.868	98
538.082	85
538.296	88
538.51	77
538.724	77
538.938	75
539.153	83
539.367	91
539.581	68
539.795	85
540.009	81
540.222	83
540.436	81
540.65	82
540.864	69
541.078	84
541.292	81
541.506	73
541.72	85
541.934	80
542.147	77
542.361	69
542.575	83
542.789	87
543.002	82
543.216	83
543.43	61
543.644	75
543.857	73
544.071	69
544.285	75
544.498	74
544.712	79
544.925	82
545.139	88
545.352	83
545.566	83
545.779	84
545.993	85
546.206	84
546.42	83
546.633	85
546.847	86
547.06	90
547.274	86
547.487	113
547.7	85
547.914	87
548.127	98
548.34	89
548.554	87
548.767	90
548.98	106
549.193	101
549.407	90
549.62	101
549.833	86
550.046	91
550.259	99
550.473	95
550.686	106
550.899	99
551.112	100
551.325	128
551.538	115
551.751	105
551.964	100
552.177	101
552.39	93
552.603	110
552.816	107
553.029	105
553.242	103
553.455	97
553.667	112
553.88	103
554.093	128
554.306	118
554.519	117
554.732	118
554.944	120
555.157	109
555.37	111
555.583	105
555.795	111
556.008	106
556.221	98
556.433	101
556.646	89
556.859	93
557.071	107
557.284	95
557.496	89
557.709	83
557.921	94
558.134	105
558.346	105
558.559	92
558.771	92
558.984	117
559.196	123
559.409	113
559.621	113
559.833	100
560.046	102
560.258	108
560.47	103
560.683	91
560.895	75
561.107	79
561.32	81
561.532	75
561.744	79
561.956	81
562.168	93
562.381	75
562.593	80
562.805	87
563.017	87
563.229	89
563.441	86
563.653	87
563.865	72
564.077	73
564.289	79
564.501	85
564.713	75
564.925	82
565.137	89
565.349	79
565.561	78
565.773	85
565.985	93
566.197	78
566.408	77
566.62	83
566.832	87
567.044	103
567.255	71
567.467	75
567.679	89
567.891	90
568.102	73
568.314	91
568.526	106
568.737	99
568.949	99
569.161	112
569.372	95
569.584	95
569.795	100
570.007	86
570.218	95
570.43	82
570.641	69
570.853	91
571.064	73
571.276	87
571.487	89
571.698	75
571.91	86
572.121	77
572.333	77
572.544	88
572.755	85
572.966	87
573.178	78
573.389	83
573.6	79
573.811	79
574.023	90
574.234	87
574.445	83
574.656	90
574.867	87
575.078	76
575.289	85
575.501	78
575.712	83
575.923	101
576.134	77
576.345	82
576.556	93
576.767	83
576.978	75
577.188	78
577.399	72
577.61	96
577.821	67
578.032	67
578.243	81
578.454	83
578.665	93
578.875	83
579.086	77
579.297	89
579.508	83
579.718	77
579.929	83
580.14	78
580.35	88
580.561	86
580.772	84
580.982	68
581.193	91
581.403	77
581.614	88
581.825	87
582.035	81
582.246	87
582.456	83
582.667	85
582.877	81
583.087	94
583.298	87
583.508	97
583.719	84
583.929	85
584.139	92
584.35	81
584.56	93
584.77	95
584.981	83
585.191	98
585.401	78
585.611	79
585.821	86
586.032	105
586.242	87
586.452	96
586.662	75
586.872	88
587.082	91
587.292	100
587.502	87
587.713	100
587.923	95
588.133	102
588.343	109
588.553	142
588.762	175
588.972	249
589.182	246
589.392	275
589.602	259
589.812	261
590.022	240
590.232	173
590.441	141
590.651	117
590.861	107
591.071	104
591.281	107
591.49	87
591.7	94
591.91	88
592.119	105
592.329	90
592.539	96
592.748	92
592.958	96
593.167	90
593.377	90
593.587	103
593.796	95
594.006	101
594.215	98
594.424	105
594.634	86
594.843	103
595.053	82
595.262	91
595.472	107
595.681	92
595.89	105
596.1	95
596.309	85
596.518	97
596.727	94
596.937	94
597.146	87
597.355	92
597.564	101
597.774	93
597.983	93
598.192	84
598.401	93
598.61	106
598.819	99
599.028	97
599.237	90
599.446	73
599.655	91
599.864	95
600.073	91
600.282	91
600.491	80
600.7	95
600.909	92
601.118	82
601.327	86
601.536	92
601.745	93
601.953	90
602.162	82
602.371	85
602.58	88
602.789	91
602.997	96
603.206	83
603.415	85
603.623	95
603.832	88
604.041	103
604.249	88
604.458	77
604.666	97
604.875	94
605.084	90
605.292	109
605.501	100
605.709	81
605.918	98
606.126	109
606.334	89
606.543	83
606.751	101
606.96	102
607.168	105
607.376	93
607.585	121
607.793	96
608.001	88
608.21	106
608.418	115
608.626	97
608.834	97
609.043	102
609.251	87
609.459	95
609.667	92
609.875	90
610.083	101
610.291	106
610.499	113
610.707	104
610.916	107
611.124	106
611.332	97
611.54	90
611.748	95
611.955	104
612.163	101
612.371	134
612.579	111
612.787	96
612.995	100
613.203	105
613.411	85
613.618	100
613.826	108
614.034	99
614.242	100
614.449	109
614.657	109
614.865	116
615.072	107
615.28	109
615.488	109
615.695	112
615.903	106
616.111	101
616.318	143
616.526	157
616.733	121
616.941	139
617.148	134
617.356	125
617.563	127
617.771	114
617.978	113
618.185	110
618.393	108
618.6	130
618.807	109
619.015	115
619.222	111
619.429	117
619.637	117
619.844	108
620.051	132
620.258	117
620.466	133
620.673	131
620.88	122
621.087	123
621.294	109
621.501	104
621.708	88
621.915	109
622.122	85
622.329	105
622.536	100
622.743	100
622.95	98
623.157	99
623.364	107
623.571	101
623.778	105
623.985	104
624.192	95
624.399	107
624.606	97
624.812	107
625.019	102
625.226	110
625.433	102
625.639	113
625.846	87
626.053	109
626.259	111
626.466	89
626.673	87
626.879	96
627.086	93
627.293	88
627.499	107
627.706	83
627.912	93
628.119	91
628.325	81
628.532	91
628.738	87
628.945	86
629.151	97
629.357	92
629.564	77
629.77	72
629.976	78
630.183	73
630.389	92
630.595	97
630.802	70
631.008	78
631.214	83
631.42	75
631.627	81
631.833	76
632.039	82
632.245	87
632.451	71
632.657	87
632.863	84
633.069	65
633.275	89
633.481	74
633.688	64
633.893	69
634.099	76
634.305	71
634.511	83
634.717	83
634.923	84
635.129	87
635.335	70
635.541	68
635.747	84
635.952	91
636.158	82
636.364	83
636.57	83
636.775	77
636.981	74
637.187	76
637.392	84
637.598	86
637.804	77
638.009	81
638.215	90
638.421	73
638.626	77
638.832	88
639.037	73
639.243	86
639.448	91
639.654	82
639.859	75
640.065	79
640.27	85
640.475	75
640.681	75
640.886	82
641.091	62
641.297	83
641.502	81
641.707	80
641.913	85
642.118	81
642.323	74
642.528	72
642.733	86
642.939	75
643.144	85
643.349	78
643.554	76
643.759	73
643.964	75
644.169	91
644.374	85
644.579	85
644.784	75
644.989	81
645.194	98
645.399	95
645.604	79
645.809	98
646.014	77
646.219	81
646.423	90
646.628	95
646.833	83
647.038	81
647.243	85
647.447	94
647.652	90
647.857	83
648.062	95
648.266	78
648.471	71
648.676	75
648.88	90
649.085	79
649.289	65
649.494	95
649.698	84
649.903	72
650.107	88
650.312	80
650.516	78
650.721	70
650.925	91
651.13	68
651.334	96
651.539	75
651.743	70
651.947	79
652.152	74
652.356	75
652.56	75
652.764	81
652.969	76
653.173	79
653.377	90
653.581	66
653.785	70
653.99	66
654.194	77
654.398	68
654.602	82
654.806	81
655.01	77
655.214	80
655.418	79
655.622	72
655.826	77
656.03	92
656.234	72
656.438	79
656.642	76
656.846	85
657.049	93
657.253	82
657.457	84
657.661	90
657.865	79
658.068	60
658.272	81
658.476	79
658.68	64
658.883	79
659.087	94
659.291	66
659.494	79
659.698	69
659.901	71
660.105	75
660.309	75
660.512	66
660.716	65
660.919	75
661.123	78
661.326	86
661.53	81
661.733	77
661.936	70
662.14	67
662.343	78
662.546	84
662.75	82
662.953	85
663.156	87
663.36	82
663.563	74
663.766	77
663.969	75
664.173	72
664.376	81
664.579	76
664.782	71
664.985	77
665.188	69
665.391	75
665.594	69
665.797	71
666	70
666.203	75
666.406	81
666.609	69
666.812	87
667.015	59
667.218	75
667.421	89
667.624	75
667.827	71
668.03	69
668.232	74
668.435	88
668.638	75
668.841	85
669.043	79
669.246	73
669.449	78
669.651	79
669.854	69
670.057	73
670.259	71
670.462	81
670.665	93
670.867	85
671.07	66
671.272	79
671.475	87
671.677	84
671.88	71
672.082	77
672.284	74
672.487	74
672.689	75
672.892	68
