Data from Soil_75_4_HRD10591_00012.txt Node
Date: Thu Feb 19 11:38:20 EST 2026
User: Yrep
Spectrometer: HR+D1059
Trigger mode: 1
Integration Time (sec): 1.000000E-1
Scans to average: 1
Electric dark correction enabled: true
Nonlinearity correction enabled: false
Boxcar width: 0
XAxis mode: Wavelengths
Number of Pixels in Spectrum: 2048
>>>>>Begin Spectral Data<<<<<
223.165	-31.75
223.4	-31.75
223.635	-31.75
223.869	-25.75
224.104	-12.75
224.338	-25.75
224.573	-20.75
224.808	-24.75
225.042	-0.75
225.277	-12.75
225.511	-8.75
225.746	15.25
225.98	22.25
226.215	5.25
226.449	27.25
226.683	25.25
226.918	28.25
227.152	40.25
227.387	28.25
227.621	28.25
227.856	52.25
228.09	48.25
228.324	49.25
228.559	60.25
228.793	63.25
229.027	59.25
229.262	84.25
229.496	71.25
229.73	83.25
229.964	79.25
230.199	73.25
230.433	76.25
230.667	78.25
230.901	89.25
231.136	73.25
231.37	73.25
231.604	81.25
231.838	89.25
232.072	81.25
232.306	82.25
232.541	84.25
232.775	76.25
233.009	76.25
233.243	82.25
233.477	76.25
233.711	76.25
233.945	74.25
234.179	67.25
234.413	82.25
234.647	85.25
234.881	79.25
235.115	78.25
235.349	80.25
235.583	82.25
235.817	79.25
236.051	78.25
236.285	76.25
236.519	80.25
236.753	79.25
236.987	79.25
237.221	78.25
237.455	80.25
237.689	65.25
237.922	78.25
238.156	81.25
238.39	69.25
238.624	86.25
238.858	77.25
239.091	73.25
239.325	78.25
239.559	67.25
239.793	69.25
240.027	76.25
240.26	72.25
240.494	81.25
240.728	78.25
240.961	73.25
241.195	67.25
241.429	84.25
241.662	85.25
241.896	81.25
242.13	72.25
242.363	74.25
242.597	87.25
242.83	75.25
243.064	88.25
243.298	81.25
243.531	75.25
243.765	87.25
243.998	77.25
244.232	74.25
244.465	85.25
244.699	76.25
244.932	85.25
245.166	83.25
245.399	82.25
245.633	87.25
245.866	76.25
246.099	73.25
246.333	78.25
246.566	85.25
246.8	81.25
247.033	79.25
247.266	89.25
247.5	75.25
247.733	93.25
247.966	88.25
248.2	74.25
248.433	71.25
248.666	84.25
248.899	86.25
249.133	88.25
249.366	89.25
249.599	83.25
249.832	71.25
250.066	75.25
250.299	78.25
250.532	86.25
250.765	80.25
250.998	86.25
251.231	89.25
251.465	81.25
251.698	83.25
251.931	79.25
252.164	72.25
252.397	67.25
252.63	85.25
252.863	77.25
253.096	70.25
253.329	78.25
253.562	72.25
253.795	80.25
254.028	94.25
254.261	78.25
254.494	79.25
254.727	87.25
254.96	81.25
255.193	76.25
255.426	80.25
255.659	83.25
255.892	89.25
256.124	79.25
256.357	78.25
256.59	78.25
256.823	94.25
257.056	77.25
257.289	76.25
257.521	64.25
257.754	73.25
257.987	87.25
258.22	74.25
258.452	77.25
258.685	76.25
258.918	94.25
259.151	92.25
259.383	78.25
259.616	75.25
259.849	66.25
260.081	70.25
260.314	72.25
260.547	81.25
260.779	82.25
261.012	89.25
261.244	82.25
261.477	82.25
261.71	82.25
261.942	79.25
262.175	81.25
262.407	73.25
262.64	81.25
262.872	90.25
263.105	86.25
263.337	84.25
263.57	93.25
263.802	93.25
264.035	82.25
264.267	77.25
264.499	87.25
264.732	80.25
264.964	70.25
265.197	83.25
265.429	87.25
265.661	77.25
265.894	81.25
266.126	81.25
266.358	76.25
266.591	76.25
266.823	81.25
267.055	90.25
267.287	95.25
267.52	80.25
267.752	92.25
267.984	88.25
268.216	82.25
268.448	84.25
268.681	82.25
268.913	85.25
269.145	76.25
269.377	87.25
269.609	80.25
269.841	78.25
270.073	98.25
270.306	92.25
270.538	91.25
270.77	85.25
271.002	88.25
271.234	79.25
271.466	73.25
271.698	84.25
271.93	80.25
272.162	84.25
272.394	90.25
272.626	83.25
272.858	87.25
273.09	70.25
273.322	85.25
273.553	84.25
273.785	84.25
274.017	75.25
274.249	79.25
274.481	78.25
274.713	90.25
274.945	86.25
275.176	85.25
275.408	72.25
275.64	83.25
275.872	82.25
276.104	79.25
276.335	85.25
276.567	75.25
276.799	69.25
277.031	77.25
277.262	76.25
277.494	85.25
277.726	79.25
277.957	89.25
278.189	74.25
278.421	77.25
278.652	82.25
278.884	83.25
279.115	79.25
279.347	81.25
279.579	85.25
279.81	73.25
280.042	80.25
280.273	82.25
280.505	82.25
280.736	76.25
280.968	94.25
281.199	86.25
281.431	88.25
281.662	83.25
281.894	98.25
282.125	91.25
282.356	95.25
282.588	93.25
282.819	91.25
283.051	81.25
283.282	84.25
283.513	81.25
283.745	90.25
283.976	89.25
284.207	97.25
284.439	84.25
284.67	90.25
284.901	71.25
285.132	89.25
285.364	87.25
285.595	77.25
285.826	59.25
286.057	78.25
286.288	74.25
286.52	86.25
286.751	91.25
286.982	78.25
287.213	98.25
287.444	86.25
287.675	87.25
287.906	76.25
288.138	88.25
288.369	87.25
288.6	77.25
288.831	73.25
289.062	83.25
289.293	81.25
289.524	91.25
289.755	88.25
289.986	77.25
290.217	95.25
290.448	99.25
290.679	86.25
290.91	86.25
291.141	102.25
291.371	103.25
291.602	94.25
291.833	84.25
292.064	90.25
292.295	75.25
292.526	87.25
292.757	83.25
292.987	99.25
293.218	84.25
293.449	83.25
293.68	73.25
293.91	76.25
294.141	98.25
294.372	80.25
294.603	78.25
294.833	97.25
295.064	91.25
295.295	74.25
295.525	75.25
295.756	109.25
295.987	80.25
296.217	78.25
296.448	80.25
296.679	89.25
296.909	78.25
297.14	82.25
297.37	85.25
297.601	85.25
297.831	84.25
298.062	93.25
298.292	81.25
298.523	88.25
298.753	78.25
298.984	75.25
299.214	94.25
299.445	79.25
299.675	82.25
299.905	85.25
300.136	81.25
300.366	91.25
300.597	97.25
300.827	80.25
301.057	82.25
301.288	91.25
301.518	77.25
301.748	75.25
301.979	104.25
302.209	87.25
302.439	92.25
302.669	86.25
302.9	86.25
303.13	78.25
303.36	102.25
303.59	74.25
303.82	81.25
304.051	82.25
304.281	83.25
304.511	88.25
304.741	81.25
304.971	78.25
305.201	82.25
305.431	71.25
305.661	90.25
305.891	75.25
306.121	92.25
306.352	83.25
306.582	96.25
306.812	93.25
307.042	75.25
307.272	74.25
307.502	74.25
307.731	81.25
307.961	90.25
308.191	99.25
308.421	84.25
308.651	102.25
308.881	89.25
309.111	85.25
309.341	77.25
309.571	73.25
309.8	85.25
310.03	79.25
310.26	96.25
310.49	87.25
310.72	94.25
310.949	77.25
311.179	87.25
311.409	96.25
311.639	95.25
311.868	103.25
312.098	83.25
312.328	91.25
312.557	76.25
312.787	97.25
313.017	75.25
313.246	90.25
313.476	77.25
313.706	79.25
313.935	94.25
314.165	99.25
314.394	83.25
314.624	78.25
314.853	90.25
315.083	89.25
315.312	84.25
315.542	88.25
315.771	88.25
316.001	77.25
316.23	82.25
316.46	92.25
316.689	88.25
316.919	87.25
317.148	78.25
317.377	89.25
317.607	92.25
317.836	89.25
318.065	92.25
318.295	90.25
318.524	87.25
318.753	87.25
318.983	82.25
319.212	79.25
319.441	82.25
319.67	81.25
319.9	71.25
320.129	81.25
320.358	75.25
320.587	87.25
320.816	87.25
321.046	80.25
321.275	80.25
321.504	78.25
321.733	88.25
321.962	84.25
322.191	85.25
322.42	89.25
322.649	99.25
322.878	73.25
323.108	79.25
323.337	86.25
323.566	85.25
323.795	84.25
324.024	95.25
324.253	84.25
324.482	70.25
324.71	75.25
324.939	92.25
325.168	89.25
325.397	85.25
325.626	74.25
325.855	88.25
326.084	87.25
326.313	85.25
326.542	82.25
326.77	92.25
326.999	86.25
327.228	89.25
327.457	85.25
327.686	85.25
327.914	81.25
328.143	95.25
328.372	89.25
328.6	80.25
328.829	88.25
329.058	79.25
329.287	88.25
329.515	87.25
329.744	81.25
329.972	103.25
330.201	90.25
330.43	92.25
330.658	88.25
330.887	91.25
331.115	83.25
331.344	87.25
331.572	93.25
331.801	90.25
332.03	87.25
332.258	86.25
332.486	74.25
332.715	95.25
332.943	81.25
333.172	91.25
333.4	78.25
333.629	84.25
333.857	90.25
334.085	89.25
334.314	81.25
334.542	87.25
334.771	75.25
334.999	87.25
335.227	84.25
335.455	77.25
335.684	92.25
335.912	97.25
336.14	89.25
336.369	89.25
336.597	91.25
336.825	74.25
337.053	86.25
337.281	78.25
337.51	81.25
337.738	88.25
337.966	79.25
338.194	79.25
338.422	91.25
338.65	96.25
338.878	101.25
339.106	87.25
339.334	74.25
339.562	81.25
339.79	97.25
340.018	86.25
340.246	95.25
340.474	94.25
340.702	78.25
340.93	94.25
341.158	88.25
341.386	88.25
341.614	78.25
341.842	85.25
342.07	105.25
342.298	78.25
342.526	93.25
342.754	79.25
342.981	89.25
343.209	83.25
343.437	94.25
343.665	82.25
343.893	85.25
344.12	78.25
344.348	87.25
344.576	100.25
344.804	99.25
345.031	77.25
345.259	80.25
345.487	83.25
345.714	91.25
345.942	71.25
346.17	101.25
346.397	87.25
346.625	84.25
346.853	94.25
347.08	81.25
347.308	93.25
347.535	80.25
347.763	77.25
347.99	79.25
348.218	76.25
348.445	68.25
348.673	81.25
348.9	84.25
349.128	87.25
349.355	88.25
349.583	89.25
349.81	83.25
350.037	85.25
350.265	94.25
350.492	83.25
350.72	75.25
350.947	82.25
351.174	81.25
351.402	88.25
351.629	94.25
351.856	79.25
352.083	93.25
352.311	82.25
352.538	83.25
352.765	89.25
352.992	89.25
353.22	83.25
353.447	81.25
353.674	89.25
353.901	86.25
354.128	91.25
354.355	75.25
354.583	87.25
354.81	89.25
355.037	84.25
355.264	87.25
355.491	84.25
355.718	90.25
355.945	93.25
356.172	72.25
356.399	92.25
356.626	89.25
356.853	85.25
357.08	90.25
357.307	97.25
357.534	89.25
357.761	90.25
357.988	98.25
358.215	93.25
358.441	95.25
358.668	78.25
358.895	87.25
359.122	77.25
359.349	80.25
359.576	77.25
359.802	76.25
360.029	81.25
360.256	81.25
360.483	83.25
360.709	90.25
360.936	90.25
361.163	84.25
361.39	85.25
361.616	93.25
361.843	93.25
362.07	88.25
362.296	89.25
362.523	77.25
362.749	90.25
362.976	86.25
363.203	89.25
363.429	81.25
363.656	82.25
363.882	91.25
364.109	86.25
364.335	89.25
364.562	90.25
364.788	87.25
365.015	92.25
365.241	90.25
365.468	73.25
365.694	94.25
365.92	75.25
366.147	68.25
366.373	76.25
366.599	92.25
366.826	86.25
367.052	92.25
367.278	94.25
367.505	94.25
367.731	89.25
367.957	77.25
368.184	83.25
368.41	85.25
368.636	81.25
368.862	92.25
369.089	85.25
369.315	91.25
369.541	82.25
369.767	86.25
369.993	84.25
370.219	83.25
370.445	86.25
370.672	76.25
370.898	68.25
371.124	78.25
371.35	84.25
371.576	83.25
371.802	82.25
372.028	78.25
372.254	80.25
372.48	92.25
372.706	90.25
372.932	75.25
373.158	91.25
373.384	102.25
373.61	90.25
373.835	81.25
374.061	81.25
374.287	93.25
374.513	96.25
374.739	69.25
374.965	97.25
375.191	89.25
375.416	88.25
375.642	93.25
375.868	94.25
376.094	79.25
376.319	85.25
376.545	92.25
376.771	94.25
376.997	77.25
377.222	89.25
377.448	85.25
377.674	91.25
377.899	81.25
378.125	83.25
378.35	83.25
378.576	97.25
378.802	87.25
379.027	96.25
379.253	99.25
379.478	85.25
379.704	92.25
379.929	81.25
380.155	87.25
380.38	84.25
380.606	84.25
380.831	90.25
381.057	72.25
381.282	83.25
381.507	93.25
381.733	81.25
381.958	71.25
382.184	84.25
382.409	90.25
382.634	85.25
382.86	84.25
383.085	93.25
383.31	79.25
383.535	84.25
383.761	87.25
383.986	86.25
384.211	89.25
384.436	87.25
384.662	88.25
384.887	86.25
385.112	88.25
385.337	107.25
385.562	88.25
385.787	83.25
386.013	90.25
386.238	85.25
386.463	86.25
386.688	94.25
386.913	82.25
387.138	83.25
387.363	84.25
387.588	77.25
387.813	93.25
388.038	93.25
388.263	84.25
388.488	86.25
388.713	79.25
388.938	80.25
389.163	87.25
389.387	87.25
389.612	82.25
389.837	95.25
390.062	81.25
390.287	82.25
390.512	92.25
390.736	68.25
390.961	84.25
391.186	93.25
391.411	88.25
391.636	92.25
391.86	76.25
392.085	84.25
392.31	88.25
392.534	91.25
392.759	94.25
392.984	83.25
393.208	91.25
393.433	102.25
393.658	98.25
393.882	79.25
394.107	78.25
394.331	91.25
394.556	87.25
394.78	76.25
395.005	85.25
395.229	89.25
395.454	84.25
395.678	90.25
395.903	82.25
396.127	77.25
396.352	99.25
396.576	99.25
396.801	94.25
397.025	100.25
397.249	89.25
397.474	82.25
397.698	82.25
397.922	83.25
398.147	84.25
398.371	95.25
398.595	86.25
398.82	94.25
399.044	91.25
399.268	84.25
399.492	83.25
399.717	84.25
399.941	84.25
400.165	76.25
400.389	76.25
400.613	93.25
400.837	86.25
401.062	89.25
401.286	81.25
401.51	85.25
401.734	92.25
401.958	91.25
402.182	78.25
402.406	84.25
402.63	85.25
402.854	79.25
403.078	80.25
403.302	73.25
403.526	83.25
403.75	88.25
403.974	88.25
404.198	82.25
404.422	81.25
404.645	85.25
404.869	74.25
405.093	75.25
405.317	88.25
405.541	81.25
405.765	83.25
405.988	81.25
406.212	81.25
406.436	81.25
406.66	90.25
406.883	93.25
407.107	90.25
407.331	81.25
407.555	84.25
407.778	101.25
408.002	68.25
408.226	84.25
408.449	74.25
408.673	82.25
408.896	84.25
409.12	86.25
409.344	84.25
409.567	89.25
409.791	83.25
410.014	81.25
410.238	91.25
410.461	81.25
410.685	92.25
410.908	92.25
411.132	84.25
411.355	75.25
411.578	79.25
411.802	76.25
412.025	76.25
412.249	95.25
412.472	83.25
412.695	85.25
412.919	84.25
413.142	78.25
413.365	81.25
413.589	85.25
413.812	82.25
414.035	87.25
414.258	94.25
414.482	83.25
414.705	79.25
414.928	79.25
415.151	89.25
415.374	83.25
415.597	99.25
415.821	81.25
416.044	67.25
416.267	76.25
416.49	83.25
416.713	87.25
416.936	80.25
417.159	85.25
417.382	81.25
417.605	67.25
417.828	82.25
418.051	74.25
418.274	76.25
418.497	86.25
418.72	76.25
418.943	85.25
419.166	83.25
419.389	87.25
419.611	79.25
419.834	76.25
420.057	70.25
420.28	84.25
420.503	89.25
420.726	81.25
420.948	90.25
421.171	72.25
421.394	81.25
421.617	85.25
421.839	67.25
422.062	99.25
422.285	96.25
422.507	99.25
422.73	132.25
422.953	108.25
423.175	94.25
423.398	82.25
423.621	85.25
423.843	83.25
424.066	81.25
424.288	85.25
424.511	84.25
424.733	85.25
424.956	93.25
425.178	102.25
425.401	85.25
425.623	85.25
425.846	69.25
426.068	86.25
426.291	83.25
426.513	89.25
426.735	93.25
426.958	73.25
427.18	81.25
427.402	78.25
427.625	81.25
427.847	79.25
428.069	93.25
428.292	78.25
428.514	85.25
428.736	81.25
428.958	85.25
429.181	84.25
429.403	88.25
429.625	78.25
429.847	85.25
430.069	83.25
430.292	85.25
430.514	84.25
430.736	93.25
430.958	103.25
431.18	75.25
431.402	87.25
431.624	81.25
431.846	87.25
432.068	83.25
432.29	81.25
432.512	77.25
432.734	70.25
432.956	77.25
433.178	90.25
433.4	78.25
433.622	100.25
433.844	87.25
434.066	88.25
434.287	77.25
434.509	74.25
434.731	85.25
434.953	82.25
435.175	78.25
435.397	96.25
435.618	75.25
435.84	84.25
436.062	73.25
436.284	70.25
436.505	72.25
436.727	67.25
436.949	84.25
437.17	80.25
437.392	83.25
437.614	91.25
437.835	77.25
438.057	72.25
438.278	86.25
438.5	84.25
438.721	83.25
438.943	89.25
439.165	79.25
439.386	75.25
439.608	85.25
439.829	81.25
440.05	82.25
440.272	81.25
440.493	82.25
440.715	78.25
440.936	87.25
441.158	73.25
441.379	78.25
441.6	87.25
441.822	88.25
442.043	71.25
442.264	75.25
442.486	84.25
442.707	91.25
442.928	80.25
443.149	83.25
443.371	82.25
443.592	101.25
443.813	94.25
444.034	92.25
444.255	87.25
444.476	81.25
444.698	80.25
444.919	72.25
445.14	151.25
445.361	118.25
445.582	94.25
445.803	89.25
446.024	78.25
446.245	79.25
446.466	72.25
446.687	74.25
446.908	79.25
447.129	88.25
447.35	75.25
447.571	75.25
447.792	81.25
448.013	85.25
448.234	77.25
448.455	75.25
448.675	77.25
448.896	76.25
449.117	84.25
449.338	87.25
449.559	82.25
449.779	82.25
450	74.25
450.221	71.25
450.442	69.25
450.662	74.25
450.883	70.25
451.104	74.25
451.324	72.25
451.545	88.25
451.766	89.25
451.986	89.25
452.207	74.25
452.428	75.25
452.648	98.25
452.869	103.25
453.089	89.25
453.31	84.25
453.53	83.25
453.751	77.25
453.971	79.25
454.192	75.25
454.412	84.25
454.633	87.25
454.853	85.25
455.073	76.25
455.294	86.25
455.514	83.25
455.734	84.25
455.955	85.25
456.175	91.25
456.395	84.25
456.616	91.25
456.836	92.25
457.056	87.25
457.276	81.25
457.497	71.25
457.717	92.25
457.937	86.25
458.157	87.25
458.377	91.25
458.598	63.25
458.818	78.25
459.038	65.25
459.258	70.25
459.478	79.25
459.698	73.25
459.918	79.25
460.138	83.25
460.358	81.25
460.578	79.25
460.798	78.25
461.018	88.25
461.238	70.25
461.458	75.25
461.678	82.25
461.898	103.25
462.118	81.25
462.338	84.25
462.558	100.25
462.777	69.25
462.997	88.25
463.217	83.25
463.437	95.25
463.657	75.25
463.876	76.25
464.096	68.25
464.316	72.25
464.536	74.25
464.755	81.25
464.975	81.25
465.195	74.25
465.414	78.25
465.634	79.25
465.854	82.25
466.073	77.25
466.293	77.25
466.512	84.25
466.732	80.25
466.951	71.25
467.171	89.25
467.391	100.25
467.61	72.25
467.829	79.25
468.049	79.25
468.268	83.25
468.488	89.25
468.707	88.25
468.927	79.25
469.146	89.25
469.365	83.25
469.585	76.25
469.804	89.25
470.023	81.25
470.243	83.25
470.462	79.25
470.681	86.25
470.901	69.25
471.12	93.25
471.339	86.25
471.558	86.25
471.777	93.25
471.997	81.25
472.216	77.25
472.435	75.25
472.654	85.25
472.873	91.25
473.092	82.25
473.311	72.25
473.53	86.25
473.749	91.25
473.968	74.25
474.187	81.25
474.406	77.25
474.625	80.25
474.844	89.25
475.063	74.25
475.282	84.25
475.501	85.25
475.72	91.25
475.939	77.25
476.158	76.25
476.377	81.25
476.596	76.25
476.814	95.25
477.033	80.25
477.252	84.25
477.471	87.25
477.69	82.25
477.908	76.25
478.127	80.25
478.346	74.25
478.564	71.25
478.783	85.25
479.002	87.25
479.22	77.25
479.439	88.25
479.658	81.25
479.876	75.25
480.095	88.25
480.313	88.25
480.532	83.25
480.751	73.25
480.969	86.25
481.188	73.25
481.406	87.25
481.624	74.25
481.843	87.25
482.061	93.25
482.28	83.25
482.498	74.25
482.717	82.25
482.935	81.25
483.153	81.25
483.372	90.25
483.59	92.25
483.808	85.25
484.027	91.25
484.245	81.25
484.463	81.25
484.681	95.25
484.9	85.25
485.118	87.25
485.336	81.25
485.554	82.25
485.772	88.25
485.99	81.25
486.209	85.25
486.427	85.25
486.645	88.25
486.863	87.25
487.081	77.25
487.299	85.25
487.517	84.25
487.735	83.25
487.953	90.25
488.171	88.25
488.389	92.25
488.607	94.25
488.825	71.25
489.043	84.25
489.261	93.25
489.479	75.25
489.696	82.25
489.914	94.25
490.132	75.25
490.35	93.25
490.568	87.25
490.786	84.25
491.003	77.25
491.221	84.25
491.439	94.25
491.657	88.25
491.874	98.25
492.092	90.25
492.31	84.25
492.527	73.25
492.745	97.25
492.963	84.25
493.18	83.25
493.398	91.25
493.615	79.25
493.833	94.25
494.05	75.25
494.268	71.25
494.485	81.25
494.703	76.25
494.92	81.25
495.138	78.25
495.355	74.25
495.573	76.25
495.79	71.25
496.008	78.25
496.225	85.25
496.442	81.25
496.66	83.25
496.877	91.25
497.094	86.25
497.312	90.25
497.529	86.25
497.746	79.25
497.963	80.25
498.181	94.25
498.398	81.25
498.615	75.25
498.832	81.25
499.049	76.25
499.267	95.25
499.484	92.25
499.701	99.25
499.918	87.25
500.135	89.25
500.352	101.25
500.569	85.25
500.786	76.25
501.003	87.25
501.22	86.25
501.437	87.25
501.654	84.25
501.871	72.25
502.088	79.25
502.305	80.25
502.522	89.25
502.739	65.25
502.956	72.25
503.172	68.25
503.389	87.25
503.606	81.25
503.823	88.25
504.04	87.25
504.256	74.25
504.473	70.25
504.69	97.25
504.907	82.25
505.123	79.25
505.34	96.25
505.557	79.25
505.773	91.25
505.99	88.25
506.207	81.25
506.423	100.25
506.64	81.25
506.856	90.25
507.073	95.25
507.289	88.25
507.506	80.25
507.722	81.25
507.939	77.25
508.155	83.25
508.372	86.25
508.588	79.25
508.805	84.25
509.021	93.25
509.238	82.25
509.454	72.25
509.67	86.25
509.887	75.25
510.103	74.25
510.319	89.25
510.536	77.25
510.752	84.25
510.968	84.25
511.184	87.25
511.401	79.25
511.617	93.25
511.833	82.25
512.049	77.25
512.265	85.25
512.481	81.25
512.698	88.25
512.914	77.25
513.13	90.25
513.346	73.25
513.562	91.25
513.778	83.25
513.994	95.25
514.21	71.25
514.426	89.25
514.642	82.25
514.858	86.25
515.074	85.25
515.29	82.25
515.506	79.25
515.721	78.25
515.937	86.25
516.153	83.25
516.369	77.25
516.585	80.25
516.801	87.25
517.016	71.25
517.232	103.25
517.448	92.25
517.664	74.25
517.879	91.25
518.095	95.25
518.311	79.25
518.527	92.25
518.742	77.25
518.958	86.25
519.173	96.25
519.389	80.25
519.605	86.25
519.82	96.25
520.036	87.25
520.251	93.25
520.467	89.25
520.682	89.25
520.898	75.25
521.113	81.25
521.329	80.25
521.544	87.25
521.76	94.25
521.975	85.25
522.19	77.25
522.406	93.25
522.621	80.25
522.836	83.25
523.052	91.25
523.267	75.25
523.482	88.25
523.698	89.25
523.913	82.25
524.128	101.25
524.343	89.25
524.559	86.25
524.774	81.25
524.989	82.25
525.204	95.25
525.419	80.25
525.634	86.25
525.849	86.25
526.064	87.25
526.28	110.25
526.495	84.25
526.71	83.25
526.925	91.25
527.14	86.25
527.355	79.25
527.57	95.25
527.785	88.25
527.999	81.25
528.214	96.25
528.429	85.25
528.644	97.25
528.859	85.25
529.074	78.25
529.289	76.25
529.503	87.25
529.718	87.25
529.933	83.25
530.148	89.25
530.363	101.25
530.577	78.25
530.792	97.25
531.007	78.25
531.221	86.25
531.436	91.25
531.651	85.25
531.865	86.25
532.08	80.25
532.295	103.25
532.509	99.25
532.724	102.25
532.938	97.25
533.153	90.25
533.367	74.25
533.582	73.25
533.796	82.25
534.011	89.25
534.225	85.25
534.44	75.25
534.654	89.25
534.868	76.25
535.083	89.25
535.297	81.25
535.511	76.25
535.726	89.25
535.94	88.25
536.154	86.25
536.369	81.25
536.583	82.25
536.797	81.25
537.011	87.25
537.225	78.25
537.44	81.25
537.654	72.25
537.868	84.25
538.082	87.25
538.296	81.25
538.51	90.25
538.724	89.25
538.938	89.25
539.153	85.25
539.367	82.25
539.581	83.25
539.795	86.25
540.009	87.25
540.222	84.25
540.436	89.25
540.65	91.25
540.864	104.25
541.078	79.25
541.292	96.25
541.506	74.25
541.72	83.25
541.934	91.25
542.147	95.25
542.361	83.25
542.575	86.25
542.789	80.25
543.002	81.25
543.216	94.25
543.43	99.25
543.644	95.25
543.857	89.25
544.071	70.25
544.285	89.25
544.498	93.25
544.712	91.25
544.925	75.25
545.139	86.25
545.352	89.25
545.566	83.25
545.779	92.25
545.993	86.25
546.206	90.25
546.42	94.25
546.633	89.25
546.847	93.25
547.06	101.25
547.274	84.25
547.487	82.25
547.7	101.25
547.914	90.25
548.127	102.25
548.34	96.25
548.554	92.25
548.767	88.25
548.98	90.25
549.193	89.25
549.407	91.25
549.62	97.25
549.833	98.25
550.046	88.25
550.259	99.25
550.473	96.25
550.686	102.25
550.899	111.25
551.112	101.25
551.325	101.25
551.538	107.25
551.751	119.25
551.964	101.25
552.177	109.25
552.39	107.25
552.603	100.25
552.816	114.25
553.029	110.25
553.242	106.25
553.455	105.25
553.667	104.25
553.88	134.25
554.093	119.25
554.306	116.25
554.519	128.25
554.732	110.25
554.944	131.25
555.157	105.25
555.37	124.25
555.583	108.25
555.795	111.25
556.008	110.25
556.221	104.25
556.433	105.25
556.646	95.25
556.859	96.25
557.071	93.25
557.284	96.25
557.496	90.25
557.709	100.25
557.921	107.25
558.134	107.25
558.346	96.25
558.559	94.25
558.771	93.25
558.984	96.25
559.196	102.25
559.409	96.25
559.621	108.25
559.833	98.25
560.046	93.25
560.258	101.25
560.47	114.25
560.683	79.25
560.895	94.25
561.107	83.25
561.32	95.25
561.532	101.25
561.744	88.25
561.956	93.25
562.168	76.25
562.381	85.25
562.593	82.25
562.805	97.25
563.017	103.25
563.229	105.25
563.441	79.25
563.653	90.25
563.865	79.25
564.077	94.25
564.289	95.25
564.501	76.25
564.713	83.25
564.925	98.25
565.137	71.25
565.349	98.25
565.561	99.25
565.773	101.25
565.985	78.25
566.197	81.25
566.408	84.25
566.62	81.25
566.832	93.25
567.044	98.25
567.255	95.25
567.467	70.25
567.679	93.25
567.891	85.25
568.102	95.25
568.314	99.25
568.526	95.25
568.737	94.25
568.949	77.25
569.161	98.25
569.372	90.25
569.584	95.25
569.795	86.25
570.007	88.25
570.218	84.25
570.43	107.25
570.641	81.25
570.853	86.25
571.064	88.25
571.276	87.25
571.487	85.25
571.698	77.25
571.91	92.25
572.121	86.25
572.333	78.25
572.544	81.25
572.755	77.25
572.966	92.25
573.178	74.25
573.389	85.25
573.6	83.25
573.811	88.25
574.023	81.25
574.234	99.25
574.445	83.25
574.656	85.25
574.867	91.25
575.078	78.25
575.289	92.25
575.501	94.25
575.712	83.25
575.923	91.25
576.134	82.25
576.345	80.25
576.556	88.25
576.767	80.25
576.978	90.25
577.188	102.25
577.399	94.25
577.61	93.25
577.821	80.25
578.032	85.25
578.243	87.25
578.454	90.25
578.665	84.25
578.875	70.25
579.086	83.25
579.297	82.25
579.508	84.25
579.718	100.25
579.929	80.25
580.14	78.25
580.35	72.25
580.561	102.25
580.772	93.25
580.982	83.25
581.193	86.25
581.403	95.25
581.614	93.25
581.825	104.25
582.035	88.25
582.246	93.25
582.456	73.25
582.667	87.25
582.877	86.25
583.087	82.25
583.298	94.25
583.508	76.25
583.719	90.25
583.929	83.25
584.139	86.25
584.35	83.25
584.56	93.25
584.77	99.25
584.981	89.25
585.191	83.25
585.401	86.25
585.611	94.25
585.821	101.25
586.032	97.25
586.242	92.25
586.452	91.25
586.662	85.25
586.872	98.25
587.082	102.25
587.292	93.25
587.502	97.25
587.713	95.25
587.923	102.25
588.133	105.25
588.343	106.25
588.553	129.25
588.762	168.25
588.972	209.25
589.182	255.25
589.392	260.25
589.602	252.25
589.812	247.25
590.022	214.25
590.232	152.25
590.441	124.25
590.651	111.25
590.861	110.25
591.071	107.25
591.281	104.25
591.49	114.25
591.7	84.25
591.91	103.25
592.119	111.25
592.329	86.25
592.539	99.25
592.748	117.25
592.958	105.25
593.167	101.25
593.377	96.25
593.587	109.25
593.796	113.25
594.006	91.25
594.215	104.25
594.424	105.25
594.634	108.25
594.843	102.25
595.053	98.25
595.262	87.25
595.472	107.25
595.681	102.25
595.89	101.25
596.1	99.25
596.309	95.25
596.518	94.25
596.727	99.25
596.937	97.25
597.146	99.25
597.355	95.25
597.564	88.25
597.774	92.25
597.983	88.25
598.192	107.25
598.401	102.25
598.61	85.25
598.819	99.25
599.028	107.25
599.237	105.25
599.446	105.25
599.655	99.25
599.864	89.25
600.073	85.25
600.282	97.25
600.491	86.25
600.7	102.25
600.909	112.25
601.118	89.25
601.327	106.25
601.536	101.25
601.745	97.25
601.953	108.25
602.162	87.25
602.371	95.25
602.58	96.25
602.789	109.25
602.997	99.25
603.206	102.25
603.415	94.25
603.623	117.25
603.832	99.25
604.041	98.25
604.249	102.25
604.458	96.25
604.666	108.25
604.875	93.25
605.084	107.25
605.292	96.25
605.501	115.25
605.709	111.25
605.918	89.25
606.126	100.25
606.334	109.25
606.543	104.25
606.751	111.25
606.96	93.25
607.168	92.25
607.376	94.25
607.585	98.25
607.793	94.25
608.001	109.25
608.21	96.25
608.418	86.25
608.626	83.25
608.834	109.25
609.043	116.25
609.251	103.25
609.459	108.25
609.667	97.25
609.875	95.25
610.083	93.25
610.291	103.25
610.499	102.25
610.707	112.25
610.916	91.25
611.124	110.25
611.332	97.25
611.54	108.25
611.748	111.25
611.955	106.25
612.163	95.25
612.371	106.25
612.579	94.25
612.787	99.25
612.995	109.25
613.203	109.25
613.411	101.25
613.618	94.25
613.826	96.25
614.034	109.25
614.242	118.25
614.449	85.25
614.657	100.25
614.865	110.25
615.072	108.25
615.28	99.25
615.488	113.25
615.695	112.25
615.903	103.25
616.111	113.25
616.318	125.25
616.526	126.25
616.733	95.25
616.941	115.25
617.148	125.25
617.356	121.25
617.563	124.25
617.771	122.25
617.978	133.25
618.185	121.25
618.393	141.25
618.6	124.25
618.807	105.25
619.015	119.25
619.222	112.25
619.429	122.25
619.637	122.25
619.844	109.25
620.051	122.25
620.258	124.25
620.466	120.25
620.673	117.25
620.88	124.25
621.087	133.25
621.294	114.25
621.501	113.25
621.708	113.25
621.915	123.25
622.122	108.25
622.329	101.25
622.536	107.25
622.743	117.25
622.95	101.25
623.157	103.25
623.364	103.25
623.571	99.25
623.778	115.25
623.985	103.25
624.192	102.25
624.399	114.25
624.606	116.25
624.812	123.25
625.019	97.25
625.226	99.25
625.433	99.25
625.639	106.25
625.846	103.25
626.053	104.25
626.259	107.25
626.466	102.25
626.673	100.25
626.879	94.25
627.086	107.25
627.293	106.25
627.499	109.25
627.706	105.25
627.912	107.25
628.119	85.25
628.325	101.25
628.532	88.25
628.738	97.25
628.945	92.25
629.151	79.25
629.357	77.25
629.564	91.25
629.77	93.25
629.976	90.25
630.183	99.25
630.389	101.25
630.595	92.25
630.802	92.25
631.008	96.25
631.214	90.25
631.42	89.25
631.627	88.25
631.833	96.25
632.039	101.25
632.245	95.25
632.451	82.25
632.657	83.25
632.863	78.25
633.069	89.25
633.275	92.25
633.481	104.25
633.688	74.25
633.893	77.25
634.099	94.25
634.305	104.25
634.511	92.25
634.717	85.25
634.923	110.25
635.129	89.25
635.335	78.25
635.541	77.25
635.747	97.25
635.952	79.25
636.158	91.25
636.364	88.25
636.57	91.25
636.775	86.25
636.981	85.25
637.187	78.25
637.392	81.25
637.598	92.25
637.804	85.25
638.009	86.25
638.215	86.25
638.421	78.25
638.626	85.25
638.832	82.25
639.037	94.25
639.243	86.25
639.448	93.25
639.654	77.25
639.859	85.25
640.065	90.25
640.27	99.25
640.475	93.25
640.681	90.25
640.886	98.25
641.091	92.25
641.297	85.25
641.502	89.25
641.707	94.25
641.913	94.25
642.118	89.25
642.323	91.25
642.528	79.25
642.733	83.25
642.939	92.25
643.144	91.25
643.349	94.25
643.554	100.25
643.759	79.25
643.964	103.25
644.169	99.25
644.374	91.25
644.579	90.25
644.784	96.25
644.989	85.25
645.194	88.25
645.399	91.25
645.604	84.25
645.809	97.25
646.014	91.25
646.219	94.25
646.423	98.25
646.628	86.25
646.833	84.25
647.038	83.25
647.243	83.25
647.447	82.25
647.652	88.25
647.857	95.25
648.062	77.25
648.266	93.25
648.471	89.25
648.676	82.25
648.88	79.25
649.085	80.25
649.289	96.25
649.494	77.25
649.698	82.25
649.903	83.25
650.107	84.25
650.312	82.25
650.516	98.25
650.721	99.25
650.925	84.25
651.13	75.25
651.334	91.25
651.539	83.25
651.743	82.25
651.947	87.25
652.152	73.25
652.356	82.25
652.56	71.25
652.764	82.25
652.969	93.25
653.173	70.25
653.377	78.25
653.581	68.25
653.785	92.25
653.99	84.25
654.194	83.25
654.398	77.25
654.602	83.25
654.806	81.25
655.01	80.25
655.214	85.25
655.418	90.25
655.622	95.25
655.826	91.25
656.03	89.25
656.234	82.25
656.438	71.25
656.642	81.25
656.846	78.25
657.049	83.25
657.253	91.25
657.457	83.25
657.661	92.25
657.865	101.25
658.068	85.25
658.272	77.25
658.476	70.25
658.68	83.25
658.883	97.25
659.087	90.25
659.291	89.25
659.494	75.25
659.698	86.25
659.901	75.25
660.105	95.25
660.309	78.25
660.512	90.25
660.716	88.25
660.919	92.25
661.123	90.25
661.326	84.25
661.53	71.25
661.733	83.25
661.936	90.25
662.14	94.25
662.343	78.25
662.546	70.25
662.75	79.25
662.953	80.25
663.156	93.25
663.36	70.25
663.563	93.25
663.766	82.25
663.969	108.25
664.173	81.25
664.376	85.25
664.579	82.25
664.782	82.25
664.985	82.25
665.188	92.25
665.391	77.25
665.594	76.25
665.797	77.25
666	80.25
666.203	86.25
666.406	85.25
666.609	92.25
666.812	90.25
667.015	86.25
667.218	77.25
667.421	83.25
667.624	83.25
667.827	84.25
668.03	85.25
668.232	88.25
668.435	84.25
668.638	85.25
668.841	72.25
669.043	70.25
669.246	85.25
669.449	90.25
669.651	93.25
669.854	79.25
670.057	78.25
670.259	80.25
670.462	94.25
670.665	93.25
670.867	85.25
671.07	86.25
671.272	93.25
671.475	91.25
671.677	72.25
671.88	101.25
672.082	88.25
672.284	86.25
672.487	92.25
672.689	86.25
672.892	83.25
