Data from Soil_75_4_HRD10591_00008.txt Node
Date: Thu Feb 19 11:38:19 EST 2026
User: Yrep
Spectrometer: HR+D1059
Trigger mode: 1
Integration Time (sec): 1.000000E-1
Scans to average: 1
Electric dark correction enabled: true
Nonlinearity correction enabled: false
Boxcar width: 0
XAxis mode: Wavelengths
Number of Pixels in Spectrum: 2048
>>>>>Begin Spectral Data<<<<<
223.165	-23.5
223.4	-23.5
223.635	-23.5
223.869	-7.5
224.104	-18.5
224.338	-12.5
224.573	-14.5
224.808	-18.5
225.042	-16.5
225.277	-1.5
225.511	3.5
225.746	-2.5
225.98	-1.5
226.215	14.5
226.449	13.5
226.683	20.5
226.918	28.5
227.152	36.5
227.387	36.5
227.621	42.5
227.856	51.5
228.09	46.5
228.324	52.5
228.559	54.5
228.793	73.5
229.027	64.5
229.262	68.5
229.496	74.5
229.73	64.5
229.964	76.5
230.199	75.5
230.433	74.5
230.667	80.5
230.901	90.5
231.136	88.5
231.37	80.5
231.604	73.5
231.838	82.5
232.072	93.5
232.306	92.5
232.541	81.5
232.775	76.5
233.009	78.5
233.243	83.5
233.477	88.5
233.711	78.5
233.945	92.5
234.179	85.5
234.413	67.5
234.647	95.5
234.881	93.5
235.115	67.5
235.349	93.5
235.583	89.5
235.817	80.5
236.051	77.5
236.285	75.5
236.519	59.5
236.753	80.5
236.987	77.5
237.221	84.5
237.455	78.5
237.689	85.5
237.922	74.5
238.156	87.5
238.39	88.5
238.624	75.5
238.858	74.5
239.091	83.5
239.325	76.5
239.559	80.5
239.793	82.5
240.027	77.5
240.26	86.5
240.494	81.5
240.728	82.5
240.961	82.5
241.195	108.5
241.429	82.5
241.662	80.5
241.896	70.5
242.13	77.5
242.363	80.5
242.597	72.5
242.83	81.5
243.064	82.5
243.298	65.5
243.531	81.5
243.765	80.5
243.998	70.5
244.232	78.5
244.465	75.5
244.699	76.5
244.932	73.5
245.166	81.5
245.399	76.5
245.633	76.5
245.866	70.5
246.099	70.5
246.333	77.5
246.566	75.5
246.8	85.5
247.033	92.5
247.266	81.5
247.5	66.5
247.733	80.5
247.966	79.5
248.2	82.5
248.433	81.5
248.666	92.5
248.899	77.5
249.133	85.5
249.366	95.5
249.599	78.5
249.832	78.5
250.066	83.5
250.299	86.5
250.532	93.5
250.765	78.5
250.998	74.5
251.231	92.5
251.465	73.5
251.698	78.5
251.931	72.5
252.164	71.5
252.397	66.5
252.63	80.5
252.863	75.5
253.096	77.5
253.329	89.5
253.562	80.5
253.795	82.5
254.028	75.5
254.261	89.5
254.494	74.5
254.727	64.5
254.96	86.5
255.193	90.5
255.426	73.5
255.659	83.5
255.892	89.5
256.124	74.5
256.357	92.5
256.59	89.5
256.823	78.5
257.056	90.5
257.289	83.5
257.521	76.5
257.754	68.5
257.987	71.5
258.22	86.5
258.452	85.5
258.685	75.5
258.918	61.5
259.151	84.5
259.383	72.5
259.616	88.5
259.849	78.5
260.081	84.5
260.314	80.5
260.547	72.5
260.779	78.5
261.012	89.5
261.244	84.5
261.477	77.5
261.71	97.5
261.942	80.5
262.175	101.5
262.407	70.5
262.64	90.5
262.872	74.5
263.105	89.5
263.337	87.5
263.57	93.5
263.802	84.5
264.035	90.5
264.267	90.5
264.499	74.5
264.732	76.5
264.964	88.5
265.197	78.5
265.429	84.5
265.661	83.5
265.894	75.5
266.126	76.5
266.358	84.5
266.591	78.5
266.823	72.5
267.055	77.5
267.287	82.5
267.52	71.5
267.752	82.5
267.984	86.5
268.216	89.5
268.448	84.5
268.681	76.5
268.913	74.5
269.145	76.5
269.377	91.5
269.609	75.5
269.841	75.5
270.073	85.5
270.306	84.5
270.538	84.5
270.77	84.5
271.002	85.5
271.234	86.5
271.466	82.5
271.698	76.5
271.93	90.5
272.162	74.5
272.394	80.5
272.626	76.5
272.858	90.5
273.09	86.5
273.322	93.5
273.553	82.5
273.785	78.5
274.017	81.5
274.249	83.5
274.481	87.5
274.713	72.5
274.945	84.5
275.176	80.5
275.408	81.5
275.64	84.5
275.872	93.5
276.104	75.5
276.335	88.5
276.567	90.5
276.799	87.5
277.031	97.5
277.262	74.5
277.494	86.5
277.726	87.5
277.957	93.5
278.189	75.5
278.421	90.5
278.652	89.5
278.884	92.5
279.115	92.5
279.347	83.5
279.579	86.5
279.81	77.5
280.042	92.5
280.273	89.5
280.505	77.5
280.736	76.5
280.968	94.5
281.199	89.5
281.431	83.5
281.662	84.5
281.894	97.5
282.125	74.5
282.356	72.5
282.588	90.5
282.819	96.5
283.051	95.5
283.282	92.5
283.513	83.5
283.745	85.5
283.976	77.5
284.207	90.5
284.439	95.5
284.67	84.5
284.901	86.5
285.132	92.5
285.364	94.5
285.595	77.5
285.826	82.5
286.057	76.5
286.288	69.5
286.52	94.5
286.751	95.5
286.982	80.5
287.213	89.5
287.444	85.5
287.675	82.5
287.906	93.5
288.138	94.5
288.369	80.5
288.6	75.5
288.831	84.5
289.062	81.5
289.293	80.5
289.524	90.5
289.755	93.5
289.986	83.5
290.217	85.5
290.448	98.5
290.679	78.5
290.91	100.5
291.141	73.5
291.371	79.5
291.602	80.5
291.833	90.5
292.064	94.5
292.295	100.5
292.526	100.5
292.757	85.5
292.987	107.5
293.218	91.5
293.449	78.5
293.68	88.5
293.91	86.5
294.141	85.5
294.372	100.5
294.603	86.5
294.833	80.5
295.064	82.5
295.295	91.5
295.525	90.5
295.756	92.5
295.987	86.5
296.217	76.5
296.448	95.5
296.679	86.5
296.909	82.5
297.14	88.5
297.37	90.5
297.601	77.5
297.831	82.5
298.062	86.5
298.292	67.5
298.523	85.5
298.753	90.5
298.984	86.5
299.214	70.5
299.445	80.5
299.675	82.5
299.905	97.5
300.136	101.5
300.366	89.5
300.597	91.5
300.827	88.5
301.057	77.5
301.288	87.5
301.518	66.5
301.748	94.5
301.979	112.5
302.209	74.5
302.439	64.5
302.669	88.5
302.9	97.5
303.13	87.5
303.36	90.5
303.59	93.5
303.82	96.5
304.051	86.5
304.281	81.5
304.511	89.5
304.741	79.5
304.971	85.5
305.201	75.5
305.431	79.5
305.661	88.5
305.891	76.5
306.121	92.5
306.352	84.5
306.582	85.5
306.812	85.5
307.042	108.5
307.272	92.5
307.502	88.5
307.731	86.5
307.961	96.5
308.191	85.5
308.421	87.5
308.651	88.5
308.881	86.5
309.111	69.5
309.341	84.5
309.571	84.5
309.8	92.5
310.03	92.5
310.26	97.5
310.49	84.5
310.72	84.5
310.949	75.5
311.179	89.5
311.409	89.5
311.639	94.5
311.868	82.5
312.098	84.5
312.328	90.5
312.557	76.5
312.787	88.5
313.017	85.5
313.246	83.5
313.476	89.5
313.706	87.5
313.935	78.5
314.165	84.5
314.394	82.5
314.624	84.5
314.853	80.5
315.083	87.5
315.312	75.5
315.542	87.5
315.771	78.5
316.001	89.5
316.23	73.5
316.46	89.5
316.689	76.5
316.919	82.5
317.148	87.5
317.377	87.5
317.607	93.5
317.836	75.5
318.065	74.5
318.295	83.5
318.524	74.5
318.753	73.5
318.983	82.5
319.212	84.5
319.441	74.5
319.67	90.5
319.9	83.5
320.129	102.5
320.358	84.5
320.587	90.5
320.816	92.5
321.046	89.5
321.275	72.5
321.504	94.5
321.733	80.5
321.962	81.5
322.191	85.5
322.42	82.5
322.649	84.5
322.878	102.5
323.108	73.5
323.337	90.5
323.566	110.5
323.795	84.5
324.024	93.5
324.253	98.5
324.482	88.5
324.71	82.5
324.939	101.5
325.168	80.5
325.397	82.5
325.626	92.5
325.855	72.5
326.084	90.5
326.313	72.5
326.542	91.5
326.77	94.5
326.999	85.5
327.228	85.5
327.457	93.5
327.686	93.5
327.914	82.5
328.143	89.5
328.372	93.5
328.6	92.5
328.829	77.5
329.058	72.5
329.287	92.5
329.515	88.5
329.744	89.5
329.972	85.5
330.201	98.5
330.43	90.5
330.658	74.5
330.887	75.5
331.115	93.5
331.344	81.5
331.572	84.5
331.801	76.5
332.03	98.5
332.258	93.5
332.486	82.5
332.715	81.5
332.943	99.5
333.172	89.5
333.4	71.5
333.629	80.5
333.857	86.5
334.085	91.5
334.314	93.5
334.542	87.5
334.771	86.5
334.999	79.5
335.227	77.5
335.455	93.5
335.684	97.5
335.912	102.5
336.14	77.5
336.369	102.5
336.597	75.5
336.825	83.5
337.053	93.5
337.281	85.5
337.51	82.5
337.738	89.5
337.966	73.5
338.194	86.5
338.422	91.5
338.65	95.5
338.878	87.5
339.106	87.5
339.334	96.5
339.562	88.5
339.79	78.5
340.018	76.5
340.246	80.5
340.474	92.5
340.702	80.5
340.93	82.5
341.158	96.5
341.386	75.5
341.614	73.5
341.842	88.5
342.07	88.5
342.298	80.5
342.526	74.5
342.754	66.5
342.981	81.5
343.209	77.5
343.437	108.5
343.665	95.5
343.893	79.5
344.12	66.5
344.348	92.5
344.576	84.5
344.804	74.5
345.031	95.5
345.259	103.5
345.487	94.5
345.714	91.5
345.942	83.5
346.17	90.5
346.397	86.5
346.625	88.5
346.853	91.5
347.08	96.5
347.308	80.5
347.535	97.5
347.763	103.5
347.99	82.5
348.218	87.5
348.445	87.5
348.673	74.5
348.9	72.5
349.128	91.5
349.355	82.5
349.583	78.5
349.81	80.5
350.037	71.5
350.265	88.5
350.492	85.5
350.72	75.5
350.947	80.5
351.174	104.5
351.402	89.5
351.629	94.5
351.856	93.5
352.083	69.5
352.311	76.5
352.538	76.5
352.765	83.5
352.992	87.5
353.22	101.5
353.447	100.5
353.674	81.5
353.901	74.5
354.128	95.5
354.355	81.5
354.583	87.5
354.81	81.5
355.037	101.5
355.264	88.5
355.491	85.5
355.718	88.5
355.945	92.5
356.172	89.5
356.399	93.5
356.626	89.5
356.853	77.5
357.08	89.5
357.307	95.5
357.534	87.5
357.761	76.5
357.988	106.5
358.215	83.5
358.441	88.5
358.668	87.5
358.895	89.5
359.122	76.5
359.349	80.5
359.576	84.5
359.802	94.5
360.029	90.5
360.256	82.5
360.483	78.5
360.709	78.5
360.936	98.5
361.163	89.5
361.39	90.5
361.616	95.5
361.843	76.5
362.07	92.5
362.296	83.5
362.523	70.5
362.749	83.5
362.976	84.5
363.203	86.5
363.429	92.5
363.656	94.5
363.882	87.5
364.109	78.5
364.335	94.5
364.562	93.5
364.788	95.5
365.015	91.5
365.241	82.5
365.468	81.5
365.694	84.5
365.92	88.5
366.147	75.5
366.373	88.5
366.599	77.5
366.826	90.5
367.052	85.5
367.278	90.5
367.505	72.5
367.731	78.5
367.957	84.5
368.184	76.5
368.41	74.5
368.636	88.5
368.862	74.5
369.089	78.5
369.315	81.5
369.541	79.5
369.767	82.5
369.993	83.5
370.219	91.5
370.445	86.5
370.672	92.5
370.898	84.5
371.124	82.5
371.35	73.5
371.576	76.5
371.802	88.5
372.028	82.5
372.254	83.5
372.48	76.5
372.706	87.5
372.932	82.5
373.158	99.5
373.384	90.5
373.61	92.5
373.835	75.5
374.061	90.5
374.287	93.5
374.513	88.5
374.739	104.5
374.965	93.5
375.191	90.5
375.416	89.5
375.642	81.5
375.868	100.5
376.094	75.5
376.319	77.5
376.545	77.5
376.771	84.5
376.997	89.5
377.222	84.5
377.448	84.5
377.674	88.5
377.899	86.5
378.125	86.5
378.35	82.5
378.576	87.5
378.802	86.5
379.027	85.5
379.253	87.5
379.478	81.5
379.704	89.5
379.929	87.5
380.155	89.5
380.38	88.5
380.606	82.5
380.831	79.5
381.057	99.5
381.282	94.5
381.507	90.5
381.733	77.5
381.958	82.5
382.184	74.5
382.409	99.5
382.634	87.5
382.86	88.5
383.085	93.5
383.31	100.5
383.535	104.5
383.761	96.5
383.986	108.5
384.211	81.5
384.436	84.5
384.662	73.5
384.887	75.5
385.112	84.5
385.337	84.5
385.562	79.5
385.787	102.5
386.013	82.5
386.238	91.5
386.463	75.5
386.688	98.5
386.913	86.5
387.138	90.5
387.363	85.5
387.588	85.5
387.813	93.5
388.038	78.5
388.263	82.5
388.488	89.5
388.713	84.5
388.938	85.5
389.163	80.5
389.387	94.5
389.612	84.5
389.837	86.5
390.062	80.5
390.287	80.5
390.512	85.5
390.736	94.5
390.961	81.5
391.186	81.5
391.411	89.5
391.636	83.5
391.86	86.5
392.085	78.5
392.31	76.5
392.534	82.5
392.759	98.5
392.984	98.5
393.208	129.5
393.433	141.5
393.658	117.5
393.882	84.5
394.107	86.5
394.331	85.5
394.556	93.5
394.78	83.5
395.005	85.5
395.229	81.5
395.454	86.5
395.678	88.5
395.903	100.5
396.127	79.5
396.352	67.5
396.576	90.5
396.801	130.5
397.025	124.5
397.249	88.5
397.474	81.5
397.698	90.5
397.922	90.5
398.147	80.5
398.371	81.5
398.595	86.5
398.82	75.5
399.044	86.5
399.268	85.5
399.492	83.5
399.717	87.5
399.941	81.5
400.165	92.5
400.389	76.5
400.613	78.5
400.837	73.5
401.062	82.5
401.286	74.5
401.51	76.5
401.734	84.5
401.958	92.5
402.182	87.5
402.406	88.5
402.63	83.5
402.854	77.5
403.078	84.5
403.302	76.5
403.526	89.5
403.75	92.5
403.974	80.5
404.198	97.5
404.422	106.5
404.645	98.5
404.869	84.5
405.093	89.5
405.317	79.5
405.541	83.5
405.765	84.5
405.988	94.5
406.212	86.5
406.436	100.5
406.66	99.5
406.883	88.5
407.107	94.5
407.331	76.5
407.555	101.5
407.778	96.5
408.002	86.5
408.226	93.5
408.449	82.5
408.673	75.5
408.896	87.5
409.12	80.5
409.344	78.5
409.567	89.5
409.791	76.5
410.014	71.5
410.238	80.5
410.461	76.5
410.685	76.5
410.908	83.5
411.132	91.5
411.355	73.5
411.578	82.5
411.802	80.5
412.025	82.5
412.249	81.5
412.472	80.5
412.695	86.5
412.919	87.5
413.142	80.5
413.365	77.5
413.589	86.5
413.812	85.5
414.035	92.5
414.258	82.5
414.482	72.5
414.705	92.5
414.928	93.5
415.151	97.5
415.374	85.5
415.597	92.5
415.821	82.5
416.044	78.5
416.267	82.5
416.49	78.5
416.713	78.5
416.936	83.5
417.159	75.5
417.382	95.5
417.605	101.5
417.828	84.5
418.051	77.5
418.274	80.5
418.497	78.5
418.72	85.5
418.943	82.5
419.166	84.5
419.389	74.5
419.611	85.5
419.834	80.5
420.057	86.5
420.28	78.5
420.503	93.5
420.726	97.5
420.948	84.5
421.171	94.5
421.394	73.5
421.617	89.5
421.839	80.5
422.062	88.5
422.285	108.5
422.507	127.5
422.73	148.5
422.953	127.5
423.175	92.5
423.398	86.5
423.621	101.5
423.843	87.5
424.066	80.5
424.288	80.5
424.511	86.5
424.733	88.5
424.956	98.5
425.178	69.5
425.401	90.5
425.623	91.5
425.846	74.5
426.068	85.5
426.291	79.5
426.513	89.5
426.735	84.5
426.958	74.5
427.18	86.5
427.402	83.5
427.625	92.5
427.847	79.5
428.069	91.5
428.292	83.5
428.514	88.5
428.736	93.5
428.958	89.5
429.181	85.5
429.403	87.5
429.625	82.5
429.847	93.5
430.069	106.5
430.292	106.5
430.514	94.5
430.736	86.5
430.958	85.5
431.18	73.5
431.402	86.5
431.624	77.5
431.846	83.5
432.068	94.5
432.29	68.5
432.512	93.5
432.734	84.5
432.956	74.5
433.178	87.5
433.4	88.5
433.622	78.5
433.844	89.5
434.066	91.5
434.287	84.5
434.509	78.5
434.731	74.5
434.953	97.5
435.175	74.5
435.397	90.5
435.618	69.5
435.84	95.5
436.062	68.5
436.284	79.5
436.505	86.5
436.727	96.5
436.949	90.5
437.17	81.5
437.392	81.5
437.614	94.5
437.835	72.5
438.057	82.5
438.278	82.5
438.5	81.5
438.721	84.5
438.943	86.5
439.165	91.5
439.386	99.5
439.608	86.5
439.829	85.5
440.05	89.5
440.272	80.5
440.493	80.5
440.715	92.5
440.936	78.5
441.158	82.5
441.379	84.5
441.6	99.5
441.822	86.5
442.043	76.5
442.264	77.5
442.486	93.5
442.707	95.5
442.928	98.5
443.149	85.5
443.371	104.5
443.592	106.5
443.813	103.5
444.034	84.5
444.255	95.5
444.476	87.5
444.698	88.5
444.919	75.5
445.14	165.5
445.361	144.5
445.582	129.5
445.803	110.5
446.024	87.5
446.245	90.5
446.466	80.5
446.687	98.5
446.908	90.5
447.129	86.5
447.35	87.5
447.571	91.5
447.792	84.5
448.013	87.5
448.234	80.5
448.455	100.5
448.675	92.5
448.896	86.5
449.117	81.5
449.338	84.5
449.559	92.5
449.779	83.5
450	86.5
450.221	72.5
450.442	90.5
450.662	82.5
450.883	87.5
451.104	89.5
451.324	79.5
451.545	86.5
451.766	86.5
451.986	85.5
452.207	79.5
452.428	72.5
452.648	86.5
452.869	86.5
453.089	88.5
453.31	80.5
453.53	88.5
453.751	98.5
453.971	81.5
454.192	80.5
454.412	85.5
454.633	79.5
454.853	79.5
455.073	80.5
455.294	83.5
455.514	99.5
455.734	69.5
455.955	80.5
456.175	88.5
456.395	83.5
456.616	77.5
456.836	86.5
457.056	84.5
457.276	87.5
457.497	81.5
457.717	85.5
457.937	91.5
458.157	84.5
458.377	85.5
458.598	91.5
458.818	89.5
459.038	91.5
459.258	88.5
459.478	91.5
459.698	76.5
459.918	79.5
460.138	88.5
460.358	78.5
460.578	93.5
460.798	96.5
461.018	80.5
461.238	74.5
461.458	80.5
461.678	78.5
461.898	85.5
462.118	80.5
462.338	88.5
462.558	78.5
462.777	80.5
462.997	89.5
463.217	88.5
463.437	84.5
463.657	73.5
463.876	69.5
464.096	94.5
464.316	82.5
464.536	66.5
464.755	78.5
464.975	62.5
465.195	90.5
465.414	79.5
465.634	84.5
465.854	76.5
466.073	87.5
466.293	86.5
466.512	74.5
466.732	93.5
466.951	91.5
467.171	83.5
467.391	84.5
467.61	70.5
467.829	88.5
468.049	76.5
468.268	88.5
468.488	76.5
468.707	86.5
468.927	94.5
469.146	67.5
469.365	79.5
469.585	88.5
469.804	92.5
470.023	86.5
470.243	74.5
470.462	93.5
470.681	86.5
470.901	77.5
471.12	81.5
471.339	70.5
471.558	91.5
471.777	92.5
471.997	80.5
472.216	80.5
472.435	101.5
472.654	83.5
472.873	95.5
473.092	89.5
473.311	84.5
473.53	81.5
473.749	106.5
473.968	90.5
474.187	92.5
474.406	85.5
474.625	80.5
474.844	87.5
475.063	84.5
475.282	87.5
475.501	72.5
475.72	91.5
475.939	77.5
476.158	105.5
476.377	92.5
476.596	80.5
476.814	82.5
477.033	83.5
477.252	78.5
477.471	88.5
477.69	85.5
477.908	85.5
478.127	83.5
478.346	104.5
478.564	92.5
478.783	87.5
479.002	78.5
479.22	82.5
479.439	88.5
479.658	71.5
479.876	85.5
480.095	87.5
480.313	92.5
480.532	89.5
480.751	99.5
480.969	90.5
481.188	84.5
481.406	87.5
481.624	77.5
481.843	85.5
482.061	90.5
482.28	82.5
482.498	81.5
482.717	82.5
482.935	87.5
483.153	77.5
483.372	82.5
483.59	76.5
483.808	72.5
484.027	101.5
484.245	92.5
484.463	87.5
484.681	101.5
484.9	96.5
485.118	80.5
485.336	84.5
485.554	90.5
485.772	83.5
485.99	85.5
486.209	86.5
486.427	78.5
486.645	99.5
486.863	88.5
487.081	82.5
487.299	100.5
487.517	85.5
487.735	88.5
487.953	106.5
488.171	104.5
488.389	78.5
488.607	81.5
488.825	80.5
489.043	87.5
489.261	96.5
489.479	73.5
489.696	86.5
489.914	94.5
490.132	95.5
490.35	100.5
490.568	83.5
490.786	81.5
491.003	86.5
491.221	92.5
491.439	92.5
491.657	85.5
491.874	84.5
492.092	74.5
492.31	86.5
492.527	89.5
492.745	90.5
492.963	79.5
493.18	92.5
493.398	77.5
493.615	85.5
493.833	83.5
494.05	84.5
494.268	90.5
494.485	106.5
494.703	91.5
494.92	86.5
495.138	78.5
495.355	72.5
495.573	86.5
495.79	78.5
496.008	101.5
496.225	97.5
496.442	80.5
496.66	93.5
496.877	102.5
497.094	91.5
497.312	82.5
497.529	70.5
497.746	99.5
497.963	84.5
498.181	97.5
498.398	88.5
498.615	88.5
498.832	99.5
499.049	102.5
499.267	99.5
499.484	98.5
499.701	92.5
499.918	88.5
500.135	84.5
500.352	80.5
500.569	85.5
500.786	90.5
501.003	98.5
501.22	84.5
501.437	80.5
501.654	89.5
501.871	84.5
502.088	76.5
502.305	80.5
502.522	86.5
502.739	93.5
502.956	84.5
503.172	75.5
503.389	90.5
503.606	87.5
503.823	80.5
504.04	88.5
504.256	101.5
504.473	89.5
504.69	86.5
504.907	84.5
505.123	78.5
505.34	98.5
505.557	112.5
505.773	82.5
505.99	78.5
506.207	94.5
506.423	84.5
506.64	85.5
506.856	89.5
507.073	79.5
507.289	75.5
507.506	80.5
507.722	94.5
507.939	95.5
508.155	87.5
508.372	92.5
508.588	100.5
508.805	89.5
509.021	81.5
509.238	79.5
509.454	73.5
509.67	94.5
509.887	81.5
510.103	99.5
510.319	83.5
510.536	91.5
510.752	90.5
510.968	95.5
511.184	76.5
511.401	81.5
511.617	98.5
511.833	93.5
512.049	75.5
512.265	84.5
512.481	96.5
512.698	92.5
512.914	76.5
513.13	74.5
513.346	89.5
513.562	86.5
513.778	84.5
513.994	77.5
514.21	81.5
514.426	78.5
514.642	88.5
514.858	81.5
515.074	89.5
515.29	101.5
515.506	98.5
515.721	93.5
515.937	98.5
516.153	88.5
516.369	94.5
516.585	100.5
516.801	91.5
517.016	105.5
517.232	90.5
517.448	109.5
517.664	93.5
517.879	88.5
518.095	86.5
518.311	105.5
518.527	132.5
518.742	107.5
518.958	92.5
519.173	100.5
519.389	89.5
519.605	90.5
519.82	85.5
520.036	77.5
520.251	83.5
520.467	88.5
520.682	90.5
520.898	97.5
521.113	94.5
521.329	82.5
521.544	94.5
521.76	91.5
521.975	94.5
522.19	81.5
522.406	76.5
522.621	90.5
522.836	88.5
523.052	91.5
523.267	78.5
523.482	98.5
523.698	92.5
523.913	101.5
524.128	94.5
524.343	70.5
524.559	84.5
524.774	90.5
524.989	93.5
525.204	84.5
525.419	65.5
525.634	94.5
525.849	90.5
526.064	78.5
526.28	109.5
526.495	134.5
526.71	133.5
526.925	112.5
527.14	117.5
527.355	123.5
527.57	87.5
527.785	99.5
527.999	76.5
528.214	98.5
528.429	97.5
528.644	69.5
528.859	92.5
529.074	98.5
529.289	88.5
529.503	94.5
529.718	83.5
529.933	97.5
530.148	78.5
530.363	84.5
530.577	95.5
530.792	76.5
531.007	84.5
531.221	80.5
531.436	78.5
531.651	109.5
531.865	100.5
532.08	96.5
532.295	92.5
532.509	98.5
532.724	86.5
532.938	78.5
533.153	84.5
533.367	87.5
533.582	69.5
533.796	84.5
534.011	91.5
534.225	88.5
534.44	90.5
534.654	101.5
534.868	88.5
535.083	109.5
535.297	109.5
535.511	88.5
535.726	93.5
535.94	87.5
536.154	97.5
536.369	107.5
536.583	101.5
536.797	105.5
537.011	88.5
537.225	93.5
537.44	93.5
537.654	102.5
537.868	91.5
538.082	90.5
538.296	100.5
538.51	91.5
538.724	95.5
538.938	95.5
539.153	97.5
539.367	96.5
539.581	104.5
539.795	96.5
540.009	91.5
540.222	82.5
540.436	80.5
540.65	97.5
540.864	91.5
541.078	92.5
541.292	88.5
541.506	86.5
541.72	82.5
541.934	84.5
542.147	98.5
542.361	83.5
542.575	94.5
542.789	102.5
543.002	104.5
543.216	90.5
543.43	80.5
543.644	91.5
543.857	86.5
544.071	84.5
544.285	90.5
544.498	89.5
544.712	85.5
544.925	85.5
545.139	79.5
545.352	86.5
545.566	81.5
545.779	78.5
545.993	88.5
546.206	88.5
546.42	83.5
546.633	92.5
546.847	100.5
547.06	91.5
547.274	98.5
547.487	84.5
547.7	92.5
547.914	98.5
548.127	95.5
548.34	95.5
548.554	106.5
548.767	89.5
548.98	98.5
549.193	98.5
549.407	101.5
549.62	95.5
549.833	106.5
550.046	89.5
550.259	101.5
550.473	107.5
550.686	108.5
550.899	100.5
551.112	107.5
551.325	113.5
551.538	102.5
551.751	113.5
551.964	127.5
552.177	122.5
552.39	121.5
552.603	113.5
552.816	129.5
553.029	108.5
553.242	112.5
553.455	125.5
553.667	132.5
553.88	128.5
554.093	124.5
554.306	144.5
554.519	128.5
554.732	142.5
554.944	130.5
555.157	131.5
555.37	125.5
555.583	129.5
555.795	131.5
556.008	119.5
556.221	109.5
556.433	118.5
556.646	114.5
556.859	93.5
557.071	107.5
557.284	109.5
557.496	115.5
557.709	93.5
557.921	96.5
558.134	109.5
558.346	113.5
558.559	112.5
558.771	110.5
558.984	144.5
559.196	156.5
559.409	121.5
559.621	144.5
559.833	122.5
560.046	130.5
560.258	124.5
560.47	108.5
560.683	95.5
560.895	86.5
561.107	113.5
561.32	92.5
561.532	90.5
561.744	95.5
561.956	79.5
562.168	94.5
562.381	90.5
562.593	87.5
562.805	98.5
563.017	82.5
563.229	108.5
563.441	92.5
563.653	86.5
563.865	81.5
564.077	89.5
564.289	87.5
564.501	77.5
564.713	91.5
564.925	79.5
565.137	96.5
565.349	97.5
565.561	94.5
565.773	94.5
565.985	101.5
566.197	88.5
566.408	88.5
566.62	91.5
566.832	92.5
567.044	108.5
567.255	108.5
567.467	102.5
567.679	100.5
567.891	93.5
568.102	96.5
568.314	107.5
568.526	104.5
568.737	117.5
568.949	122.5
569.161	123.5
569.372	110.5
569.584	107.5
569.795	92.5
570.007	104.5
570.218	106.5
570.43	94.5
570.641	94.5
570.853	85.5
571.064	112.5
571.276	88.5
571.487	107.5
571.698	94.5
571.91	82.5
572.121	94.5
572.333	97.5
572.544	95.5
572.755	81.5
572.966	89.5
573.178	88.5
573.389	85.5
573.6	105.5
573.811	93.5
574.023	95.5
574.234	98.5
574.445	99.5
574.656	80.5
574.867	98.5
575.078	90.5
575.289	84.5
575.501	90.5
575.712	92.5
575.923	91.5
576.134	94.5
576.345	92.5
576.556	90.5
576.767	92.5
576.978	105.5
577.188	103.5
577.399	82.5
577.61	98.5
577.821	94.5
578.032	90.5
578.243	96.5
578.454	86.5
578.665	85.5
578.875	74.5
579.086	99.5
579.297	90.5
579.508	91.5
579.718	94.5
579.929	94.5
580.14	82.5
580.35	88.5
580.561	86.5
580.772	93.5
580.982	88.5
581.193	91.5
581.403	101.5
581.614	96.5
581.825	95.5
582.035	93.5
582.246	95.5
582.456	92.5
582.667	85.5
582.877	90.5
583.087	93.5
583.298	87.5
583.508	92.5
583.719	106.5
583.929	97.5
584.139	93.5
584.35	79.5
584.56	108.5
584.77	100.5
584.981	76.5
585.191	86.5
585.401	83.5
585.611	104.5
585.821	117.5
586.032	136.5
586.242	117.5
586.452	112.5
586.662	106.5
586.872	113.5
587.082	105.5
587.292	110.5
587.502	105.5
587.713	107.5
587.923	129.5
588.133	129.5
588.343	153.5
588.553	183.5
588.762	249.5
588.972	359.5
589.182	352.5
589.392	366.5
589.602	380.5
589.812	369.5
590.022	323.5
590.232	236.5
590.441	154.5
590.651	134.5
590.861	122.5
591.071	113.5
591.281	119.5
591.49	124.5
591.7	121.5
591.91	107.5
592.119	112.5
592.329	104.5
592.539	112.5
592.748	107.5
592.958	100.5
593.167	110.5
593.377	107.5
593.587	118.5
593.796	128.5
594.006	120.5
594.215	113.5
594.424	120.5
594.634	92.5
594.843	102.5
595.053	106.5
595.262	94.5
595.472	112.5
595.681	102.5
595.89	97.5
596.1	91.5
596.309	108.5
596.518	113.5
596.727	108.5
596.937	98.5
597.146	111.5
597.355	107.5
597.564	108.5
597.774	107.5
597.983	112.5
598.192	100.5
598.401	104.5
598.61	108.5
598.819	117.5
599.028	104.5
599.237	123.5
599.446	132.5
599.655	117.5
599.864	107.5
600.073	105.5
600.282	118.5
600.491	108.5
600.7	106.5
600.909	116.5
601.118	101.5
601.327	107.5
601.536	106.5
601.745	101.5
601.953	109.5
602.162	95.5
602.371	86.5
602.58	92.5
602.789	105.5
602.997	98.5
603.206	121.5
603.415	88.5
603.623	90.5
603.832	117.5
604.041	104.5
604.249	106.5
604.458	99.5
604.666	100.5
604.875	109.5
605.084	106.5
605.292	104.5
605.501	116.5
605.709	101.5
605.918	100.5
606.126	110.5
606.334	115.5
606.543	120.5
606.751	108.5
606.96	114.5
607.168	112.5
607.376	100.5
607.585	110.5
607.793	101.5
608.001	97.5
608.21	92.5
608.418	98.5
608.626	115.5
608.834	117.5
609.043	116.5
609.251	117.5
609.459	111.5
609.667	114.5
609.875	115.5
610.083	124.5
610.291	122.5
610.499	133.5
610.707	109.5
610.916	114.5
611.124	119.5
611.332	100.5
611.54	108.5
611.748	127.5
611.955	101.5
612.163	107.5
612.371	149.5
612.579	138.5
612.787	122.5
612.995	116.5
613.203	117.5
613.411	116.5
613.618	126.5
613.826	115.5
614.034	110.5
614.242	132.5
614.449	133.5
614.657	109.5
614.865	122.5
615.072	123.5
615.28	128.5
615.488	107.5
615.695	139.5
615.903	111.5
616.111	144.5
616.318	173.5
616.526	178.5
616.733	160.5
616.941	145.5
617.148	161.5
617.356	152.5
617.563	151.5
617.771	147.5
617.978	157.5
618.185	146.5
618.393	138.5
618.6	144.5
618.807	131.5
619.015	135.5
619.222	142.5
619.429	133.5
619.637	134.5
619.844	122.5
620.051	138.5
620.258	133.5
620.466	141.5
620.673	131.5
620.88	142.5
621.087	156.5
621.294	145.5
621.501	129.5
621.708	124.5
621.915	128.5
622.122	128.5
622.329	117.5
622.536	130.5
622.743	128.5
622.95	132.5
623.157	120.5
623.364	130.5
623.571	129.5
623.778	122.5
623.985	142.5
624.192	131.5
624.399	126.5
624.606	123.5
624.812	141.5
625.019	138.5
625.226	125.5
625.433	132.5
625.639	139.5
625.846	119.5
626.053	124.5
626.259	140.5
626.466	125.5
626.673	108.5
626.879	116.5
627.086	110.5
627.293	113.5
627.499	115.5
627.706	120.5
627.912	95.5
628.119	86.5
628.325	100.5
628.532	92.5
628.738	97.5
628.945	94.5
629.151	102.5
629.357	90.5
629.564	105.5
629.77	94.5
629.976	100.5
630.183	100.5
630.389	100.5
630.595	104.5
630.802	91.5
631.008	89.5
631.214	95.5
631.42	92.5
631.627	93.5
631.833	96.5
632.039	100.5
632.245	88.5
632.451	86.5
632.657	91.5
632.863	83.5
633.069	98.5
633.275	88.5
633.481	83.5
633.688	106.5
633.893	104.5
634.099	90.5
634.305	96.5
634.511	98.5
634.717	111.5
634.923	85.5
635.129	88.5
635.335	88.5
635.541	83.5
635.747	91.5
635.952	79.5
636.158	87.5
636.364	101.5
636.57	86.5
636.775	92.5
636.981	100.5
637.187	89.5
637.392	92.5
637.598	93.5
637.804	81.5
638.009	104.5
638.215	102.5
638.421	81.5
638.626	89.5
638.832	90.5
639.037	96.5
639.243	78.5
639.448	82.5
639.654	100.5
639.859	95.5
640.065	92.5
640.27	88.5
640.475	83.5
640.681	80.5
640.886	84.5
641.091	84.5
641.297	89.5
641.502	82.5
641.707	92.5
641.913	100.5
642.118	90.5
642.323	90.5
642.528	91.5
642.733	93.5
642.939	91.5
643.144	84.5
643.349	93.5
643.554	92.5
643.759	91.5
643.964	93.5
644.169	109.5
644.374	98.5
644.579	88.5
644.784	96.5
644.989	98.5
645.194	89.5
645.399	89.5
645.604	89.5
645.809	93.5
646.014	92.5
646.219	94.5
646.423	109.5
646.628	82.5
646.833	90.5
647.038	84.5
647.243	83.5
647.447	117.5
647.652	104.5
647.857	82.5
648.062	80.5
648.266	84.5
648.471	92.5
648.676	92.5
648.88	74.5
649.085	88.5
649.289	81.5
649.494	81.5
649.698	93.5
649.903	95.5
650.107	90.5
650.312	100.5
650.516	84.5
650.721	98.5
650.925	90.5
651.13	92.5
651.334	83.5
651.539	86.5
651.743	81.5
651.947	99.5
652.152	79.5
652.356	89.5
652.56	73.5
652.764	82.5
652.969	81.5
653.173	86.5
653.377	80.5
653.581	72.5
653.785	101.5
653.99	82.5
654.194	92.5
654.398	84.5
654.602	83.5
654.806	94.5
655.01	103.5
655.214	89.5
655.418	75.5
655.622	92.5
655.826	79.5
656.03	79.5
656.234	84.5
656.438	84.5
656.642	76.5
656.846	74.5
657.049	88.5
657.253	85.5
657.457	88.5
657.661	95.5
657.865	85.5
658.068	84.5
658.272	77.5
658.476	78.5
658.68	86.5
658.883	91.5
659.087	90.5
659.291	81.5
659.494	79.5
659.698	91.5
659.901	90.5
660.105	80.5
660.309	88.5
660.512	78.5
660.716	84.5
660.919	79.5
661.123	87.5
661.326	95.5
661.53	106.5
661.733	90.5
661.936	88.5
662.14	85.5
662.343	95.5
662.546	79.5
662.75	84.5
662.953	81.5
663.156	81.5
663.36	95.5
663.563	80.5
663.766	92.5
663.969	81.5
664.173	90.5
664.376	94.5
664.579	80.5
664.782	68.5
664.985	88.5
665.188	84.5
665.391	72.5
665.594	91.5
665.797	82.5
666	93.5
666.203	85.5
666.406	90.5
666.609	82.5
666.812	80.5
667.015	82.5
667.218	89.5
667.421	89.5
667.624	96.5
667.827	80.5
668.03	88.5
668.232	62.5
668.435	80.5
668.638	85.5
668.841	87.5
669.043	65.5
669.246	82.5
669.449	74.5
669.651	88.5
669.854	81.5
670.057	84.5
670.259	73.5
670.462	82.5
670.665	89.5
670.867	89.5
671.07	86.5
671.272	75.5
671.475	84.5
671.677	98.5
671.88	94.5
672.082	81.5
672.284	101.5
672.487	84.5
672.689	87.5
672.892	88.5
