Data from Soil_75_4_HRD10591_00002.txt Node
Date: Thu Feb 19 11:38:17 EST 2026
User: Yrep
Spectrometer: HR+D1059
Trigger mode: 1
Integration Time (sec): 1.000000E-1
Scans to average: 1
Electric dark correction enabled: true
Nonlinearity correction enabled: false
Boxcar width: 0
XAxis mode: Wavelengths
Number of Pixels in Spectrum: 2048
>>>>>Begin Spectral Data<<<<<
223.165	-15.56
223.4	-15.56
223.635	-15.56
223.869	-12.56
224.104	-32.56
224.338	-12.56
224.573	-19.56
224.808	-14.56
225.042	-2.56
225.277	-16.56
225.511	-0.56
225.746	17.44
225.98	3.44
226.215	6.44
226.449	6.44
226.683	32.44
226.918	25.44
227.152	35.44
227.387	34.44
227.621	47.44
227.856	41.44
228.09	42.44
228.324	40.44
228.559	57.44
228.793	60.44
229.027	52.44
229.262	71.44
229.496	51.44
229.73	65.44
229.964	75.44
230.199	74.44
230.433	81.44
230.667	83.44
230.901	77.44
231.136	80.44
231.37	75.44
231.604	80.44
231.838	69.44
232.072	81.44
232.306	76.44
232.541	80.44
232.775	79.44
233.009	74.44
233.243	85.44
233.477	91.44
233.711	78.44
233.945	82.44
234.179	80.44
234.413	79.44
234.647	80.44
234.881	79.44
235.115	80.44
235.349	82.44
235.583	76.44
235.817	85.44
236.051	74.44
236.285	78.44
236.519	74.44
236.753	73.44
236.987	78.44
237.221	74.44
237.455	71.44
237.689	77.44
237.922	84.44
238.156	74.44
238.39	76.44
238.624	70.44
238.858	78.44
239.091	74.44
239.325	60.44
239.559	73.44
239.793	81.44
240.027	76.44
240.26	75.44
240.494	73.44
240.728	83.44
240.961	79.44
241.195	64.44
241.429	75.44
241.662	81.44
241.896	76.44
242.13	69.44
242.363	81.44
242.597	77.44
242.83	69.44
243.064	67.44
243.298	70.44
243.531	74.44
243.765	80.44
243.998	75.44
244.232	69.44
244.465	86.44
244.699	75.44
244.932	75.44
245.166	70.44
245.399	78.44
245.633	88.44
245.866	73.44
246.099	72.44
246.333	86.44
246.566	88.44
246.8	64.44
247.033	76.44
247.266	84.44
247.5	77.44
247.733	84.44
247.966	80.44
248.2	81.44
248.433	85.44
248.666	84.44
248.899	77.44
249.133	72.44
249.366	71.44
249.599	72.44
249.832	73.44
250.066	83.44
250.299	79.44
250.532	77.44
250.765	80.44
250.998	90.44
251.231	72.44
251.465	84.44
251.698	72.44
251.931	87.44
252.164	81.44
252.397	75.44
252.63	82.44
252.863	76.44
253.096	75.44
253.329	84.44
253.562	74.44
253.795	73.44
254.028	81.44
254.261	81.44
254.494	86.44
254.727	79.44
254.96	83.44
255.193	73.44
255.426	83.44
255.659	76.44
255.892	81.44
256.124	72.44
256.357	86.44
256.59	79.44
256.823	80.44
257.056	77.44
257.289	76.44
257.521	85.44
257.754	79.44
257.987	79.44
258.22	74.44
258.452	87.44
258.685	77.44
258.918	69.44
259.151	83.44
259.383	94.44
259.616	82.44
259.849	72.44
260.081	78.44
260.314	74.44
260.547	78.44
260.779	75.44
261.012	73.44
261.244	79.44
261.477	83.44
261.71	74.44
261.942	79.44
262.175	74.44
262.407	75.44
262.64	72.44
262.872	82.44
263.105	80.44
263.337	82.44
263.57	79.44
263.802	82.44
264.035	84.44
264.267	85.44
264.499	84.44
264.732	97.44
264.964	69.44
265.197	75.44
265.429	85.44
265.661	81.44
265.894	88.44
266.126	88.44
266.358	82.44
266.591	88.44
266.823	70.44
267.055	87.44
267.287	88.44
267.52	89.44
267.752	80.44
267.984	75.44
268.216	87.44
268.448	74.44
268.681	80.44
268.913	77.44
269.145	75.44
269.377	67.44
269.609	79.44
269.841	89.44
270.073	79.44
270.306	85.44
270.538	86.44
270.77	80.44
271.002	79.44
271.234	76.44
271.466	79.44
271.698	75.44
271.93	77.44
272.162	79.44
272.394	77.44
272.626	97.44
272.858	70.44
273.09	83.44
273.322	75.44
273.553	84.44
273.785	71.44
274.017	83.44
274.249	79.44
274.481	97.44
274.713	94.44
274.945	72.44
275.176	69.44
275.408	84.44
275.64	83.44
275.872	93.44
276.104	97.44
276.335	85.44
276.567	83.44
276.799	79.44
277.031	69.44
277.262	88.44
277.494	75.44
277.726	80.44
277.957	96.44
278.189	82.44
278.421	84.44
278.652	86.44
278.884	73.44
279.115	74.44
279.347	89.44
279.579	87.44
279.81	84.44
280.042	93.44
280.273	85.44
280.505	80.44
280.736	83.44
280.968	76.44
281.199	85.44
281.431	99.44
281.662	81.44
281.894	73.44
282.125	88.44
282.356	80.44
282.588	80.44
282.819	83.44
283.051	88.44
283.282	71.44
283.513	85.44
283.745	83.44
283.976	79.44
284.207	86.44
284.439	82.44
284.67	77.44
284.901	83.44
285.132	93.44
285.364	100.44
285.595	85.44
285.826	83.44
286.057	89.44
286.288	75.44
286.52	74.44
286.751	79.44
286.982	73.44
287.213	85.44
287.444	87.44
287.675	79.44
287.906	82.44
288.138	83.44
288.369	78.44
288.6	88.44
288.831	76.44
289.062	82.44
289.293	88.44
289.524	79.44
289.755	70.44
289.986	85.44
290.217	79.44
290.448	93.44
290.679	90.44
290.91	86.44
291.141	83.44
291.371	97.44
291.602	94.44
291.833	95.44
292.064	88.44
292.295	70.44
292.526	73.44
292.757	84.44
292.987	81.44
293.218	80.44
293.449	77.44
293.68	80.44
293.91	73.44
294.141	101.44
294.372	90.44
294.603	76.44
294.833	71.44
295.064	79.44
295.295	77.44
295.525	72.44
295.756	90.44
295.987	82.44
296.217	83.44
296.448	93.44
296.679	78.44
296.909	73.44
297.14	83.44
297.37	86.44
297.601	100.44
297.831	91.44
298.062	90.44
298.292	86.44
298.523	92.44
298.753	82.44
298.984	98.44
299.214	89.44
299.445	91.44
299.675	92.44
299.905	83.44
300.136	82.44
300.366	87.44
300.597	96.44
300.827	71.44
301.057	60.44
301.288	79.44
301.518	83.44
301.748	86.44
301.979	104.44
302.209	85.44
302.439	83.44
302.669	90.44
302.9	71.44
303.13	87.44
303.36	92.44
303.59	86.44
303.82	90.44
304.051	96.44
304.281	87.44
304.511	84.44
304.741	92.44
304.971	80.44
305.201	94.44
305.431	96.44
305.661	91.44
305.891	70.44
306.121	79.44
306.352	76.44
306.582	91.44
306.812	78.44
307.042	79.44
307.272	79.44
307.502	91.44
307.731	90.44
307.961	81.44
308.191	89.44
308.421	84.44
308.651	96.44
308.881	87.44
309.111	92.44
309.341	88.44
309.571	81.44
309.8	83.44
310.03	90.44
310.26	74.44
310.49	79.44
310.72	85.44
310.949	87.44
311.179	79.44
311.409	84.44
311.639	76.44
311.868	79.44
312.098	82.44
312.328	72.44
312.557	79.44
312.787	82.44
313.017	92.44
313.246	88.44
313.476	91.44
313.706	83.44
313.935	81.44
314.165	85.44
314.394	84.44
314.624	83.44
314.853	84.44
315.083	79.44
315.312	86.44
315.542	86.44
315.771	79.44
316.001	87.44
316.23	91.44
316.46	93.44
316.689	85.44
316.919	81.44
317.148	81.44
317.377	88.44
317.607	96.44
317.836	73.44
318.065	89.44
318.295	98.44
318.524	79.44
318.753	96.44
318.983	93.44
319.212	85.44
319.441	92.44
319.67	89.44
319.9	74.44
320.129	72.44
320.358	71.44
320.587	91.44
320.816	85.44
321.046	84.44
321.275	90.44
321.504	80.44
321.733	85.44
321.962	92.44
322.191	86.44
322.42	92.44
322.649	88.44
322.878	76.44
323.108	96.44
323.337	97.44
323.566	97.44
323.795	77.44
324.024	99.44
324.253	85.44
324.482	89.44
324.71	83.44
324.939	95.44
325.168	68.44
325.397	79.44
325.626	92.44
325.855	100.44
326.084	79.44
326.313	69.44
326.542	74.44
326.77	89.44
326.999	89.44
327.228	80.44
327.457	86.44
327.686	83.44
327.914	82.44
328.143	80.44
328.372	79.44
328.6	76.44
328.829	73.44
329.058	66.44
329.287	79.44
329.515	97.44
329.744	99.44
329.972	89.44
330.201	83.44
330.43	95.44
330.658	85.44
330.887	93.44
331.115	92.44
331.344	81.44
331.572	94.44
331.801	70.44
332.03	81.44
332.258	75.44
332.486	90.44
332.715	82.44
332.943	79.44
333.172	84.44
333.4	91.44
333.629	97.44
333.857	102.44
334.085	99.44
334.314	91.44
334.542	88.44
334.771	91.44
334.999	92.44
335.227	65.44
335.455	76.44
335.684	88.44
335.912	99.44
336.14	81.44
336.369	88.44
336.597	85.44
336.825	73.44
337.053	67.44
337.281	84.44
337.51	87.44
337.738	84.44
337.966	84.44
338.194	70.44
338.422	77.44
338.65	89.44
338.878	85.44
339.106	88.44
339.334	84.44
339.562	79.44
339.79	83.44
340.018	81.44
340.246	75.44
340.474	82.44
340.702	87.44
340.93	73.44
341.158	79.44
341.386	75.44
341.614	96.44
341.842	91.44
342.07	91.44
342.298	82.44
342.526	80.44
342.754	68.44
342.981	82.44
343.209	82.44
343.437	90.44
343.665	82.44
343.893	80.44
344.12	97.44
344.348	84.44
344.576	96.44
344.804	107.44
345.031	84.44
345.259	97.44
345.487	87.44
345.714	93.44
345.942	75.44
346.17	85.44
346.397	85.44
346.625	88.44
346.853	84.44
347.08	94.44
347.308	89.44
347.535	94.44
347.763	97.44
347.99	92.44
348.218	83.44
348.445	79.44
348.673	90.44
348.9	81.44
349.128	99.44
349.355	91.44
349.583	73.44
349.81	71.44
350.037	89.44
350.265	86.44
350.492	69.44
350.72	94.44
350.947	101.44
351.174	93.44
351.402	76.44
351.629	72.44
351.856	92.44
352.083	88.44
352.311	83.44
352.538	86.44
352.765	94.44
352.992	96.44
353.22	89.44
353.447	76.44
353.674	90.44
353.901	83.44
354.128	91.44
354.355	76.44
354.583	72.44
354.81	89.44
355.037	85.44
355.264	83.44
355.491	82.44
355.718	84.44
355.945	87.44
356.172	79.44
356.399	81.44
356.626	63.44
356.853	88.44
357.08	90.44
357.307	94.44
357.534	86.44
357.761	75.44
357.988	79.44
358.215	93.44
358.441	84.44
358.668	92.44
358.895	80.44
359.122	88.44
359.349	83.44
359.576	82.44
359.802	90.44
360.029	90.44
360.256	83.44
360.483	88.44
360.709	73.44
360.936	98.44
361.163	79.44
361.39	84.44
361.616	84.44
361.843	89.44
362.07	93.44
362.296	93.44
362.523	92.44
362.749	84.44
362.976	88.44
363.203	86.44
363.429	92.44
363.656	80.44
363.882	75.44
364.109	89.44
364.335	105.44
364.562	97.44
364.788	78.44
365.015	96.44
365.241	93.44
365.468	87.44
365.694	83.44
365.92	67.44
366.147	90.44
366.373	76.44
366.599	77.44
366.826	78.44
367.052	80.44
367.278	85.44
367.505	89.44
367.731	91.44
367.957	92.44
368.184	86.44
368.41	80.44
368.636	72.44
368.862	85.44
369.089	67.44
369.315	87.44
369.541	77.44
369.767	91.44
369.993	87.44
370.219	83.44
370.445	95.44
370.672	76.44
370.898	80.44
371.124	76.44
371.35	81.44
371.576	92.44
371.802	77.44
372.028	71.44
372.254	73.44
372.48	88.44
372.706	83.44
372.932	86.44
373.158	84.44
373.384	93.44
373.61	95.44
373.835	85.44
374.061	78.44
374.287	68.44
374.513	86.44
374.739	97.44
374.965	94.44
375.191	85.44
375.416	78.44
375.642	88.44
375.868	81.44
376.094	82.44
376.319	91.44
376.545	91.44
376.771	76.44
376.997	77.44
377.222	83.44
377.448	84.44
377.674	86.44
377.899	82.44
378.125	69.44
378.35	87.44
378.576	81.44
378.802	80.44
379.027	83.44
379.253	79.44
379.478	76.44
379.704	103.44
379.929	87.44
380.155	93.44
380.38	80.44
380.606	80.44
380.831	89.44
381.057	84.44
381.282	92.44
381.507	84.44
381.733	100.44
381.958	87.44
382.184	83.44
382.409	79.44
382.634	89.44
382.86	101.44
383.085	105.44
383.31	97.44
383.535	86.44
383.761	116.44
383.986	108.44
384.211	100.44
384.436	93.44
384.662	92.44
384.887	97.44
385.112	87.44
385.337	91.44
385.562	99.44
385.787	81.44
386.013	85.44
386.238	85.44
386.463	83.44
386.688	100.44
386.913	82.44
387.138	76.44
387.363	96.44
387.588	85.44
387.813	92.44
388.038	82.44
388.263	96.44
388.488	79.44
388.713	85.44
388.938	81.44
389.163	89.44
389.387	85.44
389.612	88.44
389.837	77.44
390.062	83.44
390.287	72.44
390.512	85.44
390.736	94.44
390.961	77.44
391.186	85.44
391.411	88.44
391.636	75.44
391.86	85.44
392.085	83.44
392.31	88.44
392.534	88.44
392.759	100.44
392.984	94.44
393.208	149.44
393.433	167.44
393.658	132.44
393.882	103.44
394.107	81.44
394.331	90.44
394.556	84.44
394.78	98.44
395.005	90.44
395.229	87.44
395.454	90.44
395.678	84.44
395.903	109.44
396.127	93.44
396.352	114.44
396.576	100.44
396.801	134.44
397.025	140.44
397.249	116.44
397.474	97.44
397.698	85.44
397.922	97.44
398.147	79.44
398.371	91.44
398.595	83.44
398.82	83.44
399.044	84.44
399.268	81.44
399.492	84.44
399.717	81.44
399.941	85.44
400.165	77.44
400.389	72.44
400.613	82.44
400.837	81.44
401.062	89.44
401.286	89.44
401.51	86.44
401.734	82.44
401.958	83.44
402.182	81.44
402.406	91.44
402.63	72.44
402.854	71.44
403.078	80.44
403.302	85.44
403.526	92.44
403.75	81.44
403.974	86.44
404.198	100.44
404.422	107.44
404.645	118.44
404.869	104.44
405.093	96.44
405.317	69.44
405.541	108.44
405.765	87.44
405.988	107.44
406.212	83.44
406.436	84.44
406.66	61.44
406.883	94.44
407.107	69.44
407.331	81.44
407.555	88.44
407.778	92.44
408.002	79.44
408.226	81.44
408.449	74.44
408.673	80.44
408.896	76.44
409.12	90.44
409.344	81.44
409.567	95.44
409.791	86.44
410.014	90.44
410.238	75.44
410.461	82.44
410.685	67.44
410.908	82.44
411.132	89.44
411.355	84.44
411.578	89.44
411.802	88.44
412.025	93.44
412.249	94.44
412.472	76.44
412.695	83.44
412.919	90.44
413.142	79.44
413.365	83.44
413.589	85.44
413.812	84.44
414.035	87.44
414.258	79.44
414.482	87.44
414.705	78.44
414.928	93.44
415.151	78.44
415.374	78.44
415.597	78.44
415.821	81.44
416.044	83.44
416.267	77.44
416.49	87.44
416.713	89.44
416.936	78.44
417.159	75.44
417.382	71.44
417.605	80.44
417.828	81.44
418.051	93.44
418.274	97.44
418.497	87.44
418.72	89.44
418.943	77.44
419.166	79.44
419.389	97.44
419.611	91.44
419.834	89.44
420.057	82.44
420.28	97.44
420.503	91.44
420.726	91.44
420.948	91.44
421.171	72.44
421.394	81.44
421.617	89.44
421.839	92.44
422.062	100.44
422.285	111.44
422.507	149.44
422.73	196.44
422.953	155.44
423.175	115.44
423.398	86.44
423.621	96.44
423.843	75.44
424.066	84.44
424.288	74.44
424.511	100.44
424.733	83.44
424.956	75.44
425.178	72.44
425.401	81.44
425.623	74.44
425.846	85.44
426.068	90.44
426.291	78.44
426.513	76.44
426.735	83.44
426.958	83.44
427.18	83.44
427.402	84.44
427.625	81.44
427.847	84.44
428.069	85.44
428.292	99.44
428.514	116.44
428.736	104.44
428.958	95.44
429.181	108.44
429.403	85.44
429.625	99.44
429.847	91.44
430.069	110.44
430.292	109.44
430.514	124.44
430.736	102.44
430.958	92.44
431.18	103.44
431.402	87.44
431.624	79.44
431.846	97.44
432.068	90.44
432.29	91.44
432.512	90.44
432.734	76.44
432.956	80.44
433.178	91.44
433.4	80.44
433.622	93.44
433.844	91.44
434.066	76.44
434.287	81.44
434.509	74.44
434.731	81.44
434.953	72.44
435.175	74.44
435.397	100.44
435.618	66.44
435.84	79.44
436.062	81.44
436.284	94.44
436.505	97.44
436.727	81.44
436.949	95.44
437.17	83.44
437.392	77.44
437.614	96.44
437.835	64.44
438.057	80.44
438.278	82.44
438.5	90.44
438.721	99.44
438.943	92.44
439.165	100.44
439.386	79.44
439.608	92.44
439.829	72.44
440.05	88.44
440.272	88.44
440.493	90.44
440.715	72.44
440.936	85.44
441.158	89.44
441.379	82.44
441.6	76.44
441.822	83.44
442.043	92.44
442.264	92.44
442.486	97.44
442.707	107.44
442.928	93.44
443.149	87.44
443.371	109.44
443.592	137.44
443.813	145.44
444.034	106.44
444.255	94.44
444.476	80.44
444.698	80.44
444.919	72.44
445.14	158.44
445.361	159.44
445.582	157.44
445.803	123.44
446.024	86.44
446.245	79.44
446.466	71.44
446.687	86.44
446.908	88.44
447.129	86.44
447.35	83.44
447.571	98.44
447.792	87.44
448.013	87.44
448.234	75.44
448.455	90.44
448.675	80.44
448.896	76.44
449.117	75.44
449.338	82.44
449.559	76.44
449.779	74.44
450	72.44
450.221	71.44
450.442	84.44
450.662	87.44
450.883	81.44
451.104	86.44
451.324	73.44
451.545	91.44
451.766	76.44
451.986	84.44
452.207	81.44
452.428	80.44
452.648	85.44
452.869	89.44
453.089	85.44
453.31	95.44
453.53	72.44
453.751	87.44
453.971	73.44
454.192	81.44
454.412	71.44
454.633	73.44
454.853	82.44
455.073	75.44
455.294	79.44
455.514	80.44
455.734	83.44
455.955	79.44
456.175	87.44
456.395	72.44
456.616	74.44
456.836	79.44
457.056	88.44
457.276	75.44
457.497	84.44
457.717	90.44
457.937	97.44
458.157	94.44
458.377	93.44
458.598	85.44
458.818	97.44
459.038	94.44
459.258	99.44
459.478	100.44
459.698	91.44
459.918	93.44
460.138	84.44
460.358	67.44
460.578	84.44
460.798	94.44
461.018	99.44
461.238	91.44
461.458	83.44
461.678	76.44
461.898	79.44
462.118	73.44
462.338	86.44
462.558	89.44
462.777	81.44
462.997	72.44
463.217	82.44
463.437	69.44
463.657	76.44
463.876	83.44
464.096	79.44
464.316	87.44
464.536	73.44
464.755	80.44
464.975	82.44
465.195	89.44
465.414	87.44
465.634	76.44
465.854	83.44
466.073	73.44
466.293	89.44
466.512	85.44
466.732	102.44
466.951	77.44
467.171	76.44
467.391	90.44
467.61	88.44
467.829	89.44
468.049	83.44
468.268	89.44
468.488	79.44
468.707	73.44
468.927	80.44
469.146	84.44
469.365	98.44
469.585	93.44
469.804	72.44
470.023	79.44
470.243	97.44
470.462	94.44
470.681	80.44
470.901	78.44
471.12	57.44
471.339	89.44
471.558	77.44
471.777	84.44
471.997	93.44
472.216	80.44
472.435	81.44
472.654	78.44
472.873	80.44
473.092	84.44
473.311	73.44
473.53	75.44
473.749	80.44
473.968	89.44
474.187	88.44
474.406	81.44
474.625	77.44
474.844	77.44
475.063	83.44
475.282	89.44
475.501	94.44
475.72	89.44
475.939	75.44
476.158	83.44
476.377	81.44
476.596	89.44
476.814	74.44
477.033	85.44
477.252	89.44
477.471	88.44
477.69	91.44
477.908	67.44
478.127	81.44
478.346	72.44
478.564	85.44
478.783	75.44
479.002	87.44
479.22	77.44
479.439	94.44
479.658	88.44
479.876	93.44
480.095	81.44
480.313	81.44
480.532	84.44
480.751	94.44
480.969	77.44
481.188	91.44
481.406	85.44
481.624	86.44
481.843	91.44
482.061	82.44
482.28	76.44
482.498	97.44
482.717	83.44
482.935	87.44
483.153	98.44
483.372	91.44
483.59	89.44
483.808	69.44
484.027	99.44
484.245	90.44
484.463	79.44
484.681	81.44
484.9	77.44
485.118	92.44
485.336	70.44
485.554	79.44
485.772	97.44
485.99	90.44
486.209	88.44
486.427	85.44
486.645	80.44
486.863	83.44
487.081	90.44
487.299	92.44
487.517	91.44
487.735	93.44
487.953	107.44
488.171	107.44
488.389	84.44
488.607	77.44
488.825	81.44
489.043	75.44
489.261	83.44
489.479	83.44
489.696	93.44
489.914	91.44
490.132	88.44
490.35	77.44
490.568	91.44
490.786	84.44
491.003	76.44
491.221	84.44
491.439	92.44
491.657	59.44
491.874	81.44
492.092	84.44
492.31	78.44
492.527	87.44
492.745	78.44
492.963	89.44
493.18	90.44
493.398	76.44
493.615	79.44
493.833	81.44
494.05	84.44
494.268	70.44
494.485	89.44
494.703	84.44
494.92	97.44
495.138	91.44
495.355	83.44
495.573	87.44
495.79	81.44
496.008	79.44
496.225	76.44
496.442	95.44
496.66	88.44
496.877	94.44
497.094	85.44
497.312	83.44
497.529	89.44
497.746	78.44
497.963	85.44
498.181	92.44
498.398	87.44
498.615	88.44
498.832	98.44
499.049	73.44
499.267	85.44
499.484	86.44
499.701	87.44
499.918	91.44
500.135	99.44
500.352	79.44
500.569	83.44
500.786	96.44
501.003	96.44
501.22	75.44
501.437	88.44
501.654	76.44
501.871	86.44
502.088	64.44
502.305	77.44
502.522	81.44
502.739	85.44
502.956	82.44
503.172	96.44
503.389	85.44
503.606	89.44
503.823	88.44
504.04	84.44
504.256	86.44
504.473	93.44
504.69	91.44
504.907	87.44
505.123	90.44
505.34	88.44
505.557	98.44
505.773	87.44
505.99	89.44
506.207	82.44
506.423	93.44
506.64	86.44
506.856	77.44
507.073	77.44
507.289	86.44
507.506	89.44
507.722	72.44
507.939	86.44
508.155	83.44
508.372	79.44
508.588	81.44
508.805	92.44
509.021	92.44
509.238	84.44
509.454	101.44
509.67	82.44
509.887	91.44
510.103	88.44
510.319	85.44
510.536	92.44
510.752	69.44
510.968	88.44
511.184	82.44
511.401	89.44
511.617	93.44
511.833	99.44
512.049	99.44
512.265	84.44
512.481	82.44
512.698	83.44
512.914	92.44
513.13	75.44
513.346	82.44
513.562	86.44
513.778	86.44
513.994	84.44
514.21	93.44
514.426	88.44
514.642	81.44
514.858	86.44
515.074	92.44
515.29	83.44
515.506	93.44
515.721	79.44
515.937	88.44
516.153	86.44
516.369	87.44
516.585	86.44
516.801	99.44
517.016	99.44
517.232	92.44
517.448	98.44
517.664	98.44
517.879	96.44
518.095	82.44
518.311	99.44
518.527	134.44
518.742	101.44
518.958	83.44
519.173	103.44
519.389	99.44
519.605	97.44
519.82	87.44
520.036	84.44
520.251	68.44
520.467	97.44
520.682	77.44
520.898	82.44
521.113	89.44
521.329	83.44
521.544	81.44
521.76	77.44
521.975	76.44
522.19	72.44
522.406	86.44
522.621	80.44
522.836	88.44
523.052	73.44
523.267	80.44
523.482	84.44
523.698	74.44
523.913	85.44
524.128	76.44
524.343	91.44
524.559	101.44
524.774	88.44
524.989	77.44
525.204	85.44
525.419	85.44
525.634	81.44
525.849	85.44
526.064	95.44
526.28	127.44
526.495	148.44
526.71	161.44
526.925	130.44
527.14	131.44
527.355	134.44
527.57	96.44
527.785	87.44
527.999	86.44
528.214	93.44
528.429	73.44
528.644	90.44
528.859	86.44
529.074	84.44
529.289	87.44
529.503	87.44
529.718	88.44
529.933	92.44
530.148	97.44
530.363	103.44
530.577	90.44
530.792	95.44
531.007	101.44
531.221	93.44
531.436	81.44
531.651	83.44
531.865	98.44
532.08	87.44
532.295	86.44
532.509	91.44
532.724	88.44
532.938	81.44
533.153	93.44
533.367	88.44
533.582	82.44
533.796	76.44
534.011	89.44
534.225	88.44
534.44	94.44
534.654	84.44
534.868	88.44
535.083	108.44
535.297	105.44
535.511	97.44
535.726	89.44
535.94	76.44
536.154	83.44
536.369	100.44
536.583	83.44
536.797	89.44
537.011	88.44
537.225	80.44
537.44	87.44
537.654	99.44
537.868	85.44
538.082	91.44
538.296	90.44
538.51	77.44
538.724	83.44
538.938	82.44
539.153	88.44
539.367	98.44
539.581	91.44
539.795	79.44
540.009	91.44
540.222	98.44
540.436	95.44
540.65	79.44
540.864	92.44
541.078	78.44
541.292	91.44
541.506	93.44
541.72	85.44
541.934	89.44
542.147	103.44
542.361	85.44
542.575	93.44
542.789	85.44
543.002	87.44
543.216	68.44
543.43	75.44
543.644	95.44
543.857	90.44
544.071	79.44
544.285	91.44
544.498	80.44
544.712	95.44
544.925	97.44
545.139	79.44
545.352	80.44
545.566	83.44
545.779	76.44
545.993	81.44
546.206	91.44
546.42	94.44
546.633	99.44
546.847	86.44
547.06	92.44
547.274	94.44
547.487	90.44
547.7	91.44
547.914	85.44
548.127	97.44
548.34	106.44
548.554	93.44
548.767	94.44
548.98	104.44
549.193	86.44
549.407	99.44
549.62	91.44
549.833	111.44
550.046	102.44
550.259	101.44
550.473	82.44
550.686	116.44
550.899	97.44
551.112	106.44
551.325	104.44
551.538	102.44
551.751	107.44
551.964	112.44
552.177	99.44
552.39	111.44
552.603	112.44
552.816	113.44
553.029	112.44
553.242	98.44
553.455	124.44
553.667	132.44
553.88	109.44
554.093	120.44
554.306	113.44
554.519	108.44
554.732	118.44
554.944	115.44
555.157	110.44
555.37	103.44
555.583	111.44
555.795	104.44
556.008	111.44
556.221	103.44
556.433	99.44
556.646	91.44
556.859	97.44
557.071	89.44
557.284	92.44
557.496	90.44
557.709	99.44
557.921	110.44
558.134	105.44
558.346	107.44
558.559	103.44
558.771	105.44
558.984	172.44
559.196	176.44
559.409	115.44
559.621	155.44
559.833	125.44
560.046	149.44
560.258	114.44
560.47	114.44
560.683	102.44
560.895	92.44
561.107	85.44
561.32	93.44
561.532	99.44
561.744	76.44
561.956	81.44
562.168	87.44
562.381	84.44
562.593	88.44
562.805	102.44
563.017	77.44
563.229	87.44
563.441	90.44
563.653	84.44
563.865	97.44
564.077	76.44
564.289	101.44
564.501	104.44
564.713	92.44
564.925	68.44
565.137	95.44
565.349	85.44
565.561	83.44
565.773	94.44
565.985	105.44
566.197	80.44
566.408	92.44
566.62	83.44
566.832	77.44
567.044	86.44
567.255	87.44
567.467	87.44
567.679	93.44
567.891	100.44
568.102	87.44
568.314	113.44
568.526	109.44
568.737	92.44
568.949	123.44
569.161	114.44
569.372	100.44
569.584	108.44
569.795	102.44
570.007	83.44
570.218	92.44
570.43	79.44
570.641	100.44
570.853	97.44
571.064	92.44
571.276	79.44
571.487	92.44
571.698	80.44
571.91	91.44
572.121	92.44
572.333	82.44
572.544	74.44
572.755	88.44
572.966	79.44
573.178	89.44
573.389	92.44
573.6	86.44
573.811	98.44
574.023	91.44
574.234	80.44
574.445	88.44
574.656	84.44
574.867	74.44
575.078	90.44
575.289	83.44
575.501	75.44
575.712	92.44
575.923	73.44
576.134	81.44
576.345	90.44
576.556	93.44
576.767	85.44
576.978	90.44
577.188	74.44
577.399	86.44
577.61	78.44
577.821	79.44
578.032	79.44
578.243	91.44
578.454	78.44
578.665	96.44
578.875	90.44
579.086	86.44
579.297	82.44
579.508	86.44
579.718	83.44
579.929	87.44
580.14	82.44
580.35	112.44
580.561	92.44
580.772	87.44
580.982	73.44
581.193	90.44
581.403	96.44
581.614	96.44
581.825	90.44
582.035	85.44
582.246	96.44
582.456	76.44
582.667	89.44
582.877	88.44
583.087	95.44
583.298	80.44
583.508	78.44
583.719	88.44
583.929	109.44
584.139	97.44
584.35	83.44
584.56	94.44
584.77	90.44
584.981	94.44
585.191	87.44
585.401	92.44
585.611	99.44
585.821	123.44
586.032	130.44
586.242	96.44
586.452	93.44
586.662	93.44
586.872	100.44
587.082	106.44
587.292	96.44
587.502	115.44
587.713	114.44
587.923	111.44
588.133	143.44
588.343	154.44
588.553	169.44
588.762	230.44
588.972	394.44
589.182	467.44
589.392	489.44
589.602	449.44
589.812	439.44
590.022	403.44
590.232	244.44
590.441	163.44
590.651	146.44
590.861	124.44
591.071	128.44
591.281	105.44
591.49	117.44
591.7	109.44
591.91	87.44
592.119	91.44
592.329	104.44
592.539	105.44
592.748	91.44
592.958	98.44
593.167	107.44
593.377	101.44
593.587	104.44
593.796	106.44
594.006	97.44
594.215	94.44
594.424	93.44
594.634	107.44
594.843	100.44
595.053	94.44
595.262	102.44
595.472	110.44
595.681	89.44
595.89	94.44
596.1	81.44
596.309	97.44
596.518	111.44
596.727	93.44
596.937	92.44
597.146	92.44
597.355	99.44
597.564	114.44
597.774	96.44
597.983	104.44
598.192	96.44
598.401	100.44
598.61	97.44
598.819	99.44
599.028	116.44
599.237	112.44
599.446	102.44
599.655	92.44
599.864	94.44
600.073	103.44
600.282	111.44
600.491	104.44
600.7	102.44
600.909	113.44
601.118	106.44
601.327	104.44
601.536	106.44
601.745	89.44
601.953	100.44
602.162	101.44
602.371	89.44
602.58	91.44
602.789	96.44
602.997	98.44
603.206	108.44
603.415	100.44
603.623	89.44
603.832	115.44
604.041	101.44
604.249	105.44
604.458	97.44
604.666	94.44
604.875	87.44
605.084	108.44
605.292	97.44
605.501	109.44
605.709	107.44
605.918	97.44
606.126	103.44
606.334	98.44
606.543	122.44
606.751	96.44
606.96	107.44
607.168	101.44
607.376	115.44
607.585	104.44
607.793	116.44
608.001	97.44
608.21	101.44
608.418	88.44
608.626	83.44
608.834	102.44
609.043	93.44
609.251	105.44
609.459	108.44
609.667	107.44
609.875	113.44
610.083	96.44
610.291	111.44
610.499	134.44
610.707	129.44
610.916	105.44
611.124	115.44
611.332	107.44
611.54	106.44
611.748	114.44
611.955	111.44
612.163	131.44
612.371	165.44
612.579	139.44
612.787	121.44
612.995	106.44
613.203	108.44
613.411	123.44
613.618	102.44
613.826	107.44
614.034	124.44
614.242	121.44
614.449	90.44
614.657	114.44
614.865	114.44
615.072	108.44
615.28	112.44
615.488	118.44
615.695	107.44
615.903	129.44
616.111	127.44
616.318	192.44
616.526	211.44
616.733	146.44
616.941	144.44
617.148	150.44
617.356	135.44
617.563	114.44
617.771	116.44
617.978	110.44
618.185	128.44
618.393	122.44
618.6	119.44
618.807	113.44
619.015	111.44
619.222	130.44
619.429	107.44
619.637	118.44
619.844	107.44
620.051	110.44
620.258	117.44
620.466	126.44
620.673	127.44
620.88	130.44
621.087	121.44
621.294	109.44
621.501	112.44
621.708	115.44
621.915	112.44
622.122	113.44
622.329	112.44
622.536	110.44
622.743	121.44
622.95	113.44
623.157	117.44
623.364	118.44
623.571	136.44
623.778	111.44
623.985	115.44
624.192	119.44
624.399	115.44
624.606	119.44
624.812	107.44
625.019	123.44
625.226	136.44
625.433	124.44
625.639	117.44
625.846	106.44
626.053	127.44
626.259	106.44
626.466	119.44
626.673	117.44
626.879	116.44
627.086	131.44
627.293	135.44
627.499	127.44
627.706	116.44
627.912	109.44
628.119	97.44
628.325	96.44
628.532	81.44
628.738	87.44
628.945	88.44
629.151	92.44
629.357	101.44
629.564	96.44
629.77	97.44
629.976	91.44
630.183	80.44
630.389	83.44
630.595	107.44
630.802	79.44
631.008	81.44
631.214	101.44
631.42	82.44
631.627	95.44
631.833	95.44
632.039	84.44
632.245	87.44
632.451	93.44
632.657	90.44
632.863	83.44
633.069	86.44
633.275	73.44
633.481	92.44
633.688	110.44
633.893	87.44
634.099	89.44
634.305	83.44
634.511	88.44
634.717	95.44
634.923	70.44
635.129	94.44
635.335	87.44
635.541	90.44
635.747	109.44
635.952	83.44
636.158	77.44
636.364	83.44
636.57	89.44
636.775	89.44
636.981	89.44
637.187	100.44
637.392	97.44
637.598	97.44
637.804	78.44
638.009	90.44
638.215	75.44
638.421	68.44
638.626	83.44
638.832	97.44
639.037	91.44
639.243	95.44
639.448	74.44
639.654	68.44
639.859	98.44
640.065	76.44
640.27	89.44
640.475	81.44
640.681	81.44
640.886	75.44
641.091	87.44
641.297	83.44
641.502	81.44
641.707	86.44
641.913	87.44
642.118	94.44
642.323	93.44
642.528	92.44
642.733	89.44
642.939	83.44
643.144	79.44
643.349	85.44
643.554	84.44
643.759	92.44
643.964	105.44
644.169	121.44
644.374	90.44
644.579	94.44
644.784	80.44
644.989	87.44
645.194	94.44
645.399	92.44
645.604	77.44
645.809	98.44
646.014	92.44
646.219	88.44
646.423	107.44
646.628	104.44
646.833	83.44
647.038	88.44
647.243	81.44
647.447	100.44
647.652	89.44
647.857	91.44
648.062	95.44
648.266	109.44
648.471	92.44
648.676	85.44
648.88	96.44
649.085	82.44
649.289	89.44
649.494	93.44
649.698	92.44
649.903	97.44
650.107	85.44
650.312	85.44
650.516	75.44
650.721	88.44
650.925	79.44
651.13	81.44
651.334	93.44
651.539	84.44
651.743	94.44
651.947	92.44
652.152	91.44
652.356	89.44
652.56	85.44
652.764	84.44
652.969	80.44
653.173	79.44
653.377	83.44
653.581	74.44
653.785	94.44
653.99	83.44
654.194	83.44
654.398	67.44
654.602	79.44
654.806	76.44
655.01	84.44
655.214	78.44
655.418	84.44
655.622	85.44
655.826	65.44
656.03	80.44
656.234	85.44
656.438	82.44
656.642	81.44
656.846	84.44
657.049	74.44
657.253	81.44
657.457	78.44
657.661	83.44
657.865	81.44
658.068	77.44
658.272	85.44
658.476	86.44
658.68	99.44
658.883	84.44
659.087	83.44
659.291	63.44
659.494	77.44
659.698	84.44
659.901	70.44
660.105	75.44
660.309	85.44
660.512	84.44
660.716	80.44
660.919	89.44
661.123	96.44
661.326	91.44
661.53	77.44
661.733	83.44
661.936	88.44
662.14	66.44
662.343	81.44
662.546	84.44
662.75	87.44
662.953	108.44
663.156	87.44
663.36	85.44
663.563	79.44
663.766	75.44
663.969	88.44
664.173	73.44
664.376	83.44
664.579	83.44
664.782	74.44
664.985	89.44
665.188	86.44
665.391	68.44
665.594	81.44
665.797	77.44
666	87.44
666.203	93.44
666.406	74.44
666.609	85.44
666.812	80.44
667.015	83.44
667.218	79.44
667.421	79.44
667.624	99.44
667.827	77.44
668.03	96.44
668.232	90.44
668.435	90.44
668.638	87.44
668.841	83.44
669.043	79.44
669.246	81.44
669.449	79.44
669.651	80.44
669.854	74.44
670.057	81.44
670.259	81.44
670.462	83.44
670.665	83.44
670.867	87.44
671.07	84.44
671.272	84.44
671.475	88.44
671.677	84.44
671.88	83.44
672.082	88.44
672.284	75.44
672.487	70.44
672.689	59.44
672.892	77.44
