Data from Soil_50_4_HRD10591_00019.txt Node
Date: Thu Feb 19 11:33:08 EST 2026
User: Yrep
Spectrometer: HR+D1059
Trigger mode: 1
Integration Time (sec): 1.000000E-1
Scans to average: 1
Electric dark correction enabled: true
Nonlinearity correction enabled: false
Boxcar width: 0
XAxis mode: Wavelengths
Number of Pixels in Spectrum: 2048
>>>>>Begin Spectral Data<<<<<
223.165	-6.5
223.4	-6.5
223.635	-6.5
223.869	-15.5
224.104	-22.5
224.338	-23.5
224.573	-22.5
224.808	-13.5
225.042	-18.5
225.277	-10.5
225.511	-10.5
225.746	24.5
225.98	12.5
226.215	9.5
226.449	13.5
226.683	24.5
226.918	23.5
227.152	35.5
227.387	30.5
227.621	56.5
227.856	33.5
228.09	43.5
228.324	56.5
228.559	56.5
228.793	57.5
229.027	66.5
229.262	72.5
229.496	70.5
229.73	66.5
229.964	73.5
230.199	51.5
230.433	57.5
230.667	66.5
230.901	79.5
231.136	72.5
231.37	79.5
231.604	87.5
231.838	89.5
232.072	85.5
232.306	80.5
232.541	77.5
232.775	70.5
233.009	87.5
233.243	76.5
233.477	82.5
233.711	73.5
233.945	74.5
234.179	84.5
234.413	77.5
234.647	77.5
234.881	78.5
235.115	72.5
235.349	71.5
235.583	93.5
235.817	73.5
236.051	76.5
236.285	79.5
236.519	72.5
236.753	72.5
236.987	68.5
237.221	65.5
237.455	70.5
237.689	72.5
237.922	65.5
238.156	64.5
238.39	76.5
238.624	71.5
238.858	87.5
239.091	65.5
239.325	65.5
239.559	73.5
239.793	50.5
240.027	72.5
240.26	70.5
240.494	86.5
240.728	74.5
240.961	75.5
241.195	80.5
241.429	71.5
241.662	72.5
241.896	81.5
242.13	82.5
242.363	86.5
242.597	69.5
242.83	73.5
243.064	63.5
243.298	65.5
243.531	73.5
243.765	75.5
243.998	66.5
244.232	71.5
244.465	72.5
244.699	66.5
244.932	68.5
245.166	71.5
245.399	68.5
245.633	70.5
245.866	70.5
246.099	77.5
246.333	86.5
246.566	64.5
246.8	69.5
247.033	74.5
247.266	79.5
247.5	80.5
247.733	77.5
247.966	90.5
248.2	86.5
248.433	70.5
248.666	73.5
248.899	73.5
249.133	69.5
249.366	77.5
249.599	72.5
249.832	78.5
250.066	63.5
250.299	87.5
250.532	81.5
250.765	64.5
250.998	83.5
251.231	76.5
251.465	79.5
251.698	72.5
251.931	73.5
252.164	68.5
252.397	71.5
252.63	68.5
252.863	85.5
253.096	64.5
253.329	90.5
253.562	66.5
253.795	74.5
254.028	65.5
254.261	78.5
254.494	88.5
254.727	82.5
254.96	83.5
255.193	79.5
255.426	77.5
255.659	88.5
255.892	77.5
256.124	85.5
256.357	74.5
256.59	83.5
256.823	69.5
257.056	75.5
257.289	77.5
257.521	86.5
257.754	71.5
257.987	92.5
258.22	79.5
258.452	79.5
258.685	73.5
258.918	71.5
259.151	82.5
259.383	86.5
259.616	79.5
259.849	84.5
260.081	77.5
260.314	99.5
260.547	80.5
260.779	87.5
261.012	82.5
261.244	76.5
261.477	86.5
261.71	84.5
261.942	84.5
262.175	87.5
262.407	87.5
262.64	87.5
262.872	70.5
263.105	80.5
263.337	82.5
263.57	80.5
263.802	85.5
264.035	81.5
264.267	77.5
264.499	90.5
264.732	79.5
264.964	92.5
265.197	70.5
265.429	78.5
265.661	71.5
265.894	81.5
266.126	88.5
266.358	79.5
266.591	78.5
266.823	68.5
267.055	71.5
267.287	72.5
267.52	66.5
267.752	97.5
267.984	77.5
268.216	65.5
268.448	80.5
268.681	82.5
268.913	74.5
269.145	95.5
269.377	88.5
269.609	80.5
269.841	89.5
270.073	81.5
270.306	68.5
270.538	74.5
270.77	87.5
271.002	82.5
271.234	82.5
271.466	94.5
271.698	78.5
271.93	77.5
272.162	91.5
272.394	87.5
272.626	82.5
272.858	75.5
273.09	91.5
273.322	82.5
273.553	81.5
273.785	85.5
274.017	66.5
274.249	77.5
274.481	82.5
274.713	85.5
274.945	72.5
275.176	76.5
275.408	81.5
275.64	71.5
275.872	84.5
276.104	84.5
276.335	72.5
276.567	71.5
276.799	76.5
277.031	78.5
277.262	77.5
277.494	93.5
277.726	73.5
277.957	72.5
278.189	76.5
278.421	77.5
278.652	89.5
278.884	90.5
279.115	81.5
279.347	82.5
279.579	93.5
279.81	97.5
280.042	78.5
280.273	88.5
280.505	83.5
280.736	82.5
280.968	91.5
281.199	84.5
281.431	98.5
281.662	89.5
281.894	80.5
282.125	90.5
282.356	76.5
282.588	75.5
282.819	82.5
283.051	83.5
283.282	81.5
283.513	74.5
283.745	87.5
283.976	84.5
284.207	76.5
284.439	78.5
284.67	73.5
284.901	87.5
285.132	88.5
285.364	75.5
285.595	87.5
285.826	77.5
286.057	73.5
286.288	86.5
286.52	86.5
286.751	97.5
286.982	83.5
287.213	90.5
287.444	82.5
287.675	88.5
287.906	66.5
288.138	79.5
288.369	80.5
288.6	87.5
288.831	83.5
289.062	80.5
289.293	79.5
289.524	81.5
289.755	73.5
289.986	85.5
290.217	87.5
290.448	64.5
290.679	76.5
290.91	96.5
291.141	89.5
291.371	76.5
291.602	73.5
291.833	84.5
292.064	62.5
292.295	83.5
292.526	80.5
292.757	81.5
292.987	70.5
293.218	85.5
293.449	79.5
293.68	81.5
293.91	87.5
294.141	103.5
294.372	82.5
294.603	88.5
294.833	86.5
295.064	93.5
295.295	72.5
295.525	79.5
295.756	90.5
295.987	84.5
296.217	83.5
296.448	82.5
296.679	80.5
296.909	77.5
297.14	72.5
297.37	88.5
297.601	93.5
297.831	88.5
298.062	94.5
298.292	94.5
298.523	84.5
298.753	84.5
298.984	80.5
299.214	74.5
299.445	72.5
299.675	69.5
299.905	98.5
300.136	80.5
300.366	72.5
300.597	90.5
300.827	86.5
301.057	85.5
301.288	80.5
301.518	84.5
301.748	84.5
301.979	89.5
302.209	75.5
302.439	93.5
302.669	76.5
302.9	77.5
303.13	90.5
303.36	62.5
303.59	76.5
303.82	93.5
304.051	80.5
304.281	80.5
304.511	84.5
304.741	89.5
304.971	86.5
305.201	86.5
305.431	85.5
305.661	87.5
305.891	89.5
306.121	85.5
306.352	72.5
306.582	77.5
306.812	73.5
307.042	76.5
307.272	73.5
307.502	74.5
307.731	91.5
307.961	88.5
308.191	79.5
308.421	90.5
308.651	85.5
308.881	89.5
309.111	82.5
309.341	87.5
309.571	83.5
309.8	72.5
310.03	88.5
310.26	69.5
310.49	97.5
310.72	74.5
310.949	72.5
311.179	79.5
311.409	93.5
311.639	94.5
311.868	73.5
312.098	74.5
312.328	76.5
312.557	73.5
312.787	79.5
313.017	87.5
313.246	79.5
313.476	78.5
313.706	73.5
313.935	87.5
314.165	73.5
314.394	77.5
314.624	76.5
314.853	90.5
315.083	100.5
315.312	87.5
315.542	82.5
315.771	84.5
316.001	87.5
316.23	90.5
316.46	86.5
316.689	72.5
316.919	86.5
317.148	84.5
317.377	81.5
317.607	76.5
317.836	80.5
318.065	78.5
318.295	88.5
318.524	84.5
318.753	83.5
318.983	80.5
319.212	82.5
319.441	81.5
319.67	91.5
319.9	80.5
320.129	78.5
320.358	88.5
320.587	96.5
320.816	83.5
321.046	88.5
321.275	79.5
321.504	66.5
321.733	88.5
321.962	82.5
322.191	75.5
322.42	78.5
322.649	74.5
322.878	81.5
323.108	74.5
323.337	88.5
323.566	97.5
323.795	85.5
324.024	76.5
324.253	90.5
324.482	76.5
324.71	72.5
324.939	88.5
325.168	78.5
325.397	86.5
325.626	60.5
325.855	89.5
326.084	83.5
326.313	79.5
326.542	86.5
326.77	76.5
326.999	77.5
327.228	90.5
327.457	84.5
327.686	85.5
327.914	77.5
328.143	73.5
328.372	94.5
328.6	81.5
328.829	82.5
329.058	80.5
329.287	71.5
329.515	84.5
329.744	78.5
329.972	73.5
330.201	104.5
330.43	77.5
330.658	86.5
330.887	87.5
331.115	84.5
331.344	79.5
331.572	76.5
331.801	78.5
332.03	62.5
332.258	83.5
332.486	65.5
332.715	81.5
332.943	86.5
333.172	85.5
333.4	79.5
333.629	82.5
333.857	84.5
334.085	74.5
334.314	74.5
334.542	80.5
334.771	87.5
334.999	84.5
335.227	86.5
335.455	100.5
335.684	92.5
335.912	85.5
336.14	78.5
336.369	83.5
336.597	74.5
336.825	76.5
337.053	73.5
337.281	91.5
337.51	77.5
337.738	81.5
337.966	84.5
338.194	80.5
338.422	88.5
338.65	83.5
338.878	77.5
339.106	76.5
339.334	89.5
339.562	79.5
339.79	93.5
340.018	73.5
340.246	80.5
340.474	82.5
340.702	88.5
340.93	87.5
341.158	77.5
341.386	87.5
341.614	89.5
341.842	74.5
342.07	90.5
342.298	74.5
342.526	73.5
342.754	78.5
342.981	78.5
343.209	82.5
343.437	103.5
343.665	93.5
343.893	76.5
344.12	77.5
344.348	90.5
344.576	74.5
344.804	88.5
345.031	84.5
345.259	94.5
345.487	89.5
345.714	90.5
345.942	80.5
346.17	78.5
346.397	88.5
346.625	85.5
346.853	82.5
347.08	78.5
347.308	81.5
347.535	85.5
347.763	86.5
347.99	89.5
348.218	89.5
348.445	90.5
348.673	82.5
348.9	82.5
349.128	89.5
349.355	76.5
349.583	85.5
349.81	77.5
350.037	93.5
350.265	97.5
350.492	70.5
350.72	74.5
350.947	73.5
351.174	82.5
351.402	68.5
351.629	69.5
351.856	80.5
352.083	79.5
352.311	74.5
352.538	86.5
352.765	87.5
352.992	92.5
353.22	80.5
353.447	77.5
353.674	85.5
353.901	74.5
354.128	78.5
354.355	81.5
354.583	79.5
354.81	89.5
355.037	91.5
355.264	85.5
355.491	68.5
355.718	70.5
355.945	77.5
356.172	93.5
356.399	78.5
356.626	79.5
356.853	101.5
357.08	86.5
357.307	73.5
357.534	66.5
357.761	78.5
357.988	76.5
358.215	81.5
358.441	80.5
358.668	87.5
358.895	71.5
359.122	71.5
359.349	77.5
359.576	92.5
359.802	83.5
360.029	76.5
360.256	79.5
360.483	76.5
360.709	83.5
360.936	86.5
361.163	77.5
361.39	81.5
361.616	84.5
361.843	87.5
362.07	96.5
362.296	83.5
362.523	89.5
362.749	83.5
362.976	93.5
363.203	82.5
363.429	87.5
363.656	82.5
363.882	85.5
364.109	101.5
364.335	95.5
364.562	85.5
364.788	71.5
365.015	90.5
365.241	74.5
365.468	72.5
365.694	85.5
365.92	90.5
366.147	81.5
366.373	77.5
366.599	76.5
366.826	79.5
367.052	80.5
367.278	82.5
367.505	81.5
367.731	71.5
367.957	82.5
368.184	82.5
368.41	72.5
368.636	94.5
368.862	76.5
369.089	73.5
369.315	91.5
369.541	77.5
369.767	78.5
369.993	86.5
370.219	90.5
370.445	64.5
370.672	76.5
370.898	89.5
371.124	92.5
371.35	74.5
371.576	90.5
371.802	85.5
372.028	75.5
372.254	87.5
372.48	73.5
372.706	74.5
372.932	78.5
373.158	83.5
373.384	83.5
373.61	80.5
373.835	77.5
374.061	78.5
374.287	82.5
374.513	82.5
374.739	83.5
374.965	89.5
375.191	76.5
375.416	74.5
375.642	77.5
375.868	96.5
376.094	74.5
376.319	89.5
376.545	94.5
376.771	80.5
376.997	84.5
377.222	90.5
377.448	90.5
377.674	84.5
377.899	85.5
378.125	80.5
378.35	77.5
378.576	75.5
378.802	72.5
379.027	74.5
379.253	87.5
379.478	81.5
379.704	72.5
379.929	96.5
380.155	84.5
380.38	88.5
380.606	83.5
380.831	88.5
381.057	78.5
381.282	69.5
381.507	80.5
381.733	86.5
381.958	76.5
382.184	85.5
382.409	90.5
382.634	82.5
382.86	68.5
383.085	90.5
383.31	81.5
383.535	96.5
383.761	80.5
383.986	84.5
384.211	82.5
384.436	82.5
384.662	86.5
384.887	84.5
385.112	96.5
385.337	72.5
385.562	86.5
385.787	91.5
386.013	89.5
386.238	72.5
386.463	86.5
386.688	90.5
386.913	95.5
387.138	87.5
387.363	76.5
387.588	94.5
387.813	98.5
388.038	79.5
388.263	89.5
388.488	91.5
388.713	86.5
388.938	86.5
389.163	77.5
389.387	80.5
389.612	71.5
389.837	85.5
390.062	71.5
390.287	80.5
390.512	72.5
390.736	79.5
390.961	76.5
391.186	85.5
391.411	83.5
391.636	63.5
391.86	74.5
392.085	83.5
392.31	60.5
392.534	78.5
392.759	80.5
392.984	86.5
393.208	86.5
393.433	93.5
393.658	101.5
393.882	82.5
394.107	78.5
394.331	80.5
394.556	81.5
394.78	71.5
395.005	83.5
395.229	88.5
395.454	76.5
395.678	86.5
395.903	82.5
396.127	95.5
396.352	96.5
396.576	101.5
396.801	78.5
397.025	80.5
397.249	82.5
397.474	81.5
397.698	71.5
397.922	71.5
398.147	75.5
398.371	72.5
398.595	72.5
398.82	69.5
399.044	78.5
399.268	71.5
399.492	87.5
399.717	91.5
399.941	80.5
400.165	84.5
400.389	88.5
400.613	80.5
400.837	81.5
401.062	76.5
401.286	82.5
401.51	78.5
401.734	78.5
401.958	70.5
402.182	88.5
402.406	82.5
402.63	91.5
402.854	68.5
403.078	94.5
403.302	80.5
403.526	83.5
403.75	76.5
403.974	80.5
404.198	79.5
404.422	97.5
404.645	83.5
404.869	75.5
405.093	90.5
405.317	82.5
405.541	86.5
405.765	70.5
405.988	94.5
406.212	78.5
406.436	84.5
406.66	76.5
406.883	85.5
407.107	68.5
407.331	76.5
407.555	85.5
407.778	76.5
408.002	77.5
408.226	97.5
408.449	81.5
408.673	77.5
408.896	82.5
409.12	79.5
409.344	83.5
409.567	89.5
409.791	81.5
410.014	70.5
410.238	75.5
410.461	78.5
410.685	78.5
410.908	70.5
411.132	86.5
411.355	68.5
411.578	80.5
411.802	79.5
412.025	78.5
412.249	78.5
412.472	77.5
412.695	63.5
412.919	82.5
413.142	80.5
413.365	80.5
413.589	79.5
413.812	89.5
414.035	97.5
414.258	82.5
414.482	79.5
414.705	80.5
414.928	76.5
415.151	76.5
415.374	76.5
415.597	82.5
415.821	72.5
416.044	72.5
416.267	82.5
416.49	73.5
416.713	83.5
416.936	83.5
417.159	93.5
417.382	78.5
417.605	67.5
417.828	70.5
418.051	73.5
418.274	82.5
418.497	97.5
418.72	78.5
418.943	79.5
419.166	73.5
419.389	85.5
419.611	93.5
419.834	81.5
420.057	92.5
420.28	82.5
420.503	76.5
420.726	57.5
420.948	94.5
421.171	82.5
421.394	84.5
421.617	80.5
421.839	83.5
422.062	85.5
422.285	103.5
422.507	91.5
422.73	110.5
422.953	112.5
423.175	82.5
423.398	77.5
423.621	69.5
423.843	74.5
424.066	67.5
424.288	82.5
424.511	73.5
424.733	89.5
424.956	96.5
425.178	81.5
425.401	94.5
425.623	90.5
425.846	74.5
426.068	76.5
426.291	72.5
426.513	77.5
426.735	80.5
426.958	73.5
427.18	76.5
427.402	86.5
427.625	75.5
427.847	77.5
428.069	78.5
428.292	89.5
428.514	84.5
428.736	79.5
428.958	86.5
429.181	81.5
429.403	85.5
429.625	85.5
429.847	80.5
430.069	81.5
430.292	94.5
430.514	86.5
430.736	78.5
430.958	92.5
431.18	82.5
431.402	76.5
431.624	72.5
431.846	88.5
432.068	82.5
432.29	74.5
432.512	69.5
432.734	76.5
432.956	76.5
433.178	81.5
433.4	74.5
433.622	77.5
433.844	89.5
434.066	88.5
434.287	73.5
434.509	75.5
434.731	79.5
434.953	69.5
435.175	81.5
435.397	82.5
435.618	87.5
435.84	99.5
436.062	67.5
436.284	74.5
436.505	85.5
436.727	72.5
436.949	73.5
437.17	65.5
437.392	81.5
437.614	83.5
437.835	86.5
438.057	81.5
438.278	81.5
438.5	81.5
438.721	77.5
438.943	81.5
439.165	75.5
439.386	76.5
439.608	97.5
439.829	82.5
440.05	83.5
440.272	75.5
440.493	79.5
440.715	84.5
440.936	76.5
441.158	69.5
441.379	78.5
441.6	77.5
441.822	82.5
442.043	73.5
442.264	89.5
442.486	89.5
442.707	85.5
442.928	82.5
443.149	77.5
443.371	82.5
443.592	96.5
443.813	93.5
444.034	82.5
444.255	89.5
444.476	83.5
444.698	87.5
444.919	89.5
445.14	166.5
445.361	119.5
445.582	79.5
445.803	72.5
446.024	68.5
446.245	89.5
446.466	88.5
446.687	73.5
446.908	63.5
447.129	78.5
447.35	77.5
447.571	83.5
447.792	83.5
448.013	72.5
448.234	74.5
448.455	85.5
448.675	72.5
448.896	73.5
449.117	90.5
449.338	76.5
449.559	73.5
449.779	84.5
450	84.5
450.221	77.5
450.442	85.5
450.662	64.5
450.883	85.5
451.104	82.5
451.324	76.5
451.545	71.5
451.766	80.5
451.986	77.5
452.207	72.5
452.428	78.5
452.648	84.5
452.869	76.5
453.089	72.5
453.31	73.5
453.53	85.5
453.751	78.5
453.971	76.5
454.192	72.5
454.412	74.5
454.633	88.5
454.853	74.5
455.073	76.5
455.294	90.5
455.514	78.5
455.734	77.5
455.955	71.5
456.175	81.5
456.395	73.5
456.616	77.5
456.836	78.5
457.056	73.5
457.276	84.5
457.497	77.5
457.717	77.5
457.937	96.5
458.157	85.5
458.377	72.5
458.598	87.5
458.818	74.5
459.038	81.5
459.258	86.5
459.478	83.5
459.698	78.5
459.918	74.5
460.138	85.5
460.358	77.5
460.578	80.5
460.798	88.5
461.018	84.5
461.238	86.5
461.458	78.5
461.678	91.5
461.898	77.5
462.118	82.5
462.338	64.5
462.558	95.5
462.777	79.5
462.997	74.5
463.217	72.5
463.437	82.5
463.657	79.5
463.876	72.5
464.096	89.5
464.316	76.5
464.536	77.5
464.755	85.5
464.975	86.5
465.195	82.5
465.414	84.5
465.634	70.5
465.854	91.5
466.073	76.5
466.293	91.5
466.512	88.5
466.732	80.5
466.951	79.5
467.171	74.5
467.391	76.5
467.61	86.5
467.829	72.5
468.049	88.5
468.268	87.5
468.488	74.5
468.707	74.5
468.927	73.5
469.146	65.5
469.365	88.5
469.585	73.5
469.804	76.5
470.023	82.5
470.243	65.5
470.462	85.5
470.681	88.5
470.901	75.5
471.12	77.5
471.339	72.5
471.558	69.5
471.777	90.5
471.997	96.5
472.216	80.5
472.435	83.5
472.654	75.5
472.873	69.5
473.092	82.5
473.311	82.5
473.53	69.5
473.749	73.5
473.968	69.5
474.187	81.5
474.406	77.5
474.625	77.5
474.844	72.5
475.063	78.5
475.282	88.5
475.501	71.5
475.72	68.5
475.939	65.5
476.158	68.5
476.377	80.5
476.596	88.5
476.814	79.5
477.033	84.5
477.252	78.5
477.471	74.5
477.69	88.5
477.908	77.5
478.127	81.5
478.346	84.5
478.564	78.5
478.783	77.5
479.002	85.5
479.22	86.5
479.439	85.5
479.658	76.5
479.876	77.5
480.095	70.5
480.313	77.5
480.532	76.5
480.751	81.5
480.969	99.5
481.188	74.5
481.406	83.5
481.624	77.5
481.843	72.5
482.061	80.5
482.28	80.5
482.498	78.5
482.717	83.5
482.935	84.5
483.153	68.5
483.372	78.5
483.59	93.5
483.808	69.5
484.027	79.5
484.245	78.5
484.463	87.5
484.681	84.5
484.9	81.5
485.118	81.5
485.336	93.5
485.554	82.5
485.772	71.5
485.99	72.5
486.209	81.5
486.427	66.5
486.645	80.5
486.863	72.5
487.081	88.5
487.299	76.5
487.517	73.5
487.735	77.5
487.953	80.5
488.171	82.5
488.389	76.5
488.607	78.5
488.825	78.5
489.043	99.5
489.261	85.5
489.479	83.5
489.696	85.5
489.914	87.5
490.132	71.5
490.35	79.5
490.568	86.5
490.786	74.5
491.003	76.5
491.221	70.5
491.439	80.5
491.657	81.5
491.874	76.5
492.092	94.5
492.31	83.5
492.527	77.5
492.745	76.5
492.963	84.5
493.18	67.5
493.398	71.5
493.615	78.5
493.833	74.5
494.05	73.5
494.268	74.5
494.485	75.5
494.703	81.5
494.92	68.5
495.138	75.5
495.355	88.5
495.573	81.5
495.79	70.5
496.008	88.5
496.225	80.5
496.442	100.5
496.66	96.5
496.877	76.5
497.094	84.5
497.312	85.5
497.529	85.5
497.746	77.5
497.963	77.5
498.181	81.5
498.398	77.5
498.615	82.5
498.832	78.5
499.049	71.5
499.267	88.5
499.484	85.5
499.701	72.5
499.918	92.5
500.135	78.5
500.352	80.5
500.569	78.5
500.786	92.5
501.003	71.5
501.22	70.5
501.437	81.5
501.654	71.5
501.871	87.5
502.088	86.5
502.305	81.5
502.522	70.5
502.739	79.5
502.956	80.5
503.172	67.5
503.389	76.5
503.606	79.5
503.823	77.5
504.04	79.5
504.256	94.5
504.473	84.5
504.69	64.5
504.907	84.5
505.123	81.5
505.34	73.5
505.557	81.5
505.773	77.5
505.99	80.5
506.207	66.5
506.423	87.5
506.64	84.5
506.856	87.5
507.073	86.5
507.289	79.5
507.506	74.5
507.722	92.5
507.939	89.5
508.155	96.5
508.372	85.5
508.588	82.5
508.805	96.5
509.021	82.5
509.238	87.5
509.454	94.5
509.67	76.5
509.887	78.5
510.103	74.5
510.319	88.5
510.536	89.5
510.752	89.5
510.968	76.5
511.184	79.5
511.401	87.5
511.617	87.5
511.833	76.5
512.049	84.5
512.265	80.5
512.481	88.5
512.698	78.5
512.914	83.5
513.13	97.5
513.346	86.5
513.562	82.5
513.778	94.5
513.994	72.5
514.21	86.5
514.426	105.5
514.642	88.5
514.858	79.5
515.074	87.5
515.29	89.5
515.506	85.5
515.721	79.5
515.937	77.5
516.153	90.5
516.369	78.5
516.585	75.5
516.801	80.5
517.016	77.5
517.232	88.5
517.448	82.5
517.664	76.5
517.879	91.5
518.095	81.5
518.311	80.5
518.527	76.5
518.742	87.5
518.958	94.5
519.173	77.5
519.389	74.5
519.605	74.5
519.82	87.5
520.036	79.5
520.251	72.5
520.467	86.5
520.682	92.5
520.898	95.5
521.113	88.5
521.329	88.5
521.544	67.5
521.76	72.5
521.975	92.5
522.19	84.5
522.406	60.5
522.621	87.5
522.836	70.5
523.052	73.5
523.267	88.5
523.482	78.5
523.698	77.5
523.913	70.5
524.128	86.5
524.343	86.5
524.559	65.5
524.774	80.5
524.989	96.5
525.204	89.5
525.419	79.5
525.634	84.5
525.849	87.5
526.064	85.5
526.28	78.5
526.495	98.5
526.71	98.5
526.925	96.5
527.14	91.5
527.355	89.5
527.57	91.5
527.785	86.5
527.999	85.5
528.214	84.5
528.429	73.5
528.644	86.5
528.859	87.5
529.074	88.5
529.289	77.5
529.503	89.5
529.718	87.5
529.933	85.5
530.148	86.5
530.363	77.5
530.577	84.5
530.792	82.5
531.007	89.5
531.221	78.5
531.436	95.5
531.651	73.5
531.865	93.5
532.08	98.5
532.295	82.5
532.509	91.5
532.724	80.5
532.938	72.5
533.153	73.5
533.367	77.5
533.582	90.5
533.796	78.5
534.011	96.5
534.225	78.5
534.44	83.5
534.654	74.5
534.868	83.5
535.083	88.5
535.297	83.5
535.511	77.5
535.726	77.5
535.94	84.5
536.154	97.5
536.369	92.5
536.583	86.5
536.797	74.5
537.011	78.5
537.225	101.5
537.44	79.5
537.654	97.5
537.868	77.5
538.082	74.5
538.296	80.5
538.51	72.5
538.724	78.5
538.938	71.5
539.153	86.5
539.367	79.5
539.581	80.5
539.795	83.5
540.009	75.5
540.222	82.5
540.436	96.5
540.65	82.5
540.864	81.5
541.078	88.5
541.292	72.5
541.506	74.5
541.72	89.5
541.934	81.5
542.147	73.5
542.361	90.5
542.575	82.5
542.789	89.5
543.002	76.5
543.216	81.5
543.43	69.5
543.644	71.5
543.857	84.5
544.071	79.5
544.285	84.5
544.498	93.5
544.712	79.5
544.925	70.5
545.139	89.5
545.352	74.5
545.566	72.5
545.779	84.5
545.993	93.5
546.206	79.5
546.42	76.5
546.633	73.5
546.847	93.5
547.06	76.5
547.274	87.5
547.487	87.5
547.7	86.5
547.914	82.5
548.127	89.5
548.34	80.5
548.554	85.5
548.767	89.5
548.98	85.5
549.193	91.5
549.407	77.5
549.62	86.5
549.833	86.5
550.046	84.5
550.259	78.5
550.473	92.5
550.686	87.5
550.899	88.5
551.112	98.5
551.325	85.5
551.538	76.5
551.751	84.5
551.964	85.5
552.177	69.5
552.39	94.5
552.603	89.5
552.816	85.5
553.029	73.5
553.242	67.5
553.455	91.5
553.667	83.5
553.88	71.5
554.093	81.5
554.306	99.5
554.519	86.5
554.732	82.5
554.944	88.5
555.157	94.5
555.37	73.5
555.583	69.5
555.795	89.5
556.008	81.5
556.221	88.5
556.433	85.5
556.646	91.5
556.859	77.5
557.071	91.5
557.284	86.5
557.496	90.5
557.709	96.5
557.921	90.5
558.134	77.5
558.346	80.5
558.559	90.5
558.771	77.5
558.984	105.5
559.196	103.5
559.409	92.5
559.621	95.5
559.833	89.5
560.046	102.5
560.258	90.5
560.47	81.5
560.683	82.5
560.895	81.5
561.107	88.5
561.32	74.5
561.532	87.5
561.744	84.5
561.956	73.5
562.168	85.5
562.381	88.5
562.593	84.5
562.805	75.5
563.017	85.5
563.229	69.5
563.441	72.5
563.653	86.5
563.865	95.5
564.077	77.5
564.289	73.5
564.501	76.5
564.713	78.5
564.925	84.5
565.137	82.5
565.349	82.5
565.561	81.5
565.773	79.5
565.985	81.5
566.197	93.5
566.408	83.5
566.62	78.5
566.832	84.5
567.044	90.5
567.255	83.5
567.467	81.5
567.679	92.5
567.891	93.5
568.102	80.5
568.314	72.5
568.526	91.5
568.737	83.5
568.949	81.5
569.161	94.5
569.372	76.5
569.584	96.5
569.795	94.5
570.007	84.5
570.218	79.5
570.43	80.5
570.641	81.5
570.853	74.5
571.064	71.5
571.276	74.5
571.487	83.5
571.698	89.5
571.91	85.5
572.121	83.5
572.333	95.5
572.544	82.5
572.755	87.5
572.966	79.5
573.178	87.5
573.389	86.5
573.6	81.5
573.811	87.5
574.023	87.5
574.234	90.5
574.445	92.5
574.656	76.5
574.867	82.5
575.078	80.5
575.289	88.5
575.501	76.5
575.712	89.5
575.923	79.5
576.134	70.5
576.345	90.5
576.556	93.5
576.767	91.5
576.978	85.5
577.188	98.5
577.399	68.5
577.61	87.5
577.821	86.5
578.032	76.5
578.243	69.5
578.454	81.5
578.665	97.5
578.875	80.5
579.086	86.5
579.297	83.5
579.508	72.5
579.718	75.5
579.929	94.5
580.14	83.5
580.35	93.5
580.561	87.5
580.772	79.5
580.982	86.5
581.193	84.5
581.403	95.5
581.614	75.5
581.825	75.5
582.035	85.5
582.246	80.5
582.456	81.5
582.667	84.5
582.877	80.5
583.087	59.5
583.298	85.5
583.508	89.5
583.719	68.5
583.929	73.5
584.139	88.5
584.35	77.5
584.56	103.5
584.77	101.5
584.981	91.5
585.191	85.5
585.401	84.5
585.611	80.5
585.821	81.5
586.032	111.5
586.242	85.5
586.452	87.5
586.662	94.5
586.872	76.5
587.082	74.5
587.292	91.5
587.502	74.5
587.713	86.5
587.923	74.5
588.133	83.5
588.343	88.5
588.553	88.5
588.762	121.5
588.972	162.5
589.182	224.5
589.392	195.5
589.602	180.5
589.812	207.5
590.022	158.5
590.232	113.5
590.441	90.5
590.651	96.5
590.861	93.5
591.071	72.5
591.281	94.5
591.49	79.5
591.7	89.5
591.91	85.5
592.119	72.5
592.329	79.5
592.539	99.5
592.748	85.5
592.958	94.5
593.167	95.5
593.377	73.5
593.587	87.5
593.796	84.5
594.006	91.5
594.215	79.5
594.424	74.5
594.634	89.5
594.843	86.5
595.053	81.5
595.262	69.5
595.472	81.5
595.681	82.5
595.89	87.5
596.1	76.5
596.309	83.5
596.518	84.5
596.727	78.5
596.937	73.5
597.146	82.5
597.355	100.5
597.564	90.5
597.774	81.5
597.983	76.5
598.192	74.5
598.401	84.5
598.61	83.5
598.819	87.5
599.028	90.5
599.237	85.5
599.446	103.5
599.655	80.5
599.864	88.5
600.073	81.5
600.282	86.5
600.491	71.5
600.7	76.5
600.909	76.5
601.118	86.5
601.327	76.5
601.536	77.5
601.745	89.5
601.953	88.5
602.162	69.5
602.371	68.5
602.58	93.5
602.789	102.5
602.997	87.5
603.206	94.5
603.415	74.5
603.623	96.5
603.832	94.5
604.041	94.5
604.249	87.5
604.458	87.5
604.666	84.5
604.875	82.5
605.084	85.5
605.292	75.5
605.501	74.5
605.709	69.5
605.918	72.5
606.126	76.5
606.334	84.5
606.543	95.5
606.751	96.5
606.96	90.5
607.168	84.5
607.376	86.5
607.585	93.5
607.793	80.5
608.001	80.5
608.21	90.5
608.418	81.5
608.626	83.5
608.834	86.5
609.043	95.5
609.251	73.5
609.459	72.5
609.667	87.5
609.875	98.5
610.083	84.5
610.291	80.5
610.499	89.5
610.707	89.5
610.916	64.5
611.124	92.5
611.332	78.5
611.54	78.5
611.748	102.5
611.955	84.5
612.163	88.5
612.371	110.5
612.579	88.5
612.787	88.5
612.995	100.5
613.203	96.5
613.411	81.5
613.618	101.5
613.826	80.5
614.034	80.5
614.242	88.5
614.449	81.5
614.657	97.5
614.865	101.5
615.072	92.5
615.28	85.5
615.488	78.5
615.695	90.5
615.903	100.5
616.111	105.5
616.318	104.5
616.526	99.5
616.733	82.5
616.941	94.5
617.148	91.5
617.356	85.5
617.563	75.5
617.771	89.5
617.978	85.5
618.185	84.5
618.393	79.5
618.6	78.5
618.807	86.5
619.015	95.5
619.222	96.5
619.429	88.5
619.637	66.5
619.844	91.5
620.051	83.5
620.258	78.5
620.466	86.5
620.673	95.5
620.88	81.5
621.087	96.5
621.294	92.5
621.501	95.5
621.708	99.5
621.915	85.5
622.122	86.5
622.329	87.5
622.536	80.5
622.743	86.5
622.95	71.5
623.157	99.5
623.364	102.5
623.571	89.5
623.778	78.5
623.985	86.5
624.192	87.5
624.399	86.5
624.606	97.5
624.812	84.5
625.019	85.5
625.226	99.5
625.433	95.5
625.639	69.5
625.846	88.5
626.053	88.5
626.259	87.5
626.466	100.5
626.673	76.5
626.879	90.5
627.086	88.5
627.293	84.5
627.499	81.5
627.706	86.5
627.912	74.5
628.119	74.5
628.325	116.5
628.532	83.5
628.738	77.5
628.945	77.5
629.151	89.5
629.357	83.5
629.564	83.5
629.77	72.5
629.976	76.5
630.183	83.5
630.389	86.5
630.595	82.5
630.802	99.5
631.008	89.5
631.214	79.5
631.42	88.5
631.627	84.5
631.833	71.5
632.039	78.5
632.245	79.5
632.451	78.5
632.657	74.5
632.863	88.5
633.069	86.5
633.275	85.5
633.481	88.5
633.688	78.5
633.893	93.5
634.099	80.5
634.305	78.5
634.511	72.5
634.717	88.5
634.923	85.5
635.129	72.5
635.335	69.5
635.541	82.5
635.747	68.5
635.952	99.5
636.158	86.5
636.364	84.5
636.57	96.5
636.775	91.5
636.981	90.5
637.187	78.5
637.392	81.5
637.598	70.5
637.804	74.5
638.009	77.5
638.215	82.5
638.421	78.5
638.626	85.5
638.832	89.5
639.037	85.5
639.243	87.5
639.448	86.5
639.654	79.5
639.859	86.5
640.065	91.5
640.27	94.5
640.475	78.5
640.681	81.5
640.886	89.5
641.091	83.5
641.297	90.5
641.502	87.5
641.707	81.5
641.913	85.5
642.118	88.5
642.323	84.5
642.528	91.5
642.733	88.5
642.939	87.5
643.144	81.5
643.349	78.5
643.554	91.5
643.759	87.5
643.964	78.5
644.169	101.5
644.374	74.5
644.579	80.5
644.784	85.5
644.989	84.5
645.194	79.5
645.399	92.5
645.604	77.5
645.809	75.5
646.014	73.5
646.219	80.5
646.423	84.5
646.628	83.5
646.833	68.5
647.038	80.5
647.243	88.5
647.447	86.5
647.652	72.5
647.857	95.5
648.062	82.5
648.266	86.5
648.471	91.5
648.676	82.5
648.88	70.5
649.085	88.5
649.289	86.5
649.494	82.5
649.698	76.5
649.903	81.5
650.107	94.5
650.312	82.5
650.516	78.5
650.721	81.5
650.925	78.5
651.13	70.5
651.334	72.5
651.539	74.5
651.743	70.5
651.947	78.5
652.152	90.5
652.356	83.5
652.56	82.5
652.764	74.5
652.969	76.5
653.173	74.5
653.377	77.5
653.581	82.5
653.785	80.5
653.99	82.5
654.194	90.5
654.398	83.5
654.602	87.5
654.806	90.5
655.01	86.5
655.214	71.5
655.418	74.5
655.622	70.5
655.826	82.5
656.03	83.5
656.234	78.5
656.438	86.5
656.642	92.5
656.846	78.5
657.049	75.5
657.253	91.5
657.457	79.5
657.661	79.5
657.865	73.5
658.068	73.5
658.272	90.5
658.476	81.5
658.68	70.5
658.883	78.5
659.087	88.5
659.291	90.5
659.494	75.5
659.698	80.5
659.901	70.5
660.105	70.5
660.309	62.5
660.512	65.5
660.716	66.5
660.919	86.5
661.123	87.5
661.326	88.5
661.53	74.5
661.733	86.5
661.936	73.5
662.14	84.5
662.343	90.5
662.546	72.5
662.75	80.5
662.953	86.5
663.156	84.5
663.36	93.5
663.563	82.5
663.766	84.5
663.969	84.5
664.173	70.5
664.376	76.5
664.579	81.5
664.782	64.5
664.985	82.5
665.188	84.5
665.391	79.5
665.594	69.5
665.797	76.5
666	82.5
666.203	72.5
666.406	98.5
666.609	75.5
666.812	77.5
667.015	90.5
667.218	79.5
667.421	88.5
667.624	86.5
667.827	81.5
668.03	73.5
668.232	74.5
668.435	80.5
668.638	71.5
668.841	81.5
669.043	80.5
669.246	69.5
669.449	80.5
669.651	70.5
669.854	69.5
670.057	87.5
670.259	92.5
670.462	78.5
670.665	73.5
670.867	89.5
671.07	82.5
671.272	88.5
671.475	76.5
671.677	79.5
671.88	89.5
672.082	89.5
672.284	79.5
672.487	100.5
672.689	87.5
672.892	84.5
