Data from Soil_50_4_HRD10591_00017.txt Node
Date: Thu Feb 19 11:33:07 EST 2026
User: Yrep
Spectrometer: HR+D1059
Trigger mode: 1
Integration Time (sec): 1.000000E-1
Scans to average: 1
Electric dark correction enabled: true
Nonlinearity correction enabled: false
Boxcar width: 0
XAxis mode: Wavelengths
Number of Pixels in Spectrum: 2048
>>>>>Begin Spectral Data<<<<<
223.165	-7.44
223.4	-7.44
223.635	-7.44
223.869	-13.44
224.104	-23.44
224.338	-20.44
224.573	-22.44
224.808	-10.44
225.042	-15.44
225.277	-18.44
225.511	-9.44
225.746	13.56
225.98	17.56
226.215	2.56
226.449	15.56
226.683	23.56
226.918	28.56
227.152	39.56
227.387	42.56
227.621	36.56
227.856	43.56
228.09	50.56
228.324	42.56
228.559	65.56
228.793	35.56
229.027	55.56
229.262	61.56
229.496	68.56
229.73	64.56
229.964	59.56
230.199	69.56
230.433	74.56
230.667	78.56
230.901	77.56
231.136	79.56
231.37	84.56
231.604	83.56
231.838	80.56
232.072	73.56
232.306	73.56
232.541	70.56
232.775	76.56
233.009	75.56
233.243	79.56
233.477	81.56
233.711	70.56
233.945	86.56
234.179	79.56
234.413	94.56
234.647	81.56
234.881	73.56
235.115	80.56
235.349	79.56
235.583	89.56
235.817	83.56
236.051	71.56
236.285	87.56
236.519	69.56
236.753	74.56
236.987	75.56
237.221	85.56
237.455	65.56
237.689	72.56
237.922	74.56
238.156	67.56
238.39	73.56
238.624	80.56
238.858	59.56
239.091	75.56
239.325	75.56
239.559	83.56
239.793	69.56
240.027	81.56
240.26	75.56
240.494	71.56
240.728	75.56
240.961	74.56
241.195	74.56
241.429	71.56
241.662	59.56
241.896	87.56
242.13	74.56
242.363	78.56
242.597	81.56
242.83	81.56
243.064	71.56
243.298	85.56
243.531	81.56
243.765	58.56
243.998	88.56
244.232	65.56
244.465	74.56
244.699	64.56
244.932	79.56
245.166	79.56
245.399	83.56
245.633	72.56
245.866	81.56
246.099	77.56
246.333	78.56
246.566	77.56
246.8	78.56
247.033	69.56
247.266	75.56
247.5	77.56
247.733	81.56
247.966	70.56
248.2	78.56
248.433	76.56
248.666	86.56
248.899	74.56
249.133	73.56
249.366	71.56
249.599	86.56
249.832	91.56
250.066	77.56
250.299	98.56
250.532	61.56
250.765	77.56
250.998	69.56
251.231	78.56
251.465	74.56
251.698	87.56
251.931	78.56
252.164	87.56
252.397	66.56
252.63	75.56
252.863	75.56
253.096	72.56
253.329	74.56
253.562	86.56
253.795	78.56
254.028	83.56
254.261	84.56
254.494	86.56
254.727	80.56
254.96	81.56
255.193	77.56
255.426	70.56
255.659	81.56
255.892	77.56
256.124	66.56
256.357	80.56
256.59	72.56
256.823	73.56
257.056	75.56
257.289	82.56
257.521	75.56
257.754	78.56
257.987	64.56
258.22	79.56
258.452	91.56
258.685	66.56
258.918	65.56
259.151	77.56
259.383	82.56
259.616	79.56
259.849	99.56
260.081	78.56
260.314	81.56
260.547	70.56
260.779	71.56
261.012	87.56
261.244	73.56
261.477	77.56
261.71	81.56
261.942	85.56
262.175	69.56
262.407	67.56
262.64	74.56
262.872	82.56
263.105	68.56
263.337	74.56
263.57	75.56
263.802	75.56
264.035	81.56
264.267	93.56
264.499	77.56
264.732	72.56
264.964	71.56
265.197	88.56
265.429	86.56
265.661	87.56
265.894	72.56
266.126	84.56
266.358	70.56
266.591	76.56
266.823	73.56
267.055	80.56
267.287	88.56
267.52	92.56
267.752	80.56
267.984	76.56
268.216	66.56
268.448	87.56
268.681	95.56
268.913	91.56
269.145	89.56
269.377	85.56
269.609	89.56
269.841	78.56
270.073	77.56
270.306	77.56
270.538	78.56
270.77	83.56
271.002	74.56
271.234	95.56
271.466	87.56
271.698	85.56
271.93	78.56
272.162	77.56
272.394	79.56
272.626	61.56
272.858	74.56
273.09	79.56
273.322	81.56
273.553	67.56
273.785	97.56
274.017	94.56
274.249	90.56
274.481	68.56
274.713	69.56
274.945	81.56
275.176	71.56
275.408	77.56
275.64	83.56
275.872	84.56
276.104	69.56
276.335	70.56
276.567	77.56
276.799	86.56
277.031	70.56
277.262	71.56
277.494	74.56
277.726	67.56
277.957	75.56
278.189	85.56
278.421	76.56
278.652	68.56
278.884	78.56
279.115	68.56
279.347	79.56
279.579	84.56
279.81	93.56
280.042	74.56
280.273	81.56
280.505	65.56
280.736	75.56
280.968	77.56
281.199	94.56
281.431	86.56
281.662	73.56
281.894	77.56
282.125	80.56
282.356	85.56
282.588	75.56
282.819	75.56
283.051	88.56
283.282	77.56
283.513	77.56
283.745	81.56
283.976	89.56
284.207	79.56
284.439	85.56
284.67	83.56
284.901	80.56
285.132	82.56
285.364	84.56
285.595	76.56
285.826	85.56
286.057	80.56
286.288	96.56
286.52	79.56
286.751	71.56
286.982	77.56
287.213	84.56
287.444	78.56
287.675	75.56
287.906	76.56
288.138	78.56
288.369	97.56
288.6	87.56
288.831	100.56
289.062	79.56
289.293	74.56
289.524	81.56
289.755	69.56
289.986	92.56
290.217	80.56
290.448	73.56
290.679	75.56
290.91	82.56
291.141	83.56
291.371	86.56
291.602	83.56
291.833	96.56
292.064	92.56
292.295	74.56
292.526	77.56
292.757	101.56
292.987	79.56
293.218	92.56
293.449	94.56
293.68	95.56
293.91	85.56
294.141	83.56
294.372	74.56
294.603	97.56
294.833	89.56
295.064	93.56
295.295	80.56
295.525	92.56
295.756	87.56
295.987	77.56
296.217	78.56
296.448	83.56
296.679	95.56
296.909	85.56
297.14	87.56
297.37	93.56
297.601	85.56
297.831	81.56
298.062	90.56
298.292	82.56
298.523	92.56
298.753	82.56
298.984	79.56
299.214	83.56
299.445	88.56
299.675	81.56
299.905	82.56
300.136	82.56
300.366	86.56
300.597	107.56
300.827	107.56
301.057	80.56
301.288	71.56
301.518	92.56
301.748	79.56
301.979	83.56
302.209	84.56
302.439	96.56
302.669	81.56
302.9	74.56
303.13	85.56
303.36	80.56
303.59	91.56
303.82	71.56
304.051	84.56
304.281	71.56
304.511	74.56
304.741	87.56
304.971	81.56
305.201	79.56
305.431	79.56
305.661	80.56
305.891	72.56
306.121	80.56
306.352	81.56
306.582	98.56
306.812	79.56
307.042	96.56
307.272	101.56
307.502	89.56
307.731	96.56
307.961	82.56
308.191	72.56
308.421	60.56
308.651	80.56
308.881	85.56
309.111	81.56
309.341	80.56
309.571	83.56
309.8	83.56
310.03	78.56
310.26	78.56
310.49	75.56
310.72	78.56
310.949	87.56
311.179	83.56
311.409	92.56
311.639	74.56
311.868	87.56
312.098	85.56
312.328	80.56
312.557	99.56
312.787	72.56
313.017	91.56
313.246	87.56
313.476	84.56
313.706	85.56
313.935	89.56
314.165	82.56
314.394	95.56
314.624	95.56
314.853	88.56
315.083	92.56
315.312	83.56
315.542	66.56
315.771	68.56
316.001	76.56
316.23	88.56
316.46	77.56
316.689	81.56
316.919	87.56
317.148	83.56
317.377	74.56
317.607	87.56
317.836	81.56
318.065	85.56
318.295	84.56
318.524	72.56
318.753	87.56
318.983	82.56
319.212	84.56
319.441	74.56
319.67	81.56
319.9	75.56
320.129	97.56
320.358	85.56
320.587	75.56
320.816	75.56
321.046	88.56
321.275	89.56
321.504	82.56
321.733	81.56
321.962	83.56
322.191	77.56
322.42	97.56
322.649	92.56
322.878	81.56
323.108	100.56
323.337	82.56
323.566	81.56
323.795	82.56
324.024	77.56
324.253	80.56
324.482	84.56
324.71	81.56
324.939	84.56
325.168	86.56
325.397	82.56
325.626	75.56
325.855	72.56
326.084	72.56
326.313	72.56
326.542	89.56
326.77	79.56
326.999	94.56
327.228	79.56
327.457	84.56
327.686	82.56
327.914	78.56
328.143	73.56
328.372	77.56
328.6	77.56
328.829	89.56
329.058	81.56
329.287	82.56
329.515	89.56
329.744	87.56
329.972	94.56
330.201	96.56
330.43	92.56
330.658	75.56
330.887	86.56
331.115	80.56
331.344	79.56
331.572	80.56
331.801	91.56
332.03	92.56
332.258	82.56
332.486	79.56
332.715	82.56
332.943	88.56
333.172	81.56
333.4	81.56
333.629	90.56
333.857	85.56
334.085	86.56
334.314	77.56
334.542	80.56
334.771	71.56
334.999	82.56
335.227	99.56
335.455	77.56
335.684	90.56
335.912	84.56
336.14	94.56
336.369	78.56
336.597	75.56
336.825	76.56
337.053	81.56
337.281	92.56
337.51	93.56
337.738	78.56
337.966	86.56
338.194	88.56
338.422	72.56
338.65	75.56
338.878	83.56
339.106	94.56
339.334	75.56
339.562	83.56
339.79	82.56
340.018	94.56
340.246	77.56
340.474	63.56
340.702	73.56
340.93	73.56
341.158	80.56
341.386	87.56
341.614	93.56
341.842	89.56
342.07	90.56
342.298	82.56
342.526	92.56
342.754	83.56
342.981	86.56
343.209	89.56
343.437	87.56
343.665	87.56
343.893	76.56
344.12	70.56
344.348	81.56
344.576	84.56
344.804	75.56
345.031	78.56
345.259	77.56
345.487	70.56
345.714	89.56
345.942	95.56
346.17	87.56
346.397	82.56
346.625	82.56
346.853	79.56
347.08	81.56
347.308	85.56
347.535	83.56
347.763	92.56
347.99	85.56
348.218	86.56
348.445	83.56
348.673	81.56
348.9	98.56
349.128	68.56
349.355	73.56
349.583	80.56
349.81	79.56
350.037	85.56
350.265	79.56
350.492	71.56
350.72	68.56
350.947	89.56
351.174	69.56
351.402	72.56
351.629	75.56
351.856	80.56
352.083	92.56
352.311	86.56
352.538	81.56
352.765	79.56
352.992	87.56
353.22	81.56
353.447	85.56
353.674	78.56
353.901	81.56
354.128	86.56
354.355	78.56
354.583	81.56
354.81	87.56
355.037	85.56
355.264	74.56
355.491	73.56
355.718	82.56
355.945	85.56
356.172	70.56
356.399	74.56
356.626	79.56
356.853	78.56
357.08	81.56
357.307	86.56
357.534	85.56
357.761	88.56
357.988	82.56
358.215	84.56
358.441	78.56
358.668	72.56
358.895	77.56
359.122	90.56
359.349	79.56
359.576	81.56
359.802	80.56
360.029	89.56
360.256	85.56
360.483	63.56
360.709	76.56
360.936	89.56
361.163	88.56
361.39	81.56
361.616	81.56
361.843	78.56
362.07	83.56
362.296	85.56
362.523	87.56
362.749	87.56
362.976	95.56
363.203	92.56
363.429	79.56
363.656	81.56
363.882	67.56
364.109	83.56
364.335	77.56
364.562	83.56
364.788	74.56
365.015	84.56
365.241	79.56
365.468	78.56
365.694	88.56
365.92	76.56
366.147	91.56
366.373	72.56
366.599	79.56
366.826	87.56
367.052	79.56
367.278	88.56
367.505	91.56
367.731	79.56
367.957	80.56
368.184	86.56
368.41	65.56
368.636	94.56
368.862	90.56
369.089	75.56
369.315	77.56
369.541	91.56
369.767	96.56
369.993	83.56
370.219	84.56
370.445	87.56
370.672	87.56
370.898	78.56
371.124	83.56
371.35	75.56
371.576	75.56
371.802	72.56
372.028	88.56
372.254	87.56
372.48	83.56
372.706	77.56
372.932	81.56
373.158	95.56
373.384	84.56
373.61	89.56
373.835	83.56
374.061	86.56
374.287	90.56
374.513	78.56
374.739	72.56
374.965	70.56
375.191	78.56
375.416	88.56
375.642	88.56
375.868	79.56
376.094	70.56
376.319	81.56
376.545	78.56
376.771	79.56
376.997	90.56
377.222	53.56
377.448	72.56
377.674	79.56
377.899	81.56
378.125	94.56
378.35	81.56
378.576	71.56
378.802	88.56
379.027	69.56
379.253	79.56
379.478	85.56
379.704	82.56
379.929	84.56
380.155	73.56
380.38	84.56
380.606	81.56
380.831	77.56
381.057	87.56
381.282	74.56
381.507	85.56
381.733	105.56
381.958	86.56
382.184	78.56
382.409	83.56
382.634	82.56
382.86	90.56
383.085	92.56
383.31	77.56
383.535	82.56
383.761	79.56
383.986	80.56
384.211	85.56
384.436	87.56
384.662	80.56
384.887	81.56
385.112	80.56
385.337	98.56
385.562	90.56
385.787	75.56
386.013	83.56
386.238	77.56
386.463	79.56
386.688	102.56
386.913	90.56
387.138	85.56
387.363	93.56
387.588	88.56
387.813	87.56
388.038	87.56
388.263	83.56
388.488	76.56
388.713	83.56
388.938	78.56
389.163	88.56
389.387	78.56
389.612	83.56
389.837	84.56
390.062	86.56
390.287	89.56
390.512	86.56
390.736	69.56
390.961	87.56
391.186	88.56
391.411	76.56
391.636	81.56
391.86	73.56
392.085	68.56
392.31	79.56
392.534	79.56
392.759	89.56
392.984	97.56
393.208	83.56
393.433	107.56
393.658	102.56
393.882	87.56
394.107	73.56
394.331	91.56
394.556	88.56
394.78	77.56
395.005	93.56
395.229	74.56
395.454	92.56
395.678	79.56
395.903	70.56
396.127	90.56
396.352	89.56
396.576	93.56
396.801	98.56
397.025	106.56
397.249	81.56
397.474	88.56
397.698	85.56
397.922	75.56
398.147	91.56
398.371	81.56
398.595	74.56
398.82	78.56
399.044	74.56
399.268	85.56
399.492	91.56
399.717	95.56
399.941	85.56
400.165	74.56
400.389	80.56
400.613	81.56
400.837	81.56
401.062	80.56
401.286	69.56
401.51	73.56
401.734	92.56
401.958	83.56
402.182	82.56
402.406	89.56
402.63	77.56
402.854	78.56
403.078	74.56
403.302	78.56
403.526	82.56
403.75	91.56
403.974	82.56
404.198	86.56
404.422	82.56
404.645	87.56
404.869	78.56
405.093	84.56
405.317	89.56
405.541	83.56
405.765	81.56
405.988	90.56
406.212	84.56
406.436	69.56
406.66	65.56
406.883	81.56
407.107	71.56
407.331	82.56
407.555	87.56
407.778	77.56
408.002	77.56
408.226	79.56
408.449	78.56
408.673	77.56
408.896	78.56
409.12	89.56
409.344	90.56
409.567	75.56
409.791	91.56
410.014	81.56
410.238	71.56
410.461	79.56
410.685	82.56
410.908	83.56
411.132	82.56
411.355	80.56
411.578	85.56
411.802	83.56
412.025	103.56
412.249	74.56
412.472	88.56
412.695	82.56
412.919	76.56
413.142	82.56
413.365	82.56
413.589	80.56
413.812	78.56
414.035	73.56
414.258	87.56
414.482	77.56
414.705	74.56
414.928	88.56
415.151	76.56
415.374	72.56
415.597	74.56
415.821	63.56
416.044	88.56
416.267	77.56
416.49	70.56
416.713	82.56
416.936	84.56
417.159	76.56
417.382	70.56
417.605	80.56
417.828	78.56
418.051	82.56
418.274	75.56
418.497	70.56
418.72	66.56
418.943	79.56
419.166	84.56
419.389	92.56
419.611	73.56
419.834	75.56
420.057	79.56
420.28	85.56
420.503	83.56
420.726	86.56
420.948	83.56
421.171	69.56
421.394	81.56
421.617	78.56
421.839	93.56
422.062	75.56
422.285	74.56
422.507	91.56
422.73	107.56
422.953	97.56
423.175	69.56
423.398	83.56
423.621	72.56
423.843	82.56
424.066	84.56
424.288	75.56
424.511	66.56
424.733	77.56
424.956	71.56
425.178	81.56
425.401	67.56
425.623	72.56
425.846	97.56
426.068	70.56
426.291	63.56
426.513	75.56
426.735	75.56
426.958	69.56
427.18	63.56
427.402	81.56
427.625	84.56
427.847	85.56
428.069	83.56
428.292	74.56
428.514	82.56
428.736	70.56
428.958	78.56
429.181	81.56
429.403	77.56
429.625	78.56
429.847	76.56
430.069	75.56
430.292	74.56
430.514	89.56
430.736	70.56
430.958	75.56
431.18	73.56
431.402	81.56
431.624	77.56
431.846	88.56
432.068	82.56
432.29	68.56
432.512	83.56
432.734	69.56
432.956	77.56
433.178	82.56
433.4	69.56
433.622	77.56
433.844	82.56
434.066	80.56
434.287	86.56
434.509	70.56
434.731	90.56
434.953	80.56
435.175	77.56
435.397	75.56
435.618	79.56
435.84	82.56
436.062	94.56
436.284	80.56
436.505	75.56
436.727	81.56
436.949	81.56
437.17	74.56
437.392	69.56
437.614	97.56
437.835	74.56
438.057	63.56
438.278	76.56
438.5	85.56
438.721	81.56
438.943	80.56
439.165	84.56
439.386	73.56
439.608	68.56
439.829	80.56
440.05	76.56
440.272	85.56
440.493	87.56
440.715	79.56
440.936	84.56
441.158	85.56
441.379	77.56
441.6	76.56
441.822	77.56
442.043	89.56
442.264	86.56
442.486	77.56
442.707	68.56
442.928	83.56
443.149	65.56
443.371	82.56
443.592	91.56
443.813	95.56
444.034	71.56
444.255	81.56
444.476	73.56
444.698	79.56
444.919	89.56
445.14	143.56
445.361	110.56
445.582	81.56
445.803	72.56
446.024	59.56
446.245	79.56
446.466	87.56
446.687	101.56
446.908	74.56
447.129	66.56
447.35	85.56
447.571	77.56
447.792	86.56
448.013	77.56
448.234	74.56
448.455	73.56
448.675	83.56
448.896	80.56
449.117	70.56
449.338	81.56
449.559	85.56
449.779	86.56
450	74.56
450.221	71.56
450.442	81.56
450.662	72.56
450.883	76.56
451.104	68.56
451.324	80.56
451.545	73.56
451.766	85.56
451.986	79.56
452.207	71.56
452.428	75.56
452.648	80.56
452.869	77.56
453.089	77.56
453.31	84.56
453.53	76.56
453.751	74.56
453.971	70.56
454.192	89.56
454.412	72.56
454.633	84.56
454.853	86.56
455.073	82.56
455.294	75.56
455.514	85.56
455.734	73.56
455.955	71.56
456.175	87.56
456.395	74.56
456.616	77.56
456.836	74.56
457.056	71.56
457.276	73.56
457.497	76.56
457.717	63.56
457.937	83.56
458.157	82.56
458.377	68.56
458.598	70.56
458.818	80.56
459.038	81.56
459.258	78.56
459.478	78.56
459.698	88.56
459.918	84.56
460.138	89.56
460.358	78.56
460.578	81.56
460.798	77.56
461.018	77.56
461.238	74.56
461.458	75.56
461.678	81.56
461.898	67.56
462.118	75.56
462.338	78.56
462.558	81.56
462.777	79.56
462.997	89.56
463.217	69.56
463.437	81.56
463.657	72.56
463.876	77.56
464.096	84.56
464.316	76.56
464.536	80.56
464.755	85.56
464.975	94.56
465.195	79.56
465.414	65.56
465.634	85.56
465.854	75.56
466.073	91.56
466.293	85.56
466.512	73.56
466.732	73.56
466.951	88.56
467.171	78.56
467.391	80.56
467.61	87.56
467.829	61.56
468.049	75.56
468.268	81.56
468.488	87.56
468.707	77.56
468.927	72.56
469.146	75.56
469.365	92.56
469.585	79.56
469.804	88.56
470.023	87.56
470.243	95.56
470.462	66.56
470.681	58.56
470.901	89.56
471.12	78.56
471.339	78.56
471.558	74.56
471.777	74.56
471.997	77.56
472.216	79.56
472.435	88.56
472.654	73.56
472.873	85.56
473.092	77.56
473.311	77.56
473.53	69.56
473.749	84.56
473.968	75.56
474.187	95.56
474.406	84.56
474.625	86.56
474.844	78.56
475.063	73.56
475.282	75.56
475.501	84.56
475.72	59.56
475.939	65.56
476.158	77.56
476.377	71.56
476.596	79.56
476.814	88.56
477.033	81.56
477.252	81.56
477.471	86.56
477.69	73.56
477.908	85.56
478.127	81.56
478.346	81.56
478.564	84.56
478.783	81.56
479.002	75.56
479.22	68.56
479.439	90.56
479.658	85.56
479.876	81.56
480.095	95.56
480.313	77.56
480.532	90.56
480.751	82.56
480.969	67.56
481.188	79.56
481.406	84.56
481.624	82.56
481.843	83.56
482.061	58.56
482.28	81.56
482.498	77.56
482.717	77.56
482.935	82.56
483.153	74.56
483.372	76.56
483.59	71.56
483.808	91.56
484.027	77.56
484.245	79.56
484.463	75.56
484.681	78.56
484.9	77.56
485.118	80.56
485.336	90.56
485.554	77.56
485.772	63.56
485.99	83.56
486.209	80.56
486.427	66.56
486.645	77.56
486.863	87.56
487.081	79.56
487.299	72.56
487.517	81.56
487.735	83.56
487.953	84.56
488.171	102.56
488.389	83.56
488.607	78.56
488.825	76.56
489.043	73.56
489.261	86.56
489.479	83.56
489.696	79.56
489.914	82.56
490.132	73.56
490.35	81.56
490.568	70.56
490.786	84.56
491.003	93.56
491.221	75.56
491.439	75.56
491.657	79.56
491.874	83.56
492.092	84.56
492.31	78.56
492.527	70.56
492.745	74.56
492.963	89.56
493.18	73.56
493.398	68.56
493.615	82.56
493.833	77.56
494.05	71.56
494.268	71.56
494.485	75.56
494.703	83.56
494.92	82.56
495.138	74.56
495.355	87.56
495.573	85.56
495.79	72.56
496.008	89.56
496.225	90.56
496.442	66.56
496.66	99.56
496.877	77.56
497.094	79.56
497.312	71.56
497.529	81.56
497.746	84.56
497.963	91.56
498.181	79.56
498.398	75.56
498.615	85.56
498.832	85.56
499.049	86.56
499.267	90.56
499.484	88.56
499.701	72.56
499.918	64.56
500.135	81.56
500.352	85.56
500.569	86.56
500.786	83.56
501.003	81.56
501.22	81.56
501.437	77.56
501.654	69.56
501.871	72.56
502.088	73.56
502.305	79.56
502.522	84.56
502.739	72.56
502.956	81.56
503.172	62.56
503.389	79.56
503.606	84.56
503.823	74.56
504.04	81.56
504.256	77.56
504.473	82.56
504.69	63.56
504.907	87.56
505.123	87.56
505.34	82.56
505.557	78.56
505.773	87.56
505.99	85.56
506.207	95.56
506.423	93.56
506.64	83.56
506.856	75.56
507.073	91.56
507.289	81.56
507.506	77.56
507.722	78.56
507.939	73.56
508.155	73.56
508.372	88.56
508.588	84.56
508.805	75.56
509.021	72.56
509.238	64.56
509.454	86.56
509.67	82.56
509.887	83.56
510.103	71.56
510.319	83.56
510.536	90.56
510.752	79.56
510.968	94.56
511.184	67.56
511.401	78.56
511.617	88.56
511.833	93.56
512.049	81.56
512.265	74.56
512.481	70.56
512.698	74.56
512.914	82.56
513.13	86.56
513.346	78.56
513.562	77.56
513.778	78.56
513.994	84.56
514.21	72.56
514.426	74.56
514.642	72.56
514.858	84.56
515.074	95.56
515.29	91.56
515.506	85.56
515.721	83.56
515.937	81.56
516.153	70.56
516.369	79.56
516.585	84.56
516.801	85.56
517.016	97.56
517.232	82.56
517.448	88.56
517.664	79.56
517.879	79.56
518.095	88.56
518.311	75.56
518.527	86.56
518.742	100.56
518.958	104.56
519.173	86.56
519.389	78.56
519.605	89.56
519.82	71.56
520.036	77.56
520.251	73.56
520.467	70.56
520.682	76.56
520.898	89.56
521.113	82.56
521.329	73.56
521.544	72.56
521.76	100.56
521.975	75.56
522.19	69.56
522.406	89.56
522.621	79.56
522.836	77.56
523.052	74.56
523.267	70.56
523.482	78.56
523.698	87.56
523.913	89.56
524.128	92.56
524.343	80.56
524.559	83.56
524.774	80.56
524.989	81.56
525.204	93.56
525.419	84.56
525.634	82.56
525.849	85.56
526.064	92.56
526.28	85.56
526.495	89.56
526.71	94.56
526.925	84.56
527.14	96.56
527.355	88.56
527.57	85.56
527.785	77.56
527.999	86.56
528.214	72.56
528.429	82.56
528.644	85.56
528.859	82.56
529.074	89.56
529.289	82.56
529.503	75.56
529.718	76.56
529.933	89.56
530.148	86.56
530.363	77.56
530.577	83.56
530.792	81.56
531.007	75.56
531.221	81.56
531.436	91.56
531.651	99.56
531.865	84.56
532.08	85.56
532.295	89.56
532.509	77.56
532.724	75.56
532.938	83.56
533.153	87.56
533.367	84.56
533.582	78.56
533.796	71.56
534.011	95.56
534.225	97.56
534.44	97.56
534.654	84.56
534.868	79.56
535.083	86.56
535.297	92.56
535.511	79.56
535.726	86.56
535.94	92.56
536.154	85.56
536.369	74.56
536.583	87.56
536.797	88.56
537.011	72.56
537.225	75.56
537.44	94.56
537.654	90.56
537.868	83.56
538.082	101.56
538.296	81.56
538.51	89.56
538.724	75.56
538.938	79.56
539.153	83.56
539.367	87.56
539.581	78.56
539.795	85.56
540.009	87.56
540.222	97.56
540.436	87.56
540.65	77.56
540.864	78.56
541.078	82.56
541.292	75.56
541.506	79.56
541.72	80.56
541.934	91.56
542.147	67.56
542.361	87.56
542.575	77.56
542.789	76.56
543.002	82.56
543.216	91.56
543.43	83.56
543.644	101.56
543.857	92.56
544.071	81.56
544.285	86.56
544.498	77.56
544.712	71.56
544.925	78.56
545.139	85.56
545.352	94.56
545.566	87.56
545.779	93.56
545.993	80.56
546.206	87.56
546.42	88.56
546.633	84.56
546.847	73.56
547.06	93.56
547.274	81.56
547.487	93.56
547.7	87.56
547.914	78.56
548.127	99.56
548.34	78.56
548.554	79.56
548.767	97.56
548.98	90.56
549.193	79.56
549.407	95.56
549.62	82.56
549.833	74.56
550.046	73.56
550.259	91.56
550.473	83.56
550.686	92.56
550.899	87.56
551.112	81.56
551.325	94.56
551.538	85.56
551.751	97.56
551.964	83.56
552.177	88.56
552.39	89.56
552.603	75.56
552.816	108.56
553.029	97.56
553.242	85.56
553.455	90.56
553.667	96.56
553.88	95.56
554.093	83.56
554.306	94.56
554.519	85.56
554.732	95.56
554.944	86.56
555.157	84.56
555.37	96.56
555.583	95.56
555.795	97.56
556.008	69.56
556.221	90.56
556.433	80.56
556.646	98.56
556.859	87.56
557.071	81.56
557.284	88.56
557.496	87.56
557.709	83.56
557.921	89.56
558.134	101.56
558.346	87.56
558.559	90.56
558.771	100.56
558.984	89.56
559.196	100.56
559.409	103.56
559.621	81.56
559.833	85.56
560.046	98.56
560.258	97.56
560.47	81.56
560.683	72.56
560.895	86.56
561.107	75.56
561.32	91.56
561.532	85.56
561.744	88.56
561.956	87.56
562.168	77.56
562.381	94.56
562.593	71.56
562.805	87.56
563.017	70.56
563.229	77.56
563.441	77.56
563.653	90.56
563.865	92.56
564.077	77.56
564.289	90.56
564.501	86.56
564.713	84.56
564.925	82.56
565.137	76.56
565.349	75.56
565.561	88.56
565.773	85.56
565.985	73.56
566.197	86.56
566.408	91.56
566.62	77.56
566.832	89.56
567.044	95.56
567.255	86.56
567.467	81.56
567.679	87.56
567.891	81.56
568.102	81.56
568.314	79.56
568.526	82.56
568.737	91.56
568.949	101.56
569.161	86.56
569.372	81.56
569.584	77.56
569.795	86.56
570.007	81.56
570.218	72.56
570.43	77.56
570.641	85.56
570.853	106.56
571.064	83.56
571.276	88.56
571.487	71.56
571.698	83.56
571.91	76.56
572.121	84.56
572.333	87.56
572.544	93.56
572.755	92.56
572.966	80.56
573.178	85.56
573.389	84.56
573.6	90.56
573.811	83.56
574.023	87.56
574.234	94.56
574.445	92.56
574.656	75.56
574.867	89.56
575.078	77.56
575.289	89.56
575.501	82.56
575.712	78.56
575.923	87.56
576.134	82.56
576.345	80.56
576.556	81.56
576.767	89.56
576.978	92.56
577.188	87.56
577.399	97.56
577.61	79.56
577.821	73.56
578.032	74.56
578.243	91.56
578.454	85.56
578.665	87.56
578.875	88.56
579.086	82.56
579.297	82.56
579.508	87.56
579.718	90.56
579.929	87.56
580.14	92.56
580.35	88.56
580.561	97.56
580.772	92.56
580.982	71.56
581.193	81.56
581.403	78.56
581.614	90.56
581.825	83.56
582.035	75.56
582.246	86.56
582.456	93.56
582.667	91.56
582.877	85.56
583.087	88.56
583.298	91.56
583.508	94.56
583.719	84.56
583.929	91.56
584.139	85.56
584.35	86.56
584.56	97.56
584.77	87.56
584.981	99.56
585.191	89.56
585.401	74.56
585.611	77.56
585.821	102.56
586.032	99.56
586.242	85.56
586.452	77.56
586.662	82.56
586.872	99.56
587.082	88.56
587.292	75.56
587.502	86.56
587.713	86.56
587.923	84.56
588.133	104.56
588.343	105.56
588.553	95.56
588.762	121.56
588.972	140.56
589.182	213.56
589.392	171.56
589.602	147.56
589.812	204.56
590.022	150.56
590.232	131.56
590.441	107.56
590.651	97.56
590.861	98.56
591.071	94.56
591.281	85.56
591.49	80.56
591.7	74.56
591.91	86.56
592.119	101.56
592.329	81.56
592.539	89.56
592.748	101.56
592.958	95.56
593.167	89.56
593.377	75.56
593.587	81.56
593.796	77.56
594.006	84.56
594.215	85.56
594.424	91.56
594.634	90.56
594.843	70.56
595.053	72.56
595.262	87.56
595.472	80.56
595.681	84.56
595.89	91.56
596.1	95.56
596.309	82.56
596.518	85.56
596.727	87.56
596.937	77.56
597.146	98.56
597.355	91.56
597.564	93.56
597.774	86.56
597.983	92.56
598.192	87.56
598.401	81.56
598.61	89.56
598.819	86.56
599.028	85.56
599.237	87.56
599.446	98.56
599.655	94.56
599.864	83.56
600.073	83.56
600.282	86.56
600.491	96.56
600.7	83.56
600.909	90.56
601.118	86.56
601.327	92.56
601.536	74.56
601.745	89.56
601.953	89.56
602.162	78.56
602.371	79.56
602.58	83.56
602.789	89.56
602.997	98.56
603.206	96.56
603.415	79.56
603.623	83.56
603.832	96.56
604.041	88.56
604.249	94.56
604.458	79.56
604.666	89.56
604.875	93.56
605.084	81.56
605.292	83.56
605.501	85.56
605.709	81.56
605.918	84.56
606.126	83.56
606.334	88.56
606.543	78.56
606.751	96.56
606.96	84.56
607.168	78.56
607.376	77.56
607.585	87.56
607.793	89.56
608.001	76.56
608.21	77.56
608.418	76.56
608.626	90.56
608.834	95.56
609.043	87.56
609.251	83.56
609.459	84.56
609.667	89.56
609.875	87.56
610.083	90.56
610.291	93.56
610.499	95.56
610.707	83.56
610.916	80.56
611.124	101.56
611.332	89.56
611.54	88.56
611.748	82.56
611.955	84.56
612.163	91.56
612.371	101.56
612.579	92.56
612.787	97.56
612.995	92.56
613.203	79.56
613.411	85.56
613.618	91.56
613.826	77.56
614.034	92.56
614.242	74.56
614.449	91.56
614.657	100.56
614.865	88.56
615.072	72.56
615.28	81.56
615.488	90.56
615.695	81.56
615.903	76.56
616.111	88.56
616.318	119.56
616.526	89.56
616.733	94.56
616.941	103.56
617.148	97.56
617.356	89.56
617.563	73.56
617.771	87.56
617.978	98.56
618.185	77.56
618.393	99.56
618.6	84.56
618.807	82.56
619.015	87.56
619.222	81.56
619.429	85.56
619.637	89.56
619.844	87.56
620.051	100.56
620.258	91.56
620.466	81.56
620.673	82.56
620.88	65.56
621.087	82.56
621.294	79.56
621.501	92.56
621.708	72.56
621.915	81.56
622.122	87.56
622.329	81.56
622.536	86.56
622.743	88.56
622.95	90.56
623.157	87.56
623.364	76.56
623.571	88.56
623.778	94.56
623.985	87.56
624.192	78.56
624.399	90.56
624.606	82.56
624.812	86.56
625.019	90.56
625.226	77.56
625.433	89.56
625.639	95.56
625.846	88.56
626.053	81.56
626.259	98.56
626.466	89.56
626.673	81.56
626.879	89.56
627.086	89.56
627.293	75.56
627.499	76.56
627.706	79.56
627.912	83.56
628.119	86.56
628.325	81.56
628.532	106.56
628.738	86.56
628.945	90.56
629.151	97.56
629.357	91.56
629.564	69.56
629.77	96.56
629.976	83.56
630.183	82.56
630.389	81.56
630.595	77.56
630.802	78.56
631.008	81.56
631.214	90.56
631.42	73.56
631.627	89.56
631.833	72.56
632.039	77.56
632.245	86.56
632.451	91.56
632.657	88.56
632.863	82.56
633.069	74.56
633.275	82.56
633.481	83.56
633.688	76.56
633.893	71.56
634.099	92.56
634.305	84.56
634.511	84.56
634.717	70.56
634.923	95.56
635.129	75.56
635.335	87.56
635.541	81.56
635.747	91.56
635.952	88.56
636.158	89.56
636.364	80.56
636.57	74.56
636.775	73.56
636.981	77.56
637.187	84.56
637.392	75.56
637.598	75.56
637.804	97.56
638.009	85.56
638.215	85.56
638.421	72.56
638.626	84.56
638.832	100.56
639.037	79.56
639.243	86.56
639.448	77.56
639.654	82.56
639.859	79.56
640.065	76.56
640.27	87.56
640.475	90.56
640.681	96.56
640.886	94.56
641.091	81.56
641.297	85.56
641.502	75.56
641.707	70.56
641.913	92.56
642.118	91.56
642.323	71.56
642.528	93.56
642.733	79.56
642.939	86.56
643.144	97.56
643.349	90.56
643.554	79.56
643.759	80.56
643.964	93.56
644.169	77.56
644.374	81.56
644.579	84.56
644.784	72.56
644.989	88.56
645.194	90.56
645.399	80.56
645.604	94.56
645.809	84.56
646.014	86.56
646.219	83.56
646.423	101.56
646.628	91.56
646.833	81.56
647.038	78.56
647.243	61.56
647.447	83.56
647.652	72.56
647.857	62.56
648.062	84.56
648.266	75.56
648.471	88.56
648.676	89.56
648.88	80.56
649.085	90.56
649.289	72.56
649.494	79.56
649.698	78.56
649.903	88.56
650.107	73.56
650.312	90.56
650.516	79.56
650.721	85.56
650.925	86.56
651.13	62.56
651.334	71.56
651.539	73.56
651.743	84.56
651.947	79.56
652.152	83.56
652.356	79.56
652.56	87.56
652.764	84.56
652.969	73.56
653.173	75.56
653.377	80.56
653.581	88.56
653.785	102.56
653.99	81.56
654.194	87.56
654.398	100.56
654.602	85.56
654.806	69.56
655.01	75.56
655.214	89.56
655.418	74.56
655.622	77.56
655.826	93.56
656.03	87.56
656.234	89.56
656.438	72.56
656.642	75.56
656.846	56.56
657.049	77.56
657.253	79.56
657.457	84.56
657.661	92.56
657.865	76.56
658.068	74.56
658.272	69.56
658.476	81.56
658.68	77.56
658.883	81.56
659.087	74.56
659.291	82.56
659.494	88.56
659.698	77.56
659.901	87.56
660.105	79.56
660.309	82.56
660.512	79.56
660.716	88.56
660.919	94.56
661.123	91.56
661.326	81.56
661.53	68.56
661.733	72.56
661.936	73.56
662.14	82.56
662.343	75.56
662.546	84.56
662.75	84.56
662.953	75.56
663.156	97.56
663.36	73.56
663.563	77.56
663.766	69.56
663.969	82.56
664.173	69.56
664.376	77.56
664.579	76.56
664.782	87.56
664.985	92.56
665.188	77.56
665.391	77.56
665.594	77.56
665.797	78.56
666	81.56
666.203	75.56
666.406	80.56
666.609	77.56
666.812	80.56
667.015	76.56
667.218	73.56
667.421	85.56
667.624	72.56
667.827	88.56
668.03	89.56
668.232	69.56
668.435	84.56
668.638	82.56
668.841	81.56
669.043	86.56
669.246	89.56
669.449	74.56
669.651	75.56
669.854	76.56
670.057	61.56
670.259	86.56
670.462	79.56
670.665	95.56
670.867	80.56
671.07	74.56
671.272	79.56
671.475	77.56
671.677	78.56
671.88	81.56
672.082	85.56
672.284	83.56
672.487	64.56
672.689	88.56
672.892	73.56
