Data from Soil_50_4_HRD10591_00002.txt Node
Date: Thu Feb 19 11:33:02 EST 2026
User: Yrep
Spectrometer: HR+D1059
Trigger mode: 1
Integration Time (sec): 1.000000E-1
Scans to average: 1
Electric dark correction enabled: true
Nonlinearity correction enabled: false
Boxcar width: 0
XAxis mode: Wavelengths
Number of Pixels in Spectrum: 2048
>>>>>Begin Spectral Data<<<<<
223.165	-18.56
223.4	-18.56
223.635	-18.56
223.869	-24.56
224.104	-25.56
224.338	-10.56
224.573	-22.56
224.808	-10.56
225.042	-1.56
225.277	-9.56
225.511	-10.56
225.746	-2.56
225.98	20.44
226.215	7.44
226.449	15.44
226.683	28.44
226.918	24.44
227.152	40.44
227.387	39.44
227.621	25.44
227.856	48.44
228.09	40.44
228.324	56.44
228.559	45.44
228.793	56.44
229.027	64.44
229.262	61.44
229.496	70.44
229.73	56.44
229.964	64.44
230.199	66.44
230.433	79.44
230.667	70.44
230.901	72.44
231.136	58.44
231.37	85.44
231.604	88.44
231.838	72.44
232.072	79.44
232.306	83.44
232.541	76.44
232.775	76.44
233.009	84.44
233.243	78.44
233.477	67.44
233.711	82.44
233.945	66.44
234.179	78.44
234.413	86.44
234.647	77.44
234.881	77.44
235.115	78.44
235.349	78.44
235.583	72.44
235.817	78.44
236.051	70.44
236.285	94.44
236.519	79.44
236.753	71.44
236.987	79.44
237.221	80.44
237.455	71.44
237.689	78.44
237.922	70.44
238.156	81.44
238.39	76.44
238.624	74.44
238.858	81.44
239.091	81.44
239.325	75.44
239.559	69.44
239.793	72.44
240.027	83.44
240.26	67.44
240.494	87.44
240.728	73.44
240.961	57.44
241.195	68.44
241.429	64.44
241.662	85.44
241.896	74.44
242.13	71.44
242.363	67.44
242.597	77.44
242.83	88.44
243.064	60.44
243.298	80.44
243.531	63.44
243.765	81.44
243.998	69.44
244.232	71.44
244.465	56.44
244.699	75.44
244.932	67.44
245.166	57.44
245.399	70.44
245.633	80.44
245.866	76.44
246.099	76.44
246.333	78.44
246.566	72.44
246.8	76.44
247.033	80.44
247.266	69.44
247.5	73.44
247.733	84.44
247.966	83.44
248.2	82.44
248.433	73.44
248.666	75.44
248.899	77.44
249.133	79.44
249.366	86.44
249.599	71.44
249.832	74.44
250.066	69.44
250.299	78.44
250.532	68.44
250.765	78.44
250.998	74.44
251.231	69.44
251.465	73.44
251.698	64.44
251.931	75.44
252.164	71.44
252.397	62.44
252.63	79.44
252.863	72.44
253.096	80.44
253.329	66.44
253.562	74.44
253.795	74.44
254.028	67.44
254.261	78.44
254.494	70.44
254.727	75.44
254.96	70.44
255.193	80.44
255.426	92.44
255.659	68.44
255.892	76.44
256.124	71.44
256.357	71.44
256.59	83.44
256.823	72.44
257.056	91.44
257.289	62.44
257.521	80.44
257.754	79.44
257.987	73.44
258.22	84.44
258.452	65.44
258.685	67.44
258.918	70.44
259.151	82.44
259.383	82.44
259.616	83.44
259.849	76.44
260.081	50.44
260.314	76.44
260.547	71.44
260.779	64.44
261.012	73.44
261.244	77.44
261.477	88.44
261.71	73.44
261.942	70.44
262.175	78.44
262.407	88.44
262.64	67.44
262.872	73.44
263.105	76.44
263.337	76.44
263.57	71.44
263.802	77.44
264.035	82.44
264.267	91.44
264.499	87.44
264.732	85.44
264.964	93.44
265.197	70.44
265.429	78.44
265.661	79.44
265.894	84.44
266.126	74.44
266.358	73.44
266.591	87.44
266.823	67.44
267.055	82.44
267.287	82.44
267.52	78.44
267.752	89.44
267.984	79.44
268.216	86.44
268.448	79.44
268.681	91.44
268.913	86.44
269.145	77.44
269.377	85.44
269.609	83.44
269.841	84.44
270.073	83.44
270.306	80.44
270.538	70.44
270.77	64.44
271.002	74.44
271.234	77.44
271.466	65.44
271.698	80.44
271.93	89.44
272.162	82.44
272.394	84.44
272.626	84.44
272.858	77.44
273.09	77.44
273.322	92.44
273.553	74.44
273.785	79.44
274.017	80.44
274.249	71.44
274.481	60.44
274.713	73.44
274.945	104.44
275.176	65.44
275.408	86.44
275.64	73.44
275.872	81.44
276.104	87.44
276.335	80.44
276.567	82.44
276.799	80.44
277.031	71.44
277.262	76.44
277.494	83.44
277.726	82.44
277.957	80.44
278.189	76.44
278.421	72.44
278.652	77.44
278.884	68.44
279.115	89.44
279.347	76.44
279.579	96.44
279.81	82.44
280.042	78.44
280.273	73.44
280.505	81.44
280.736	72.44
280.968	72.44
281.199	76.44
281.431	72.44
281.662	84.44
281.894	95.44
282.125	73.44
282.356	76.44
282.588	85.44
282.819	87.44
283.051	90.44
283.282	68.44
283.513	79.44
283.745	71.44
283.976	79.44
284.207	84.44
284.439	89.44
284.67	85.44
284.901	82.44
285.132	80.44
285.364	76.44
285.595	93.44
285.826	80.44
286.057	76.44
286.288	71.44
286.52	72.44
286.751	75.44
286.982	79.44
287.213	75.44
287.444	84.44
287.675	81.44
287.906	84.44
288.138	72.44
288.369	80.44
288.6	94.44
288.831	73.44
289.062	74.44
289.293	77.44
289.524	76.44
289.755	74.44
289.986	87.44
290.217	79.44
290.448	79.44
290.679	83.44
290.91	89.44
291.141	83.44
291.371	79.44
291.602	76.44
291.833	65.44
292.064	71.44
292.295	77.44
292.526	89.44
292.757	71.44
292.987	72.44
293.218	64.44
293.449	73.44
293.68	82.44
293.91	86.44
294.141	95.44
294.372	80.44
294.603	83.44
294.833	77.44
295.064	79.44
295.295	80.44
295.525	81.44
295.756	84.44
295.987	76.44
296.217	84.44
296.448	83.44
296.679	80.44
296.909	81.44
297.14	70.44
297.37	69.44
297.601	77.44
297.831	80.44
298.062	87.44
298.292	73.44
298.523	80.44
298.753	66.44
298.984	73.44
299.214	84.44
299.445	74.44
299.675	72.44
299.905	79.44
300.136	81.44
300.366	81.44
300.597	79.44
300.827	88.44
301.057	68.44
301.288	78.44
301.518	70.44
301.748	86.44
301.979	98.44
302.209	91.44
302.439	93.44
302.669	77.44
302.9	73.44
303.13	83.44
303.36	80.44
303.59	82.44
303.82	98.44
304.051	82.44
304.281	93.44
304.511	93.44
304.741	75.44
304.971	73.44
305.201	85.44
305.431	80.44
305.661	82.44
305.891	74.44
306.121	94.44
306.352	86.44
306.582	82.44
306.812	94.44
307.042	84.44
307.272	88.44
307.502	88.44
307.731	79.44
307.961	87.44
308.191	102.44
308.421	84.44
308.651	84.44
308.881	88.44
309.111	76.44
309.341	90.44
309.571	79.44
309.8	80.44
310.03	87.44
310.26	84.44
310.49	70.44
310.72	82.44
310.949	79.44
311.179	77.44
311.409	79.44
311.639	86.44
311.868	76.44
312.098	77.44
312.328	86.44
312.557	76.44
312.787	99.44
313.017	82.44
313.246	84.44
313.476	91.44
313.706	77.44
313.935	79.44
314.165	89.44
314.394	86.44
314.624	76.44
314.853	69.44
315.083	66.44
315.312	76.44
315.542	74.44
315.771	77.44
316.001	63.44
316.23	83.44
316.46	90.44
316.689	76.44
316.919	72.44
317.148	83.44
317.377	89.44
317.607	75.44
317.836	71.44
318.065	70.44
318.295	77.44
318.524	74.44
318.753	88.44
318.983	72.44
319.212	78.44
319.441	84.44
319.67	96.44
319.9	78.44
320.129	66.44
320.358	73.44
320.587	76.44
320.816	72.44
321.046	74.44
321.275	77.44
321.504	79.44
321.733	96.44
321.962	81.44
322.191	88.44
322.42	82.44
322.649	76.44
322.878	93.44
323.108	78.44
323.337	89.44
323.566	71.44
323.795	81.44
324.024	91.44
324.253	72.44
324.482	100.44
324.71	89.44
324.939	74.44
325.168	76.44
325.397	73.44
325.626	85.44
325.855	85.44
326.084	84.44
326.313	86.44
326.542	80.44
326.77	52.44
326.999	72.44
327.228	78.44
327.457	82.44
327.686	88.44
327.914	85.44
328.143	74.44
328.372	85.44
328.6	79.44
328.829	76.44
329.058	85.44
329.287	76.44
329.515	70.44
329.744	89.44
329.972	78.44
330.201	88.44
330.43	72.44
330.658	81.44
330.887	71.44
331.115	71.44
331.344	79.44
331.572	82.44
331.801	76.44
332.03	73.44
332.258	72.44
332.486	77.44
332.715	79.44
332.943	86.44
333.172	89.44
333.4	82.44
333.629	81.44
333.857	73.44
334.085	91.44
334.314	80.44
334.542	75.44
334.771	86.44
334.999	76.44
335.227	85.44
335.455	85.44
335.684	93.44
335.912	86.44
336.14	78.44
336.369	85.44
336.597	74.44
336.825	80.44
337.053	69.44
337.281	92.44
337.51	81.44
337.738	76.44
337.966	95.44
338.194	81.44
338.422	75.44
338.65	84.44
338.878	89.44
339.106	79.44
339.334	90.44
339.562	87.44
339.79	77.44
340.018	82.44
340.246	76.44
340.474	77.44
340.702	72.44
340.93	90.44
341.158	78.44
341.386	80.44
341.614	74.44
341.842	85.44
342.07	83.44
342.298	85.44
342.526	83.44
342.754	70.44
342.981	76.44
343.209	88.44
343.437	87.44
343.665	76.44
343.893	78.44
344.12	92.44
344.348	85.44
344.576	86.44
344.804	75.44
345.031	88.44
345.259	85.44
345.487	81.44
345.714	71.44
345.942	79.44
346.17	88.44
346.397	87.44
346.625	70.44
346.853	77.44
347.08	83.44
347.308	91.44
347.535	62.44
347.763	81.44
347.99	78.44
348.218	85.44
348.445	66.44
348.673	85.44
348.9	88.44
349.128	94.44
349.355	76.44
349.583	86.44
349.81	67.44
350.037	65.44
350.265	77.44
350.492	84.44
350.72	80.44
350.947	88.44
351.174	79.44
351.402	71.44
351.629	78.44
351.856	83.44
352.083	84.44
352.311	86.44
352.538	81.44
352.765	86.44
352.992	81.44
353.22	88.44
353.447	82.44
353.674	77.44
353.901	71.44
354.128	82.44
354.355	74.44
354.583	85.44
354.81	84.44
355.037	82.44
355.264	72.44
355.491	82.44
355.718	79.44
355.945	88.44
356.172	74.44
356.399	87.44
356.626	68.44
356.853	80.44
357.08	84.44
357.307	86.44
357.534	76.44
357.761	92.44
357.988	82.44
358.215	76.44
358.441	82.44
358.668	79.44
358.895	68.44
359.122	94.44
359.349	85.44
359.576	88.44
359.802	79.44
360.029	87.44
360.256	76.44
360.483	65.44
360.709	82.44
360.936	80.44
361.163	74.44
361.39	78.44
361.616	81.44
361.843	71.44
362.07	74.44
362.296	73.44
362.523	90.44
362.749	95.44
362.976	79.44
363.203	90.44
363.429	87.44
363.656	99.44
363.882	76.44
364.109	94.44
364.335	85.44
364.562	94.44
364.788	89.44
365.015	82.44
365.241	71.44
365.468	72.44
365.694	69.44
365.92	61.44
366.147	84.44
366.373	89.44
366.599	85.44
366.826	72.44
367.052	88.44
367.278	87.44
367.505	82.44
367.731	85.44
367.957	84.44
368.184	86.44
368.41	85.44
368.636	58.44
368.862	72.44
369.089	80.44
369.315	77.44
369.541	73.44
369.767	66.44
369.993	69.44
370.219	69.44
370.445	86.44
370.672	77.44
370.898	70.44
371.124	71.44
371.35	84.44
371.576	78.44
371.802	84.44
372.028	80.44
372.254	80.44
372.48	78.44
372.706	80.44
372.932	68.44
373.158	73.44
373.384	80.44
373.61	77.44
373.835	77.44
374.061	88.44
374.287	84.44
374.513	93.44
374.739	75.44
374.965	87.44
375.191	71.44
375.416	73.44
375.642	83.44
375.868	84.44
376.094	93.44
376.319	92.44
376.545	89.44
376.771	88.44
376.997	76.44
377.222	78.44
377.448	87.44
377.674	92.44
377.899	84.44
378.125	71.44
378.35	80.44
378.576	83.44
378.802	85.44
379.027	80.44
379.253	69.44
379.478	84.44
379.704	71.44
379.929	90.44
380.155	89.44
380.38	79.44
380.606	75.44
380.831	85.44
381.057	77.44
381.282	88.44
381.507	67.44
381.733	82.44
381.958	70.44
382.184	79.44
382.409	80.44
382.634	88.44
382.86	82.44
383.085	84.44
383.31	79.44
383.535	84.44
383.761	79.44
383.986	96.44
384.211	82.44
384.436	79.44
384.662	74.44
384.887	86.44
385.112	89.44
385.337	69.44
385.562	80.44
385.787	77.44
386.013	84.44
386.238	80.44
386.463	72.44
386.688	98.44
386.913	82.44
387.138	80.44
387.363	85.44
387.588	81.44
387.813	79.44
388.038	63.44
388.263	86.44
388.488	75.44
388.713	86.44
388.938	62.44
389.163	70.44
389.387	87.44
389.612	85.44
389.837	65.44
390.062	83.44
390.287	88.44
390.512	93.44
390.736	73.44
390.961	74.44
391.186	78.44
391.411	76.44
391.636	76.44
391.86	95.44
392.085	75.44
392.31	74.44
392.534	80.44
392.759	97.44
392.984	97.44
393.208	103.44
393.433	113.44
393.658	95.44
393.882	83.44
394.107	82.44
394.331	84.44
394.556	76.44
394.78	77.44
395.005	70.44
395.229	70.44
395.454	81.44
395.678	77.44
395.903	69.44
396.127	83.44
396.352	93.44
396.576	90.44
396.801	102.44
397.025	99.44
397.249	86.44
397.474	75.44
397.698	73.44
397.922	80.44
398.147	76.44
398.371	86.44
398.595	84.44
398.82	81.44
399.044	83.44
399.268	74.44
399.492	81.44
399.717	76.44
399.941	72.44
400.165	78.44
400.389	70.44
400.613	73.44
400.837	69.44
401.062	80.44
401.286	89.44
401.51	91.44
401.734	65.44
401.958	80.44
402.182	76.44
402.406	80.44
402.63	67.44
402.854	79.44
403.078	78.44
403.302	90.44
403.526	68.44
403.75	72.44
403.974	77.44
404.198	82.44
404.422	72.44
404.645	83.44
404.869	81.44
405.093	82.44
405.317	78.44
405.541	89.44
405.765	75.44
405.988	76.44
406.212	72.44
406.436	84.44
406.66	84.44
406.883	76.44
407.107	83.44
407.331	74.44
407.555	93.44
407.778	95.44
408.002	70.44
408.226	71.44
408.449	67.44
408.673	78.44
408.896	88.44
409.12	64.44
409.344	80.44
409.567	74.44
409.791	91.44
410.014	90.44
410.238	69.44
410.461	76.44
410.685	80.44
410.908	85.44
411.132	78.44
411.355	91.44
411.578	70.44
411.802	80.44
412.025	92.44
412.249	78.44
412.472	80.44
412.695	78.44
412.919	83.44
413.142	90.44
413.365	73.44
413.589	88.44
413.812	69.44
414.035	94.44
414.258	85.44
414.482	76.44
414.705	79.44
414.928	79.44
415.151	81.44
415.374	82.44
415.597	99.44
415.821	89.44
416.044	90.44
416.267	79.44
416.49	88.44
416.713	64.44
416.936	74.44
417.159	74.44
417.382	85.44
417.605	89.44
417.828	84.44
418.051	86.44
418.274	80.44
418.497	80.44
418.72	76.44
418.943	93.44
419.166	69.44
419.389	79.44
419.611	88.44
419.834	68.44
420.057	85.44
420.28	78.44
420.503	76.44
420.726	81.44
420.948	72.44
421.171	74.44
421.394	77.44
421.617	69.44
421.839	83.44
422.062	76.44
422.285	86.44
422.507	106.44
422.73	111.44
422.953	104.44
423.175	94.44
423.398	83.44
423.621	88.44
423.843	78.44
424.066	74.44
424.288	73.44
424.511	65.44
424.733	79.44
424.956	81.44
425.178	88.44
425.401	87.44
425.623	83.44
425.846	68.44
426.068	78.44
426.291	73.44
426.513	77.44
426.735	76.44
426.958	78.44
427.18	72.44
427.402	74.44
427.625	86.44
427.847	63.44
428.069	86.44
428.292	85.44
428.514	84.44
428.736	71.44
428.958	77.44
429.181	90.44
429.403	56.44
429.625	80.44
429.847	83.44
430.069	78.44
430.292	97.44
430.514	80.44
430.736	73.44
430.958	88.44
431.18	72.44
431.402	79.44
431.624	72.44
431.846	86.44
432.068	88.44
432.29	97.44
432.512	87.44
432.734	80.44
432.956	87.44
433.178	74.44
433.4	75.44
433.622	71.44
433.844	72.44
434.066	77.44
434.287	70.44
434.509	76.44
434.731	73.44
434.953	90.44
435.175	85.44
435.397	79.44
435.618	98.44
435.84	80.44
436.062	69.44
436.284	77.44
436.505	81.44
436.727	80.44
436.949	88.44
437.17	76.44
437.392	78.44
437.614	83.44
437.835	75.44
438.057	73.44
438.278	84.44
438.5	82.44
438.721	69.44
438.943	90.44
439.165	87.44
439.386	68.44
439.608	82.44
439.829	71.44
440.05	81.44
440.272	94.44
440.493	74.44
440.715	67.44
440.936	85.44
441.158	78.44
441.379	78.44
441.6	71.44
441.822	86.44
442.043	80.44
442.264	74.44
442.486	85.44
442.707	81.44
442.928	91.44
443.149	85.44
443.371	96.44
443.592	89.44
443.813	76.44
444.034	79.44
444.255	73.44
444.476	66.44
444.698	65.44
444.919	79.44
445.14	165.44
445.361	120.44
445.582	89.44
445.803	92.44
446.024	82.44
446.245	90.44
446.466	81.44
446.687	83.44
446.908	85.44
447.129	72.44
447.35	81.44
447.571	68.44
447.792	73.44
448.013	81.44
448.234	78.44
448.455	82.44
448.675	78.44
448.896	88.44
449.117	72.44
449.338	67.44
449.559	78.44
449.779	65.44
450	84.44
450.221	76.44
450.442	80.44
450.662	84.44
450.883	72.44
451.104	75.44
451.324	74.44
451.545	76.44
451.766	88.44
451.986	72.44
452.207	74.44
452.428	75.44
452.648	86.44
452.869	88.44
453.089	79.44
453.31	85.44
453.53	88.44
453.751	74.44
453.971	86.44
454.192	71.44
454.412	75.44
454.633	75.44
454.853	77.44
455.073	90.44
455.294	79.44
455.514	86.44
455.734	79.44
455.955	70.44
456.175	68.44
456.395	85.44
456.616	69.44
456.836	84.44
457.056	72.44
457.276	66.44
457.497	80.44
457.717	86.44
457.937	82.44
458.157	88.44
458.377	88.44
458.598	78.44
458.818	94.44
459.038	86.44
459.258	80.44
459.478	88.44
459.698	85.44
459.918	74.44
460.138	77.44
460.358	91.44
460.578	74.44
460.798	80.44
461.018	104.44
461.238	77.44
461.458	90.44
461.678	86.44
461.898	80.44
462.118	85.44
462.338	74.44
462.558	70.44
462.777	93.44
462.997	86.44
463.217	88.44
463.437	85.44
463.657	83.44
463.876	89.44
464.096	74.44
464.316	72.44
464.536	75.44
464.755	69.44
464.975	74.44
465.195	75.44
465.414	80.44
465.634	70.44
465.854	89.44
466.073	69.44
466.293	88.44
466.512	94.44
466.732	86.44
466.951	91.44
467.171	69.44
467.391	77.44
467.61	80.44
467.829	80.44
468.049	73.44
468.268	72.44
468.488	72.44
468.707	79.44
468.927	85.44
469.146	68.44
469.365	83.44
469.585	72.44
469.804	90.44
470.023	75.44
470.243	90.44
470.462	78.44
470.681	81.44
470.901	78.44
471.12	74.44
471.339	83.44
471.558	92.44
471.777	84.44
471.997	83.44
472.216	73.44
472.435	86.44
472.654	75.44
472.873	81.44
473.092	88.44
473.311	73.44
473.53	77.44
473.749	90.44
473.968	92.44
474.187	89.44
474.406	88.44
474.625	97.44
474.844	81.44
475.063	70.44
475.282	90.44
475.501	82.44
475.72	82.44
475.939	74.44
476.158	74.44
476.377	87.44
476.596	78.44
476.814	73.44
477.033	69.44
477.252	78.44
477.471	84.44
477.69	70.44
477.908	84.44
478.127	75.44
478.346	75.44
478.564	73.44
478.783	83.44
479.002	91.44
479.22	82.44
479.439	84.44
479.658	74.44
479.876	72.44
480.095	81.44
480.313	72.44
480.532	88.44
480.751	77.44
480.969	68.44
481.188	75.44
481.406	74.44
481.624	70.44
481.843	82.44
482.061	83.44
482.28	84.44
482.498	78.44
482.717	84.44
482.935	71.44
483.153	78.44
483.372	76.44
483.59	72.44
483.808	73.44
484.027	92.44
484.245	80.44
484.463	74.44
484.681	81.44
484.9	94.44
485.118	90.44
485.336	88.44
485.554	72.44
485.772	86.44
485.99	72.44
486.209	83.44
486.427	80.44
486.645	68.44
486.863	101.44
487.081	82.44
487.299	70.44
487.517	84.44
487.735	97.44
487.953	94.44
488.171	101.44
488.389	90.44
488.607	78.44
488.825	76.44
489.043	81.44
489.261	76.44
489.479	82.44
489.696	72.44
489.914	78.44
490.132	82.44
490.35	95.44
490.568	73.44
490.786	80.44
491.003	76.44
491.221	68.44
491.439	78.44
491.657	81.44
491.874	82.44
492.092	74.44
492.31	84.44
492.527	88.44
492.745	88.44
492.963	76.44
493.18	86.44
493.398	83.44
493.615	79.44
493.833	68.44
494.05	85.44
494.268	76.44
494.485	87.44
494.703	77.44
494.92	88.44
495.138	76.44
495.355	78.44
495.573	78.44
495.79	86.44
496.008	67.44
496.225	86.44
496.442	87.44
496.66	73.44
496.877	86.44
497.094	81.44
497.312	83.44
497.529	86.44
497.746	85.44
497.963	78.44
498.181	82.44
498.398	81.44
498.615	84.44
498.832	90.44
499.049	87.44
499.267	80.44
499.484	88.44
499.701	82.44
499.918	84.44
500.135	86.44
500.352	85.44
500.569	72.44
500.786	71.44
501.003	74.44
501.22	86.44
501.437	77.44
501.654	81.44
501.871	77.44
502.088	81.44
502.305	88.44
502.522	88.44
502.739	74.44
502.956	77.44
503.172	84.44
503.389	70.44
503.606	79.44
503.823	84.44
504.04	92.44
504.256	94.44
504.473	82.44
504.69	80.44
504.907	79.44
505.123	86.44
505.34	84.44
505.557	92.44
505.773	77.44
505.99	81.44
506.207	85.44
506.423	84.44
506.64	76.44
506.856	84.44
507.073	65.44
507.289	79.44
507.506	87.44
507.722	81.44
507.939	86.44
508.155	73.44
508.372	84.44
508.588	88.44
508.805	89.44
509.021	70.44
509.238	75.44
509.454	81.44
509.67	66.44
509.887	83.44
510.103	84.44
510.319	87.44
510.536	79.44
510.752	84.44
510.968	76.44
511.184	84.44
511.401	85.44
511.617	77.44
511.833	71.44
512.049	86.44
512.265	73.44
512.481	72.44
512.698	81.44
512.914	84.44
513.13	83.44
513.346	85.44
513.562	89.44
513.778	81.44
513.994	74.44
514.21	77.44
514.426	77.44
514.642	87.44
514.858	73.44
515.074	87.44
515.29	90.44
515.506	84.44
515.721	79.44
515.937	89.44
516.153	84.44
516.369	81.44
516.585	86.44
516.801	74.44
517.016	90.44
517.232	85.44
517.448	93.44
517.664	86.44
517.879	88.44
518.095	79.44
518.311	80.44
518.527	87.44
518.742	79.44
518.958	85.44
519.173	75.44
519.389	88.44
519.605	82.44
519.82	83.44
520.036	74.44
520.251	85.44
520.467	84.44
520.682	79.44
520.898	67.44
521.113	72.44
521.329	73.44
521.544	82.44
521.76	91.44
521.975	86.44
522.19	82.44
522.406	94.44
522.621	87.44
522.836	82.44
523.052	76.44
523.267	87.44
523.482	70.44
523.698	80.44
523.913	82.44
524.128	85.44
524.343	80.44
524.559	83.44
524.774	93.44
524.989	82.44
525.204	76.44
525.419	86.44
525.634	70.44
525.849	80.44
526.064	97.44
526.28	102.44
526.495	94.44
526.71	87.44
526.925	89.44
527.14	96.44
527.355	89.44
527.57	72.44
527.785	68.44
527.999	64.44
528.214	69.44
528.429	88.44
528.644	97.44
528.859	80.44
529.074	86.44
529.289	96.44
529.503	80.44
529.718	84.44
529.933	74.44
530.148	81.44
530.363	71.44
530.577	80.44
530.792	84.44
531.007	96.44
531.221	105.44
531.436	90.44
531.651	87.44
531.865	74.44
532.08	97.44
532.295	74.44
532.509	88.44
532.724	88.44
532.938	74.44
533.153	84.44
533.367	88.44
533.582	79.44
533.796	80.44
534.011	84.44
534.225	96.44
534.44	79.44
534.654	78.44
534.868	81.44
535.083	94.44
535.297	83.44
535.511	88.44
535.726	78.44
535.94	82.44
536.154	92.44
536.369	87.44
536.583	85.44
536.797	98.44
537.011	94.44
537.225	83.44
537.44	78.44
537.654	76.44
537.868	86.44
538.082	88.44
538.296	79.44
538.51	84.44
538.724	78.44
538.938	73.44
539.153	90.44
539.367	78.44
539.581	83.44
539.795	88.44
540.009	84.44
540.222	78.44
540.436	82.44
540.65	97.44
540.864	93.44
541.078	84.44
541.292	75.44
541.506	84.44
541.72	91.44
541.934	82.44
542.147	80.44
542.361	69.44
542.575	84.44
542.789	76.44
543.002	77.44
543.216	81.44
543.43	81.44
543.644	79.44
543.857	91.44
544.071	83.44
544.285	86.44
544.498	87.44
544.712	75.44
544.925	82.44
545.139	82.44
545.352	87.44
545.566	78.44
545.779	89.44
545.993	87.44
546.206	77.44
546.42	92.44
546.633	79.44
546.847	88.44
547.06	86.44
547.274	87.44
547.487	74.44
547.7	78.44
547.914	82.44
548.127	102.44
548.34	86.44
548.554	98.44
548.767	84.44
548.98	92.44
549.193	92.44
549.407	87.44
549.62	89.44
549.833	99.44
550.046	102.44
550.259	100.44
550.473	100.44
550.686	105.44
550.899	88.44
551.112	113.44
551.325	120.44
551.538	104.44
551.751	105.44
551.964	115.44
552.177	103.44
552.39	101.44
552.603	107.44
552.816	104.44
553.029	110.44
553.242	107.44
553.455	112.44
553.667	120.44
553.88	113.44
554.093	118.44
554.306	111.44
554.519	130.44
554.732	117.44
554.944	118.44
555.157	113.44
555.37	118.44
555.583	117.44
555.795	113.44
556.008	113.44
556.221	115.44
556.433	102.44
556.646	100.44
556.859	112.44
557.071	95.44
557.284	91.44
557.496	108.44
557.709	96.44
557.921	103.44
558.134	93.44
558.346	84.44
558.559	89.44
558.771	76.44
558.984	101.44
559.196	126.44
559.409	96.44
559.621	114.44
559.833	96.44
560.046	97.44
560.258	105.44
560.47	95.44
560.683	72.44
560.895	86.44
561.107	81.44
561.32	99.44
561.532	82.44
561.744	84.44
561.956	96.44
562.168	96.44
562.381	69.44
562.593	68.44
562.805	74.44
563.017	70.44
563.229	98.44
563.441	82.44
563.653	87.44
563.865	76.44
564.077	75.44
564.289	86.44
564.501	87.44
564.713	97.44
564.925	88.44
565.137	94.44
565.349	94.44
565.561	98.44
565.773	87.44
565.985	72.44
566.197	82.44
566.408	97.44
566.62	67.44
566.832	76.44
567.044	96.44
567.255	87.44
567.467	64.44
567.679	72.44
567.891	93.44
568.102	98.44
568.314	93.44
568.526	107.44
568.737	86.44
568.949	97.44
569.161	93.44
569.372	75.44
569.584	86.44
569.795	77.44
570.007	81.44
570.218	89.44
570.43	87.44
570.641	89.44
570.853	74.44
571.064	87.44
571.276	73.44
571.487	82.44
571.698	78.44
571.91	88.44
572.121	84.44
572.333	89.44
572.544	90.44
572.755	84.44
572.966	75.44
573.178	81.44
573.389	86.44
573.6	78.44
573.811	89.44
574.023	85.44
574.234	80.44
574.445	79.44
574.656	89.44
574.867	87.44
575.078	90.44
575.289	86.44
575.501	90.44
575.712	95.44
575.923	90.44
576.134	92.44
576.345	99.44
576.556	90.44
576.767	91.44
576.978	88.44
577.188	84.44
577.399	78.44
577.61	83.44
577.821	72.44
578.032	75.44
578.243	83.44
578.454	93.44
578.665	103.44
578.875	78.44
579.086	100.44
579.297	87.44
579.508	88.44
579.718	78.44
579.929	78.44
580.14	85.44
580.35	63.44
580.561	98.44
580.772	89.44
580.982	89.44
581.193	85.44
581.403	90.44
581.614	81.44
581.825	74.44
582.035	80.44
582.246	91.44
582.456	74.44
582.667	85.44
582.877	80.44
583.087	96.44
583.298	80.44
583.508	85.44
583.719	89.44
583.929	93.44
584.139	80.44
584.35	78.44
584.56	96.44
584.77	84.44
584.981	85.44
585.191	97.44
585.401	74.44
585.611	85.44
585.821	94.44
586.032	97.44
586.242	93.44
586.452	97.44
586.662	96.44
586.872	88.44
587.082	91.44
587.292	94.44
587.502	108.44
587.713	114.44
587.923	109.44
588.133	106.44
588.343	118.44
588.553	128.44
588.762	156.44
588.972	213.44
589.182	235.44
589.392	236.44
589.602	239.44
589.812	244.44
590.022	194.44
590.232	136.44
590.441	126.44
590.651	108.44
590.861	103.44
591.071	103.44
591.281	103.44
591.49	109.44
591.7	96.44
591.91	102.44
592.119	102.44
592.329	106.44
592.539	111.44
592.748	109.44
592.958	109.44
593.167	115.44
593.377	117.44
593.587	111.44
593.796	121.44
594.006	109.44
594.215	83.44
594.424	91.44
594.634	105.44
594.843	88.44
595.053	91.44
595.262	102.44
595.472	106.44
595.681	97.44
595.89	99.44
596.1	85.44
596.309	101.44
596.518	79.44
596.727	109.44
596.937	103.44
597.146	100.44
597.355	84.44
597.564	89.44
597.774	93.44
597.983	88.44
598.192	80.44
598.401	79.44
598.61	102.44
598.819	106.44
599.028	105.44
599.237	101.44
599.446	108.44
599.655	96.44
599.864	101.44
600.073	89.44
600.282	88.44
600.491	102.44
600.7	85.44
600.909	95.44
601.118	112.44
601.327	85.44
601.536	85.44
601.745	97.44
601.953	80.44
602.162	102.44
602.371	100.44
602.58	98.44
602.789	103.44
602.997	113.44
603.206	99.44
603.415	82.44
603.623	102.44
603.832	100.44
604.041	97.44
604.249	82.44
604.458	97.44
604.666	84.44
604.875	104.44
605.084	93.44
605.292	98.44
605.501	108.44
605.709	112.44
605.918	105.44
606.126	101.44
606.334	105.44
606.543	102.44
606.751	108.44
606.96	109.44
607.168	119.44
607.376	117.44
607.585	103.44
607.793	98.44
608.001	99.44
608.21	102.44
608.418	88.44
608.626	106.44
608.834	115.44
609.043	95.44
609.251	113.44
609.459	88.44
609.667	88.44
609.875	106.44
610.083	95.44
610.291	108.44
610.499	106.44
610.707	102.44
610.916	88.44
611.124	100.44
611.332	90.44
611.54	97.44
611.748	96.44
611.955	98.44
612.163	105.44
612.371	124.44
612.579	102.44
612.787	96.44
612.995	121.44
613.203	121.44
613.411	109.44
613.618	109.44
613.826	103.44
614.034	112.44
614.242	120.44
614.449	126.44
614.657	105.44
614.865	101.44
615.072	115.44
615.28	105.44
615.488	126.44
615.695	126.44
615.903	122.44
616.111	139.44
616.318	140.44
616.526	145.44
616.733	128.44
616.941	149.44
617.148	135.44
617.356	126.44
617.563	134.44
617.771	133.44
617.978	119.44
618.185	132.44
618.393	149.44
618.6	135.44
618.807	116.44
619.015	124.44
619.222	132.44
619.429	128.44
619.637	135.44
619.844	121.44
620.051	126.44
620.258	128.44
620.466	140.44
620.673	133.44
620.88	144.44
621.087	128.44
621.294	141.44
621.501	115.44
621.708	116.44
621.915	117.44
622.122	114.44
622.329	94.44
622.536	105.44
622.743	112.44
622.95	112.44
623.157	112.44
623.364	107.44
623.571	112.44
623.778	106.44
623.985	109.44
624.192	105.44
624.399	101.44
624.606	98.44
624.812	108.44
625.019	124.44
625.226	107.44
625.433	105.44
625.639	103.44
625.846	97.44
626.053	109.44
626.259	92.44
626.466	95.44
626.673	103.44
626.879	103.44
627.086	88.44
627.293	107.44
627.499	88.44
627.706	93.44
627.912	97.44
628.119	95.44
628.325	90.44
628.532	94.44
628.738	86.44
628.945	94.44
629.151	97.44
629.357	77.44
629.564	76.44
629.77	87.44
629.976	94.44
630.183	89.44
630.389	100.44
630.595	96.44
630.802	74.44
631.008	81.44
631.214	97.44
631.42	104.44
631.627	102.44
631.833	90.44
632.039	91.44
632.245	80.44
632.451	77.44
632.657	79.44
632.863	79.44
633.069	79.44
633.275	94.44
633.481	73.44
633.688	88.44
633.893	94.44
634.099	75.44
634.305	85.44
634.511	78.44
634.717	89.44
634.923	80.44
635.129	87.44
635.335	84.44
635.541	79.44
635.747	85.44
635.952	82.44
636.158	89.44
636.364	80.44
636.57	80.44
636.775	82.44
636.981	97.44
637.187	69.44
637.392	83.44
637.598	71.44
637.804	77.44
638.009	78.44
638.215	85.44
638.421	79.44
638.626	77.44
638.832	75.44
639.037	77.44
639.243	92.44
639.448	88.44
639.654	78.44
639.859	80.44
640.065	71.44
640.27	85.44
640.475	76.44
640.681	83.44
640.886	81.44
641.091	80.44
641.297	97.44
641.502	88.44
641.707	69.44
641.913	87.44
642.118	82.44
642.323	74.44
642.528	81.44
642.733	67.44
642.939	81.44
643.144	84.44
643.349	62.44
643.554	90.44
643.759	88.44
643.964	89.44
644.169	65.44
644.374	85.44
644.579	84.44
644.784	89.44
644.989	91.44
645.194	70.44
645.399	86.44
645.604	95.44
645.809	82.44
646.014	91.44
646.219	97.44
646.423	98.44
646.628	101.44
646.833	95.44
647.038	89.44
647.243	73.44
647.447	69.44
647.652	99.44
647.857	89.44
648.062	83.44
648.266	77.44
648.471	72.44
648.676	84.44
648.88	65.44
649.085	78.44
649.289	84.44
649.494	73.44
649.698	96.44
649.903	82.44
650.107	76.44
650.312	90.44
650.516	78.44
650.721	78.44
650.925	78.44
651.13	89.44
651.334	89.44
651.539	89.44
651.743	84.44
651.947	83.44
652.152	68.44
652.356	84.44
652.56	77.44
652.764	89.44
652.969	89.44
653.173	82.44
653.377	81.44
653.581	83.44
653.785	80.44
653.99	85.44
654.194	79.44
654.398	85.44
654.602	80.44
654.806	78.44
655.01	74.44
655.214	73.44
655.418	84.44
655.622	88.44
655.826	81.44
656.03	69.44
656.234	74.44
656.438	74.44
656.642	88.44
656.846	83.44
657.049	78.44
657.253	76.44
657.457	87.44
657.661	87.44
657.865	77.44
658.068	84.44
658.272	90.44
658.476	69.44
658.68	87.44
658.883	96.44
659.087	77.44
659.291	86.44
659.494	82.44
659.698	67.44
659.901	84.44
660.105	78.44
660.309	98.44
660.512	81.44
660.716	73.44
660.919	76.44
661.123	88.44
661.326	89.44
661.53	74.44
661.733	69.44
661.936	73.44
662.14	79.44
662.343	76.44
662.546	74.44
662.75	71.44
662.953	72.44
663.156	90.44
663.36	83.44
663.563	73.44
663.766	75.44
663.969	62.44
664.173	73.44
664.376	80.44
664.579	81.44
664.782	74.44
664.985	70.44
665.188	71.44
665.391	82.44
665.594	83.44
665.797	67.44
666	79.44
666.203	84.44
666.406	76.44
666.609	75.44
666.812	81.44
667.015	81.44
667.218	81.44
667.421	79.44
667.624	91.44
667.827	84.44
668.03	87.44
668.232	76.44
668.435	69.44
668.638	80.44
668.841	76.44
669.043	72.44
669.246	67.44
669.449	77.44
669.651	53.44
669.854	66.44
670.057	67.44
670.259	78.44
670.462	71.44
670.665	90.44
670.867	71.44
671.07	86.44
671.272	77.44
671.475	96.44
671.677	72.44
671.88	77.44
672.082	88.44
672.284	74.44
672.487	89.44
672.689	63.44
672.892	73.44
