Data from KBr_2_HRD10591_00046.txt Node
Date: Mon Jan 19 13:13:13 EST 2026
User: Yrep
Spectrometer: HR+D1059
Trigger mode: 1
Integration Time (sec): 1.000000E-1
Scans to average: 1
Electric dark correction enabled: true
Nonlinearity correction enabled: false
Boxcar width: 0
XAxis mode: Wavelengths
Number of Pixels in Spectrum: 2048
>>>>>Begin Spectral Data<<<<<
223.165	-17.19
223.4	-17.19
223.635	-17.19
223.869	-9.19
224.104	-23.19
224.338	-16.19
224.573	-15.19
224.808	-18.19
225.042	-4.19
225.277	4.81
225.511	-7.19
225.746	-6.19
225.98	3.81
226.215	18.81
226.449	24.81
226.683	14.81
226.918	30.81
227.152	18.81
227.387	22.81
227.621	32.81
227.856	47.81
228.09	38.81
228.324	38.81
228.559	52.81
228.793	59.81
229.027	64.81
229.262	68.81
229.496	63.81
229.73	60.81
229.964	76.81
230.199	55.81
230.433	67.81
230.667	81.81
230.901	72.81
231.136	73.81
231.37	71.81
231.604	75.81
231.838	94.81
232.072	70.81
232.306	64.81
232.541	85.81
232.775	86.81
233.009	70.81
233.243	77.81
233.477	66.81
233.711	82.81
233.945	85.81
234.179	88.81
234.413	67.81
234.647	81.81
234.881	71.81
235.115	86.81
235.349	86.81
235.583	74.81
235.817	76.81
236.051	71.81
236.285	77.81
236.519	78.81
236.753	71.81
236.987	70.81
237.221	74.81
237.455	80.81
237.689	73.81
237.922	76.81
238.156	89.81
238.39	88.81
238.624	63.81
238.858	68.81
239.091	70.81
239.325	74.81
239.559	78.81
239.793	86.81
240.027	64.81
240.26	67.81
240.494	75.81
240.728	56.81
240.961	64.81
241.195	71.81
241.429	68.81
241.662	83.81
241.896	76.81
242.13	65.81
242.363	89.81
242.597	91.81
242.83	81.81
243.064	72.81
243.298	66.81
243.531	84.81
243.765	76.81
243.998	76.81
244.232	72.81
244.465	85.81
244.699	83.81
244.932	78.81
245.166	68.81
245.399	71.81
245.633	77.81
245.866	83.81
246.099	80.81
246.333	79.81
246.566	68.81
246.8	78.81
247.033	78.81
247.266	91.81
247.5	62.81
247.733	66.81
247.966	70.81
248.2	68.81
248.433	69.81
248.666	85.81
248.899	85.81
249.133	72.81
249.366	70.81
249.599	63.81
249.832	66.81
250.066	82.81
250.299	84.81
250.532	75.81
250.765	88.81
250.998	62.81
251.231	86.81
251.465	79.81
251.698	70.81
251.931	71.81
252.164	72.81
252.397	76.81
252.63	78.81
252.863	73.81
253.096	84.81
253.329	90.81
253.562	72.81
253.795	85.81
254.028	80.81
254.261	77.81
254.494	88.81
254.727	84.81
254.96	72.81
255.193	71.81
255.426	83.81
255.659	78.81
255.892	72.81
256.124	74.81
256.357	71.81
256.59	71.81
256.823	71.81
257.056	74.81
257.289	77.81
257.521	71.81
257.754	82.81
257.987	78.81
258.22	79.81
258.452	75.81
258.685	79.81
258.918	72.81
259.151	78.81
259.383	85.81
259.616	78.81
259.849	70.81
260.081	74.81
260.314	77.81
260.547	69.81
260.779	86.81
261.012	73.81
261.244	84.81
261.477	77.81
261.71	83.81
261.942	72.81
262.175	82.81
262.407	71.81
262.64	92.81
262.872	84.81
263.105	77.81
263.337	82.81
263.57	95.81
263.802	80.81
264.035	76.81
264.267	78.81
264.499	72.81
264.732	86.81
264.964	74.81
265.197	71.81
265.429	80.81
265.661	74.81
265.894	72.81
266.126	78.81
266.358	88.81
266.591	80.81
266.823	88.81
267.055	63.81
267.287	77.81
267.52	82.81
267.752	87.81
267.984	62.81
268.216	68.81
268.448	100.81
268.681	82.81
268.913	69.81
269.145	71.81
269.377	79.81
269.609	79.81
269.841	90.81
270.073	70.81
270.306	81.81
270.538	70.81
270.77	90.81
271.002	78.81
271.234	83.81
271.466	87.81
271.698	77.81
271.93	83.81
272.162	77.81
272.394	87.81
272.626	88.81
272.858	76.81
273.09	74.81
273.322	72.81
273.553	84.81
273.785	84.81
274.017	76.81
274.249	83.81
274.481	78.81
274.713	85.81
274.945	71.81
275.176	78.81
275.408	72.81
275.64	85.81
275.872	80.81
276.104	65.81
276.335	87.81
276.567	87.81
276.799	84.81
277.031	86.81
277.262	81.81
277.494	79.81
277.726	73.81
277.957	78.81
278.189	86.81
278.421	83.81
278.652	87.81
278.884	72.81
279.115	72.81
279.347	92.81
279.579	74.81
279.81	80.81
280.042	82.81
280.273	90.81
280.505	79.81
280.736	83.81
280.968	82.81
281.199	79.81
281.431	80.81
281.662	73.81
281.894	90.81
282.125	93.81
282.356	75.81
282.588	92.81
282.819	87.81
283.051	73.81
283.282	75.81
283.513	80.81
283.745	71.81
283.976	70.81
284.207	73.81
284.439	86.81
284.67	63.81
284.901	86.81
285.132	78.81
285.364	77.81
285.595	70.81
285.826	76.81
286.057	86.81
286.288	80.81
286.52	96.81
286.751	91.81
286.982	88.81
287.213	82.81
287.444	78.81
287.675	70.81
287.906	98.81
288.138	70.81
288.369	81.81
288.6	84.81
288.831	82.81
289.062	75.81
289.293	72.81
289.524	86.81
289.755	88.81
289.986	87.81
290.217	75.81
290.448	83.81
290.679	94.81
290.91	80.81
291.141	76.81
291.371	85.81
291.602	88.81
291.833	76.81
292.064	82.81
292.295	74.81
292.526	78.81
292.757	70.81
292.987	84.81
293.218	78.81
293.449	70.81
293.68	86.81
293.91	85.81
294.141	86.81
294.372	79.81
294.603	73.81
294.833	68.81
295.064	66.81
295.295	67.81
295.525	78.81
295.756	82.81
295.987	78.81
296.217	71.81
296.448	85.81
296.679	84.81
296.909	74.81
297.14	89.81
297.37	77.81
297.601	78.81
297.831	78.81
298.062	78.81
298.292	65.81
298.523	91.81
298.753	90.81
298.984	79.81
299.214	70.81
299.445	67.81
299.675	80.81
299.905	89.81
300.136	82.81
300.366	82.81
300.597	77.81
300.827	84.81
301.057	76.81
301.288	77.81
301.518	80.81
301.748	84.81
301.979	79.81
302.209	81.81
302.439	78.81
302.669	77.81
302.9	82.81
303.13	92.81
303.36	88.81
303.59	87.81
303.82	79.81
304.051	76.81
304.281	72.81
304.511	92.81
304.741	85.81
304.971	81.81
305.201	86.81
305.431	74.81
305.661	74.81
305.891	83.81
306.121	91.81
306.352	86.81
306.582	70.81
306.812	85.81
307.042	96.81
307.272	89.81
307.502	82.81
307.731	77.81
307.961	82.81
308.191	81.81
308.421	79.81
308.651	83.81
308.881	98.81
309.111	84.81
309.341	77.81
309.571	78.81
309.8	82.81
310.03	77.81
310.26	78.81
310.49	90.81
310.72	80.81
310.949	68.81
311.179	72.81
311.409	81.81
311.639	72.81
311.868	86.81
312.098	80.81
312.328	91.81
312.557	74.81
312.787	77.81
313.017	68.81
313.246	66.81
313.476	68.81
313.706	82.81
313.935	84.81
314.165	76.81
314.394	86.81
314.624	70.81
314.853	77.81
315.083	83.81
315.312	88.81
315.542	83.81
315.771	86.81
316.001	100.81
316.23	79.81
316.46	87.81
316.689	85.81
316.919	84.81
317.148	78.81
317.377	83.81
317.607	73.81
317.836	79.81
318.065	69.81
318.295	86.81
318.524	82.81
318.753	74.81
318.983	82.81
319.212	87.81
319.441	66.81
319.67	77.81
319.9	70.81
320.129	75.81
320.358	82.81
320.587	99.81
320.816	87.81
321.046	78.81
321.275	96.81
321.504	81.81
321.733	82.81
321.962	82.81
322.191	75.81
322.42	63.81
322.649	96.81
322.878	87.81
323.108	74.81
323.337	82.81
323.566	81.81
323.795	75.81
324.024	85.81
324.253	82.81
324.482	79.81
324.71	76.81
324.939	90.81
325.168	75.81
325.397	92.81
325.626	79.81
325.855	73.81
326.084	86.81
326.313	74.81
326.542	82.81
326.77	91.81
326.999	83.81
327.228	78.81
327.457	82.81
327.686	93.81
327.914	76.81
328.143	76.81
328.372	76.81
328.6	60.81
328.829	81.81
329.058	70.81
329.287	82.81
329.515	79.81
329.744	85.81
329.972	77.81
330.201	77.81
330.43	85.81
330.658	79.81
330.887	78.81
331.115	77.81
331.344	78.81
331.572	76.81
331.801	88.81
332.03	92.81
332.258	87.81
332.486	80.81
332.715	83.81
332.943	83.81
333.172	78.81
333.4	71.81
333.629	90.81
333.857	79.81
334.085	88.81
334.314	78.81
334.542	74.81
334.771	83.81
334.999	84.81
335.227	60.81
335.455	86.81
335.684	94.81
335.912	85.81
336.14	79.81
336.369	64.81
336.597	75.81
336.825	75.81
337.053	80.81
337.281	81.81
337.51	82.81
337.738	84.81
337.966	83.81
338.194	84.81
338.422	85.81
338.65	82.81
338.878	78.81
339.106	85.81
339.334	84.81
339.562	91.81
339.79	79.81
340.018	91.81
340.246	73.81
340.474	89.81
340.702	86.81
340.93	64.81
341.158	80.81
341.386	75.81
341.614	83.81
341.842	77.81
342.07	74.81
342.298	97.81
342.526	72.81
342.754	80.81
342.981	78.81
343.209	82.81
343.437	84.81
343.665	89.81
343.893	80.81
344.12	82.81
344.348	84.81
344.576	86.81
344.804	80.81
345.031	70.81
345.259	77.81
345.487	78.81
345.714	80.81
345.942	71.81
346.17	79.81
346.397	68.81
346.625	75.81
346.853	84.81
347.08	79.81
347.308	96.81
347.535	79.81
347.763	82.81
347.99	88.81
348.218	76.81
348.445	95.81
348.673	74.81
348.9	77.81
349.128	84.81
349.355	84.81
349.583	87.81
349.81	79.81
350.037	94.81
350.265	79.81
350.492	81.81
350.72	79.81
350.947	91.81
351.174	88.81
351.402	66.81
351.629	76.81
351.856	87.81
352.083	76.81
352.311	89.81
352.538	74.81
352.765	86.81
352.992	90.81
353.22	74.81
353.447	81.81
353.674	90.81
353.901	84.81
354.128	83.81
354.355	91.81
354.583	66.81
354.81	86.81
355.037	80.81
355.264	83.81
355.491	79.81
355.718	92.81
355.945	84.81
356.172	95.81
356.399	85.81
356.626	80.81
356.853	91.81
357.08	70.81
357.307	68.81
357.534	82.81
357.761	82.81
357.988	75.81
358.215	84.81
358.441	82.81
358.668	81.81
358.895	91.81
359.122	82.81
359.349	71.81
359.576	77.81
359.802	82.81
360.029	82.81
360.256	69.81
360.483	76.81
360.709	60.81
360.936	85.81
361.163	72.81
361.39	68.81
361.616	88.81
361.843	92.81
362.07	82.81
362.296	82.81
362.523	93.81
362.749	74.81
362.976	83.81
363.203	65.81
363.429	84.81
363.656	78.81
363.882	76.81
364.109	77.81
364.335	85.81
364.562	88.81
364.788	71.81
365.015	81.81
365.241	76.81
365.468	73.81
365.694	87.81
365.92	87.81
366.147	84.81
366.373	80.81
366.599	86.81
366.826	76.81
367.052	86.81
367.278	78.81
367.505	75.81
367.731	83.81
367.957	82.81
368.184	95.81
368.41	86.81
368.636	85.81
368.862	83.81
369.089	88.81
369.315	90.81
369.541	80.81
369.767	72.81
369.993	88.81
370.219	85.81
370.445	95.81
370.672	74.81
370.898	72.81
371.124	77.81
371.35	77.81
371.576	84.81
371.802	74.81
372.028	85.81
372.254	75.81
372.48	73.81
372.706	94.81
372.932	79.81
373.158	92.81
373.384	90.81
373.61	87.81
373.835	74.81
374.061	79.81
374.287	89.81
374.513	86.81
374.739	68.81
374.965	68.81
375.191	63.81
375.416	67.81
375.642	71.81
375.868	89.81
376.094	92.81
376.319	92.81
376.545	80.81
376.771	95.81
376.997	90.81
377.222	82.81
377.448	85.81
377.674	64.81
377.899	75.81
378.125	73.81
378.35	76.81
378.576	73.81
378.802	75.81
379.027	86.81
379.253	84.81
379.478	84.81
379.704	95.81
379.929	84.81
380.155	89.81
380.38	82.81
380.606	76.81
380.831	74.81
381.057	87.81
381.282	93.81
381.507	89.81
381.733	86.81
381.958	71.81
382.184	84.81
382.409	82.81
382.634	75.81
382.86	84.81
383.085	79.81
383.31	78.81
383.535	74.81
383.761	76.81
383.986	82.81
384.211	91.81
384.436	87.81
384.662	88.81
384.887	90.81
385.112	78.81
385.337	87.81
385.562	84.81
385.787	90.81
386.013	83.81
386.238	84.81
386.463	79.81
386.688	101.81
386.913	86.81
387.138	79.81
387.363	87.81
387.588	95.81
387.813	80.81
388.038	83.81
388.263	73.81
388.488	79.81
388.713	83.81
388.938	89.81
389.163	85.81
389.387	72.81
389.612	79.81
389.837	81.81
390.062	72.81
390.287	89.81
390.512	80.81
390.736	78.81
390.961	83.81
391.186	81.81
391.411	72.81
391.636	80.81
391.86	81.81
392.085	71.81
392.31	93.81
392.534	72.81
392.759	77.81
392.984	80.81
393.208	83.81
393.433	86.81
393.658	68.81
393.882	55.81
394.107	73.81
394.331	83.81
394.556	78.81
394.78	91.81
395.005	82.81
395.229	85.81
395.454	74.81
395.678	75.81
395.903	93.81
396.127	78.81
396.352	74.81
396.576	83.81
396.801	83.81
397.025	71.81
397.249	81.81
397.474	82.81
397.698	80.81
397.922	75.81
398.147	86.81
398.371	76.81
398.595	84.81
398.82	94.81
399.044	86.81
399.268	68.81
399.492	70.81
399.717	76.81
399.941	72.81
400.165	88.81
400.389	76.81
400.613	79.81
400.837	91.81
401.062	94.81
401.286	83.81
401.51	87.81
401.734	74.81
401.958	86.81
402.182	77.81
402.406	75.81
402.63	84.81
402.854	88.81
403.078	75.81
403.302	82.81
403.526	67.81
403.75	98.81
403.974	107.81
404.198	120.81
404.422	156.81
404.645	201.81
404.869	167.81
405.093	115.81
405.317	94.81
405.541	96.81
405.765	87.81
405.988	86.81
406.212	89.81
406.436	81.81
406.66	72.81
406.883	73.81
407.107	79.81
407.331	63.81
407.555	90.81
407.778	74.81
408.002	83.81
408.226	74.81
408.449	85.81
408.673	85.81
408.896	84.81
409.12	87.81
409.344	102.81
409.567	94.81
409.791	82.81
410.014	78.81
410.238	86.81
410.461	74.81
410.685	86.81
410.908	79.81
411.132	94.81
411.355	73.81
411.578	68.81
411.802	87.81
412.025	88.81
412.249	71.81
412.472	71.81
412.695	87.81
412.919	87.81
413.142	90.81
413.365	73.81
413.589	73.81
413.812	82.81
414.035	77.81
414.258	90.81
414.482	87.81
414.705	89.81
414.928	79.81
415.151	75.81
415.374	81.81
415.597	87.81
415.821	92.81
416.044	99.81
416.267	86.81
416.49	78.81
416.713	86.81
416.936	76.81
417.159	64.81
417.382	89.81
417.605	83.81
417.828	86.81
418.051	76.81
418.274	63.81
418.497	76.81
418.72	87.81
418.943	76.81
419.166	85.81
419.389	89.81
419.611	83.81
419.834	76.81
420.057	102.81
420.28	72.81
420.503	88.81
420.726	81.81
420.948	88.81
421.171	82.81
421.394	96.81
421.617	69.81
421.839	93.81
422.062	74.81
422.285	81.81
422.507	85.81
422.73	85.81
422.953	94.81
423.175	82.81
423.398	81.81
423.621	75.81
423.843	88.81
424.066	73.81
424.288	80.81
424.511	73.81
424.733	82.81
424.956	71.81
425.178	75.81
425.401	89.81
425.623	86.81
425.846	87.81
426.068	91.81
426.291	82.81
426.513	71.81
426.735	88.81
426.958	95.81
427.18	76.81
427.402	89.81
427.625	83.81
427.847	81.81
428.069	84.81
428.292	69.81
428.514	76.81
428.736	83.81
428.958	90.81
429.181	69.81
429.403	91.81
429.625	87.81
429.847	87.81
430.069	72.81
430.292	80.81
430.514	69.81
430.736	76.81
430.958	88.81
431.18	84.81
431.402	78.81
431.624	98.81
431.846	83.81
432.068	75.81
432.29	68.81
432.512	78.81
432.734	72.81
432.956	94.81
433.178	87.81
433.4	68.81
433.622	79.81
433.844	82.81
434.066	91.81
434.287	78.81
434.509	94.81
434.731	87.81
434.953	85.81
435.175	90.81
435.397	87.81
435.618	87.81
435.84	88.81
436.062	79.81
436.284	83.81
436.505	74.81
436.727	73.81
436.949	90.81
437.17	77.81
437.392	71.81
437.614	76.81
437.835	79.81
438.057	76.81
438.278	82.81
438.5	88.81
438.721	87.81
438.943	88.81
439.165	69.81
439.386	87.81
439.608	90.81
439.829	70.81
440.05	66.81
440.272	82.81
440.493	82.81
440.715	76.81
440.936	95.81
441.158	74.81
441.379	79.81
441.6	80.81
441.822	81.81
442.043	75.81
442.264	78.81
442.486	82.81
442.707	82.81
442.928	84.81
443.149	71.81
443.371	81.81
443.592	89.81
443.813	93.81
444.034	91.81
444.255	89.81
444.476	72.81
444.698	83.81
444.919	95.81
445.14	178.81
445.361	126.81
445.582	85.81
445.803	86.81
446.024	91.81
446.245	89.81
446.466	84.81
446.687	82.81
446.908	82.81
447.129	77.81
447.35	77.81
447.571	89.81
447.792	83.81
448.013	83.81
448.234	88.81
448.455	78.81
448.675	87.81
448.896	86.81
449.117	93.81
449.338	80.81
449.559	77.81
449.779	75.81
450	77.81
450.221	74.81
450.442	83.81
450.662	72.81
450.883	85.81
451.104	90.81
451.324	68.81
451.545	85.81
451.766	82.81
451.986	88.81
452.207	86.81
452.428	75.81
452.648	98.81
452.869	84.81
453.089	86.81
453.31	82.81
453.53	84.81
453.751	67.81
453.971	67.81
454.192	84.81
454.412	87.81
454.633	83.81
454.853	83.81
455.073	98.81
455.294	96.81
455.514	96.81
455.734	77.81
455.955	89.81
456.175	88.81
456.395	85.81
456.616	76.81
456.836	82.81
457.056	87.81
457.276	83.81
457.497	94.81
457.717	66.81
457.937	82.81
458.157	81.81
458.377	83.81
458.598	82.81
458.818	99.81
459.038	80.81
459.258	83.81
459.478	84.81
459.698	81.81
459.918	78.81
460.138	94.81
460.358	75.81
460.578	88.81
460.798	81.81
461.018	77.81
461.238	78.81
461.458	83.81
461.678	72.81
461.898	79.81
462.118	83.81
462.338	96.81
462.558	78.81
462.777	90.81
462.997	93.81
463.217	83.81
463.437	74.81
463.657	87.81
463.876	91.81
464.096	83.81
464.316	92.81
464.536	85.81
464.755	84.81
464.975	89.81
465.195	100.81
465.414	89.81
465.634	74.81
465.854	72.81
466.073	86.81
466.293	75.81
466.512	92.81
466.732	85.81
466.951	90.81
467.171	84.81
467.391	86.81
467.61	75.81
467.829	60.81
468.049	86.81
468.268	76.81
468.488	95.81
468.707	74.81
468.927	82.81
469.146	90.81
469.365	91.81
469.585	90.81
469.804	89.81
470.023	80.81
470.243	79.81
470.462	87.81
470.681	100.81
470.901	82.81
471.12	86.81
471.339	78.81
471.558	85.81
471.777	75.81
471.997	84.81
472.216	92.81
472.435	66.81
472.654	92.81
472.873	91.81
473.092	79.81
473.311	87.81
473.53	82.81
473.749	91.81
473.968	77.81
474.187	75.81
474.406	95.81
474.625	91.81
474.844	86.81
475.063	94.81
475.282	84.81
475.501	94.81
475.72	80.81
475.939	78.81
476.158	78.81
476.377	95.81
476.596	88.81
476.814	88.81
477.033	80.81
477.252	79.81
477.471	83.81
477.69	74.81
477.908	86.81
478.127	85.81
478.346	90.81
478.564	79.81
478.783	70.81
479.002	82.81
479.22	83.81
479.439	78.81
479.658	75.81
479.876	83.81
480.095	88.81
480.313	87.81
480.532	81.81
480.751	84.81
480.969	91.81
481.188	76.81
481.406	80.81
481.624	77.81
481.843	85.81
482.061	81.81
482.28	79.81
482.498	83.81
482.717	75.81
482.935	84.81
483.153	92.81
483.372	72.81
483.59	94.81
483.808	79.81
484.027	73.81
484.245	84.81
484.463	77.81
484.681	94.81
484.9	68.81
485.118	94.81
485.336	79.81
485.554	89.81
485.772	75.81
485.99	83.81
486.209	95.81
486.427	102.81
486.645	98.81
486.863	79.81
487.081	80.81
487.299	94.81
487.517	80.81
487.735	88.81
487.953	84.81
488.171	99.81
488.389	79.81
488.607	85.81
488.825	78.81
489.043	89.81
489.261	99.81
489.479	88.81
489.696	90.81
489.914	89.81
490.132	89.81
490.35	83.81
490.568	90.81
490.786	78.81
491.003	84.81
491.221	83.81
491.439	88.81
491.657	102.81
491.874	94.81
492.092	110.81
492.31	86.81
492.527	92.81
492.745	93.81
492.963	98.81
493.18	95.81
493.398	77.81
493.615	93.81
493.833	75.81
494.05	100.81
494.268	83.81
494.485	98.81
494.703	88.81
494.92	85.81
495.138	90.81
495.355	88.81
495.573	87.81
495.79	88.81
496.008	87.81
496.225	100.81
496.442	80.81
496.66	91.81
496.877	84.81
497.094	98.81
497.312	86.81
497.529	94.81
497.746	86.81
497.963	88.81
498.181	89.81
498.398	95.81
498.615	85.81
498.832	101.81
499.049	82.81
499.267	82.81
499.484	79.81
499.701	74.81
499.918	97.81
500.135	78.81
500.352	82.81
500.569	85.81
500.786	99.81
501.003	83.81
501.22	86.81
501.437	80.81
501.654	89.81
501.871	84.81
502.088	63.81
502.305	85.81
502.522	102.81
502.739	88.81
502.956	95.81
503.172	86.81
503.389	86.81
503.606	70.81
503.823	79.81
504.04	93.81
504.256	74.81
504.473	90.81
504.69	82.81
504.907	91.81
505.123	73.81
505.34	99.81
505.557	93.81
505.773	86.81
505.99	87.81
506.207	89.81
506.423	72.81
506.64	100.81
506.856	83.81
507.073	75.81
507.289	82.81
507.506	79.81
507.722	84.81
507.939	78.81
508.155	79.81
508.372	91.81
508.588	94.81
508.805	88.81
509.021	83.81
509.238	95.81
509.454	95.81
509.67	89.81
509.887	75.81
510.103	69.81
510.319	89.81
510.536	110.81
510.752	92.81
510.968	99.81
511.184	84.81
511.401	95.81
511.617	80.81
511.833	82.81
512.049	76.81
512.265	94.81
512.481	86.81
512.698	96.81
512.914	83.81
513.13	90.81
513.346	85.81
513.562	90.81
513.778	89.81
513.994	89.81
514.21	91.81
514.426	99.81
514.642	82.81
514.858	89.81
515.074	83.81
515.29	94.81
515.506	80.81
515.721	84.81
515.937	85.81
516.153	79.81
516.369	88.81
516.585	75.81
516.801	77.81
517.016	87.81
517.232	77.81
517.448	88.81
517.664	72.81
517.879	84.81
518.095	86.81
518.311	85.81
518.527	75.81
518.742	80.81
518.958	88.81
519.173	80.81
519.389	74.81
519.605	83.81
519.82	78.81
520.036	90.81
520.251	87.81
520.467	78.81
520.682	90.81
520.898	101.81
521.113	82.81
521.329	83.81
521.544	78.81
521.76	90.81
521.975	96.81
522.19	68.81
522.406	69.81
522.621	84.81
522.836	101.81
523.052	84.81
523.267	88.81
523.482	70.81
523.698	86.81
523.913	84.81
524.128	94.81
524.343	83.81
524.559	96.81
524.774	96.81
524.989	80.81
525.204	83.81
525.419	87.81
525.634	66.81
525.849	85.81
526.064	99.81
526.28	80.81
526.495	88.81
526.71	77.81
526.925	96.81
527.14	72.81
527.355	72.81
527.57	107.81
527.785	79.81
527.999	103.81
528.214	71.81
528.429	92.81
528.644	86.81
528.859	85.81
529.074	81.81
529.289	86.81
529.503	78.81
529.718	82.81
529.933	82.81
530.148	96.81
530.363	95.81
530.577	75.81
530.792	90.81
531.007	87.81
531.221	68.81
531.436	83.81
531.651	82.81
531.865	91.81
532.08	89.81
532.295	85.81
532.509	86.81
532.724	85.81
532.938	91.81
533.153	76.81
533.367	79.81
533.582	91.81
533.796	90.81
534.011	79.81
534.225	101.81
534.44	96.81
534.654	90.81
534.868	83.81
535.083	100.81
535.297	90.81
535.511	100.81
535.726	99.81
535.94	93.81
536.154	84.81
536.369	88.81
536.583	102.81
536.797	88.81
537.011	93.81
537.225	87.81
537.44	77.81
537.654	84.81
537.868	91.81
538.082	94.81
538.296	73.81
538.51	80.81
538.724	82.81
538.938	84.81
539.153	86.81
539.367	87.81
539.581	82.81
539.795	85.81
540.009	92.81
540.222	78.81
540.436	88.81
540.65	84.81
540.864	84.81
541.078	83.81
541.292	78.81
541.506	94.81
541.72	84.81
541.934	93.81
542.147	88.81
542.361	84.81
542.575	90.81
542.789	87.81
543.002	76.81
543.216	83.81
543.43	76.81
543.644	84.81
543.857	84.81
544.071	75.81
544.285	73.81
544.498	104.81
544.712	83.81
544.925	78.81
545.139	89.81
545.352	87.81
545.566	80.81
545.779	91.81
545.993	96.81
546.206	88.81
546.42	78.81
546.633	93.81
546.847	95.81
547.06	99.81
547.274	88.81
547.487	95.81
547.7	85.81
547.914	84.81
548.127	80.81
548.34	85.81
548.554	91.81
548.767	82.81
548.98	73.81
549.193	80.81
549.407	94.81
549.62	81.81
549.833	94.81
550.046	80.81
550.259	93.81
550.473	92.81
550.686	102.81
550.899	103.81
551.112	89.81
551.325	91.81
551.538	87.81
551.751	95.81
551.964	87.81
552.177	83.81
552.39	74.81
552.603	95.81
552.816	94.81
553.029	79.81
553.242	73.81
553.455	73.81
553.667	90.81
553.88	86.81
554.093	94.81
554.306	87.81
554.519	77.81
554.732	88.81
554.944	76.81
555.157	91.81
555.37	92.81
555.583	73.81
555.795	83.81
556.008	91.81
556.221	74.81
556.433	90.81
556.646	79.81
556.859	85.81
557.071	85.81
557.284	83.81
557.496	99.81
557.709	80.81
557.921	86.81
558.134	93.81
558.346	90.81
558.559	85.81
558.771	82.81
558.984	78.81
559.196	78.81
559.409	90.81
559.621	82.81
559.833	93.81
560.046	89.81
560.258	77.81
560.47	82.81
560.683	87.81
560.895	88.81
561.107	89.81
561.32	80.81
561.532	74.81
561.744	76.81
561.956	75.81
562.168	95.81
562.381	77.81
562.593	84.81
562.805	86.81
563.017	83.81
563.229	83.81
563.441	73.81
563.653	92.81
563.865	86.81
564.077	79.81
564.289	73.81
564.501	77.81
564.713	94.81
564.925	86.81
565.137	87.81
565.349	77.81
565.561	96.81
565.773	79.81
565.985	84.81
566.197	90.81
566.408	87.81
566.62	85.81
566.832	85.81
567.044	82.81
567.255	80.81
567.467	88.81
567.679	75.81
567.891	91.81
568.102	89.81
568.314	91.81
568.526	103.81
568.737	91.81
568.949	90.81
569.161	76.81
569.372	76.81
569.584	88.81
569.795	87.81
570.007	88.81
570.218	86.81
570.43	78.81
570.641	103.81
570.853	90.81
571.064	95.81
571.276	82.81
571.487	85.81
571.698	84.81
571.91	71.81
572.121	92.81
572.333	81.81
572.544	74.81
572.755	83.81
572.966	78.81
573.178	82.81
573.389	84.81
573.6	80.81
573.811	87.81
574.023	83.81
574.234	66.81
574.445	95.81
574.656	91.81
574.867	77.81
575.078	74.81
575.289	85.81
575.501	94.81
575.712	71.81
575.923	99.81
576.134	83.81
576.345	92.81
576.556	87.81
576.767	87.81
576.978	89.81
577.188	87.81
577.399	95.81
577.61	78.81
577.821	86.81
578.032	96.81
578.243	85.81
578.454	105.81
578.665	104.81
578.875	90.81
579.086	72.81
579.297	76.81
579.508	84.81
579.718	84.81
579.929	84.81
580.14	78.81
580.35	116.81
580.561	116.81
580.772	107.81
580.982	110.81
581.193	83.81
581.403	104.81
581.614	103.81
581.825	90.81
582.035	87.81
582.246	92.81
582.456	90.81
582.667	87.81
582.877	81.81
583.087	79.81
583.298	71.81
583.508	101.81
583.719	92.81
583.929	85.81
584.139	92.81
584.35	88.81
584.56	93.81
584.77	75.81
584.981	80.81
585.191	87.81
585.401	85.81
585.611	75.81
585.821	89.81
586.032	93.81
586.242	86.81
586.452	90.81
586.662	81.81
586.872	88.81
587.082	84.81
587.292	99.81
587.502	104.81
587.713	87.81
587.923	91.81
588.133	82.81
588.343	95.81
588.553	133.81
588.762	150.81
588.972	250.81
589.182	470.81
589.392	387.81
589.602	294.81
589.812	412.81
590.022	272.81
590.232	138.81
590.441	113.81
590.651	104.81
590.861	83.81
591.071	84.81
591.281	78.81
591.49	83.81
591.7	84.81
591.91	83.81
592.119	83.81
592.329	86.81
592.539	83.81
592.748	86.81
592.958	78.81
593.167	86.81
593.377	93.81
593.587	93.81
593.796	79.81
594.006	88.81
594.215	79.81
594.424	83.81
594.634	84.81
594.843	87.81
595.053	72.81
595.262	82.81
595.472	81.81
595.681	75.81
595.89	81.81
596.1	77.81
596.309	89.81
596.518	76.81
596.727	94.81
596.937	82.81
597.146	77.81
597.355	79.81
597.564	88.81
597.774	81.81
597.983	69.81
598.192	80.81
598.401	78.81
598.61	84.81
598.819	72.81
599.028	72.81
599.237	77.81
599.446	76.81
599.655	79.81
599.864	76.81
600.073	82.81
600.282	68.81
600.491	100.81
600.7	71.81
600.909	78.81
601.118	84.81
601.327	89.81
601.536	97.81
601.745	92.81
601.953	75.81
602.162	88.81
602.371	82.81
602.58	90.81
602.789	88.81
602.997	85.81
603.206	72.81
603.415	86.81
603.623	84.81
603.832	81.81
604.041	70.81
604.249	68.81
604.458	85.81
604.666	75.81
604.875	82.81
605.084	84.81
605.292	74.81
605.501	82.81
605.709	88.81
605.918	83.81
606.126	82.81
606.334	97.81
606.543	102.81
606.751	88.81
606.96	70.81
607.168	79.81
607.376	82.81
607.585	82.81
607.793	76.81
608.001	80.81
608.21	91.81
608.418	82.81
608.626	85.81
608.834	68.81
609.043	84.81
609.251	89.81
609.459	74.81
609.667	81.81
609.875	72.81
610.083	87.81
610.291	83.81
610.499	78.81
610.707	63.81
610.916	84.81
611.124	89.81
611.332	86.81
611.54	90.81
611.748	84.81
611.955	79.81
612.163	85.81
612.371	82.81
612.579	75.81
612.787	85.81
612.995	68.81
613.203	74.81
613.411	84.81
613.618	84.81
613.826	94.81
614.034	82.81
614.242	81.81
614.449	87.81
614.657	84.81
614.865	70.81
615.072	81.81
615.28	89.81
615.488	70.81
615.695	82.81
615.903	84.81
616.111	82.81
616.318	90.81
616.526	100.81
616.733	113.81
616.941	86.81
617.148	80.81
617.356	79.81
617.563	72.81
617.771	74.81
617.978	85.81
618.185	87.81
618.393	80.81
618.6	87.81
618.807	84.81
619.015	79.81
619.222	91.81
619.429	85.81
619.637	86.81
619.844	73.81
620.051	96.81
620.258	90.81
620.466	87.81
620.673	69.81
620.88	77.81
621.087	78.81
621.294	85.81
621.501	88.81
621.708	89.81
621.915	77.81
622.122	82.81
622.329	88.81
622.536	76.81
622.743	81.81
622.95	69.81
623.157	83.81
623.364	69.81
623.571	83.81
623.778	77.81
623.985	64.81
624.192	99.81
624.399	82.81
624.606	80.81
624.812	76.81
625.019	76.81
625.226	75.81
625.433	79.81
625.639	66.81
625.846	84.81
626.053	92.81
626.259	82.81
626.466	87.81
626.673	77.81
626.879	91.81
627.086	81.81
627.293	90.81
627.499	80.81
627.706	85.81
627.912	83.81
628.119	75.81
628.325	90.81
628.532	81.81
628.738	82.81
628.945	76.81
629.151	82.81
629.357	84.81
629.564	76.81
629.77	77.81
629.976	71.81
630.183	91.81
630.389	84.81
630.595	87.81
630.802	88.81
631.008	87.81
631.214	90.81
631.42	80.81
631.627	95.81
631.833	76.81
632.039	87.81
632.245	76.81
632.451	92.81
632.657	91.81
632.863	78.81
633.069	62.81
633.275	82.81
633.481	76.81
633.688	68.81
633.893	83.81
634.099	80.81
634.305	87.81
634.511	96.81
634.717	91.81
634.923	81.81
635.129	78.81
635.335	87.81
635.541	86.81
635.747	77.81
635.952	82.81
636.158	77.81
636.364	76.81
636.57	84.81
636.775	66.81
636.981	73.81
637.187	77.81
637.392	77.81
637.598	76.81
637.804	83.81
638.009	84.81
638.215	81.81
638.421	86.81
638.626	82.81
638.832	82.81
639.037	79.81
639.243	79.81
639.448	85.81
639.654	69.81
639.859	78.81
640.065	76.81
640.27	85.81
640.475	84.81
640.681	74.81
640.886	75.81
641.091	82.81
641.297	94.81
641.502	64.81
641.707	81.81
641.913	69.81
642.118	82.81
642.323	76.81
642.528	92.81
642.733	78.81
642.939	81.81
643.144	91.81
643.349	71.81
643.554	81.81
643.759	76.81
643.964	82.81
644.169	92.81
644.374	86.81
644.579	73.81
644.784	83.81
644.989	77.81
645.194	90.81
645.399	75.81
645.604	77.81
645.809	88.81
646.014	81.81
646.219	91.81
646.423	100.81
646.628	72.81
646.833	87.81
647.038	84.81
647.243	84.81
647.447	75.81
647.652	87.81
647.857	78.81
648.062	85.81
648.266	68.81
648.471	87.81
648.676	71.81
648.88	80.81
649.085	62.81
649.289	75.81
649.494	78.81
649.698	84.81
649.903	84.81
650.107	76.81
650.312	70.81
650.516	83.81
650.721	78.81
650.925	66.81
651.13	82.81
651.334	73.81
651.539	70.81
651.743	80.81
651.947	92.81
652.152	78.81
652.356	70.81
652.56	76.81
652.764	78.81
652.969	81.81
653.173	78.81
653.377	78.81
653.581	68.81
653.785	85.81
653.99	91.81
654.194	84.81
654.398	74.81
654.602	67.81
654.806	82.81
655.01	90.81
655.214	90.81
655.418	71.81
655.622	80.81
655.826	80.81
656.03	77.81
656.234	90.81
656.438	75.81
656.642	76.81
656.846	76.81
657.049	75.81
657.253	70.81
657.457	78.81
657.661	65.81
657.865	87.81
658.068	77.81
658.272	82.81
658.476	85.81
658.68	80.81
658.883	88.81
659.087	82.81
659.291	81.81
659.494	83.81
659.698	89.81
659.901	89.81
660.105	84.81
660.309	85.81
660.512	75.81
660.716	72.81
660.919	69.81
661.123	71.81
661.326	76.81
661.53	88.81
661.733	82.81
661.936	92.81
662.14	94.81
662.343	90.81
662.546	66.81
662.75	70.81
662.953	69.81
663.156	82.81
663.36	82.81
663.563	88.81
663.766	70.81
663.969	69.81
664.173	74.81
664.376	87.81
664.579	79.81
664.782	85.81
664.985	86.81
665.188	84.81
665.391	78.81
665.594	79.81
665.797	74.81
666	67.81
666.203	79.81
666.406	69.81
666.609	64.81
666.812	78.81
667.015	76.81
667.218	83.81
667.421	77.81
667.624	86.81
667.827	78.81
668.03	83.81
668.232	70.81
668.435	93.81
668.638	72.81
668.841	98.81
669.043	78.81
669.246	74.81
669.449	73.81
669.651	80.81
669.854	84.81
670.057	86.81
670.259	75.81
670.462	77.81
670.665	89.81
670.867	68.81
671.07	74.81
671.272	78.81
671.475	88.81
671.677	84.81
671.88	83.81
672.082	94.81
672.284	82.81
672.487	84.81
672.689	90.81
672.892	85.81
