Data from KBr_2_HRD10591_00039.txt Node
Date: Mon Jan 19 13:13:10 EST 2026
User: Yrep
Spectrometer: HR+D1059
Trigger mode: 1
Integration Time (sec): 1.000000E-1
Scans to average: 1
Electric dark correction enabled: true
Nonlinearity correction enabled: false
Boxcar width: 0
XAxis mode: Wavelengths
Number of Pixels in Spectrum: 2048
>>>>>Begin Spectral Data<<<<<
223.165	-11.88
223.4	-11.88
223.635	-11.88
223.869	-8.88
224.104	-20.88
224.338	-25.88
224.573	-28.88
224.808	-11.88
225.042	-5.88
225.277	4.12
225.511	-2.88
225.746	10.12
225.98	2.12
226.215	13.12
226.449	13.12
226.683	17.12
226.918	33.12
227.152	24.12
227.387	37.12
227.621	49.12
227.856	53.12
228.09	51.12
228.324	49.12
228.559	50.12
228.793	57.12
229.027	66.12
229.262	66.12
229.496	69.12
229.73	67.12
229.964	63.12
230.199	70.12
230.433	72.12
230.667	78.12
230.901	81.12
231.136	83.12
231.37	72.12
231.604	74.12
231.838	78.12
232.072	82.12
232.306	85.12
232.541	93.12
232.775	73.12
233.009	75.12
233.243	70.12
233.477	102.12
233.711	95.12
233.945	80.12
234.179	76.12
234.413	87.12
234.647	72.12
234.881	78.12
235.115	79.12
235.349	73.12
235.583	77.12
235.817	66.12
236.051	86.12
236.285	75.12
236.519	89.12
236.753	72.12
236.987	61.12
237.221	85.12
237.455	76.12
237.689	79.12
237.922	81.12
238.156	78.12
238.39	77.12
238.624	73.12
238.858	81.12
239.091	64.12
239.325	84.12
239.559	86.12
239.793	78.12
240.027	84.12
240.26	74.12
240.494	69.12
240.728	79.12
240.961	74.12
241.195	79.12
241.429	73.12
241.662	65.12
241.896	71.12
242.13	79.12
242.363	85.12
242.597	63.12
242.83	77.12
243.064	87.12
243.298	61.12
243.531	53.12
243.765	70.12
243.998	74.12
244.232	75.12
244.465	72.12
244.699	79.12
244.932	79.12
245.166	70.12
245.399	68.12
245.633	78.12
245.866	85.12
246.099	85.12
246.333	62.12
246.566	74.12
246.8	64.12
247.033	79.12
247.266	73.12
247.5	78.12
247.733	65.12
247.966	66.12
248.2	73.12
248.433	79.12
248.666	78.12
248.899	80.12
249.133	87.12
249.366	78.12
249.599	64.12
249.832	72.12
250.066	81.12
250.299	73.12
250.532	78.12
250.765	72.12
250.998	73.12
251.231	82.12
251.465	88.12
251.698	81.12
251.931	86.12
252.164	72.12
252.397	87.12
252.63	83.12
252.863	70.12
253.096	69.12
253.329	84.12
253.562	68.12
253.795	77.12
254.028	83.12
254.261	80.12
254.494	85.12
254.727	86.12
254.96	85.12
255.193	82.12
255.426	75.12
255.659	82.12
255.892	81.12
256.124	69.12
256.357	80.12
256.59	80.12
256.823	83.12
257.056	89.12
257.289	73.12
257.521	83.12
257.754	75.12
257.987	59.12
258.22	79.12
258.452	77.12
258.685	80.12
258.918	83.12
259.151	84.12
259.383	94.12
259.616	98.12
259.849	79.12
260.081	72.12
260.314	79.12
260.547	80.12
260.779	89.12
261.012	76.12
261.244	67.12
261.477	91.12
261.71	89.12
261.942	69.12
262.175	75.12
262.407	88.12
262.64	76.12
262.872	87.12
263.105	81.12
263.337	87.12
263.57	79.12
263.802	82.12
264.035	71.12
264.267	85.12
264.499	86.12
264.732	87.12
264.964	76.12
265.197	64.12
265.429	87.12
265.661	86.12
265.894	89.12
266.126	100.12
266.358	76.12
266.591	77.12
266.823	76.12
267.055	76.12
267.287	93.12
267.52	89.12
267.752	74.12
267.984	94.12
268.216	74.12
268.448	71.12
268.681	80.12
268.913	79.12
269.145	91.12
269.377	87.12
269.609	89.12
269.841	84.12
270.073	85.12
270.306	61.12
270.538	77.12
270.77	77.12
271.002	75.12
271.234	76.12
271.466	76.12
271.698	77.12
271.93	69.12
272.162	96.12
272.394	88.12
272.626	80.12
272.858	77.12
273.09	78.12
273.322	79.12
273.553	73.12
273.785	90.12
274.017	85.12
274.249	95.12
274.481	77.12
274.713	62.12
274.945	92.12
275.176	106.12
275.408	85.12
275.64	87.12
275.872	91.12
276.104	65.12
276.335	64.12
276.567	77.12
276.799	89.12
277.031	92.12
277.262	90.12
277.494	92.12
277.726	80.12
277.957	96.12
278.189	94.12
278.421	85.12
278.652	82.12
278.884	94.12
279.115	87.12
279.347	79.12
279.579	94.12
279.81	79.12
280.042	91.12
280.273	81.12
280.505	87.12
280.736	64.12
280.968	72.12
281.199	63.12
281.431	80.12
281.662	94.12
281.894	85.12
282.125	84.12
282.356	88.12
282.588	96.12
282.819	84.12
283.051	74.12
283.282	74.12
283.513	90.12
283.745	80.12
283.976	76.12
284.207	90.12
284.439	81.12
284.67	86.12
284.901	94.12
285.132	79.12
285.364	79.12
285.595	82.12
285.826	82.12
286.057	74.12
286.288	77.12
286.52	83.12
286.751	68.12
286.982	80.12
287.213	81.12
287.444	74.12
287.675	67.12
287.906	91.12
288.138	88.12
288.369	90.12
288.6	75.12
288.831	75.12
289.062	81.12
289.293	102.12
289.524	72.12
289.755	94.12
289.986	84.12
290.217	87.12
290.448	84.12
290.679	94.12
290.91	90.12
291.141	78.12
291.371	96.12
291.602	84.12
291.833	80.12
292.064	76.12
292.295	84.12
292.526	85.12
292.757	77.12
292.987	90.12
293.218	91.12
293.449	68.12
293.68	84.12
293.91	70.12
294.141	86.12
294.372	92.12
294.603	85.12
294.833	84.12
295.064	88.12
295.295	86.12
295.525	78.12
295.756	80.12
295.987	76.12
296.217	77.12
296.448	73.12
296.679	99.12
296.909	86.12
297.14	82.12
297.37	92.12
297.601	82.12
297.831	93.12
298.062	86.12
298.292	88.12
298.523	85.12
298.753	89.12
298.984	80.12
299.214	80.12
299.445	77.12
299.675	88.12
299.905	63.12
300.136	81.12
300.366	84.12
300.597	82.12
300.827	76.12
301.057	89.12
301.288	81.12
301.518	84.12
301.748	84.12
301.979	97.12
302.209	62.12
302.439	82.12
302.669	78.12
302.9	90.12
303.13	70.12
303.36	67.12
303.59	92.12
303.82	98.12
304.051	79.12
304.281	86.12
304.511	92.12
304.741	87.12
304.971	72.12
305.201	76.12
305.431	95.12
305.661	97.12
305.891	103.12
306.121	97.12
306.352	77.12
306.582	72.12
306.812	89.12
307.042	96.12
307.272	87.12
307.502	75.12
307.731	89.12
307.961	89.12
308.191	74.12
308.421	77.12
308.651	91.12
308.881	97.12
309.111	92.12
309.341	78.12
309.571	87.12
309.8	88.12
310.03	78.12
310.26	90.12
310.49	85.12
310.72	71.12
310.949	77.12
311.179	74.12
311.409	79.12
311.639	86.12
311.868	79.12
312.098	81.12
312.328	82.12
312.557	84.12
312.787	84.12
313.017	71.12
313.246	65.12
313.476	63.12
313.706	80.12
313.935	89.12
314.165	94.12
314.394	82.12
314.624	84.12
314.853	86.12
315.083	85.12
315.312	72.12
315.542	70.12
315.771	94.12
316.001	76.12
316.23	65.12
316.46	78.12
316.689	95.12
316.919	73.12
317.148	86.12
317.377	88.12
317.607	84.12
317.836	78.12
318.065	101.12
318.295	73.12
318.524	81.12
318.753	101.12
318.983	76.12
319.212	90.12
319.441	86.12
319.67	90.12
319.9	89.12
320.129	90.12
320.358	98.12
320.587	92.12
320.816	89.12
321.046	86.12
321.275	81.12
321.504	79.12
321.733	86.12
321.962	75.12
322.191	73.12
322.42	86.12
322.649	74.12
322.878	94.12
323.108	88.12
323.337	74.12
323.566	84.12
323.795	81.12
324.024	82.12
324.253	99.12
324.482	80.12
324.71	100.12
324.939	87.12
325.168	87.12
325.397	93.12
325.626	88.12
325.855	81.12
326.084	105.12
326.313	83.12
326.542	76.12
326.77	87.12
326.999	66.12
327.228	79.12
327.457	80.12
327.686	85.12
327.914	95.12
328.143	89.12
328.372	89.12
328.6	68.12
328.829	66.12
329.058	79.12
329.287	82.12
329.515	73.12
329.744	93.12
329.972	74.12
330.201	94.12
330.43	78.12
330.658	85.12
330.887	79.12
331.115	73.12
331.344	66.12
331.572	76.12
331.801	95.12
332.03	78.12
332.258	82.12
332.486	73.12
332.715	85.12
332.943	85.12
333.172	68.12
333.4	68.12
333.629	82.12
333.857	89.12
334.085	89.12
334.314	88.12
334.542	88.12
334.771	85.12
334.999	85.12
335.227	85.12
335.455	94.12
335.684	99.12
335.912	86.12
336.14	83.12
336.369	77.12
336.597	83.12
336.825	71.12
337.053	79.12
337.281	78.12
337.51	82.12
337.738	97.12
337.966	93.12
338.194	80.12
338.422	80.12
338.65	86.12
338.878	92.12
339.106	81.12
339.334	98.12
339.562	90.12
339.79	76.12
340.018	82.12
340.246	89.12
340.474	92.12
340.702	93.12
340.93	80.12
341.158	97.12
341.386	87.12
341.614	77.12
341.842	84.12
342.07	77.12
342.298	90.12
342.526	90.12
342.754	84.12
342.981	82.12
343.209	79.12
343.437	86.12
343.665	73.12
343.893	84.12
344.12	86.12
344.348	90.12
344.576	79.12
344.804	90.12
345.031	87.12
345.259	86.12
345.487	84.12
345.714	76.12
345.942	84.12
346.17	86.12
346.397	71.12
346.625	82.12
346.853	88.12
347.08	84.12
347.308	81.12
347.535	69.12
347.763	75.12
347.99	74.12
348.218	84.12
348.445	90.12
348.673	103.12
348.9	72.12
349.128	90.12
349.355	76.12
349.583	80.12
349.81	85.12
350.037	82.12
350.265	71.12
350.492	80.12
350.72	88.12
350.947	94.12
351.174	95.12
351.402	73.12
351.629	72.12
351.856	69.12
352.083	76.12
352.311	87.12
352.538	90.12
352.765	88.12
352.992	83.12
353.22	93.12
353.447	92.12
353.674	88.12
353.901	84.12
354.128	72.12
354.355	73.12
354.583	75.12
354.81	79.12
355.037	78.12
355.264	88.12
355.491	89.12
355.718	79.12
355.945	89.12
356.172	84.12
356.399	82.12
356.626	95.12
356.853	74.12
357.08	80.12
357.307	80.12
357.534	90.12
357.761	84.12
357.988	107.12
358.215	90.12
358.441	84.12
358.668	93.12
358.895	76.12
359.122	78.12
359.349	85.12
359.576	87.12
359.802	82.12
360.029	66.12
360.256	81.12
360.483	83.12
360.709	98.12
360.936	80.12
361.163	78.12
361.39	77.12
361.616	78.12
361.843	84.12
362.07	97.12
362.296	76.12
362.523	82.12
362.749	97.12
362.976	86.12
363.203	89.12
363.429	77.12
363.656	85.12
363.882	70.12
364.109	82.12
364.335	79.12
364.562	78.12
364.788	83.12
365.015	79.12
365.241	86.12
365.468	81.12
365.694	83.12
365.92	97.12
366.147	91.12
366.373	81.12
366.599	90.12
366.826	82.12
367.052	76.12
367.278	84.12
367.505	84.12
367.731	100.12
367.957	77.12
368.184	84.12
368.41	96.12
368.636	84.12
368.862	92.12
369.089	84.12
369.315	93.12
369.541	80.12
369.767	90.12
369.993	64.12
370.219	72.12
370.445	79.12
370.672	100.12
370.898	91.12
371.124	79.12
371.35	85.12
371.576	80.12
371.802	88.12
372.028	77.12
372.254	78.12
372.48	82.12
372.706	91.12
372.932	73.12
373.158	88.12
373.384	80.12
373.61	90.12
373.835	103.12
374.061	80.12
374.287	71.12
374.513	85.12
374.739	84.12
374.965	76.12
375.191	81.12
375.416	85.12
375.642	73.12
375.868	80.12
376.094	88.12
376.319	80.12
376.545	84.12
376.771	88.12
376.997	92.12
377.222	82.12
377.448	69.12
377.674	80.12
377.899	79.12
378.125	70.12
378.35	79.12
378.576	82.12
378.802	92.12
379.027	90.12
379.253	77.12
379.478	90.12
379.704	81.12
379.929	75.12
380.155	59.12
380.38	77.12
380.606	81.12
380.831	70.12
381.057	87.12
381.282	89.12
381.507	76.12
381.733	81.12
381.958	81.12
382.184	70.12
382.409	87.12
382.634	81.12
382.86	80.12
383.085	84.12
383.31	80.12
383.535	85.12
383.761	104.12
383.986	85.12
384.211	64.12
384.436	82.12
384.662	71.12
384.887	82.12
385.112	88.12
385.337	89.12
385.562	81.12
385.787	94.12
386.013	71.12
386.238	88.12
386.463	82.12
386.688	89.12
386.913	78.12
387.138	79.12
387.363	83.12
387.588	96.12
387.813	84.12
388.038	94.12
388.263	62.12
388.488	87.12
388.713	80.12
388.938	79.12
389.163	93.12
389.387	87.12
389.612	84.12
389.837	93.12
390.062	89.12
390.287	69.12
390.512	85.12
390.736	93.12
390.961	88.12
391.186	90.12
391.411	89.12
391.636	77.12
391.86	79.12
392.085	87.12
392.31	85.12
392.534	78.12
392.759	88.12
392.984	75.12
393.208	97.12
393.433	75.12
393.658	88.12
393.882	86.12
394.107	87.12
394.331	83.12
394.556	72.12
394.78	76.12
395.005	79.12
395.229	66.12
395.454	80.12
395.678	83.12
395.903	89.12
396.127	87.12
396.352	79.12
396.576	93.12
396.801	79.12
397.025	83.12
397.249	90.12
397.474	95.12
397.698	90.12
397.922	102.12
398.147	98.12
398.371	93.12
398.595	75.12
398.82	75.12
399.044	66.12
399.268	97.12
399.492	78.12
399.717	91.12
399.941	85.12
400.165	88.12
400.389	63.12
400.613	88.12
400.837	93.12
401.062	82.12
401.286	73.12
401.51	88.12
401.734	76.12
401.958	84.12
402.182	90.12
402.406	81.12
402.63	87.12
402.854	93.12
403.078	71.12
403.302	88.12
403.526	88.12
403.75	93.12
403.974	88.12
404.198	96.12
404.422	95.12
404.645	129.12
404.869	112.12
405.093	102.12
405.317	84.12
405.541	85.12
405.765	95.12
405.988	82.12
406.212	74.12
406.436	86.12
406.66	86.12
406.883	69.12
407.107	76.12
407.331	79.12
407.555	96.12
407.778	74.12
408.002	77.12
408.226	75.12
408.449	75.12
408.673	71.12
408.896	72.12
409.12	81.12
409.344	87.12
409.567	86.12
409.791	82.12
410.014	91.12
410.238	80.12
410.461	89.12
410.685	72.12
410.908	90.12
411.132	83.12
411.355	78.12
411.578	91.12
411.802	95.12
412.025	77.12
412.249	73.12
412.472	77.12
412.695	82.12
412.919	82.12
413.142	85.12
413.365	84.12
413.589	94.12
413.812	76.12
414.035	102.12
414.258	76.12
414.482	86.12
414.705	85.12
414.928	84.12
415.151	85.12
415.374	92.12
415.597	84.12
415.821	80.12
416.044	69.12
416.267	72.12
416.49	82.12
416.713	79.12
416.936	90.12
417.159	97.12
417.382	80.12
417.605	83.12
417.828	82.12
418.051	80.12
418.274	94.12
418.497	90.12
418.72	95.12
418.943	80.12
419.166	85.12
419.389	78.12
419.611	84.12
419.834	89.12
420.057	97.12
420.28	88.12
420.503	85.12
420.726	78.12
420.948	80.12
421.171	86.12
421.394	85.12
421.617	92.12
421.839	78.12
422.062	94.12
422.285	89.12
422.507	94.12
422.73	85.12
422.953	84.12
423.175	77.12
423.398	102.12
423.621	81.12
423.843	86.12
424.066	88.12
424.288	88.12
424.511	90.12
424.733	92.12
424.956	92.12
425.178	81.12
425.401	91.12
425.623	76.12
425.846	88.12
426.068	59.12
426.291	85.12
426.513	78.12
426.735	86.12
426.958	88.12
427.18	70.12
427.402	77.12
427.625	93.12
427.847	105.12
428.069	95.12
428.292	102.12
428.514	86.12
428.736	94.12
428.958	79.12
429.181	67.12
429.403	101.12
429.625	84.12
429.847	87.12
430.069	88.12
430.292	81.12
430.514	98.12
430.736	77.12
430.958	86.12
431.18	85.12
431.402	97.12
431.624	75.12
431.846	86.12
432.068	80.12
432.29	87.12
432.512	69.12
432.734	91.12
432.956	97.12
433.178	104.12
433.4	91.12
433.622	74.12
433.844	78.12
434.066	92.12
434.287	79.12
434.509	76.12
434.731	92.12
434.953	69.12
435.175	90.12
435.397	101.12
435.618	85.12
435.84	84.12
436.062	75.12
436.284	88.12
436.505	74.12
436.727	84.12
436.949	88.12
437.17	92.12
437.392	65.12
437.614	92.12
437.835	81.12
438.057	81.12
438.278	71.12
438.5	86.12
438.721	87.12
438.943	73.12
439.165	79.12
439.386	86.12
439.608	79.12
439.829	88.12
440.05	93.12
440.272	77.12
440.493	83.12
440.715	81.12
440.936	73.12
441.158	106.12
441.379	84.12
441.6	70.12
441.822	84.12
442.043	100.12
442.264	77.12
442.486	74.12
442.707	93.12
442.928	88.12
443.149	82.12
443.371	80.12
443.592	73.12
443.813	92.12
444.034	83.12
444.255	82.12
444.476	70.12
444.698	82.12
444.919	100.12
445.14	172.12
445.361	121.12
445.582	95.12
445.803	88.12
446.024	78.12
446.245	90.12
446.466	77.12
446.687	76.12
446.908	86.12
447.129	81.12
447.35	88.12
447.571	88.12
447.792	87.12
448.013	89.12
448.234	81.12
448.455	84.12
448.675	100.12
448.896	81.12
449.117	88.12
449.338	90.12
449.559	87.12
449.779	76.12
450	92.12
450.221	97.12
450.442	82.12
450.662	80.12
450.883	84.12
451.104	81.12
451.324	84.12
451.545	70.12
451.766	91.12
451.986	75.12
452.207	72.12
452.428	83.12
452.648	74.12
452.869	88.12
453.089	88.12
453.31	95.12
453.53	84.12
453.751	74.12
453.971	83.12
454.192	80.12
454.412	72.12
454.633	71.12
454.853	77.12
455.073	80.12
455.294	88.12
455.514	80.12
455.734	81.12
455.955	84.12
456.175	78.12
456.395	78.12
456.616	92.12
456.836	95.12
457.056	72.12
457.276	86.12
457.497	75.12
457.717	73.12
457.937	86.12
458.157	78.12
458.377	85.12
458.598	95.12
458.818	80.12
459.038	84.12
459.258	86.12
459.478	77.12
459.698	91.12
459.918	77.12
460.138	78.12
460.358	74.12
460.578	81.12
460.798	80.12
461.018	76.12
461.238	76.12
461.458	85.12
461.678	86.12
461.898	79.12
462.118	80.12
462.338	83.12
462.558	82.12
462.777	66.12
462.997	83.12
463.217	72.12
463.437	78.12
463.657	89.12
463.876	101.12
464.096	92.12
464.316	72.12
464.536	84.12
464.755	85.12
464.975	81.12
465.195	91.12
465.414	86.12
465.634	61.12
465.854	65.12
466.073	70.12
466.293	85.12
466.512	80.12
466.732	86.12
466.951	87.12
467.171	81.12
467.391	84.12
467.61	87.12
467.829	78.12
468.049	81.12
468.268	97.12
468.488	80.12
468.707	93.12
468.927	75.12
469.146	85.12
469.365	85.12
469.585	73.12
469.804	96.12
470.023	89.12
470.243	86.12
470.462	80.12
470.681	70.12
470.901	73.12
471.12	91.12
471.339	92.12
471.558	83.12
471.777	74.12
471.997	91.12
472.216	72.12
472.435	72.12
472.654	81.12
472.873	79.12
473.092	71.12
473.311	86.12
473.53	77.12
473.749	91.12
473.968	81.12
474.187	95.12
474.406	87.12
474.625	85.12
474.844	69.12
475.063	82.12
475.282	81.12
475.501	82.12
475.72	71.12
475.939	106.12
476.158	74.12
476.377	88.12
476.596	68.12
476.814	81.12
477.033	87.12
477.252	81.12
477.471	80.12
477.69	84.12
477.908	80.12
478.127	84.12
478.346	65.12
478.564	82.12
478.783	77.12
479.002	76.12
479.22	76.12
479.439	96.12
479.658	86.12
479.876	78.12
480.095	59.12
480.313	84.12
480.532	82.12
480.751	84.12
480.969	80.12
481.188	77.12
481.406	80.12
481.624	80.12
481.843	75.12
482.061	71.12
482.28	90.12
482.498	71.12
482.717	68.12
482.935	85.12
483.153	93.12
483.372	86.12
483.59	84.12
483.808	78.12
484.027	87.12
484.245	88.12
484.463	87.12
484.681	104.12
484.9	97.12
485.118	74.12
485.336	101.12
485.554	82.12
485.772	76.12
485.99	83.12
486.209	91.12
486.427	75.12
486.645	80.12
486.863	92.12
487.081	80.12
487.299	91.12
487.517	90.12
487.735	96.12
487.953	89.12
488.171	94.12
488.389	96.12
488.607	90.12
488.825	75.12
489.043	84.12
489.261	86.12
489.479	77.12
489.696	106.12
489.914	83.12
490.132	81.12
490.35	88.12
490.568	76.12
490.786	87.12
491.003	84.12
491.221	94.12
491.439	87.12
491.657	85.12
491.874	95.12
492.092	92.12
492.31	87.12
492.527	74.12
492.745	89.12
492.963	89.12
493.18	95.12
493.398	82.12
493.615	81.12
493.833	80.12
494.05	87.12
494.268	86.12
494.485	88.12
494.703	104.12
494.92	85.12
495.138	97.12
495.355	98.12
495.573	93.12
495.79	90.12
496.008	93.12
496.225	103.12
496.442	96.12
496.66	93.12
496.877	86.12
497.094	94.12
497.312	93.12
497.529	73.12
497.746	82.12
497.963	97.12
498.181	93.12
498.398	81.12
498.615	80.12
498.832	89.12
499.049	86.12
499.267	85.12
499.484	88.12
499.701	90.12
499.918	88.12
500.135	92.12
500.352	92.12
500.569	94.12
500.786	90.12
501.003	71.12
501.22	100.12
501.437	93.12
501.654	77.12
501.871	90.12
502.088	76.12
502.305	88.12
502.522	78.12
502.739	97.12
502.956	93.12
503.172	90.12
503.389	86.12
503.606	71.12
503.823	80.12
504.04	75.12
504.256	85.12
504.473	84.12
504.69	92.12
504.907	77.12
505.123	93.12
505.34	87.12
505.557	85.12
505.773	89.12
505.99	80.12
506.207	89.12
506.423	82.12
506.64	85.12
506.856	94.12
507.073	82.12
507.289	81.12
507.506	65.12
507.722	77.12
507.939	80.12
508.155	86.12
508.372	101.12
508.588	89.12
508.805	90.12
509.021	70.12
509.238	78.12
509.454	77.12
509.67	73.12
509.887	75.12
510.103	86.12
510.319	77.12
510.536	68.12
510.752	72.12
510.968	77.12
511.184	86.12
511.401	94.12
511.617	83.12
511.833	81.12
512.049	65.12
512.265	86.12
512.481	88.12
512.698	81.12
512.914	80.12
513.13	80.12
513.346	85.12
513.562	89.12
513.778	78.12
513.994	80.12
514.21	87.12
514.426	75.12
514.642	85.12
514.858	91.12
515.074	77.12
515.29	82.12
515.506	77.12
515.721	84.12
515.937	75.12
516.153	78.12
516.369	81.12
516.585	78.12
516.801	98.12
517.016	73.12
517.232	75.12
517.448	81.12
517.664	78.12
517.879	91.12
518.095	91.12
518.311	93.12
518.527	88.12
518.742	76.12
518.958	80.12
519.173	86.12
519.389	90.12
519.605	76.12
519.82	81.12
520.036	88.12
520.251	77.12
520.467	91.12
520.682	84.12
520.898	81.12
521.113	81.12
521.329	83.12
521.544	76.12
521.76	78.12
521.975	95.12
522.19	80.12
522.406	94.12
522.621	65.12
522.836	85.12
523.052	82.12
523.267	85.12
523.482	85.12
523.698	85.12
523.913	103.12
524.128	84.12
524.343	67.12
524.559	94.12
524.774	85.12
524.989	80.12
525.204	78.12
525.419	96.12
525.634	87.12
525.849	85.12
526.064	95.12
526.28	86.12
526.495	76.12
526.71	91.12
526.925	84.12
527.14	70.12
527.355	80.12
527.57	101.12
527.785	93.12
527.999	81.12
528.214	85.12
528.429	82.12
528.644	82.12
528.859	81.12
529.074	79.12
529.289	86.12
529.503	88.12
529.718	87.12
529.933	85.12
530.148	89.12
530.363	79.12
530.577	81.12
530.792	95.12
531.007	90.12
531.221	68.12
531.436	93.12
531.651	86.12
531.865	97.12
532.08	83.12
532.295	94.12
532.509	82.12
532.724	82.12
532.938	82.12
533.153	73.12
533.367	85.12
533.582	86.12
533.796	75.12
534.011	91.12
534.225	77.12
534.44	84.12
534.654	86.12
534.868	67.12
535.083	82.12
535.297	78.12
535.511	85.12
535.726	89.12
535.94	89.12
536.154	84.12
536.369	93.12
536.583	73.12
536.797	101.12
537.011	96.12
537.225	70.12
537.44	78.12
537.654	89.12
537.868	83.12
538.082	77.12
538.296	85.12
538.51	87.12
538.724	91.12
538.938	74.12
539.153	97.12
539.367	89.12
539.581	75.12
539.795	81.12
540.009	89.12
540.222	88.12
540.436	82.12
540.65	95.12
540.864	89.12
541.078	90.12
541.292	106.12
541.506	87.12
541.72	82.12
541.934	79.12
542.147	82.12
542.361	87.12
542.575	83.12
542.789	78.12
543.002	86.12
543.216	89.12
543.43	86.12
543.644	87.12
543.857	86.12
544.071	93.12
544.285	88.12
544.498	90.12
544.712	89.12
544.925	81.12
545.139	74.12
545.352	90.12
545.566	81.12
545.779	89.12
545.993	103.12
546.206	103.12
546.42	80.12
546.633	63.12
546.847	88.12
547.06	80.12
547.274	102.12
547.487	88.12
547.7	85.12
547.914	81.12
548.127	93.12
548.34	88.12
548.554	87.12
548.767	98.12
548.98	88.12
549.193	97.12
549.407	84.12
549.62	74.12
549.833	73.12
550.046	96.12
550.259	88.12
550.473	106.12
550.686	91.12
550.899	80.12
551.112	79.12
551.325	71.12
551.538	85.12
551.751	92.12
551.964	89.12
552.177	94.12
552.39	81.12
552.603	89.12
552.816	87.12
553.029	84.12
553.242	81.12
553.455	77.12
553.667	80.12
553.88	72.12
554.093	93.12
554.306	88.12
554.519	86.12
554.732	90.12
554.944	90.12
555.157	104.12
555.37	95.12
555.583	82.12
555.795	84.12
556.008	76.12
556.221	88.12
556.433	78.12
556.646	91.12
556.859	113.12
557.071	86.12
557.284	90.12
557.496	93.12
557.709	86.12
557.921	92.12
558.134	89.12
558.346	91.12
558.559	102.12
558.771	91.12
558.984	84.12
559.196	85.12
559.409	80.12
559.621	86.12
559.833	89.12
560.046	70.12
560.258	86.12
560.47	89.12
560.683	80.12
560.895	96.12
561.107	89.12
561.32	87.12
561.532	86.12
561.744	101.12
561.956	92.12
562.168	88.12
562.381	74.12
562.593	78.12
562.805	85.12
563.017	93.12
563.229	79.12
563.441	67.12
563.653	101.12
563.865	73.12
564.077	91.12
564.289	79.12
564.501	86.12
564.713	90.12
564.925	93.12
565.137	78.12
565.349	82.12
565.561	94.12
565.773	73.12
565.985	95.12
566.197	94.12
566.408	97.12
566.62	86.12
566.832	77.12
567.044	100.12
567.255	86.12
567.467	79.12
567.679	62.12
567.891	76.12
568.102	82.12
568.314	88.12
568.526	91.12
568.737	92.12
568.949	77.12
569.161	78.12
569.372	92.12
569.584	80.12
569.795	111.12
570.007	95.12
570.218	75.12
570.43	89.12
570.641	92.12
570.853	86.12
571.064	83.12
571.276	90.12
571.487	72.12
571.698	78.12
571.91	88.12
572.121	81.12
572.333	93.12
572.544	85.12
572.755	92.12
572.966	77.12
573.178	71.12
573.389	77.12
573.6	79.12
573.811	79.12
574.023	87.12
574.234	88.12
574.445	91.12
574.656	92.12
574.867	70.12
575.078	82.12
575.289	87.12
575.501	95.12
575.712	83.12
575.923	85.12
576.134	92.12
576.345	87.12
576.556	90.12
576.767	102.12
576.978	89.12
577.188	95.12
577.399	80.12
577.61	97.12
577.821	73.12
578.032	76.12
578.243	97.12
578.454	102.12
578.665	106.12
578.875	85.12
579.086	88.12
579.297	92.12
579.508	91.12
579.718	100.12
579.929	88.12
580.14	110.12
580.35	95.12
580.561	89.12
580.772	102.12
580.982	98.12
581.193	89.12
581.403	101.12
581.614	84.12
581.825	87.12
582.035	83.12
582.246	74.12
582.456	80.12
582.667	78.12
582.877	80.12
583.087	91.12
583.298	87.12
583.508	93.12
583.719	87.12
583.929	85.12
584.139	78.12
584.35	82.12
584.56	80.12
584.77	83.12
584.981	83.12
585.191	97.12
585.401	84.12
585.611	82.12
585.821	93.12
586.032	84.12
586.242	88.12
586.452	84.12
586.662	81.12
586.872	83.12
587.082	80.12
587.292	73.12
587.502	81.12
587.713	84.12
587.923	92.12
588.133	98.12
588.343	82.12
588.553	100.12
588.762	102.12
588.972	147.12
589.182	302.12
589.392	213.12
589.602	148.12
589.812	282.12
590.022	170.12
590.232	108.12
590.441	92.12
590.651	82.12
590.861	81.12
591.071	87.12
591.281	96.12
591.49	82.12
591.7	92.12
591.91	94.12
592.119	81.12
592.329	92.12
592.539	80.12
592.748	87.12
592.958	84.12
593.167	74.12
593.377	88.12
593.587	86.12
593.796	71.12
594.006	78.12
594.215	76.12
594.424	91.12
594.634	84.12
594.843	85.12
595.053	93.12
595.262	77.12
595.472	88.12
595.681	80.12
595.89	80.12
596.1	83.12
596.309	87.12
596.518	81.12
596.727	88.12
596.937	88.12
597.146	94.12
597.355	77.12
597.564	82.12
597.774	87.12
597.983	89.12
598.192	86.12
598.401	80.12
598.61	76.12
598.819	89.12
599.028	80.12
599.237	79.12
599.446	86.12
599.655	76.12
599.864	86.12
600.073	84.12
600.282	91.12
600.491	90.12
600.7	81.12
600.909	84.12
601.118	89.12
601.327	84.12
601.536	80.12
601.745	83.12
601.953	78.12
602.162	82.12
602.371	98.12
602.58	90.12
602.789	90.12
602.997	84.12
603.206	88.12
603.415	81.12
603.623	75.12
603.832	78.12
604.041	82.12
604.249	75.12
604.458	84.12
604.666	74.12
604.875	84.12
605.084	84.12
605.292	94.12
605.501	93.12
605.709	79.12
605.918	90.12
606.126	80.12
606.334	81.12
606.543	80.12
606.751	80.12
606.96	93.12
607.168	76.12
607.376	72.12
607.585	81.12
607.793	86.12
608.001	92.12
608.21	86.12
608.418	76.12
608.626	100.12
608.834	78.12
609.043	78.12
609.251	94.12
609.459	67.12
609.667	87.12
609.875	91.12
610.083	85.12
610.291	77.12
610.499	76.12
610.707	75.12
610.916	79.12
611.124	98.12
611.332	90.12
611.54	87.12
611.748	80.12
611.955	93.12
612.163	89.12
612.371	89.12
612.579	82.12
612.787	95.12
612.995	101.12
613.203	88.12
613.411	83.12
613.618	91.12
613.826	88.12
614.034	77.12
614.242	92.12
614.449	89.12
614.657	85.12
614.865	78.12
615.072	88.12
615.28	79.12
615.488	72.12
615.695	90.12
615.903	90.12
616.111	83.12
616.318	103.12
616.526	91.12
616.733	86.12
616.941	92.12
617.148	77.12
617.356	94.12
617.563	84.12
617.771	83.12
617.978	79.12
618.185	89.12
618.393	88.12
618.6	99.12
618.807	95.12
619.015	93.12
619.222	90.12
619.429	85.12
619.637	84.12
619.844	79.12
620.051	85.12
620.258	89.12
620.466	93.12
620.673	89.12
620.88	78.12
621.087	87.12
621.294	77.12
621.501	79.12
621.708	100.12
621.915	83.12
622.122	94.12
622.329	94.12
622.536	93.12
622.743	77.12
622.95	88.12
623.157	84.12
623.364	90.12
623.571	86.12
623.778	82.12
623.985	97.12
624.192	79.12
624.399	81.12
624.606	86.12
624.812	71.12
625.019	78.12
625.226	91.12
625.433	78.12
625.639	82.12
625.846	91.12
626.053	78.12
626.259	77.12
626.466	94.12
626.673	73.12
626.879	91.12
627.086	100.12
627.293	70.12
627.499	89.12
627.706	84.12
627.912	86.12
628.119	81.12
628.325	75.12
628.532	81.12
628.738	75.12
628.945	86.12
629.151	80.12
629.357	81.12
629.564	86.12
629.77	90.12
629.976	90.12
630.183	59.12
630.389	85.12
630.595	89.12
630.802	102.12
631.008	94.12
631.214	95.12
631.42	77.12
631.627	88.12
631.833	80.12
632.039	82.12
632.245	83.12
632.451	91.12
632.657	96.12
632.863	85.12
633.069	70.12
633.275	71.12
633.481	102.12
633.688	71.12
633.893	88.12
634.099	85.12
634.305	87.12
634.511	90.12
634.717	98.12
634.923	81.12
635.129	88.12
635.335	80.12
635.541	87.12
635.747	90.12
635.952	89.12
636.158	70.12
636.364	93.12
636.57	76.12
636.775	81.12
636.981	95.12
637.187	76.12
637.392	81.12
637.598	84.12
637.804	76.12
638.009	82.12
638.215	81.12
638.421	79.12
638.626	70.12
638.832	70.12
639.037	82.12
639.243	77.12
639.448	72.12
639.654	82.12
639.859	78.12
640.065	77.12
640.27	97.12
640.475	92.12
640.681	79.12
640.886	81.12
641.091	74.12
641.297	75.12
641.502	72.12
641.707	77.12
641.913	72.12
642.118	76.12
642.323	88.12
642.528	88.12
642.733	84.12
642.939	87.12
643.144	89.12
643.349	87.12
643.554	89.12
643.759	84.12
643.964	72.12
644.169	82.12
644.374	91.12
644.579	94.12
644.784	88.12
644.989	75.12
645.194	76.12
645.399	85.12
645.604	92.12
645.809	84.12
646.014	76.12
646.219	83.12
646.423	74.12
646.628	80.12
646.833	80.12
647.038	73.12
647.243	86.12
647.447	78.12
647.652	84.12
647.857	85.12
648.062	85.12
648.266	87.12
648.471	86.12
648.676	76.12
648.88	74.12
649.085	71.12
649.289	83.12
649.494	82.12
649.698	78.12
649.903	70.12
650.107	89.12
650.312	78.12
650.516	89.12
650.721	94.12
650.925	82.12
651.13	78.12
651.334	81.12
651.539	95.12
651.743	82.12
651.947	78.12
652.152	92.12
652.356	92.12
652.56	81.12
652.764	74.12
652.969	75.12
653.173	84.12
653.377	94.12
653.581	80.12
653.785	85.12
653.99	72.12
654.194	64.12
654.398	78.12
654.602	73.12
654.806	88.12
655.01	71.12
655.214	77.12
655.418	88.12
655.622	70.12
655.826	80.12
656.03	77.12
656.234	84.12
656.438	81.12
656.642	72.12
656.846	74.12
657.049	80.12
657.253	77.12
657.457	76.12
657.661	76.12
657.865	96.12
658.068	78.12
658.272	79.12
658.476	75.12
658.68	74.12
658.883	84.12
659.087	82.12
659.291	95.12
659.494	85.12
659.698	78.12
659.901	77.12
660.105	77.12
660.309	76.12
660.512	82.12
660.716	91.12
660.919	88.12
661.123	82.12
661.326	87.12
661.53	86.12
661.733	73.12
661.936	79.12
662.14	66.12
662.343	85.12
662.546	90.12
662.75	99.12
662.953	83.12
663.156	93.12
663.36	85.12
663.563	64.12
663.766	67.12
663.969	80.12
664.173	89.12
664.376	87.12
664.579	84.12
664.782	80.12
664.985	92.12
665.188	70.12
665.391	84.12
665.594	90.12
665.797	72.12
666	72.12
666.203	72.12
666.406	85.12
666.609	92.12
666.812	86.12
667.015	72.12
667.218	74.12
667.421	96.12
667.624	81.12
667.827	84.12
668.03	85.12
668.232	82.12
668.435	73.12
668.638	81.12
668.841	92.12
669.043	70.12
669.246	90.12
669.449	78.12
669.651	80.12
669.854	89.12
670.057	82.12
670.259	73.12
670.462	77.12
670.665	71.12
670.867	84.12
671.07	75.12
671.272	82.12
671.475	86.12
671.677	99.12
671.88	77.12
672.082	85.12
672.284	78.12
672.487	82.12
672.689	75.12
672.892	77.12
