Data from Cut_Leaves_50_1_HRD10591_00017.txt Node
Date: Wed Dec 03 14:18:35 EST 2025
User: Yrep
Spectrometer: HR+D1059
Trigger mode: 1
Integration Time (sec): 1.000000E-1
Scans to average: 1
Electric dark correction enabled: true
Nonlinearity correction enabled: false
Boxcar width: 0
XAxis mode: Wavelengths
Number of Pixels in Spectrum: 2048
>>>>>Begin Spectral Data<<<<<
223.165	-21.19
223.4	-21.19
223.635	-21.19
223.869	-24.19
224.104	-18.19
224.338	-13.19
224.573	-26.19
224.808	-9.19
225.042	-3.19
225.277	-0.19
225.511	-7.19
225.746	-4.19
225.98	12.81
226.215	5.81
226.449	24.81
226.683	29.81
226.918	31.81
227.152	21.81
227.387	35.81
227.621	33.81
227.856	33.81
228.09	33.81
228.324	44.81
228.559	54.81
228.793	57.81
229.027	62.81
229.262	62.81
229.496	52.81
229.73	81.81
229.964	65.81
230.199	80.81
230.433	61.81
230.667	67.81
230.901	74.81
231.136	81.81
231.37	93.81
231.604	75.81
231.838	62.81
232.072	72.81
232.306	79.81
232.541	66.81
232.775	77.81
233.009	75.81
233.243	80.81
233.477	72.81
233.711	68.81
233.945	69.81
234.179	82.81
234.413	85.81
234.647	70.81
234.881	85.81
235.115	85.81
235.349	74.81
235.583	85.81
235.817	83.81
236.051	78.81
236.285	74.81
236.519	68.81
236.753	65.81
236.987	64.81
237.221	71.81
237.455	81.81
237.689	65.81
237.922	78.81
238.156	70.81
238.39	71.81
238.624	77.81
238.858	76.81
239.091	79.81
239.325	70.81
239.559	68.81
239.793	67.81
240.027	68.81
240.26	76.81
240.494	75.81
240.728	62.81
240.961	63.81
241.195	74.81
241.429	73.81
241.662	56.81
241.896	61.81
242.13	69.81
242.363	77.81
242.597	67.81
242.83	90.81
243.064	68.81
243.298	76.81
243.531	80.81
243.765	83.81
243.998	77.81
244.232	83.81
244.465	75.81
244.699	67.81
244.932	75.81
245.166	67.81
245.399	70.81
245.633	68.81
245.866	80.81
246.099	75.81
246.333	77.81
246.566	73.81
246.8	71.81
247.033	78.81
247.266	76.81
247.5	64.81
247.733	77.81
247.966	72.81
248.2	81.81
248.433	86.81
248.666	79.81
248.899	65.81
249.133	72.81
249.366	75.81
249.599	85.81
249.832	65.81
250.066	63.81
250.299	74.81
250.532	74.81
250.765	77.81
250.998	68.81
251.231	74.81
251.465	70.81
251.698	79.81
251.931	78.81
252.164	70.81
252.397	70.81
252.63	81.81
252.863	87.81
253.096	68.81
253.329	77.81
253.562	75.81
253.795	87.81
254.028	83.81
254.261	74.81
254.494	76.81
254.727	70.81
254.96	75.81
255.193	63.81
255.426	71.81
255.659	89.81
255.892	73.81
256.124	68.81
256.357	85.81
256.59	80.81
256.823	87.81
257.056	65.81
257.289	87.81
257.521	78.81
257.754	70.81
257.987	65.81
258.22	88.81
258.452	90.81
258.685	83.81
258.918	80.81
259.151	68.81
259.383	79.81
259.616	72.81
259.849	72.81
260.081	81.81
260.314	87.81
260.547	73.81
260.779	88.81
261.012	73.81
261.244	68.81
261.477	72.81
261.71	77.81
261.942	87.81
262.175	89.81
262.407	69.81
262.64	85.81
262.872	86.81
263.105	95.81
263.337	78.81
263.57	81.81
263.802	79.81
264.035	77.81
264.267	83.81
264.499	84.81
264.732	86.81
264.964	88.81
265.197	77.81
265.429	77.81
265.661	60.81
265.894	70.81
266.126	73.81
266.358	97.81
266.591	79.81
266.823	64.81
267.055	68.81
267.287	69.81
267.52	80.81
267.752	87.81
267.984	71.81
268.216	80.81
268.448	88.81
268.681	73.81
268.913	82.81
269.145	70.81
269.377	80.81
269.609	79.81
269.841	78.81
270.073	72.81
270.306	82.81
270.538	75.81
270.77	78.81
271.002	82.81
271.234	83.81
271.466	71.81
271.698	77.81
271.93	84.81
272.162	91.81
272.394	87.81
272.626	84.81
272.858	65.81
273.09	87.81
273.322	80.81
273.553	72.81
273.785	70.81
274.017	83.81
274.249	71.81
274.481	78.81
274.713	77.81
274.945	86.81
275.176	80.81
275.408	75.81
275.64	78.81
275.872	87.81
276.104	89.81
276.335	86.81
276.567	80.81
276.799	91.81
277.031	76.81
277.262	67.81
277.494	79.81
277.726	82.81
277.957	76.81
278.189	94.81
278.421	80.81
278.652	89.81
278.884	84.81
279.115	87.81
279.347	83.81
279.579	84.81
279.81	78.81
280.042	71.81
280.273	69.81
280.505	80.81
280.736	84.81
280.968	76.81
281.199	73.81
281.431	83.81
281.662	75.81
281.894	81.81
282.125	65.81
282.356	70.81
282.588	78.81
282.819	86.81
283.051	78.81
283.282	71.81
283.513	70.81
283.745	83.81
283.976	80.81
284.207	73.81
284.439	78.81
284.67	97.81
284.901	85.81
285.132	90.81
285.364	90.81
285.595	77.81
285.826	88.81
286.057	87.81
286.288	80.81
286.52	83.81
286.751	76.81
286.982	80.81
287.213	74.81
287.444	65.81
287.675	76.81
287.906	81.81
288.138	71.81
288.369	84.81
288.6	76.81
288.831	85.81
289.062	90.81
289.293	83.81
289.524	65.81
289.755	69.81
289.986	95.81
290.217	73.81
290.448	81.81
290.679	86.81
290.91	85.81
291.141	90.81
291.371	87.81
291.602	67.81
291.833	87.81
292.064	80.81
292.295	83.81
292.526	86.81
292.757	73.81
292.987	88.81
293.218	84.81
293.449	75.81
293.68	81.81
293.91	85.81
294.141	83.81
294.372	85.81
294.603	69.81
294.833	83.81
295.064	83.81
295.295	76.81
295.525	85.81
295.756	74.81
295.987	86.81
296.217	77.81
296.448	85.81
296.679	87.81
296.909	88.81
297.14	87.81
297.37	85.81
297.601	72.81
297.831	81.81
298.062	68.81
298.292	74.81
298.523	91.81
298.753	85.81
298.984	64.81
299.214	78.81
299.445	84.81
299.675	87.81
299.905	69.81
300.136	83.81
300.366	83.81
300.597	88.81
300.827	84.81
301.057	88.81
301.288	89.81
301.518	84.81
301.748	69.81
301.979	103.81
302.209	71.81
302.439	77.81
302.669	87.81
302.9	80.81
303.13	75.81
303.36	81.81
303.59	80.81
303.82	80.81
304.051	83.81
304.281	76.81
304.511	73.81
304.741	97.81
304.971	75.81
305.201	81.81
305.431	86.81
305.661	87.81
305.891	89.81
306.121	85.81
306.352	78.81
306.582	79.81
306.812	73.81
307.042	73.81
307.272	87.81
307.502	84.81
307.731	83.81
307.961	88.81
308.191	80.81
308.421	79.81
308.651	80.81
308.881	83.81
309.111	80.81
309.341	82.81
309.571	87.81
309.8	76.81
310.03	85.81
310.26	75.81
310.49	67.81
310.72	76.81
310.949	91.81
311.179	84.81
311.409	103.81
311.639	91.81
311.868	84.81
312.098	79.81
312.328	89.81
312.557	74.81
312.787	72.81
313.017	82.81
313.246	91.81
313.476	73.81
313.706	78.81
313.935	79.81
314.165	79.81
314.394	83.81
314.624	76.81
314.853	87.81
315.083	95.81
315.312	76.81
315.542	78.81
315.771	92.81
316.001	75.81
316.23	75.81
316.46	92.81
316.689	104.81
316.919	81.81
317.148	92.81
317.377	71.81
317.607	95.81
317.836	71.81
318.065	77.81
318.295	75.81
318.524	88.81
318.753	72.81
318.983	62.81
319.212	87.81
319.441	95.81
319.67	83.81
319.9	91.81
320.129	87.81
320.358	79.81
320.587	74.81
320.816	78.81
321.046	77.81
321.275	92.81
321.504	84.81
321.733	84.81
321.962	81.81
322.191	85.81
322.42	81.81
322.649	92.81
322.878	86.81
323.108	92.81
323.337	90.81
323.566	72.81
323.795	99.81
324.024	78.81
324.253	68.81
324.482	80.81
324.71	84.81
324.939	69.81
325.168	89.81
325.397	80.81
325.626	74.81
325.855	77.81
326.084	84.81
326.313	84.81
326.542	70.81
326.77	87.81
326.999	92.81
327.228	78.81
327.457	90.81
327.686	71.81
327.914	69.81
328.143	83.81
328.372	93.81
328.6	85.81
328.829	91.81
329.058	77.81
329.287	87.81
329.515	79.81
329.744	88.81
329.972	77.81
330.201	93.81
330.43	75.81
330.658	77.81
330.887	65.81
331.115	68.81
331.344	89.81
331.572	70.81
331.801	63.81
332.03	86.81
332.258	85.81
332.486	85.81
332.715	76.81
332.943	79.81
333.172	97.81
333.4	85.81
333.629	86.81
333.857	75.81
334.085	80.81
334.314	74.81
334.542	77.81
334.771	91.81
334.999	88.81
335.227	73.81
335.455	87.81
335.684	78.81
335.912	81.81
336.14	74.81
336.369	75.81
336.597	78.81
336.825	77.81
337.053	87.81
337.281	70.81
337.51	80.81
337.738	79.81
337.966	83.81
338.194	84.81
338.422	72.81
338.65	92.81
338.878	84.81
339.106	80.81
339.334	90.81
339.562	68.81
339.79	85.81
340.018	84.81
340.246	80.81
340.474	87.81
340.702	79.81
340.93	88.81
341.158	77.81
341.386	68.81
341.614	84.81
341.842	87.81
342.07	73.81
342.298	77.81
342.526	78.81
342.754	92.81
342.981	80.81
343.209	95.81
343.437	77.81
343.665	91.81
343.893	72.81
344.12	91.81
344.348	85.81
344.576	78.81
344.804	72.81
345.031	74.81
345.259	88.81
345.487	90.81
345.714	83.81
345.942	86.81
346.17	69.81
346.397	71.81
346.625	76.81
346.853	83.81
347.08	75.81
347.308	85.81
347.535	74.81
347.763	99.81
347.99	74.81
348.218	79.81
348.445	83.81
348.673	84.81
348.9	85.81
349.128	85.81
349.355	80.81
349.583	90.81
349.81	80.81
350.037	76.81
350.265	71.81
350.492	77.81
350.72	75.81
350.947	61.81
351.174	83.81
351.402	76.81
351.629	56.81
351.856	85.81
352.083	80.81
352.311	78.81
352.538	81.81
352.765	74.81
352.992	81.81
353.22	84.81
353.447	87.81
353.674	79.81
353.901	75.81
354.128	91.81
354.355	91.81
354.583	75.81
354.81	76.81
355.037	85.81
355.264	86.81
355.491	86.81
355.718	79.81
355.945	103.81
356.172	92.81
356.399	83.81
356.626	86.81
356.853	85.81
357.08	83.81
357.307	61.81
357.534	83.81
357.761	87.81
357.988	87.81
358.215	92.81
358.441	74.81
358.668	72.81
358.895	90.81
359.122	91.81
359.349	89.81
359.576	76.81
359.802	75.81
360.029	71.81
360.256	93.81
360.483	78.81
360.709	97.81
360.936	87.81
361.163	77.81
361.39	87.81
361.616	96.81
361.843	81.81
362.07	81.81
362.296	84.81
362.523	81.81
362.749	85.81
362.976	65.81
363.203	85.81
363.429	71.81
363.656	72.81
363.882	87.81
364.109	70.81
364.335	99.81
364.562	83.81
364.788	77.81
365.015	85.81
365.241	91.81
365.468	87.81
365.694	89.81
365.92	85.81
366.147	86.81
366.373	72.81
366.599	61.81
366.826	76.81
367.052	80.81
367.278	92.81
367.505	85.81
367.731	79.81
367.957	75.81
368.184	75.81
368.41	89.81
368.636	75.81
368.862	74.81
369.089	76.81
369.315	84.81
369.541	83.81
369.767	87.81
369.993	88.81
370.219	80.81
370.445	86.81
370.672	85.81
370.898	77.81
371.124	91.81
371.35	87.81
371.576	87.81
371.802	73.81
372.028	88.81
372.254	73.81
372.48	72.81
372.706	77.81
372.932	75.81
373.158	69.81
373.384	75.81
373.61	69.81
373.835	64.81
374.061	80.81
374.287	78.81
374.513	78.81
374.739	72.81
374.965	80.81
375.191	90.81
375.416	83.81
375.642	88.81
375.868	75.81
376.094	80.81
376.319	93.81
376.545	86.81
376.771	88.81
376.997	83.81
377.222	78.81
377.448	79.81
377.674	75.81
377.899	70.81
378.125	65.81
378.35	81.81
378.576	72.81
378.802	80.81
379.027	77.81
379.253	86.81
379.478	66.81
379.704	84.81
379.929	97.81
380.155	81.81
380.38	82.81
380.606	85.81
380.831	75.81
381.057	87.81
381.282	68.81
381.507	66.81
381.733	68.81
381.958	68.81
382.184	76.81
382.409	87.81
382.634	76.81
382.86	73.81
383.085	69.81
383.31	84.81
383.535	81.81
383.761	79.81
383.986	77.81
384.211	72.81
384.436	81.81
384.662	74.81
384.887	69.81
385.112	73.81
385.337	83.81
385.562	89.81
385.787	89.81
386.013	85.81
386.238	70.81
386.463	80.81
386.688	97.81
386.913	92.81
387.138	95.81
387.363	87.81
387.588	71.81
387.813	89.81
388.038	69.81
388.263	74.81
388.488	71.81
388.713	87.81
388.938	69.81
389.163	87.81
389.387	84.81
389.612	68.81
389.837	87.81
390.062	76.81
390.287	88.81
390.512	75.81
390.736	65.81
390.961	65.81
391.186	74.81
391.411	81.81
391.636	84.81
391.86	71.81
392.085	66.81
392.31	80.81
392.534	91.81
392.759	87.81
392.984	75.81
393.208	91.81
393.433	99.81
393.658	80.81
393.882	71.81
394.107	102.81
394.331	77.81
394.556	91.81
394.78	77.81
395.005	73.81
395.229	76.81
395.454	83.81
395.678	79.81
395.903	74.81
396.127	78.81
396.352	85.81
396.576	71.81
396.801	80.81
397.025	95.81
397.249	92.81
397.474	74.81
397.698	71.81
397.922	69.81
398.147	76.81
398.371	79.81
398.595	66.81
398.82	77.81
399.044	73.81
399.268	90.81
399.492	88.81
399.717	77.81
399.941	101.81
400.165	78.81
400.389	76.81
400.613	76.81
400.837	91.81
401.062	69.81
401.286	72.81
401.51	76.81
401.734	76.81
401.958	93.81
402.182	67.81
402.406	72.81
402.63	76.81
402.854	93.81
403.078	78.81
403.302	97.81
403.526	94.81
403.75	70.81
403.974	73.81
404.198	75.81
404.422	88.81
404.645	89.81
404.869	79.81
405.093	85.81
405.317	75.81
405.541	74.81
405.765	73.81
405.988	71.81
406.212	75.81
406.436	68.81
406.66	77.81
406.883	80.81
407.107	76.81
407.331	76.81
407.555	72.81
407.778	67.81
408.002	77.81
408.226	74.81
408.449	88.81
408.673	79.81
408.896	77.81
409.12	85.81
409.344	70.81
409.567	75.81
409.791	72.81
410.014	87.81
410.238	70.81
410.461	85.81
410.685	71.81
410.908	71.81
411.132	70.81
411.355	80.81
411.578	76.81
411.802	79.81
412.025	72.81
412.249	87.81
412.472	88.81
412.695	80.81
412.919	81.81
413.142	83.81
413.365	48.81
413.589	66.81
413.812	87.81
414.035	83.81
414.258	73.81
414.482	90.81
414.705	87.81
414.928	82.81
415.151	86.81
415.374	78.81
415.597	81.81
415.821	65.81
416.044	78.81
416.267	84.81
416.49	85.81
416.713	78.81
416.936	87.81
417.159	87.81
417.382	69.81
417.605	76.81
417.828	83.81
418.051	73.81
418.274	77.81
418.497	74.81
418.72	65.81
418.943	80.81
419.166	73.81
419.389	81.81
419.611	90.81
419.834	72.81
420.057	75.81
420.28	63.81
420.503	93.81
420.726	71.81
420.948	81.81
421.171	80.81
421.394	91.81
421.617	73.81
421.839	71.81
422.062	84.81
422.285	81.81
422.507	81.81
422.73	99.81
422.953	92.81
423.175	79.81
423.398	80.81
423.621	89.81
423.843	79.81
424.066	73.81
424.288	81.81
424.511	68.81
424.733	83.81
424.956	71.81
425.178	75.81
425.401	64.81
425.623	83.81
425.846	78.81
426.068	85.81
426.291	73.81
426.513	72.81
426.735	67.81
426.958	78.81
427.18	77.81
427.402	79.81
427.625	72.81
427.847	77.81
428.069	71.81
428.292	85.81
428.514	89.81
428.736	79.81
428.958	67.81
429.181	92.81
429.403	78.81
429.625	78.81
429.847	83.81
430.069	74.81
430.292	103.81
430.514	86.81
430.736	55.81
430.958	71.81
431.18	86.81
431.402	75.81
431.624	74.81
431.846	77.81
432.068	70.81
432.29	64.81
432.512	74.81
432.734	71.81
432.956	78.81
433.178	79.81
433.4	81.81
433.622	71.81
433.844	78.81
434.066	79.81
434.287	79.81
434.509	59.81
434.731	95.81
434.953	75.81
435.175	78.81
435.397	84.81
435.618	87.81
435.84	78.81
436.062	77.81
436.284	70.81
436.505	81.81
436.727	62.81
436.949	71.81
437.17	69.81
437.392	90.81
437.614	67.81
437.835	69.81
438.057	69.81
438.278	72.81
438.5	78.81
438.721	76.81
438.943	71.81
439.165	78.81
439.386	88.81
439.608	89.81
439.829	76.81
440.05	86.81
440.272	95.81
440.493	84.81
440.715	75.81
440.936	68.81
441.158	65.81
441.379	83.81
441.6	70.81
441.822	78.81
442.043	69.81
442.264	96.81
442.486	75.81
442.707	88.81
442.928	71.81
443.149	70.81
443.371	96.81
443.592	69.81
443.813	85.81
444.034	79.81
444.255	69.81
444.476	64.81
444.698	93.81
444.919	78.81
445.14	151.81
445.361	115.81
445.582	80.81
445.803	81.81
446.024	80.81
446.245	78.81
446.466	80.81
446.687	68.81
446.908	74.81
447.129	75.81
447.35	87.81
447.571	77.81
447.792	82.81
448.013	75.81
448.234	76.81
448.455	61.81
448.675	80.81
448.896	73.81
449.117	85.81
449.338	60.81
449.559	68.81
449.779	68.81
450	81.81
450.221	91.81
450.442	72.81
450.662	83.81
450.883	87.81
451.104	77.81
451.324	67.81
451.545	93.81
451.766	81.81
451.986	70.81
452.207	79.81
452.428	75.81
452.648	82.81
452.869	85.81
453.089	78.81
453.31	61.81
453.53	79.81
453.751	70.81
453.971	70.81
454.192	80.81
454.412	69.81
454.633	66.81
454.853	79.81
455.073	69.81
455.294	71.81
455.514	69.81
455.734	71.81
455.955	81.81
456.175	70.81
456.395	75.81
456.616	87.81
456.836	81.81
457.056	75.81
457.276	74.81
457.497	74.81
457.717	84.81
457.937	84.81
458.157	78.81
458.377	79.81
458.598	71.81
458.818	77.81
459.038	83.81
459.258	68.81
459.478	81.81
459.698	89.81
459.918	85.81
460.138	72.81
460.358	87.81
460.578	87.81
460.798	81.81
461.018	76.81
461.238	81.81
461.458	69.81
461.678	59.81
461.898	74.81
462.118	81.81
462.338	67.81
462.558	70.81
462.777	71.81
462.997	80.81
463.217	75.81
463.437	72.81
463.657	85.81
463.876	81.81
464.096	73.81
464.316	101.81
464.536	81.81
464.755	71.81
464.975	68.81
465.195	75.81
465.414	79.81
465.634	87.81
465.854	70.81
466.073	77.81
466.293	74.81
466.512	77.81
466.732	84.81
466.951	91.81
467.171	64.81
467.391	80.81
467.61	70.81
467.829	69.81
468.049	75.81
468.268	78.81
468.488	92.81
468.707	75.81
468.927	84.81
469.146	77.81
469.365	79.81
469.585	86.81
469.804	75.81
470.023	76.81
470.243	90.81
470.462	79.81
470.681	84.81
470.901	83.81
471.12	80.81
471.339	79.81
471.558	67.81
471.777	60.81
471.997	84.81
472.216	81.81
472.435	91.81
472.654	74.81
472.873	77.81
473.092	78.81
473.311	68.81
473.53	82.81
473.749	80.81
473.968	80.81
474.187	77.81
474.406	70.81
474.625	78.81
474.844	80.81
475.063	78.81
475.282	85.81
475.501	86.81
475.72	81.81
475.939	76.81
476.158	71.81
476.377	73.81
476.596	84.81
476.814	85.81
477.033	87.81
477.252	80.81
477.471	87.81
477.69	74.81
477.908	79.81
478.127	88.81
478.346	74.81
478.564	72.81
478.783	85.81
479.002	83.81
479.22	70.81
479.439	78.81
479.658	78.81
479.876	67.81
480.095	83.81
480.313	72.81
480.532	77.81
480.751	86.81
480.969	81.81
481.188	93.81
481.406	57.81
481.624	65.81
481.843	86.81
482.061	67.81
482.28	82.81
482.498	74.81
482.717	77.81
482.935	81.81
483.153	80.81
483.372	70.81
483.59	78.81
483.808	54.81
484.027	78.81
484.245	80.81
484.463	62.81
484.681	84.81
484.9	78.81
485.118	63.81
485.336	65.81
485.554	74.81
485.772	73.81
485.99	73.81
486.209	92.81
486.427	86.81
486.645	75.81
486.863	66.81
487.081	80.81
487.299	66.81
487.517	74.81
487.735	78.81
487.953	91.81
488.171	73.81
488.389	68.81
488.607	92.81
488.825	88.81
489.043	64.81
489.261	92.81
489.479	58.81
489.696	60.81
489.914	69.81
490.132	67.81
490.35	81.81
490.568	68.81
490.786	62.81
491.003	84.81
491.221	76.81
491.439	85.81
491.657	82.81
491.874	91.81
492.092	94.81
492.31	74.81
492.527	63.81
492.745	73.81
492.963	76.81
493.18	90.81
493.398	88.81
493.615	84.81
493.833	69.81
494.05	57.81
494.268	86.81
494.485	79.81
494.703	88.81
494.92	89.81
495.138	75.81
495.355	68.81
495.573	76.81
495.79	81.81
496.008	76.81
496.225	78.81
496.442	75.81
496.66	91.81
496.877	99.81
497.094	89.81
497.312	86.81
497.529	85.81
497.746	97.81
497.963	70.81
498.181	88.81
498.398	75.81
498.615	76.81
498.832	92.81
499.049	77.81
499.267	73.81
499.484	94.81
499.701	72.81
499.918	67.81
500.135	71.81
500.352	64.81
500.569	73.81
500.786	87.81
501.003	83.81
501.22	85.81
501.437	70.81
501.654	74.81
501.871	78.81
502.088	74.81
502.305	96.81
502.522	72.81
502.739	88.81
502.956	91.81
503.172	71.81
503.389	75.81
503.606	76.81
503.823	73.81
504.04	74.81
504.256	79.81
504.473	81.81
504.69	70.81
504.907	87.81
505.123	87.81
505.34	82.81
505.557	84.81
505.773	83.81
505.99	76.81
506.207	73.81
506.423	75.81
506.64	65.81
506.856	66.81
507.073	89.81
507.289	87.81
507.506	76.81
507.722	68.81
507.939	64.81
508.155	76.81
508.372	71.81
508.588	100.81
508.805	95.81
509.021	74.81
509.238	78.81
509.454	69.81
509.67	71.81
509.887	77.81
510.103	75.81
510.319	89.81
510.536	80.81
510.752	80.81
510.968	77.81
511.184	87.81
511.401	93.81
511.617	73.81
511.833	80.81
512.049	82.81
512.265	79.81
512.481	79.81
512.698	83.81
512.914	93.81
513.13	77.81
513.346	77.81
513.562	76.81
513.778	79.81
513.994	88.81
514.21	72.81
514.426	82.81
514.642	88.81
514.858	76.81
515.074	78.81
515.29	70.81
515.506	87.81
515.721	81.81
515.937	85.81
516.153	93.81
516.369	82.81
516.585	89.81
516.801	80.81
517.016	91.81
517.232	79.81
517.448	85.81
517.664	92.81
517.879	71.81
518.095	83.81
518.311	83.81
518.527	81.81
518.742	58.81
518.958	70.81
519.173	79.81
519.389	76.81
519.605	77.81
519.82	75.81
520.036	70.81
520.251	67.81
520.467	85.81
520.682	84.81
520.898	70.81
521.113	81.81
521.329	68.81
521.544	65.81
521.76	91.81
521.975	80.81
522.19	92.81
522.406	92.81
522.621	81.81
522.836	76.81
523.052	72.81
523.267	78.81
523.482	71.81
523.698	68.81
523.913	79.81
524.128	74.81
524.343	83.81
524.559	95.81
524.774	95.81
524.989	75.81
525.204	87.81
525.419	80.81
525.634	74.81
525.849	73.81
526.064	80.81
526.28	92.81
526.495	86.81
526.71	78.81
526.925	73.81
527.14	77.81
527.355	68.81
527.57	86.81
527.785	83.81
527.999	79.81
528.214	77.81
528.429	81.81
528.644	86.81
528.859	74.81
529.074	73.81
529.289	88.81
529.503	77.81
529.718	61.81
529.933	87.81
530.148	80.81
530.363	80.81
530.577	80.81
530.792	86.81
531.007	84.81
531.221	78.81
531.436	92.81
531.651	91.81
531.865	70.81
532.08	82.81
532.295	89.81
532.509	78.81
532.724	85.81
532.938	79.81
533.153	67.81
533.367	73.81
533.582	87.81
533.796	79.81
534.011	85.81
534.225	66.81
534.44	93.81
534.654	84.81
534.868	84.81
535.083	85.81
535.297	81.81
535.511	78.81
535.726	73.81
535.94	74.81
536.154	92.81
536.369	80.81
536.583	76.81
536.797	81.81
537.011	96.81
537.225	80.81
537.44	68.81
537.654	72.81
537.868	85.81
538.082	71.81
538.296	67.81
538.51	79.81
538.724	76.81
538.938	79.81
539.153	79.81
539.367	70.81
539.581	85.81
539.795	89.81
540.009	98.81
540.222	89.81
540.436	87.81
540.65	89.81
540.864	79.81
541.078	84.81
541.292	72.81
541.506	73.81
541.72	73.81
541.934	78.81
542.147	89.81
542.361	92.81
542.575	90.81
542.789	77.81
543.002	80.81
543.216	81.81
543.43	73.81
543.644	91.81
543.857	80.81
544.071	79.81
544.285	69.81
544.498	69.81
544.712	80.81
544.925	89.81
545.139	88.81
545.352	89.81
545.566	92.81
545.779	76.81
545.993	78.81
546.206	88.81
546.42	79.81
546.633	67.81
546.847	77.81
547.06	72.81
547.274	71.81
547.487	89.81
547.7	89.81
547.914	79.81
548.127	87.81
548.34	87.81
548.554	97.81
548.767	86.81
548.98	80.81
549.193	85.81
549.407	79.81
549.62	91.81
549.833	67.81
550.046	95.81
550.259	67.81
550.473	85.81
550.686	96.81
550.899	85.81
551.112	76.81
551.325	78.81
551.538	86.81
551.751	91.81
551.964	88.81
552.177	104.81
552.39	103.81
552.603	74.81
552.816	75.81
553.029	92.81
553.242	93.81
553.455	77.81
553.667	96.81
553.88	75.81
554.093	96.81
554.306	95.81
554.519	83.81
554.732	83.81
554.944	88.81
555.157	92.81
555.37	92.81
555.583	88.81
555.795	97.81
556.008	88.81
556.221	87.81
556.433	87.81
556.646	87.81
556.859	90.81
557.071	92.81
557.284	88.81
557.496	87.81
557.709	92.81
557.921	110.81
558.134	85.81
558.346	76.81
558.559	91.81
558.771	88.81
558.984	70.81
559.196	77.81
559.409	75.81
559.621	87.81
559.833	89.81
560.046	80.81
560.258	83.81
560.47	66.81
560.683	88.81
560.895	87.81
561.107	86.81
561.32	93.81
561.532	80.81
561.744	89.81
561.956	79.81
562.168	73.81
562.381	87.81
562.593	71.81
562.805	88.81
563.017	91.81
563.229	83.81
563.441	97.81
563.653	77.81
563.865	77.81
564.077	73.81
564.289	80.81
564.501	93.81
564.713	80.81
564.925	87.81
565.137	96.81
565.349	109.81
565.561	101.81
565.773	84.81
565.985	79.81
566.197	78.81
566.408	72.81
566.62	81.81
566.832	72.81
567.044	91.81
567.255	75.81
567.467	78.81
567.679	88.81
567.891	72.81
568.102	85.81
568.314	86.81
568.526	83.81
568.737	96.81
568.949	83.81
569.161	79.81
569.372	69.81
569.584	76.81
569.795	90.81
570.007	69.81
570.218	90.81
570.43	79.81
570.641	79.81
570.853	91.81
571.064	88.81
571.276	77.81
571.487	78.81
571.698	77.81
571.91	83.81
572.121	99.81
572.333	75.81
572.544	84.81
572.755	99.81
572.966	80.81
573.178	81.81
573.389	71.81
573.6	65.81
573.811	83.81
574.023	85.81
574.234	88.81
574.445	97.81
574.656	71.81
574.867	77.81
575.078	96.81
575.289	76.81
575.501	86.81
575.712	97.81
575.923	88.81
576.134	77.81
576.345	72.81
576.556	78.81
576.767	92.81
576.978	80.81
577.188	65.81
577.399	100.81
577.61	87.81
577.821	80.81
578.032	81.81
578.243	89.81
578.454	78.81
578.665	71.81
578.875	70.81
579.086	74.81
579.297	90.81
579.508	75.81
579.718	90.81
579.929	80.81
580.14	66.81
580.35	98.81
580.561	86.81
580.772	92.81
580.982	81.81
581.193	88.81
581.403	104.81
581.614	91.81
581.825	73.81
582.035	84.81
582.246	73.81
582.456	77.81
582.667	77.81
582.877	87.81
583.087	87.81
583.298	84.81
583.508	92.81
583.719	81.81
583.929	75.81
584.139	79.81
584.35	71.81
584.56	75.81
584.77	86.81
584.981	81.81
585.191	78.81
585.401	77.81
585.611	79.81
585.821	96.81
586.032	89.81
586.242	92.81
586.452	93.81
586.662	79.81
586.872	83.81
587.082	84.81
587.292	78.81
587.502	72.81
587.713	61.81
587.923	99.81
588.133	92.81
588.343	81.81
588.553	87.81
588.762	95.81
588.972	138.81
589.182	258.81
589.392	167.81
589.602	139.81
589.812	220.81
590.022	125.81
590.232	94.81
590.441	87.81
590.651	80.81
590.861	96.81
591.071	72.81
591.281	84.81
591.49	89.81
591.7	81.81
591.91	71.81
592.119	90.81
592.329	66.81
592.539	96.81
592.748	84.81
592.958	82.81
593.167	72.81
593.377	85.81
593.587	101.81
593.796	94.81
594.006	94.81
594.215	79.81
594.424	85.81
594.634	92.81
594.843	89.81
595.053	77.81
595.262	72.81
595.472	74.81
595.681	88.81
595.89	64.81
596.1	85.81
596.309	74.81
596.518	84.81
596.727	93.81
596.937	89.81
597.146	84.81
597.355	88.81
597.564	79.81
597.774	84.81
597.983	81.81
598.192	87.81
598.401	92.81
598.61	94.81
598.819	83.81
599.028	86.81
599.237	90.81
599.446	86.81
599.655	87.81
599.864	78.81
600.073	87.81
600.282	85.81
600.491	86.81
600.7	71.81
600.909	81.81
601.118	80.81
601.327	89.81
601.536	91.81
601.745	77.81
601.953	92.81
602.162	98.81
602.371	70.81
602.58	79.81
602.789	85.81
602.997	88.81
603.206	80.81
603.415	76.81
603.623	82.81
603.832	85.81
604.041	98.81
604.249	88.81
604.458	85.81
604.666	88.81
604.875	92.81
605.084	81.81
605.292	89.81
605.501	107.81
605.709	74.81
605.918	81.81
606.126	92.81
606.334	94.81
606.543	75.81
606.751	93.81
606.96	94.81
607.168	86.81
607.376	85.81
607.585	90.81
607.793	89.81
608.001	83.81
608.21	64.81
608.418	93.81
608.626	87.81
608.834	81.81
609.043	73.81
609.251	86.81
609.459	89.81
609.667	85.81
609.875	78.81
610.083	80.81
610.291	63.81
610.499	83.81
610.707	89.81
610.916	86.81
611.124	89.81
611.332	89.81
611.54	78.81
611.748	85.81
611.955	94.81
612.163	93.81
612.371	86.81
612.579	93.81
612.787	79.81
612.995	87.81
613.203	76.81
613.411	80.81
613.618	103.81
613.826	93.81
614.034	94.81
614.242	100.81
614.449	79.81
614.657	94.81
614.865	95.81
615.072	91.81
615.28	90.81
615.488	93.81
615.695	86.81
615.903	87.81
616.111	90.81
616.318	105.81
616.526	96.81
616.733	82.81
616.941	100.81
617.148	91.81
617.356	78.81
617.563	93.81
617.771	95.81
617.978	85.81
618.185	83.81
618.393	100.81
618.6	89.81
618.807	87.81
619.015	91.81
619.222	82.81
619.429	91.81
619.637	78.81
619.844	93.81
620.051	98.81
620.258	96.81
620.466	77.81
620.673	89.81
620.88	76.81
621.087	89.81
621.294	83.81
621.501	96.81
621.708	75.81
621.915	82.81
622.122	95.81
622.329	90.81
622.536	99.81
622.743	83.81
622.95	78.81
623.157	90.81
623.364	76.81
623.571	93.81
623.778	93.81
623.985	79.81
624.192	86.81
624.399	102.81
624.606	93.81
624.812	97.81
625.019	100.81
625.226	90.81
625.433	99.81
625.639	91.81
625.846	68.81
626.053	96.81
626.259	90.81
626.466	89.81
626.673	85.81
626.879	85.81
627.086	92.81
627.293	79.81
627.499	78.81
627.706	86.81
627.912	72.81
628.119	87.81
628.325	88.81
628.532	75.81
628.738	83.81
628.945	89.81
629.151	75.81
629.357	78.81
629.564	78.81
629.77	98.81
629.976	83.81
630.183	82.81
630.389	75.81
630.595	64.81
630.802	76.81
631.008	83.81
631.214	83.81
631.42	87.81
631.627	88.81
631.833	69.81
632.039	97.81
632.245	75.81
632.451	68.81
632.657	83.81
632.863	56.81
633.069	78.81
633.275	94.81
633.481	79.81
633.688	81.81
633.893	96.81
634.099	77.81
634.305	75.81
634.511	88.81
634.717	87.81
634.923	77.81
635.129	90.81
635.335	87.81
635.541	69.81
635.747	82.81
635.952	64.81
636.158	72.81
636.364	89.81
636.57	92.81
636.775	79.81
636.981	83.81
637.187	80.81
637.392	86.81
637.598	87.81
637.804	75.81
638.009	74.81
638.215	75.81
638.421	84.81
638.626	87.81
638.832	80.81
639.037	90.81
639.243	72.81
639.448	71.81
639.654	70.81
639.859	90.81
640.065	70.81
640.27	91.81
640.475	91.81
640.681	84.81
640.886	95.81
641.091	78.81
641.297	73.81
641.502	83.81
641.707	76.81
641.913	85.81
642.118	82.81
642.323	93.81
642.528	80.81
642.733	78.81
642.939	59.81
643.144	75.81
643.349	80.81
643.554	76.81
643.759	87.81
643.964	87.81
644.169	92.81
644.374	87.81
644.579	74.81
644.784	75.81
644.989	94.81
645.194	82.81
645.399	68.81
645.604	68.81
645.809	91.81
646.014	85.81
646.219	81.81
646.423	85.81
646.628	76.81
646.833	87.81
647.038	87.81
647.243	75.81
647.447	79.81
647.652	86.81
647.857	79.81
648.062	77.81
648.266	87.81
648.471	80.81
648.676	75.81
648.88	77.81
649.085	77.81
649.289	84.81
649.494	87.81
649.698	79.81
649.903	85.81
650.107	83.81
650.312	91.81
650.516	83.81
650.721	72.81
650.925	72.81
651.13	73.81
651.334	77.81
651.539	90.81
651.743	92.81
651.947	84.81
652.152	88.81
652.356	79.81
652.56	75.81
652.764	74.81
652.969	83.81
653.173	80.81
653.377	68.81
653.581	65.81
653.785	89.81
653.99	77.81
654.194	79.81
654.398	85.81
654.602	63.81
654.806	67.81
655.01	90.81
655.214	71.81
655.418	73.81
655.622	77.81
655.826	80.81
656.03	76.81
656.234	81.81
656.438	70.81
656.642	57.81
656.846	79.81
657.049	77.81
657.253	70.81
657.457	75.81
657.661	85.81
657.865	79.81
658.068	85.81
658.272	81.81
658.476	79.81
658.68	75.81
658.883	79.81
659.087	88.81
659.291	77.81
659.494	78.81
659.698	78.81
659.901	76.81
660.105	86.81
660.309	75.81
660.512	76.81
660.716	75.81
660.919	78.81
661.123	69.81
661.326	87.81
661.53	81.81
661.733	71.81
661.936	95.81
662.14	78.81
662.343	71.81
662.546	83.81
662.75	84.81
662.953	80.81
663.156	81.81
663.36	85.81
663.563	87.81
663.766	84.81
663.969	74.81
664.173	83.81
664.376	75.81
664.579	74.81
664.782	94.81
664.985	85.81
665.188	80.81
665.391	80.81
665.594	98.81
665.797	83.81
666	81.81
666.203	83.81
666.406	71.81
666.609	78.81
666.812	78.81
667.015	85.81
667.218	71.81
667.421	73.81
667.624	70.81
667.827	80.81
668.03	87.81
668.232	73.81
668.435	95.81
668.638	86.81
668.841	82.81
669.043	85.81
669.246	91.81
669.449	85.81
669.651	91.81
669.854	76.81
670.057	69.81
670.259	67.81
670.462	80.81
670.665	79.81
670.867	71.81
671.07	81.81
671.272	76.81
671.475	88.81
671.677	73.81
671.88	86.81
672.082	76.81
672.284	75.81
672.487	81.81
672.689	70.81
672.892	88.81
