Data from Cut_Leaves_50_1_HRD10591_00011.txt Node
Date: Wed Dec 03 14:18:32 EST 2025
User: Yrep
Spectrometer: HR+D1059
Trigger mode: 1
Integration Time (sec): 1.000000E-1
Scans to average: 1
Electric dark correction enabled: true
Nonlinearity correction enabled: false
Boxcar width: 0
XAxis mode: Wavelengths
Number of Pixels in Spectrum: 2048
>>>>>Begin Spectral Data<<<<<
223.165	-20.69
223.4	-20.69
223.635	-20.69
223.869	-13.69
224.104	-22.69
224.338	-9.69
224.573	-11.69
224.808	-22.69
225.042	-2.69
225.277	-12.69
225.511	-14.69
225.746	8.31
225.98	10.31
226.215	18.31
226.449	19.31
226.683	24.31
226.918	24.31
227.152	26.31
227.387	32.31
227.621	27.31
227.856	43.31
228.09	42.31
228.324	54.31
228.559	47.31
228.793	59.31
229.027	57.31
229.262	72.31
229.496	71.31
229.73	55.31
229.964	73.31
230.199	56.31
230.433	66.31
230.667	77.31
230.901	88.31
231.136	83.31
231.37	73.31
231.604	83.31
231.838	81.31
232.072	66.31
232.306	93.31
232.541	76.31
232.775	79.31
233.009	74.31
233.243	75.31
233.477	77.31
233.711	73.31
233.945	82.31
234.179	77.31
234.413	75.31
234.647	78.31
234.881	79.31
235.115	79.31
235.349	93.31
235.583	83.31
235.817	73.31
236.051	67.31
236.285	58.31
236.519	76.31
236.753	67.31
236.987	85.31
237.221	82.31
237.455	93.31
237.689	85.31
237.922	69.31
238.156	68.31
238.39	71.31
238.624	79.31
238.858	87.31
239.091	66.31
239.325	75.31
239.559	76.31
239.793	82.31
240.027	89.31
240.26	74.31
240.494	69.31
240.728	63.31
240.961	81.31
241.195	74.31
241.429	71.31
241.662	67.31
241.896	71.31
242.13	70.31
242.363	81.31
242.597	78.31
242.83	76.31
243.064	72.31
243.298	88.31
243.531	72.31
243.765	78.31
243.998	81.31
244.232	69.31
244.465	77.31
244.699	73.31
244.932	73.31
245.166	60.31
245.399	82.31
245.633	77.31
245.866	65.31
246.099	73.31
246.333	59.31
246.566	82.31
246.8	82.31
247.033	69.31
247.266	74.31
247.5	69.31
247.733	68.31
247.966	80.31
248.2	93.31
248.433	85.31
248.666	84.31
248.899	81.31
249.133	81.31
249.366	91.31
249.599	80.31
249.832	82.31
250.066	91.31
250.299	79.31
250.532	73.31
250.765	78.31
250.998	88.31
251.231	85.31
251.465	88.31
251.698	79.31
251.931	78.31
252.164	74.31
252.397	81.31
252.63	65.31
252.863	69.31
253.096	73.31
253.329	82.31
253.562	80.31
253.795	66.31
254.028	86.31
254.261	75.31
254.494	70.31
254.727	63.31
254.96	71.31
255.193	76.31
255.426	82.31
255.659	75.31
255.892	85.31
256.124	77.31
256.357	82.31
256.59	81.31
256.823	73.31
257.056	67.31
257.289	79.31
257.521	78.31
257.754	72.31
257.987	83.31
258.22	85.31
258.452	63.31
258.685	68.31
258.918	72.31
259.151	80.31
259.383	80.31
259.616	78.31
259.849	73.31
260.081	70.31
260.314	71.31
260.547	78.31
260.779	74.31
261.012	85.31
261.244	85.31
261.477	86.31
261.71	93.31
261.942	76.31
262.175	71.31
262.407	77.31
262.64	68.31
262.872	74.31
263.105	67.31
263.337	78.31
263.57	68.31
263.802	90.31
264.035	79.31
264.267	101.31
264.499	71.31
264.732	76.31
264.964	72.31
265.197	89.31
265.429	85.31
265.661	86.31
265.894	73.31
266.126	94.31
266.358	75.31
266.591	88.31
266.823	72.31
267.055	77.31
267.287	71.31
267.52	69.31
267.752	86.31
267.984	83.31
268.216	80.31
268.448	83.31
268.681	91.31
268.913	73.31
269.145	76.31
269.377	88.31
269.609	70.31
269.841	66.31
270.073	85.31
270.306	91.31
270.538	83.31
270.77	78.31
271.002	75.31
271.234	74.31
271.466	78.31
271.698	90.31
271.93	74.31
272.162	82.31
272.394	93.31
272.626	77.31
272.858	89.31
273.09	77.31
273.322	77.31
273.553	81.31
273.785	71.31
274.017	79.31
274.249	85.31
274.481	82.31
274.713	81.31
274.945	86.31
275.176	83.31
275.408	81.31
275.64	75.31
275.872	70.31
276.104	68.31
276.335	93.31
276.567	93.31
276.799	75.31
277.031	84.31
277.262	100.31
277.494	86.31
277.726	80.31
277.957	74.31
278.189	93.31
278.421	85.31
278.652	76.31
278.884	85.31
279.115	78.31
279.347	76.31
279.579	81.31
279.81	92.31
280.042	82.31
280.273	78.31
280.505	79.31
280.736	88.31
280.968	79.31
281.199	85.31
281.431	87.31
281.662	76.31
281.894	79.31
282.125	90.31
282.356	85.31
282.588	85.31
282.819	84.31
283.051	75.31
283.282	77.31
283.513	91.31
283.745	90.31
283.976	86.31
284.207	82.31
284.439	91.31
284.67	90.31
284.901	79.31
285.132	87.31
285.364	76.31
285.595	79.31
285.826	80.31
286.057	92.31
286.288	86.31
286.52	82.31
286.751	86.31
286.982	81.31
287.213	82.31
287.444	81.31
287.675	76.31
287.906	68.31
288.138	95.31
288.369	89.31
288.6	69.31
288.831	85.31
289.062	78.31
289.293	70.31
289.524	78.31
289.755	79.31
289.986	82.31
290.217	59.31
290.448	77.31
290.679	90.31
290.91	82.31
291.141	86.31
291.371	79.31
291.602	82.31
291.833	71.31
292.064	80.31
292.295	81.31
292.526	95.31
292.757	71.31
292.987	77.31
293.218	90.31
293.449	87.31
293.68	73.31
293.91	76.31
294.141	82.31
294.372	89.31
294.603	93.31
294.833	87.31
295.064	85.31
295.295	78.31
295.525	74.31
295.756	78.31
295.987	74.31
296.217	82.31
296.448	79.31
296.679	89.31
296.909	81.31
297.14	91.31
297.37	72.31
297.601	72.31
297.831	93.31
298.062	77.31
298.292	96.31
298.523	84.31
298.753	80.31
298.984	92.31
299.214	89.31
299.445	88.31
299.675	86.31
299.905	89.31
300.136	77.31
300.366	82.31
300.597	89.31
300.827	80.31
301.057	86.31
301.288	86.31
301.518	90.31
301.748	74.31
301.979	80.31
302.209	92.31
302.439	88.31
302.669	83.31
302.9	90.31
303.13	95.31
303.36	79.31
303.59	89.31
303.82	87.31
304.051	81.31
304.281	78.31
304.511	81.31
304.741	97.31
304.971	95.31
305.201	65.31
305.431	77.31
305.661	88.31
305.891	86.31
306.121	89.31
306.352	85.31
306.582	76.31
306.812	77.31
307.042	84.31
307.272	89.31
307.502	68.31
307.731	71.31
307.961	80.31
308.191	89.31
308.421	78.31
308.651	81.31
308.881	76.31
309.111	74.31
309.341	94.31
309.571	78.31
309.8	68.31
310.03	73.31
310.26	96.31
310.49	88.31
310.72	82.31
310.949	77.31
311.179	85.31
311.409	72.31
311.639	76.31
311.868	68.31
312.098	75.31
312.328	82.31
312.557	79.31
312.787	75.31
313.017	91.31
313.246	77.31
313.476	88.31
313.706	92.31
313.935	75.31
314.165	77.31
314.394	81.31
314.624	79.31
314.853	79.31
315.083	83.31
315.312	98.31
315.542	69.31
315.771	69.31
316.001	77.31
316.23	77.31
316.46	86.31
316.689	81.31
316.919	71.31
317.148	82.31
317.377	100.31
317.607	89.31
317.836	105.31
318.065	96.31
318.295	85.31
318.524	87.31
318.753	93.31
318.983	93.31
319.212	96.31
319.441	65.31
319.67	92.31
319.9	79.31
320.129	71.31
320.358	83.31
320.587	90.31
320.816	73.31
321.046	80.31
321.275	80.31
321.504	72.31
321.733	80.31
321.962	74.31
322.191	74.31
322.42	79.31
322.649	87.31
322.878	89.31
323.108	91.31
323.337	91.31
323.566	66.31
323.795	63.31
324.024	89.31
324.253	75.31
324.482	89.31
324.71	95.31
324.939	94.31
325.168	90.31
325.397	91.31
325.626	97.31
325.855	83.31
326.084	75.31
326.313	87.31
326.542	93.31
326.77	87.31
326.999	86.31
327.228	67.31
327.457	68.31
327.686	69.31
327.914	89.31
328.143	90.31
328.372	89.31
328.6	78.31
328.829	81.31
329.058	73.31
329.287	83.31
329.515	86.31
329.744	81.31
329.972	79.31
330.201	90.31
330.43	92.31
330.658	75.31
330.887	90.31
331.115	85.31
331.344	74.31
331.572	79.31
331.801	77.31
332.03	81.31
332.258	93.31
332.486	74.31
332.715	93.31
332.943	89.31
333.172	80.31
333.4	69.31
333.629	96.31
333.857	75.31
334.085	90.31
334.314	83.31
334.542	82.31
334.771	81.31
334.999	84.31
335.227	81.31
335.455	89.31
335.684	74.31
335.912	82.31
336.14	70.31
336.369	82.31
336.597	97.31
336.825	80.31
337.053	87.31
337.281	91.31
337.51	81.31
337.738	93.31
337.966	86.31
338.194	79.31
338.422	74.31
338.65	87.31
338.878	87.31
339.106	87.31
339.334	90.31
339.562	72.31
339.79	81.31
340.018	88.31
340.246	87.31
340.474	82.31
340.702	92.31
340.93	82.31
341.158	77.31
341.386	88.31
341.614	80.31
341.842	72.31
342.07	75.31
342.298	81.31
342.526	92.31
342.754	97.31
342.981	78.31
343.209	74.31
343.437	94.31
343.665	97.31
343.893	86.31
344.12	89.31
344.348	82.31
344.576	85.31
344.804	81.31
345.031	83.31
345.259	77.31
345.487	75.31
345.714	87.31
345.942	83.31
346.17	90.31
346.397	92.31
346.625	91.31
346.853	86.31
347.08	80.31
347.308	70.31
347.535	78.31
347.763	90.31
347.99	67.31
348.218	82.31
348.445	86.31
348.673	75.31
348.9	85.31
349.128	85.31
349.355	70.31
349.583	74.31
349.81	98.31
350.037	85.31
350.265	77.31
350.492	82.31
350.72	85.31
350.947	72.31
351.174	88.31
351.402	71.31
351.629	80.31
351.856	79.31
352.083	65.31
352.311	81.31
352.538	84.31
352.765	82.31
352.992	90.31
353.22	89.31
353.447	77.31
353.674	89.31
353.901	93.31
354.128	80.31
354.355	84.31
354.583	87.31
354.81	84.31
355.037	78.31
355.264	83.31
355.491	70.31
355.718	95.31
355.945	83.31
356.172	85.31
356.399	63.31
356.626	83.31
356.853	79.31
357.08	77.31
357.307	83.31
357.534	78.31
357.761	92.31
357.988	83.31
358.215	77.31
358.441	81.31
358.668	81.31
358.895	83.31
359.122	81.31
359.349	78.31
359.576	77.31
359.802	79.31
360.029	89.31
360.256	87.31
360.483	102.31
360.709	92.31
360.936	80.31
361.163	74.31
361.39	80.31
361.616	75.31
361.843	82.31
362.07	79.31
362.296	70.31
362.523	65.31
362.749	74.31
362.976	76.31
363.203	98.31
363.429	87.31
363.656	83.31
363.882	75.31
364.109	76.31
364.335	102.31
364.562	91.31
364.788	82.31
365.015	74.31
365.241	69.31
365.468	79.31
365.694	71.31
365.92	81.31
366.147	83.31
366.373	81.31
366.599	82.31
366.826	81.31
367.052	76.31
367.278	86.31
367.505	84.31
367.731	83.31
367.957	73.31
368.184	64.31
368.41	90.31
368.636	86.31
368.862	89.31
369.089	77.31
369.315	88.31
369.541	89.31
369.767	85.31
369.993	77.31
370.219	93.31
370.445	81.31
370.672	72.31
370.898	80.31
371.124	80.31
371.35	74.31
371.576	86.31
371.802	85.31
372.028	80.31
372.254	88.31
372.48	88.31
372.706	94.31
372.932	67.31
373.158	66.31
373.384	73.31
373.61	68.31
373.835	79.31
374.061	83.31
374.287	79.31
374.513	85.31
374.739	78.31
374.965	82.31
375.191	77.31
375.416	92.31
375.642	84.31
375.868	87.31
376.094	88.31
376.319	73.31
376.545	73.31
376.771	78.31
376.997	87.31
377.222	74.31
377.448	69.31
377.674	86.31
377.899	93.31
378.125	70.31
378.35	78.31
378.576	79.31
378.802	75.31
379.027	81.31
379.253	85.31
379.478	83.31
379.704	77.31
379.929	80.31
380.155	90.31
380.38	90.31
380.606	88.31
380.831	74.31
381.057	82.31
381.282	71.31
381.507	87.31
381.733	66.31
381.958	65.31
382.184	85.31
382.409	71.31
382.634	86.31
382.86	102.31
383.085	78.31
383.31	86.31
383.535	83.31
383.761	73.31
383.986	81.31
384.211	80.31
384.436	81.31
384.662	76.31
384.887	58.31
385.112	84.31
385.337	85.31
385.562	76.31
385.787	90.31
386.013	75.31
386.238	90.31
386.463	85.31
386.688	82.31
386.913	81.31
387.138	66.31
387.363	75.31
387.588	80.31
387.813	77.31
388.038	83.31
388.263	83.31
388.488	72.31
388.713	76.31
388.938	75.31
389.163	72.31
389.387	72.31
389.612	77.31
389.837	77.31
390.062	80.31
390.287	67.31
390.512	79.31
390.736	65.31
390.961	87.31
391.186	92.31
391.411	79.31
391.636	72.31
391.86	76.31
392.085	74.31
392.31	76.31
392.534	68.31
392.759	74.31
392.984	77.31
393.208	95.31
393.433	98.31
393.658	96.31
393.882	73.31
394.107	92.31
394.331	87.31
394.556	79.31
394.78	81.31
395.005	82.31
395.229	65.31
395.454	86.31
395.678	80.31
395.903	75.31
396.127	75.31
396.352	88.31
396.576	73.31
396.801	94.31
397.025	83.31
397.249	79.31
397.474	83.31
397.698	91.31
397.922	78.31
398.147	72.31
398.371	81.31
398.595	101.31
398.82	89.31
399.044	78.31
399.268	78.31
399.492	90.31
399.717	73.31
399.941	67.31
400.165	74.31
400.389	79.31
400.613	87.31
400.837	97.31
401.062	80.31
401.286	72.31
401.51	84.31
401.734	83.31
401.958	77.31
402.182	74.31
402.406	76.31
402.63	75.31
402.854	83.31
403.078	80.31
403.302	77.31
403.526	74.31
403.75	74.31
403.974	88.31
404.198	78.31
404.422	94.31
404.645	81.31
404.869	75.31
405.093	72.31
405.317	70.31
405.541	87.31
405.765	80.31
405.988	85.31
406.212	80.31
406.436	83.31
406.66	91.31
406.883	65.31
407.107	82.31
407.331	85.31
407.555	61.31
407.778	70.31
408.002	90.31
408.226	85.31
408.449	83.31
408.673	79.31
408.896	82.31
409.12	94.31
409.344	86.31
409.567	86.31
409.791	81.31
410.014	84.31
410.238	57.31
410.461	77.31
410.685	89.31
410.908	79.31
411.132	67.31
411.355	75.31
411.578	85.31
411.802	86.31
412.025	82.31
412.249	83.31
412.472	86.31
412.695	94.31
412.919	79.31
413.142	87.31
413.365	91.31
413.589	64.31
413.812	80.31
414.035	80.31
414.258	86.31
414.482	76.31
414.705	74.31
414.928	80.31
415.151	77.31
415.374	79.31
415.597	69.31
415.821	80.31
416.044	73.31
416.267	92.31
416.49	81.31
416.713	81.31
416.936	66.31
417.159	64.31
417.382	65.31
417.605	66.31
417.828	77.31
418.051	87.31
418.274	86.31
418.497	71.31
418.72	93.31
418.943	77.31
419.166	68.31
419.389	87.31
419.611	73.31
419.834	66.31
420.057	81.31
420.28	77.31
420.503	88.31
420.726	81.31
420.948	84.31
421.171	85.31
421.394	96.31
421.617	76.31
421.839	77.31
422.062	73.31
422.285	91.31
422.507	78.31
422.73	96.31
422.953	92.31
423.175	85.31
423.398	81.31
423.621	89.31
423.843	84.31
424.066	80.31
424.288	87.31
424.511	70.31
424.733	84.31
424.956	77.31
425.178	79.31
425.401	77.31
425.623	82.31
425.846	76.31
426.068	80.31
426.291	72.31
426.513	75.31
426.735	71.31
426.958	70.31
427.18	73.31
427.402	71.31
427.625	73.31
427.847	79.31
428.069	77.31
428.292	82.31
428.514	89.31
428.736	75.31
428.958	85.31
429.181	96.31
429.403	94.31
429.625	68.31
429.847	72.31
430.069	82.31
430.292	78.31
430.514	73.31
430.736	83.31
430.958	74.31
431.18	86.31
431.402	94.31
431.624	87.31
431.846	77.31
432.068	79.31
432.29	72.31
432.512	97.31
432.734	65.31
432.956	74.31
433.178	85.31
433.4	80.31
433.622	84.31
433.844	80.31
434.066	75.31
434.287	71.31
434.509	81.31
434.731	66.31
434.953	76.31
435.175	80.31
435.397	73.31
435.618	76.31
435.84	73.31
436.062	76.31
436.284	93.31
436.505	74.31
436.727	70.31
436.949	85.31
437.17	72.31
437.392	80.31
437.614	69.31
437.835	71.31
438.057	75.31
438.278	80.31
438.5	74.31
438.721	75.31
438.943	71.31
439.165	82.31
439.386	75.31
439.608	82.31
439.829	74.31
440.05	82.31
440.272	68.31
440.493	72.31
440.715	83.31
440.936	93.31
441.158	70.31
441.379	78.31
441.6	69.31
441.822	70.31
442.043	86.31
442.264	78.31
442.486	69.31
442.707	79.31
442.928	71.31
443.149	86.31
443.371	99.31
443.592	73.31
443.813	80.31
444.034	65.31
444.255	78.31
444.476	80.31
444.698	87.31
444.919	85.31
445.14	157.31
445.361	113.31
445.582	80.31
445.803	86.31
446.024	60.31
446.245	74.31
446.466	74.31
446.687	89.31
446.908	83.31
447.129	79.31
447.35	74.31
447.571	88.31
447.792	70.31
448.013	80.31
448.234	80.31
448.455	77.31
448.675	77.31
448.896	82.31
449.117	78.31
449.338	78.31
449.559	73.31
449.779	77.31
450	76.31
450.221	80.31
450.442	82.31
450.662	90.31
450.883	82.31
451.104	84.31
451.324	69.31
451.545	63.31
451.766	95.31
451.986	71.31
452.207	80.31
452.428	88.31
452.648	72.31
452.869	87.31
453.089	71.31
453.31	71.31
453.53	78.31
453.751	71.31
453.971	62.31
454.192	68.31
454.412	76.31
454.633	81.31
454.853	67.31
455.073	78.31
455.294	79.31
455.514	71.31
455.734	85.31
455.955	79.31
456.175	70.31
456.395	71.31
456.616	80.31
456.836	88.31
457.056	89.31
457.276	78.31
457.497	64.31
457.717	79.31
457.937	69.31
458.157	72.31
458.377	82.31
458.598	83.31
458.818	66.31
459.038	78.31
459.258	73.31
459.478	86.31
459.698	89.31
459.918	85.31
460.138	69.31
460.358	78.31
460.578	82.31
460.798	93.31
461.018	76.31
461.238	82.31
461.458	66.31
461.678	64.31
461.898	80.31
462.118	79.31
462.338	76.31
462.558	72.31
462.777	70.31
462.997	87.31
463.217	81.31
463.437	91.31
463.657	96.31
463.876	71.31
464.096	79.31
464.316	87.31
464.536	85.31
464.755	72.31
464.975	66.31
465.195	86.31
465.414	66.31
465.634	75.31
465.854	82.31
466.073	69.31
466.293	66.31
466.512	79.31
466.732	79.31
466.951	74.31
467.171	75.31
467.391	76.31
467.61	73.31
467.829	103.31
468.049	91.31
468.268	91.31
468.488	74.31
468.707	85.31
468.927	77.31
469.146	82.31
469.365	74.31
469.585	76.31
469.804	80.31
470.023	82.31
470.243	95.31
470.462	80.31
470.681	73.31
470.901	70.31
471.12	83.31
471.339	68.31
471.558	66.31
471.777	77.31
471.997	81.31
472.216	90.31
472.435	80.31
472.654	77.31
472.873	74.31
473.092	79.31
473.311	80.31
473.53	77.31
473.749	89.31
473.968	99.31
474.187	75.31
474.406	78.31
474.625	85.31
474.844	79.31
475.063	80.31
475.282	75.31
475.501	67.31
475.72	90.31
475.939	101.31
476.158	65.31
476.377	69.31
476.596	83.31
476.814	79.31
477.033	74.31
477.252	67.31
477.471	72.31
477.69	87.31
477.908	71.31
478.127	79.31
478.346	75.31
478.564	83.31
478.783	59.31
479.002	75.31
479.22	77.31
479.439	83.31
479.658	71.31
479.876	91.31
480.095	69.31
480.313	92.31
480.532	65.31
480.751	72.31
480.969	73.31
481.188	97.31
481.406	87.31
481.624	74.31
481.843	89.31
482.061	77.31
482.28	70.31
482.498	75.31
482.717	69.31
482.935	78.31
483.153	88.31
483.372	75.31
483.59	83.31
483.808	68.31
484.027	73.31
484.245	67.31
484.463	75.31
484.681	93.31
484.9	75.31
485.118	73.31
485.336	83.31
485.554	73.31
485.772	76.31
485.99	93.31
486.209	79.31
486.427	68.31
486.645	71.31
486.863	87.31
487.081	92.31
487.299	66.31
487.517	83.31
487.735	71.31
487.953	74.31
488.171	73.31
488.389	88.31
488.607	66.31
488.825	85.31
489.043	85.31
489.261	77.31
489.479	93.31
489.696	82.31
489.914	78.31
490.132	88.31
490.35	87.31
490.568	79.31
490.786	65.31
491.003	92.31
491.221	78.31
491.439	81.31
491.657	76.31
491.874	76.31
492.092	80.31
492.31	81.31
492.527	80.31
492.745	95.31
492.963	85.31
493.18	84.31
493.398	81.31
493.615	90.31
493.833	78.31
494.05	69.31
494.268	73.31
494.485	66.31
494.703	86.31
494.92	75.31
495.138	78.31
495.355	85.31
495.573	78.31
495.79	77.31
496.008	75.31
496.225	83.31
496.442	77.31
496.66	95.31
496.877	78.31
497.094	74.31
497.312	77.31
497.529	75.31
497.746	87.31
497.963	65.31
498.181	82.31
498.398	78.31
498.615	79.31
498.832	73.31
499.049	83.31
499.267	92.31
499.484	79.31
499.701	81.31
499.918	79.31
500.135	83.31
500.352	77.31
500.569	85.31
500.786	83.31
501.003	85.31
501.22	80.31
501.437	82.31
501.654	87.31
501.871	80.31
502.088	83.31
502.305	82.31
502.522	82.31
502.739	93.31
502.956	84.31
503.172	83.31
503.389	79.31
503.606	79.31
503.823	82.31
504.04	66.31
504.256	86.31
504.473	80.31
504.69	89.31
504.907	84.31
505.123	90.31
505.34	80.31
505.557	71.31
505.773	70.31
505.99	86.31
506.207	77.31
506.423	76.31
506.64	93.31
506.856	71.31
507.073	81.31
507.289	73.31
507.506	81.31
507.722	74.31
507.939	92.31
508.155	94.31
508.372	86.31
508.588	78.31
508.805	74.31
509.021	92.31
509.238	82.31
509.454	77.31
509.67	82.31
509.887	62.31
510.103	78.31
510.319	76.31
510.536	79.31
510.752	71.31
510.968	79.31
511.184	83.31
511.401	89.31
511.617	83.31
511.833	79.31
512.049	82.31
512.265	77.31
512.481	84.31
512.698	80.31
512.914	78.31
513.13	62.31
513.346	81.31
513.562	82.31
513.778	75.31
513.994	87.31
514.21	77.31
514.426	67.31
514.642	89.31
514.858	75.31
515.074	74.31
515.29	72.31
515.506	79.31
515.721	77.31
515.937	78.31
516.153	89.31
516.369	89.31
516.585	79.31
516.801	91.31
517.016	87.31
517.232	74.31
517.448	83.31
517.664	78.31
517.879	93.31
518.095	75.31
518.311	79.31
518.527	79.31
518.742	81.31
518.958	80.31
519.173	78.31
519.389	92.31
519.605	82.31
519.82	91.31
520.036	74.31
520.251	80.31
520.467	94.31
520.682	79.31
520.898	59.31
521.113	89.31
521.329	67.31
521.544	91.31
521.76	83.31
521.975	82.31
522.19	74.31
522.406	78.31
522.621	82.31
522.836	78.31
523.052	73.31
523.267	77.31
523.482	77.31
523.698	72.31
523.913	83.31
524.128	83.31
524.343	79.31
524.559	88.31
524.774	80.31
524.989	82.31
525.204	88.31
525.419	84.31
525.634	85.31
525.849	78.31
526.064	75.31
526.28	65.31
526.495	78.31
526.71	86.31
526.925	85.31
527.14	88.31
527.355	75.31
527.57	85.31
527.785	79.31
527.999	89.31
528.214	87.31
528.429	73.31
528.644	85.31
528.859	86.31
529.074	81.31
529.289	82.31
529.503	77.31
529.718	90.31
529.933	85.31
530.148	75.31
530.363	96.31
530.577	89.31
530.792	90.31
531.007	71.31
531.221	65.31
531.436	71.31
531.651	81.31
531.865	82.31
532.08	77.31
532.295	80.31
532.509	76.31
532.724	71.31
532.938	73.31
533.153	81.31
533.367	78.31
533.582	90.31
533.796	88.31
534.011	76.31
534.225	77.31
534.44	90.31
534.654	85.31
534.868	91.31
535.083	87.31
535.297	89.31
535.511	85.31
535.726	89.31
535.94	92.31
536.154	79.31
536.369	91.31
536.583	66.31
536.797	87.31
537.011	86.31
537.225	78.31
537.44	59.31
537.654	77.31
537.868	90.31
538.082	81.31
538.296	80.31
538.51	77.31
538.724	88.31
538.938	91.31
539.153	95.31
539.367	58.31
539.581	67.31
539.795	78.31
540.009	95.31
540.222	81.31
540.436	76.31
540.65	73.31
540.864	82.31
541.078	88.31
541.292	95.31
541.506	82.31
541.72	94.31
541.934	86.31
542.147	79.31
542.361	82.31
542.575	85.31
542.789	103.31
543.002	83.31
543.216	87.31
543.43	91.31
543.644	79.31
543.857	92.31
544.071	80.31
544.285	90.31
544.498	79.31
544.712	82.31
544.925	84.31
545.139	75.31
545.352	91.31
545.566	91.31
545.779	75.31
545.993	74.31
546.206	89.31
546.42	82.31
546.633	83.31
546.847	75.31
547.06	83.31
547.274	87.31
547.487	85.31
547.7	97.31
547.914	89.31
548.127	82.31
548.34	85.31
548.554	87.31
548.767	75.31
548.98	86.31
549.193	85.31
549.407	89.31
549.62	91.31
549.833	87.31
550.046	86.31
550.259	97.31
550.473	86.31
550.686	83.31
550.899	105.31
551.112	100.31
551.325	104.31
551.538	87.31
551.751	100.31
551.964	108.31
552.177	100.31
552.39	91.31
552.603	97.31
552.816	83.31
553.029	98.31
553.242	105.31
553.455	102.31
553.667	86.31
553.88	112.31
554.093	107.31
554.306	93.31
554.519	95.31
554.732	110.31
554.944	91.31
555.157	98.31
555.37	94.31
555.583	98.31
555.795	105.31
556.008	101.31
556.221	88.31
556.433	91.31
556.646	97.31
556.859	78.31
557.071	104.31
557.284	85.31
557.496	85.31
557.709	81.31
557.921	101.31
558.134	86.31
558.346	80.31
558.559	89.31
558.771	92.31
558.984	88.31
559.196	82.31
559.409	79.31
559.621	93.31
559.833	85.31
560.046	90.31
560.258	78.31
560.47	75.31
560.683	83.31
560.895	89.31
561.107	77.31
561.32	88.31
561.532	90.31
561.744	79.31
561.956	91.31
562.168	86.31
562.381	82.31
562.593	87.31
562.805	87.31
563.017	80.31
563.229	85.31
563.441	74.31
563.653	75.31
563.865	78.31
564.077	80.31
564.289	80.31
564.501	86.31
564.713	73.31
564.925	95.31
565.137	89.31
565.349	74.31
565.561	82.31
565.773	92.31
565.985	79.31
566.197	73.31
566.408	78.31
566.62	70.31
566.832	87.31
567.044	86.31
567.255	88.31
567.467	60.31
567.679	67.31
567.891	83.31
568.102	87.31
568.314	87.31
568.526	87.31
568.737	89.31
568.949	82.31
569.161	81.31
569.372	87.31
569.584	93.31
569.795	86.31
570.007	92.31
570.218	82.31
570.43	78.31
570.641	82.31
570.853	77.31
571.064	88.31
571.276	93.31
571.487	81.31
571.698	70.31
571.91	86.31
572.121	93.31
572.333	91.31
572.544	89.31
572.755	82.31
572.966	86.31
573.178	85.31
573.389	89.31
573.6	74.31
573.811	90.31
574.023	93.31
574.234	72.31
574.445	76.31
574.656	99.31
574.867	85.31
575.078	89.31
575.289	89.31
575.501	85.31
575.712	87.31
575.923	88.31
576.134	88.31
576.345	85.31
576.556	96.31
576.767	69.31
576.978	78.31
577.188	76.31
577.399	95.31
577.61	79.31
577.821	91.31
578.032	101.31
578.243	83.31
578.454	75.31
578.665	71.31
578.875	82.31
579.086	85.31
579.297	87.31
579.508	87.31
579.718	87.31
579.929	101.31
580.14	78.31
580.35	80.31
580.561	91.31
580.772	74.31
580.982	89.31
581.193	78.31
581.403	91.31
581.614	93.31
581.825	86.31
582.035	80.31
582.246	85.31
582.456	80.31
582.667	75.31
582.877	79.31
583.087	79.31
583.298	78.31
583.508	82.31
583.719	97.31
583.929	89.31
584.139	83.31
584.35	77.31
584.56	90.31
584.77	81.31
584.981	86.31
585.191	79.31
585.401	83.31
585.611	89.31
585.821	81.31
586.032	70.31
586.242	65.31
586.452	89.31
586.662	103.31
586.872	95.31
587.082	83.31
587.292	98.31
587.502	87.31
587.713	92.31
587.923	89.31
588.133	76.31
588.343	97.31
588.553	94.31
588.762	109.31
588.972	167.31
589.182	295.31
589.392	204.31
589.602	165.31
589.812	257.31
590.022	158.31
590.232	101.31
590.441	88.31
590.651	95.31
590.861	83.31
591.071	86.31
591.281	85.31
591.49	77.31
591.7	86.31
591.91	89.31
592.119	86.31
592.329	85.31
592.539	87.31
592.748	84.31
592.958	97.31
593.167	87.31
593.377	81.31
593.587	88.31
593.796	87.31
594.006	100.31
594.215	94.31
594.424	81.31
594.634	85.31
594.843	80.31
595.053	82.31
595.262	98.31
595.472	76.31
595.681	89.31
595.89	82.31
596.1	87.31
596.309	89.31
596.518	86.31
596.727	95.31
596.937	88.31
597.146	87.31
597.355	85.31
597.564	99.31
597.774	118.31
597.983	87.31
598.192	96.31
598.401	80.31
598.61	79.31
598.819	94.31
599.028	89.31
599.237	91.31
599.446	90.31
599.655	90.31
599.864	98.31
600.073	86.31
600.282	98.31
600.491	74.31
600.7	106.31
600.909	82.31
601.118	89.31
601.327	81.31
601.536	102.31
601.745	94.31
601.953	85.31
602.162	83.31
602.371	88.31
602.58	85.31
602.789	109.31
602.997	100.31
603.206	91.31
603.415	96.31
603.623	89.31
603.832	97.31
604.041	95.31
604.249	96.31
604.458	97.31
604.666	98.31
604.875	83.31
605.084	80.31
605.292	91.31
605.501	85.31
605.709	98.31
605.918	80.31
606.126	71.31
606.334	85.31
606.543	97.31
606.751	100.31
606.96	96.31
607.168	105.31
607.376	80.31
607.585	76.31
607.793	91.31
608.001	91.31
608.21	95.31
608.418	92.31
608.626	91.31
608.834	99.31
609.043	92.31
609.251	102.31
609.459	88.31
609.667	91.31
609.875	92.31
610.083	103.31
610.291	83.31
610.499	82.31
610.707	97.31
610.916	82.31
611.124	101.31
611.332	97.31
611.54	83.31
611.748	98.31
611.955	90.31
612.163	85.31
612.371	105.31
612.579	106.31
612.787	85.31
612.995	98.31
613.203	96.31
613.411	90.31
613.618	90.31
613.826	99.31
614.034	107.31
614.242	102.31
614.449	101.31
614.657	92.31
614.865	93.31
615.072	89.31
615.28	86.31
615.488	85.31
615.695	94.31
615.903	95.31
616.111	112.31
616.318	117.31
616.526	110.31
616.733	114.31
616.941	99.31
617.148	114.31
617.356	95.31
617.563	95.31
617.771	94.31
617.978	94.31
618.185	107.31
618.393	94.31
618.6	99.31
618.807	94.31
619.015	98.31
619.222	96.31
619.429	94.31
619.637	94.31
619.844	105.31
620.051	92.31
620.258	109.31
620.466	115.31
620.673	123.31
620.88	110.31
621.087	82.31
621.294	89.31
621.501	103.31
621.708	112.31
621.915	102.31
622.122	102.31
622.329	88.31
622.536	101.31
622.743	109.31
622.95	101.31
623.157	104.31
623.364	91.31
623.571	91.31
623.778	105.31
623.985	98.31
624.192	114.31
624.399	94.31
624.606	95.31
624.812	102.31
625.019	104.31
625.226	109.31
625.433	101.31
625.639	83.31
625.846	83.31
626.053	94.31
626.259	85.31
626.466	74.31
626.673	87.31
626.879	85.31
627.086	90.31
627.293	97.31
627.499	87.31
627.706	88.31
627.912	88.31
628.119	92.31
628.325	76.31
628.532	67.31
628.738	90.31
628.945	85.31
629.151	96.31
629.357	85.31
629.564	66.31
629.77	71.31
629.976	78.31
630.183	94.31
630.389	76.31
630.595	76.31
630.802	87.31
631.008	81.31
631.214	91.31
631.42	87.31
631.627	94.31
631.833	87.31
632.039	87.31
632.245	101.31
632.451	89.31
632.657	72.31
632.863	87.31
633.069	78.31
633.275	85.31
633.481	80.31
633.688	90.31
633.893	84.31
634.099	77.31
634.305	78.31
634.511	75.31
634.717	75.31
634.923	63.31
635.129	78.31
635.335	93.31
635.541	69.31
635.747	83.31
635.952	94.31
636.158	80.31
636.364	99.31
636.57	93.31
636.775	97.31
636.981	79.31
637.187	83.31
637.392	70.31
637.598	75.31
637.804	100.31
638.009	91.31
638.215	76.31
638.421	90.31
638.626	105.31
638.832	80.31
639.037	76.31
639.243	104.31
639.448	84.31
639.654	91.31
639.859	93.31
640.065	76.31
640.27	82.31
640.475	94.31
640.681	92.31
640.886	93.31
641.091	79.31
641.297	87.31
641.502	77.31
641.707	93.31
641.913	102.31
642.118	85.31
642.323	78.31
642.528	70.31
642.733	81.31
642.939	87.31
643.144	83.31
643.349	83.31
643.554	95.31
643.759	61.31
643.964	98.31
644.169	89.31
644.374	75.31
644.579	85.31
644.784	89.31
644.989	73.31
645.194	79.31
645.399	89.31
645.604	79.31
645.809	89.31
646.014	85.31
646.219	75.31
646.423	82.31
646.628	80.31
646.833	83.31
647.038	82.31
647.243	88.31
647.447	96.31
647.652	86.31
647.857	86.31
648.062	78.31
648.266	75.31
648.471	81.31
648.676	82.31
648.88	89.31
649.085	90.31
649.289	74.31
649.494	78.31
649.698	80.31
649.903	86.31
650.107	82.31
650.312	85.31
650.516	80.31
650.721	93.31
650.925	87.31
651.13	87.31
651.334	82.31
651.539	73.31
651.743	81.31
651.947	90.31
652.152	87.31
652.356	96.31
652.56	79.31
652.764	86.31
652.969	84.31
653.173	77.31
653.377	88.31
653.581	59.31
653.785	80.31
653.99	81.31
654.194	78.31
654.398	74.31
654.602	75.31
654.806	83.31
655.01	67.31
655.214	90.31
655.418	78.31
655.622	84.31
655.826	91.31
656.03	79.31
656.234	87.31
656.438	87.31
656.642	82.31
656.846	87.31
657.049	69.31
657.253	86.31
657.457	77.31
657.661	85.31
657.865	69.31
658.068	61.31
658.272	88.31
658.476	70.31
658.68	76.31
658.883	82.31
659.087	60.31
659.291	81.31
659.494	83.31
659.698	82.31
659.901	87.31
660.105	97.31
660.309	94.31
660.512	80.31
660.716	90.31
660.919	78.31
661.123	82.31
661.326	78.31
661.53	73.31
661.733	74.31
661.936	80.31
662.14	97.31
662.343	72.31
662.546	85.31
662.75	83.31
662.953	87.31
663.156	91.31
663.36	88.31
663.563	85.31
663.766	60.31
663.969	86.31
664.173	81.31
664.376	102.31
664.579	85.31
664.782	78.31
664.985	82.31
665.188	78.31
665.391	106.31
665.594	80.31
665.797	82.31
666	71.31
666.203	79.31
666.406	70.31
666.609	78.31
666.812	96.31
667.015	93.31
667.218	80.31
667.421	75.31
667.624	74.31
667.827	73.31
668.03	80.31
668.232	85.31
668.435	93.31
668.638	81.31
668.841	91.31
669.043	85.31
669.246	81.31
669.449	89.31
669.651	84.31
669.854	96.31
670.057	83.31
670.259	81.31
670.462	86.31
670.665	91.31
670.867	97.31
671.07	79.31
671.272	86.31
671.475	81.31
671.677	74.31
671.88	88.31
672.082	68.31
672.284	70.31
672.487	89.31
672.689	87.31
672.892	79.31
