Data from Circ_2013_H10_HRD10591_00090.txt Node
Date: Wed Jan 03 10:04:18 EST 2024
User: Yrep
Spectrometer: HR+D1059
Trigger mode: 1
Integration Time (sec): 1.000000E-1
Scans to average: 1
Electric dark correction enabled: true
Nonlinearity correction enabled: false
Boxcar width: 0
XAxis mode: Wavelengths
Number of Pixels in Spectrum: 2048
>>>>>Begin Spectral Data<<<<<
223.165	-17.62
223.4	-17.62
223.635	-17.62
223.869	-9.62
224.104	-2.62
224.338	-27.62
224.573	-30.62
224.808	-11.62
225.042	-1.62
225.277	3.38
225.511	-4.62
225.746	-6.62
225.98	-2.62
226.215	11.38
226.449	22.38
226.683	26.38
226.918	21.38
227.152	30.38
227.387	36.38
227.621	48.38
227.856	43.38
228.09	53.38
228.324	61.38
228.559	56.38
228.793	65.38
229.027	60.38
229.262	83.38
229.496	76.38
229.73	97.38
229.964	100.38
230.199	81.38
230.433	91.38
230.667	87.38
230.901	72.38
231.136	73.38
231.37	75.38
231.604	84.38
231.838	72.38
232.072	87.38
232.306	89.38
232.541	75.38
232.775	78.38
233.009	84.38
233.243	75.38
233.477	78.38
233.711	78.38
233.945	83.38
234.179	92.38
234.413	95.38
234.647	95.38
234.881	84.38
235.115	92.38
235.349	92.38
235.583	82.38
235.817	83.38
236.051	75.38
236.285	80.38
236.519	87.38
236.753	86.38
236.987	83.38
237.221	94.38
237.455	86.38
237.689	73.38
237.922	94.38
238.156	80.38
238.39	83.38
238.624	74.38
238.858	88.38
239.091	86.38
239.325	89.38
239.559	78.38
239.793	81.38
240.027	81.38
240.26	87.38
240.494	81.38
240.728	65.38
240.961	85.38
241.195	78.38
241.429	83.38
241.662	64.38
241.896	79.38
242.13	79.38
242.363	77.38
242.597	75.38
242.83	83.38
243.064	77.38
243.298	76.38
243.531	87.38
243.765	74.38
243.998	78.38
244.232	93.38
244.465	95.38
244.699	88.38
244.932	81.38
245.166	84.38
245.399	89.38
245.633	90.38
245.866	88.38
246.099	87.38
246.333	77.38
246.566	82.38
246.8	90.38
247.033	73.38
247.266	84.38
247.5	76.38
247.733	92.38
247.966	76.38
248.2	81.38
248.433	82.38
248.666	78.38
248.899	84.38
249.133	90.38
249.366	103.38
249.599	98.38
249.832	68.38
250.066	82.38
250.299	96.38
250.532	91.38
250.765	77.38
250.998	92.38
251.231	74.38
251.465	80.38
251.698	87.38
251.931	90.38
252.164	67.38
252.397	71.38
252.63	78.38
252.863	83.38
253.096	76.38
253.329	81.38
253.562	86.38
253.795	86.38
254.028	71.38
254.261	83.38
254.494	91.38
254.727	90.38
254.96	76.38
255.193	90.38
255.426	80.38
255.659	86.38
255.892	97.38
256.124	88.38
256.357	89.38
256.59	92.38
256.823	93.38
257.056	91.38
257.289	100.38
257.521	88.38
257.754	68.38
257.987	88.38
258.22	91.38
258.452	105.38
258.685	92.38
258.918	103.38
259.151	77.38
259.383	87.38
259.616	80.38
259.849	89.38
260.081	86.38
260.314	99.38
260.547	81.38
260.779	84.38
261.012	117.38
261.244	95.38
261.477	98.38
261.71	100.38
261.942	137.38
262.175	144.38
262.407	103.38
262.64	82.38
262.872	93.38
263.105	82.38
263.337	93.38
263.57	96.38
263.802	88.38
264.035	71.38
264.267	83.38
264.499	93.38
264.732	70.38
264.964	80.38
265.197	101.38
265.429	78.38
265.661	75.38
265.894	87.38
266.126	82.38
266.358	88.38
266.591	87.38
266.823	87.38
267.055	82.38
267.287	89.38
267.52	86.38
267.752	78.38
267.984	88.38
268.216	75.38
268.448	84.38
268.681	94.38
268.913	88.38
269.145	104.38
269.377	85.38
269.609	69.38
269.841	77.38
270.073	86.38
270.306	102.38
270.538	102.38
270.77	80.38
271.002	91.38
271.234	95.38
271.466	88.38
271.698	95.38
271.93	93.38
272.162	86.38
272.394	91.38
272.626	72.38
272.858	89.38
273.09	85.38
273.322	84.38
273.553	98.38
273.785	89.38
274.017	75.38
274.249	87.38
274.481	78.38
274.713	91.38
274.945	96.38
275.176	81.38
275.408	107.38
275.64	106.38
275.872	117.38
276.104	104.38
276.335	92.38
276.567	130.38
276.799	158.38
277.031	165.38
277.262	178.38
277.494	144.38
277.726	97.38
277.957	84.38
278.189	91.38
278.421	100.38
278.652	85.38
278.884	79.38
279.115	96.38
279.347	91.38
279.579	114.38
279.81	120.38
280.042	181.38
280.273	215.38
280.505	169.38
280.736	118.38
280.968	102.38
281.199	90.38
281.431	108.38
281.662	88.38
281.894	93.38
282.125	119.38
282.356	132.38
282.588	183.38
282.819	135.38
283.051	101.38
283.282	107.38
283.513	88.38
283.745	94.38
283.976	96.38
284.207	91.38
284.439	89.38
284.67	87.38
284.901	93.38
285.132	83.38
285.364	88.38
285.595	86.38
285.826	95.38
286.057	83.38
286.288	92.38
286.52	91.38
286.751	90.38
286.982	86.38
287.213	97.38
287.444	89.38
287.675	100.38
287.906	94.38
288.138	89.38
288.369	93.38
288.6	87.38
288.831	90.38
289.062	95.38
289.293	96.38
289.524	70.38
289.755	81.38
289.986	90.38
290.217	78.38
290.448	87.38
290.679	100.38
290.91	86.38
291.141	96.38
291.371	92.38
291.602	101.38
291.833	70.38
292.064	86.38
292.295	77.38
292.526	101.38
292.757	86.38
292.987	106.38
293.218	88.38
293.449	84.38
293.68	93.38
293.91	95.38
294.141	95.38
294.372	96.38
294.603	89.38
294.833	88.38
295.064	84.38
295.295	102.38
295.525	80.38
295.756	117.38
295.987	134.38
296.217	166.38
296.448	163.38
296.679	111.38
296.909	100.38
297.14	110.38
297.37	98.38
297.601	87.38
297.831	96.38
298.062	104.38
298.292	90.38
298.523	95.38
298.753	91.38
298.984	90.38
299.214	81.38
299.445	103.38
299.675	104.38
299.905	88.38
300.136	88.38
300.366	92.38
300.597	89.38
300.827	119.38
301.057	88.38
301.288	115.38
301.518	109.38
301.748	108.38
301.979	119.38
302.209	107.38
302.439	114.38
302.669	89.38
302.9	108.38
303.13	106.38
303.36	117.38
303.59	147.38
303.82	149.38
304.051	92.38
304.281	108.38
304.511	91.38
304.741	90.38
304.971	88.38
305.201	91.38
305.431	91.38
305.661	91.38
305.891	100.38
306.121	104.38
306.352	124.38
306.582	121.38
306.812	118.38
307.042	108.38
307.272	142.38
307.502	176.38
307.731	176.38
307.961	131.38
308.191	102.38
308.421	104.38
308.651	110.38
308.881	96.38
309.111	104.38
309.341	114.38
309.571	108.38
309.8	105.38
310.03	101.38
310.26	113.38
310.49	94.38
310.72	117.38
310.949	107.38
311.179	112.38
311.409	112.38
311.639	99.38
311.868	88.38
312.098	99.38
312.328	115.38
312.557	117.38
312.787	132.38
313.017	116.38
313.246	101.38
313.476	94.38
313.706	100.38
313.935	114.38
314.165	114.38
314.394	126.38
314.624	106.38
314.853	134.38
315.083	104.38
315.312	91.38
315.542	88.38
315.771	98.38
316.001	97.38
316.23	101.38
316.46	87.38
316.689	91.38
316.919	109.38
317.148	104.38
317.377	98.38
317.607	107.38
317.836	113.38
318.065	101.38
318.295	100.38
318.524	105.38
318.753	86.38
318.983	104.38
319.212	106.38
319.441	110.38
319.67	129.38
319.9	96.38
320.129	114.38
320.358	93.38
320.587	104.38
320.816	101.38
321.046	122.38
321.275	111.38
321.504	102.38
321.733	109.38
321.962	111.38
322.191	117.38
322.42	124.38
322.649	140.38
322.878	127.38
323.108	131.38
323.337	137.38
323.566	158.38
323.795	157.38
324.024	237.38
324.253	487.38
324.482	986.38
324.71	2019.38
324.939	2612.38
325.168	995.38
325.397	299.38
325.626	178.38
325.855	159.38
326.084	144.38
326.313	159.38
326.542	174.38
326.77	251.38
326.999	501.38
327.228	1003.38
327.457	1850.38
327.686	1537.38
327.914	536.38
328.143	481.38
328.372	594.38
328.6	363.38
328.829	184.38
329.058	204.38
329.287	194.38
329.515	183.38
329.744	238.38
329.972	435.38
330.201	859.38
330.43	1242.38
330.658	574.38
330.887	299.38
331.115	196.38
331.344	130.38
331.572	121.38
331.801	137.38
332.03	120.38
332.258	108.38
332.486	114.38
332.715	108.38
332.943	112.38
333.172	120.38
333.4	121.38
333.629	143.38
333.857	211.38
334.085	390.38
334.314	756.38
334.542	1527.38
334.771	1509.38
334.999	403.38
335.227	165.38
335.455	123.38
335.684	116.38
335.912	94.38
336.14	106.38
336.369	102.38
336.597	118.38
336.825	121.38
337.053	94.38
337.281	93.38
337.51	86.38
337.738	98.38
337.966	91.38
338.194	124.38
338.422	108.38
338.65	102.38
338.878	117.38
339.106	99.38
339.334	94.38
339.562	94.38
339.79	101.38
340.018	94.38
340.246	98.38
340.474	107.38
340.702	101.38
340.93	88.38
341.158	97.38
341.386	99.38
341.614	111.38
341.842	99.38
342.07	109.38
342.298	103.38
342.526	97.38
342.754	102.38
342.981	87.38
343.209	76.38
343.437	104.38
343.665	105.38
343.893	104.38
344.12	86.38
344.348	77.38
344.576	95.38
344.804	90.38
345.031	112.38
345.259	123.38
345.487	109.38
345.714	116.38
345.942	93.38
346.17	86.38
346.397	92.38
346.625	94.38
346.853	112.38
347.08	94.38
347.308	103.38
347.535	105.38
347.763	125.38
347.99	114.38
348.218	110.38
348.445	120.38
348.673	121.38
348.9	111.38
349.128	98.38
349.355	108.38
349.583	92.38
349.81	109.38
350.037	93.38
350.265	90.38
350.492	98.38
350.72	111.38
350.947	109.38
351.174	127.38
351.402	114.38
351.629	132.38
351.856	96.38
352.083	130.38
352.311	107.38
352.538	126.38
352.765	108.38
352.992	120.38
353.22	119.38
353.447	124.38
353.674	107.38
353.901	110.38
354.128	101.38
354.355	89.38
354.583	96.38
354.81	105.38
355.037	103.38
355.264	99.38
355.491	85.38
355.718	87.38
355.945	90.38
356.172	109.38
356.399	99.38
356.626	80.38
356.853	84.38
357.08	109.38
357.307	101.38
357.534	96.38
357.761	103.38
357.988	95.38
358.215	111.38
358.441	99.38
358.668	88.38
358.895	94.38
359.122	106.38
359.349	108.38
359.576	99.38
359.802	134.38
360.029	148.38
360.256	154.38
360.483	112.38
360.709	95.38
360.936	101.38
361.163	116.38
361.39	121.38
361.616	122.38
361.843	103.38
362.07	101.38
362.296	117.38
362.523	96.38
362.749	101.38
362.976	99.38
363.203	100.38
363.429	83.38
363.656	87.38
363.882	90.38
364.109	89.38
364.335	103.38
364.562	112.38
364.788	111.38
365.015	106.38
365.241	107.38
365.468	121.38
365.694	120.38
365.92	121.38
366.147	91.38
366.373	87.38
366.599	97.38
366.826	75.38
367.052	87.38
367.278	89.38
367.505	92.38
367.731	109.38
367.957	115.38
368.184	99.38
368.41	98.38
368.636	132.38
368.862	150.38
369.089	130.38
369.315	104.38
369.541	91.38
369.767	99.38
369.993	104.38
370.219	90.38
370.445	97.38
370.672	83.38
370.898	87.38
371.124	84.38
371.35	99.38
371.576	109.38
371.802	93.38
372.028	99.38
372.254	90.38
372.48	77.38
372.706	74.38
372.932	86.38
373.158	85.38
373.384	84.38
373.61	95.38
373.835	102.38
374.061	87.38
374.287	101.38
374.513	91.38
374.739	94.38
374.965	94.38
375.191	90.38
375.416	97.38
375.642	75.38
375.868	78.38
376.094	90.38
376.319	70.38
376.545	94.38
376.771	95.38
376.997	90.38
377.222	89.38
377.448	99.38
377.674	74.38
377.899	98.38
378.125	77.38
378.35	96.38
378.576	94.38
378.802	75.38
379.027	98.38
379.253	92.38
379.478	90.38
379.704	98.38
379.929	109.38
380.155	93.38
380.38	91.38
380.606	94.38
380.831	87.38
381.057	96.38
381.282	111.38
381.507	103.38
381.733	97.38
381.958	78.38
382.184	89.38
382.409	97.38
382.634	90.38
382.86	100.38
383.085	118.38
383.31	99.38
383.535	107.38
383.761	80.38
383.986	85.38
384.211	88.38
384.436	92.38
384.662	101.38
384.887	99.38
385.112	95.38
385.337	104.38
385.562	94.38
385.787	96.38
386.013	108.38
386.238	132.38
386.463	100.38
386.688	101.38
386.913	101.38
387.138	102.38
387.363	92.38
387.588	99.38
387.813	87.38
388.038	104.38
388.263	102.38
388.488	80.38
388.713	91.38
388.938	100.38
389.163	97.38
389.387	82.38
389.612	87.38
389.837	91.38
390.062	86.38
390.287	102.38
390.512	79.38
390.736	96.38
390.961	99.38
391.186	96.38
391.411	98.38
391.636	93.38
391.86	88.38
392.085	96.38
392.31	75.38
392.534	84.38
392.759	87.38
392.984	90.38
393.208	87.38
393.433	101.38
393.658	105.38
393.882	94.38
394.107	93.38
394.331	74.38
394.556	80.38
394.78	89.38
395.005	71.38
395.229	73.38
395.454	86.38
395.678	77.38
395.903	96.38
396.127	90.38
396.352	80.38
396.576	85.38
396.801	80.38
397.025	95.38
397.249	89.38
397.474	91.38
397.698	84.38
397.922	88.38
398.147	96.38
398.371	92.38
398.595	87.38
398.82	86.38
399.044	78.38
399.268	79.38
399.492	70.38
399.717	90.38
399.941	87.38
400.165	93.38
400.389	95.38
400.613	97.38
400.837	95.38
401.062	88.38
401.286	85.38
401.51	95.38
401.734	96.38
401.958	117.38
402.182	167.38
402.406	215.38
402.63	161.38
402.854	114.38
403.078	91.38
403.302	91.38
403.526	89.38
403.75	108.38
403.974	93.38
404.198	83.38
404.422	86.38
404.645	88.38
404.869	91.38
405.093	126.38
405.317	134.38
405.541	114.38
405.765	129.38
405.988	153.38
406.212	258.38
406.436	351.38
406.66	237.38
406.883	123.38
407.107	111.38
407.331	96.38
407.555	114.38
407.778	92.38
408.002	105.38
408.226	82.38
408.449	96.38
408.673	88.38
408.896	102.38
409.12	104.38
409.344	89.38
409.567	98.38
409.791	95.38
410.014	67.38
410.238	98.38
410.461	100.38
410.685	91.38
410.908	90.38
411.132	99.38
411.355	109.38
411.578	90.38
411.802	95.38
412.025	96.38
412.249	97.38
412.472	98.38
412.695	125.38
412.919	111.38
413.142	99.38
413.365	91.38
413.589	96.38
413.812	95.38
414.035	88.38
414.258	103.38
414.482	94.38
414.705	100.38
414.928	91.38
415.151	93.38
415.374	95.38
415.597	88.38
415.821	92.38
416.044	83.38
416.267	98.38
416.49	95.38
416.713	107.38
416.936	93.38
417.159	98.38
417.382	98.38
417.605	87.38
417.828	107.38
418.051	86.38
418.274	78.38
418.497	97.38
418.72	76.38
418.943	98.38
419.166	84.38
419.389	87.38
419.611	86.38
419.834	98.38
420.057	92.38
420.28	84.38
420.503	97.38
420.726	101.38
420.948	98.38
421.171	112.38
421.394	90.38
421.617	84.38
421.839	94.38
422.062	104.38
422.285	90.38
422.507	102.38
422.73	105.38
422.953	92.38
423.175	96.38
423.398	97.38
423.621	101.38
423.843	83.38
424.066	91.38
424.288	81.38
424.511	92.38
424.733	91.38
424.956	116.38
425.178	109.38
425.401	88.38
425.623	87.38
425.846	94.38
426.068	117.38
426.291	98.38
426.513	83.38
426.735	102.38
426.958	106.38
427.18	122.38
427.402	171.38
427.625	261.38
427.847	221.38
428.069	186.38
428.292	95.38
428.514	101.38
428.736	93.38
428.958	87.38
429.181	87.38
429.403	98.38
429.625	79.38
429.847	94.38
430.069	94.38
430.292	94.38
430.514	90.38
430.736	98.38
430.958	95.38
431.18	92.38
431.402	86.38
431.624	81.38
431.846	100.38
432.068	81.38
432.29	91.38
432.512	97.38
432.734	101.38
432.956	89.38
433.178	87.38
433.4	82.38
433.622	76.38
433.844	91.38
434.066	92.38
434.287	96.38
434.509	91.38
434.731	78.38
434.953	99.38
435.175	87.38
435.397	94.38
435.618	85.38
435.84	111.38
436.062	112.38
436.284	111.38
436.505	103.38
436.727	101.38
436.949	95.38
437.17	94.38
437.392	78.38
437.614	102.38
437.835	131.38
438.057	156.38
438.278	149.38
438.5	103.38
438.721	133.38
438.943	121.38
439.165	90.38
439.386	85.38
439.608	81.38
439.829	103.38
440.05	134.38
440.272	169.38
440.493	118.38
440.715	95.38
440.936	93.38
441.158	84.38
441.379	84.38
441.6	99.38
441.822	120.38
442.043	99.38
442.264	117.38
442.486	122.38
442.707	99.38
442.928	121.38
443.149	162.38
443.371	170.38
443.592	134.38
443.813	133.38
444.034	120.38
444.255	105.38
444.476	87.38
444.698	95.38
444.919	95.38
445.14	133.38
445.361	123.38
445.582	117.38
445.803	163.38
446.024	164.38
446.245	154.38
446.466	127.38
446.687	99.38
446.908	79.38
447.129	99.38
447.35	99.38
447.571	94.38
447.792	104.38
448.013	100.38
448.234	126.38
448.455	102.38
448.675	125.38
448.896	136.38
449.117	93.38
449.338	105.38
449.559	134.38
449.779	151.38
450	101.38
450.221	93.38
450.442	95.38
450.662	100.38
450.883	133.38
451.104	155.38
451.324	109.38
451.545	99.38
451.766	85.38
451.986	85.38
452.207	101.38
452.428	100.38
452.648	101.38
452.869	142.38
453.089	152.38
453.31	138.38
453.53	103.38
453.751	101.38
453.971	136.38
454.192	154.38
454.412	110.38
454.633	92.38
454.853	103.38
455.073	91.38
455.294	96.38
455.514	127.38
455.734	95.38
455.955	87.38
456.175	84.38
456.395	84.38
456.616	95.38
456.836	77.38
457.056	86.38
457.276	86.38
457.497	87.38
457.717	75.38
457.937	87.38
458.157	91.38
458.377	91.38
458.598	122.38
458.818	228.38
459.038	254.38
459.258	149.38
459.478	98.38
459.698	90.38
459.918	96.38
460.138	85.38
460.358	93.38
460.578	93.38
460.798	106.38
461.018	90.38
461.238	86.38
461.458	83.38
461.678	103.38
461.898	78.38
462.118	93.38
462.338	81.38
462.558	82.38
462.777	95.38
462.997	95.38
463.217	92.38
463.437	98.38
463.657	102.38
463.876	110.38
464.096	90.38
464.316	97.38
464.536	99.38
464.755	98.38
464.975	130.38
465.195	258.38
465.414	266.38
465.634	111.38
465.854	103.38
466.073	104.38
466.293	92.38
466.512	92.38
466.732	97.38
466.951	96.38
467.171	90.38
467.391	130.38
467.61	147.38
467.829	182.38
468.049	495.38
468.268	776.38
468.488	212.38
468.707	92.38
468.927	93.38
469.146	118.38
469.365	90.38
469.585	102.38
469.804	104.38
470.023	122.38
470.243	117.38
470.462	127.38
470.681	130.38
470.901	110.38
471.12	106.38
471.339	113.38
471.558	118.38
471.777	141.38
471.997	268.38
472.216	959.38
472.435	2228.38
472.654	543.38
472.873	166.38
473.092	103.38
473.311	110.38
473.53	99.38
473.749	92.38
473.968	102.38
474.187	121.38
474.406	116.38
474.625	103.38
474.844	93.38
475.063	79.38
475.282	91.38
475.501	89.38
475.72	83.38
475.939	94.38
476.158	87.38
476.377	102.38
476.596	94.38
476.814	106.38
477.033	102.38
477.252	95.38
477.471	86.38
477.69	96.38
477.908	98.38
478.127	85.38
478.346	95.38
478.564	100.38
478.783	114.38
479.002	110.38
479.22	109.38
479.439	128.38
479.658	141.38
479.876	132.38
480.095	136.38
480.313	134.38
480.532	156.38
480.751	247.38
480.969	841.38
481.188	3685.38
481.406	2267.38
481.624	345.38
481.843	138.38
482.061	107.38
482.28	94.38
482.498	107.38
482.717	94.38
482.935	82.38
483.153	96.38
483.372	90.38
483.59	97.38
483.808	94.38
484.027	93.38
484.245	99.38
484.463	91.38
484.681	84.38
484.9	90.38
485.118	93.38
485.336	102.38
485.554	106.38
485.772	101.38
485.99	99.38
486.209	109.38
486.427	113.38
486.645	112.38
486.863	119.38
487.081	124.38
487.299	92.38
487.517	103.38
487.735	92.38
487.953	92.38
488.171	110.38
488.389	96.38
488.607	86.38
488.825	79.38
489.043	79.38
489.261	99.38
489.479	96.38
489.696	87.38
489.914	93.38
490.132	73.38
490.35	87.38
490.568	95.38
490.786	97.38
491.003	106.38
491.221	80.38
491.439	84.38
491.657	102.38
491.874	86.38
492.092	98.38
492.31	94.38
492.527	100.38
492.745	91.38
492.963	95.38
493.18	108.38
493.398	95.38
493.615	90.38
493.833	103.38
494.05	106.38
494.268	91.38
494.485	84.38
494.703	93.38
494.92	93.38
495.138	88.38
495.355	100.38
495.573	87.38
495.79	83.38
496.008	88.38
496.225	92.38
496.442	106.38
496.66	89.38
496.877	88.38
497.094	93.38
497.312	90.38
497.529	89.38
497.746	96.38
497.963	87.38
498.181	86.38
498.398	99.38
498.615	105.38
498.832	107.38
499.049	103.38
499.267	94.38
499.484	88.38
499.701	94.38
499.918	83.38
500.135	100.38
500.352	79.38
500.569	96.38
500.786	103.38
501.003	82.38
501.22	96.38
501.437	90.38
501.654	109.38
501.871	143.38
502.088	95.38
502.305	102.38
502.522	89.38
502.739	86.38
502.956	92.38
503.172	99.38
503.389	111.38
503.606	140.38
503.823	119.38
504.04	95.38
504.256	96.38
504.473	85.38
504.69	93.38
504.907	84.38
505.123	88.38
505.34	100.38
505.557	77.38
505.773	101.38
505.99	93.38
506.207	88.38
506.423	103.38
506.64	92.38
506.856	88.38
507.073	87.38
507.289	91.38
507.506	105.38
507.722	133.38
507.939	138.38
508.155	95.38
508.372	109.38
508.588	95.38
508.805	101.38
509.021	103.38
509.238	112.38
509.454	105.38
509.67	112.38
509.887	115.38
510.103	144.38
510.319	258.38
510.536	1001.38
510.752	3726.38
510.968	1050.38
511.184	208.38
511.401	144.38
511.617	113.38
511.833	115.38
512.049	111.38
512.265	104.38
512.481	100.38
512.698	83.38
512.914	91.38
513.13	107.38
513.346	91.38
513.562	104.38
513.778	127.38
513.994	107.38
514.21	116.38
514.426	153.38
514.642	188.38
514.858	165.38
515.074	251.38
515.29	822.38
515.506	3085.38
515.721	1130.38
515.937	238.38
516.153	147.38
516.369	122.38
516.585	118.38
516.801	89.38
517.016	100.38
517.232	122.38
517.448	99.38
517.664	102.38
517.879	98.38
518.095	84.38
518.311	104.38
518.527	100.38
518.742	100.38
518.958	127.38
519.173	92.38
519.389	100.38
519.605	100.38
519.82	99.38
520.036	134.38
520.251	143.38
520.467	155.38
520.682	132.38
520.898	116.38
521.113	148.38
521.329	201.38
521.544	328.38
521.76	1014.38
521.975	5113.38
522.19	3181.38
522.406	621.38
522.621	186.38
522.836	110.38
523.052	107.38
523.267	96.38
523.482	101.38
523.698	111.38
523.913	133.38
524.128	131.38
524.343	91.38
524.559	98.38
524.774	109.38
524.989	111.38
525.204	127.38
525.419	120.38
525.634	90.38
525.849	109.38
526.064	83.38
526.28	94.38
526.495	91.38
526.71	104.38
526.925	93.38
527.14	99.38
527.355	93.38
527.57	89.38
527.785	90.38
527.999	98.38
528.214	99.38
528.429	82.38
528.644	88.38
528.859	100.38
529.074	90.38
529.289	155.38
529.503	301.38
529.718	127.38
529.933	85.38
530.148	96.38
530.363	94.38
530.577	101.38
530.792	103.38
531.007	94.38
531.221	88.38
531.436	100.38
531.651	95.38
531.865	96.38
532.08	88.38
532.295	104.38
532.509	92.38
532.724	90.38
532.938	86.38
533.153	94.38
533.367	78.38
533.582	85.38
533.796	83.38
534.011	85.38
534.225	108.38
534.44	87.38
534.654	99.38
534.868	102.38
535.083	93.38
535.297	86.38
535.511	107.38
535.726	118.38
535.94	105.38
536.154	98.38
536.369	105.38
536.583	90.38
536.797	93.38
537.011	81.38
537.225	94.38
537.44	86.38
537.654	85.38
537.868	81.38
538.082	90.38
538.296	78.38
538.51	90.38
538.724	92.38
538.938	88.38
539.153	104.38
539.367	118.38
539.581	108.38
539.795	92.38
540.009	93.38
540.222	98.38
540.436	88.38
540.65	83.38
540.864	100.38
541.078	116.38
541.292	84.38
541.506	89.38
541.72	93.38
541.934	86.38
542.147	84.38
542.361	76.38
542.575	96.38
542.789	104.38
543.002	88.38
543.216	101.38
543.43	114.38
543.644	95.38
543.857	78.38
544.071	89.38
544.285	94.38
544.498	100.38
544.712	88.38
544.925	92.38
545.139	84.38
545.352	92.38
545.566	82.38
545.779	73.38
545.993	100.38
546.206	79.38
546.42	95.38
546.633	95.38
546.847	81.38
547.06	88.38
547.274	101.38
547.487	89.38
547.7	94.38
547.914	87.38
548.127	94.38
548.34	94.38
548.554	98.38
548.767	92.38
548.98	90.38
549.193	83.38
549.407	97.38
549.62	101.38
549.833	93.38
550.046	108.38
550.259	96.38
550.473	100.38
550.686	97.38
550.899	87.38
551.112	87.38
551.325	88.38
551.538	97.38
551.751	86.38
551.964	84.38
552.177	94.38
552.39	85.38
552.603	96.38
552.816	88.38
553.029	94.38
553.242	87.38
553.455	108.38
553.667	99.38
553.88	118.38
554.093	99.38
554.306	118.38
554.519	116.38
554.732	94.38
554.944	105.38
555.157	87.38
555.37	109.38
555.583	101.38
555.795	109.38
556.008	92.38
556.221	97.38
556.433	93.38
556.646	97.38
556.859	76.38
557.071	91.38
557.284	99.38
557.496	90.38
557.709	86.38
557.921	96.38
558.134	96.38
558.346	97.38
558.559	102.38
558.771	99.38
558.984	78.38
559.196	98.38
559.409	99.38
559.621	98.38
559.833	99.38
560.046	91.38
560.258	103.38
560.47	130.38
560.683	104.38
560.895	93.38
561.107	81.38
561.32	101.38
561.532	77.38
561.744	90.38
561.956	75.38
562.168	94.38
562.381	90.38
562.593	105.38
562.805	91.38
563.017	100.38
563.229	102.38
563.441	90.38
563.653	92.38
563.865	89.38
564.077	88.38
564.289	89.38
564.501	89.38
564.713	89.38
564.925	111.38
565.137	105.38
565.349	90.38
565.561	82.38
565.773	85.38
565.985	75.38
566.197	82.38
566.408	78.38
566.62	93.38
566.832	88.38
567.044	89.38
567.255	98.38
567.467	83.38
567.679	95.38
567.891	98.38
568.102	87.38
568.314	83.38
568.526	85.38
568.737	94.38
568.949	91.38
569.161	88.38
569.372	91.38
569.584	96.38
569.795	106.38
570.007	124.38
570.218	324.38
570.43	181.38
570.641	85.38
570.853	93.38
571.064	86.38
571.276	100.38
571.487	107.38
571.698	87.38
571.91	92.38
572.121	94.38
572.333	100.38
572.544	82.38
572.755	91.38
572.966	85.38
573.178	88.38
573.389	90.38
573.6	111.38
573.811	112.38
574.023	83.38
574.234	91.38
574.445	94.38
574.656	103.38
574.867	77.38
575.078	79.38
575.289	106.38
575.501	91.38
575.712	95.38
575.923	95.38
576.134	83.38
576.345	93.38
576.556	95.38
576.767	101.38
576.978	100.38
577.188	90.38
577.399	101.38
577.61	97.38
577.821	92.38
578.032	134.38
578.243	352.38
578.454	1217.38
578.665	303.38
578.875	123.38
579.086	97.38
579.297	92.38
579.508	93.38
579.718	80.38
579.929	93.38
580.14	78.38
580.35	82.38
580.561	87.38
580.772	97.38
580.982	97.38
581.193	92.38
581.403	90.38
581.614	100.38
581.825	86.38
582.035	81.38
582.246	88.38
582.456	84.38
582.667	70.38
582.877	89.38
583.087	91.38
583.298	92.38
583.508	94.38
583.719	75.38
583.929	90.38
584.139	87.38
584.35	71.38
584.56	84.38
584.77	98.38
584.981	84.38
585.191	99.38
585.401	88.38
585.611	88.38
585.821	89.38
586.032	97.38
586.242	88.38
586.452	87.38
586.662	87.38
586.872	92.38
587.082	95.38
587.292	93.38
587.502	68.38
587.713	89.38
587.923	84.38
588.133	80.38
588.343	90.38
588.553	93.38
588.762	90.38
588.972	90.38
589.182	108.38
589.392	88.38
589.602	90.38
589.812	105.38
590.022	98.38
590.232	93.38
590.441	89.38
590.651	81.38
590.861	72.38
591.071	88.38
591.281	75.38
591.49	91.38
591.7	92.38
591.91	92.38
592.119	90.38
592.329	96.38
592.539	109.38
592.748	95.38
592.958	84.38
593.167	85.38
593.377	96.38
593.587	102.38
593.796	90.38
594.006	79.38
594.215	86.38
594.424	77.38
594.634	79.38
594.843	93.38
595.053	87.38
595.262	81.38
595.472	76.38
595.681	99.38
595.89	86.38
596.1	86.38
596.309	79.38
596.518	94.38
596.727	86.38
596.937	94.38
597.146	83.38
597.355	81.38
597.564	95.38
597.774	89.38
597.983	86.38
598.192	87.38
598.401	87.38
598.61	86.38
598.819	86.38
599.028	87.38
599.237	90.38
599.446	87.38
599.655	105.38
599.864	86.38
600.073	86.38
600.282	91.38
600.491	92.38
600.7	95.38
600.909	84.38
601.118	90.38
601.327	93.38
601.536	102.38
601.745	85.38
601.953	91.38
602.162	91.38
602.371	91.38
602.58	110.38
602.789	102.38
602.997	89.38
603.206	85.38
603.415	95.38
603.623	90.38
603.832	101.38
604.041	90.38
604.249	79.38
604.458	87.38
604.666	95.38
604.875	86.38
605.084	86.38
605.292	88.38
605.501	80.38
605.709	73.38
605.918	79.38
606.126	99.38
606.334	87.38
606.543	87.38
606.751	84.38
606.96	90.38
607.168	94.38
607.376	86.38
607.585	96.38
607.793	96.38
608.001	84.38
608.21	88.38
608.418	100.38
608.626	88.38
608.834	89.38
609.043	80.38
609.251	81.38
609.459	86.38
609.667	88.38
609.875	86.38
610.083	77.38
610.291	85.38
610.499	100.38
610.707	74.38
610.916	88.38
611.124	83.38
611.332	93.38
611.54	86.38
611.748	85.38
611.955	90.38
612.163	100.38
612.371	93.38
612.579	76.38
612.787	90.38
612.995	96.38
613.203	87.38
613.411	94.38
613.618	83.38
613.826	92.38
614.034	84.38
614.242	85.38
614.449	82.38
614.657	87.38
614.865	87.38
615.072	82.38
615.28	105.38
615.488	91.38
615.695	78.38
615.903	80.38
616.111	91.38
616.318	93.38
616.526	94.38
616.733	100.38
616.941	80.38
617.148	96.38
617.356	92.38
617.563	79.38
617.771	73.38
617.978	81.38
618.185	85.38
618.393	87.38
618.6	99.38
618.807	90.38
619.015	77.38
619.222	80.38
619.429	79.38
619.637	90.38
619.844	83.38
620.051	87.38
620.258	92.38
620.466	92.38
620.673	88.38
620.88	72.38
621.087	85.38
621.294	96.38
621.501	87.38
621.708	91.38
621.915	86.38
622.122	71.38
622.329	86.38
622.536	84.38
622.743	86.38
622.95	83.38
623.157	82.38
623.364	87.38
623.571	77.38
623.778	77.38
623.985	90.38
624.192	97.38
624.399	90.38
624.606	76.38
624.812	78.38
625.019	77.38
625.226	82.38
625.433	89.38
625.639	93.38
625.846	80.38
626.053	85.38
626.259	87.38
626.466	85.38
626.673	87.38
626.879	85.38
627.086	88.38
627.293	85.38
627.499	94.38
627.706	83.38
627.912	91.38
628.119	80.38
628.325	81.38
628.532	60.38
628.738	92.38
628.945	85.38
629.151	77.38
629.357	76.38
629.564	93.38
629.77	80.38
629.976	92.38
630.183	83.38
630.389	89.38
630.595	79.38
630.802	84.38
631.008	62.38
631.214	79.38
631.42	85.38
631.627	101.38
631.833	91.38
632.039	87.38
632.245	87.38
632.451	88.38
632.657	71.38
632.863	76.38
633.069	81.38
633.275	86.38
633.481	72.38
633.688	80.38
633.893	90.38
634.099	90.38
634.305	100.38
634.511	96.38
634.717	74.38
634.923	89.38
635.129	96.38
635.335	90.38
635.541	82.38
635.747	93.38
635.952	97.38
636.158	116.38
636.364	364.38
636.57	317.38
636.775	138.38
636.981	98.38
637.187	89.38
637.392	74.38
637.598	82.38
637.804	83.38
638.009	80.38
638.215	68.38
638.421	94.38
638.626	92.38
638.832	94.38
639.037	84.38
639.243	86.38
639.448	87.38
639.654	83.38
639.859	81.38
640.065	92.38
640.27	74.38
640.475	79.38
640.681	78.38
640.886	76.38
641.091	86.38
641.297	86.38
641.502	80.38
641.707	80.38
641.913	95.38
642.118	88.38
642.323	85.38
642.528	89.38
642.733	80.38
642.939	90.38
643.144	86.38
643.349	80.38
643.554	90.38
643.759	98.38
643.964	89.38
644.169	89.38
644.374	78.38
644.579	91.38
644.784	98.38
644.989	86.38
645.194	77.38
645.399	99.38
645.604	77.38
645.809	92.38
646.014	77.38
646.219	88.38
646.423	82.38
646.628	82.38
646.833	86.38
647.038	89.38
647.243	87.38
647.447	78.38
647.652	89.38
647.857	78.38
648.062	89.38
648.266	80.38
648.471	94.38
648.676	99.38
648.88	86.38
649.085	96.38
649.289	92.38
649.494	100.38
649.698	131.38
649.903	98.38
650.107	82.38
650.312	85.38
650.516	91.38
650.721	83.38
650.925	80.38
651.13	76.38
651.334	92.38
651.539	70.38
651.743	71.38
651.947	80.38
652.152	87.38
652.356	93.38
652.56	96.38
652.764	85.38
652.969	85.38
653.173	78.38
653.377	85.38
653.581	77.38
653.785	82.38
653.99	76.38
654.194	70.38
654.398	83.38
654.602	75.38
654.806	76.38
655.01	106.38
655.214	95.38
655.418	83.38
655.622	87.38
655.826	80.38
656.03	90.38
656.234	94.38
656.438	90.38
656.642	95.38
656.846	89.38
657.049	80.38
657.253	79.38
657.457	79.38
657.661	68.38
657.865	70.38
658.068	87.38
658.272	82.38
658.476	86.38
658.68	81.38
658.883	95.38
659.087	80.38
659.291	89.38
659.494	86.38
659.698	87.38
659.901	97.38
660.105	68.38
660.309	78.38
660.512	90.38
660.716	90.38
660.919	87.38
661.123	86.38
661.326	85.38
661.53	88.38
661.733	83.38
661.936	79.38
662.14	76.38
662.343	70.38
662.546	69.38
662.75	71.38
662.953	84.38
663.156	87.38
663.36	87.38
663.563	86.38
663.766	67.38
663.969	66.38
664.173	80.38
664.376	77.38
664.579	90.38
664.782	88.38
664.985	80.38
665.188	82.38
665.391	85.38
665.594	83.38
665.797	81.38
666	95.38
666.203	66.38
666.406	75.38
666.609	96.38
666.812	77.38
667.015	82.38
667.218	85.38
667.421	64.38
667.624	86.38
667.827	95.38
668.03	75.38
668.232	87.38
668.435	87.38
668.638	91.38
668.841	68.38
669.043	79.38
669.246	86.38
669.449	72.38
669.651	79.38
669.854	68.38
670.057	72.38
670.259	83.38
670.462	84.38
670.665	75.38
670.867	92.38
671.07	75.38
671.272	86.38
671.475	79.38
671.677	87.38
671.88	87.38
672.082	80.38
672.284	96.38
672.487	86.38
672.689	104.38
672.892	79.38
