Data from Circ_2013_H10_HRD10591_00004.txt Node
Date: Wed Jan 03 10:04:01 EST 2024
User: Yrep
Spectrometer: HR+D1059
Trigger mode: 1
Integration Time (sec): 1.000000E-1
Scans to average: 1
Electric dark correction enabled: true
Nonlinearity correction enabled: false
Boxcar width: 0
XAxis mode: Wavelengths
Number of Pixels in Spectrum: 2048
>>>>>Begin Spectral Data<<<<<
223.165	-9.12
223.4	-9.12
223.635	-9.12
223.869	-10.12
224.104	-18.12
224.338	-8.12
224.573	-10.12
224.808	-12.12
225.042	4.88
225.277	-2.12
225.511	-8.12
225.746	0.88
225.98	7.88
226.215	4.88
226.449	9.88
226.683	9.88
226.918	22.88
227.152	16.88
227.387	31.88
227.621	32.88
227.856	40.88
228.09	37.88
228.324	46.88
228.559	55.88
228.793	64.88
229.027	71.88
229.262	79.88
229.496	64.88
229.73	97.88
229.964	85.88
230.199	83.88
230.433	82.88
230.667	84.88
230.901	86.88
231.136	74.88
231.37	80.88
231.604	80.88
231.838	90.88
232.072	81.88
232.306	76.88
232.541	78.88
232.775	78.88
233.009	84.88
233.243	84.88
233.477	90.88
233.711	92.88
233.945	76.88
234.179	72.88
234.413	76.88
234.647	85.88
234.881	93.88
235.115	94.88
235.349	74.88
235.583	90.88
235.817	91.88
236.051	78.88
236.285	80.88
236.519	85.88
236.753	71.88
236.987	92.88
237.221	101.88
237.455	96.88
237.689	87.88
237.922	71.88
238.156	78.88
238.39	77.88
238.624	90.88
238.858	92.88
239.091	71.88
239.325	75.88
239.559	87.88
239.793	76.88
240.027	85.88
240.26	69.88
240.494	80.88
240.728	64.88
240.961	88.88
241.195	91.88
241.429	76.88
241.662	88.88
241.896	67.88
242.13	85.88
242.363	71.88
242.597	88.88
242.83	68.88
243.064	90.88
243.298	96.88
243.531	84.88
243.765	84.88
243.998	65.88
244.232	80.88
244.465	87.88
244.699	76.88
244.932	88.88
245.166	81.88
245.399	85.88
245.633	77.88
245.866	77.88
246.099	86.88
246.333	83.88
246.566	80.88
246.8	69.88
247.033	83.88
247.266	87.88
247.5	84.88
247.733	88.88
247.966	62.88
248.2	67.88
248.433	69.88
248.666	73.88
248.899	91.88
249.133	72.88
249.366	95.88
249.599	107.88
249.832	78.88
250.066	71.88
250.299	85.88
250.532	93.88
250.765	74.88
250.998	89.88
251.231	85.88
251.465	78.88
251.698	95.88
251.931	86.88
252.164	87.88
252.397	75.88
252.63	70.88
252.863	77.88
253.096	87.88
253.329	75.88
253.562	71.88
253.795	87.88
254.028	85.88
254.261	87.88
254.494	59.88
254.727	87.88
254.96	89.88
255.193	84.88
255.426	83.88
255.659	81.88
255.892	89.88
256.124	76.88
256.357	76.88
256.59	92.88
256.823	54.88
257.056	77.88
257.289	89.88
257.521	76.88
257.754	66.88
257.987	86.88
258.22	89.88
258.452	78.88
258.685	97.88
258.918	95.88
259.151	85.88
259.383	84.88
259.616	74.88
259.849	87.88
260.081	72.88
260.314	94.88
260.547	76.88
260.779	77.88
261.012	78.88
261.244	103.88
261.477	99.88
261.71	102.88
261.942	108.88
262.175	120.88
262.407	97.88
262.64	100.88
262.872	101.88
263.105	69.88
263.337	84.88
263.57	85.88
263.802	77.88
264.035	88.88
264.267	79.88
264.499	73.88
264.732	89.88
264.964	90.88
265.197	80.88
265.429	82.88
265.661	90.88
265.894	72.88
266.126	87.88
266.358	97.88
266.591	81.88
266.823	81.88
267.055	100.88
267.287	70.88
267.52	79.88
267.752	84.88
267.984	83.88
268.216	95.88
268.448	96.88
268.681	70.88
268.913	97.88
269.145	84.88
269.377	84.88
269.609	80.88
269.841	93.88
270.073	84.88
270.306	90.88
270.538	89.88
270.77	96.88
271.002	97.88
271.234	92.88
271.466	115.88
271.698	89.88
271.93	89.88
272.162	93.88
272.394	81.88
272.626	83.88
272.858	89.88
273.09	93.88
273.322	81.88
273.553	91.88
273.785	89.88
274.017	99.88
274.249	83.88
274.481	94.88
274.713	77.88
274.945	92.88
275.176	85.88
275.408	100.88
275.64	98.88
275.872	95.88
276.104	89.88
276.335	83.88
276.567	95.88
276.799	129.88
277.031	121.88
277.262	104.88
277.494	94.88
277.726	100.88
277.957	86.88
278.189	86.88
278.421	103.88
278.652	89.88
278.884	91.88
279.115	87.88
279.347	90.88
279.579	86.88
279.81	90.88
280.042	102.88
280.273	131.88
280.505	118.88
280.736	90.88
280.968	96.88
281.199	98.88
281.431	92.88
281.662	87.88
281.894	92.88
282.125	97.88
282.356	113.88
282.588	150.88
282.819	126.88
283.051	89.88
283.282	80.88
283.513	84.88
283.745	99.88
283.976	78.88
284.207	88.88
284.439	88.88
284.67	96.88
284.901	78.88
285.132	87.88
285.364	91.88
285.595	96.88
285.826	88.88
286.057	86.88
286.288	84.88
286.52	91.88
286.751	95.88
286.982	86.88
287.213	89.88
287.444	70.88
287.675	75.88
287.906	88.88
288.138	102.88
288.369	107.88
288.6	92.88
288.831	88.88
289.062	81.88
289.293	88.88
289.524	80.88
289.755	86.88
289.986	88.88
290.217	92.88
290.448	95.88
290.679	84.88
290.91	86.88
291.141	83.88
291.371	94.88
291.602	87.88
291.833	103.88
292.064	85.88
292.295	92.88
292.526	110.88
292.757	85.88
292.987	95.88
293.218	85.88
293.449	101.88
293.68	78.88
293.91	99.88
294.141	98.88
294.372	100.88
294.603	89.88
294.833	93.88
295.064	87.88
295.295	95.88
295.525	94.88
295.756	110.88
295.987	115.88
296.217	145.88
296.448	129.88
296.679	99.88
296.909	95.88
297.14	88.88
297.37	79.88
297.601	91.88
297.831	95.88
298.062	95.88
298.292	93.88
298.523	94.88
298.753	89.88
298.984	99.88
299.214	85.88
299.445	88.88
299.675	100.88
299.905	91.88
300.136	96.88
300.366	93.88
300.597	80.88
300.827	103.88
301.057	111.88
301.288	105.88
301.518	90.88
301.748	99.88
301.979	104.88
302.209	91.88
302.439	101.88
302.669	99.88
302.9	110.88
303.13	87.88
303.36	93.88
303.59	95.88
303.82	111.88
304.051	97.88
304.281	117.88
304.511	100.88
304.741	87.88
304.971	90.88
305.201	98.88
305.431	81.88
305.661	82.88
305.891	93.88
306.121	99.88
306.352	86.88
306.582	117.88
306.812	112.88
307.042	112.88
307.272	118.88
307.502	121.88
307.731	116.88
307.961	96.88
308.191	95.88
308.421	90.88
308.651	89.88
308.881	104.88
309.111	114.88
309.341	105.88
309.571	88.88
309.8	94.88
310.03	106.88
310.26	89.88
310.49	81.88
310.72	104.88
310.949	106.88
311.179	104.88
311.409	86.88
311.639	90.88
311.868	114.88
312.098	89.88
312.328	87.88
312.557	107.88
312.787	119.88
313.017	103.88
313.246	97.88
313.476	101.88
313.706	95.88
313.935	104.88
314.165	95.88
314.394	104.88
314.624	107.88
314.853	97.88
315.083	88.88
315.312	81.88
315.542	96.88
315.771	97.88
316.001	100.88
316.23	103.88
316.46	95.88
316.689	91.88
316.919	101.88
317.148	85.88
317.377	104.88
317.607	101.88
317.836	85.88
318.065	95.88
318.295	90.88
318.524	105.88
318.753	105.88
318.983	86.88
319.212	88.88
319.441	111.88
319.67	127.88
319.9	107.88
320.129	115.88
320.358	93.88
320.587	93.88
320.816	97.88
321.046	102.88
321.275	106.88
321.504	90.88
321.733	98.88
321.962	106.88
322.191	92.88
322.42	95.88
322.649	103.88
322.878	110.88
323.108	108.88
323.337	135.88
323.566	132.88
323.795	167.88
324.024	203.88
324.253	377.88
324.482	851.88
324.71	1681.88
324.939	2219.88
325.168	829.88
325.397	248.88
325.626	151.88
325.855	135.88
326.084	136.88
326.313	139.88
326.542	146.88
326.77	240.88
326.999	445.88
327.228	957.88
327.457	1702.88
327.686	1375.88
327.914	382.88
328.143	259.88
328.372	281.88
328.6	183.88
328.829	124.88
329.058	151.88
329.287	135.88
329.515	128.88
329.744	149.88
329.972	195.88
330.201	326.88
330.43	466.88
330.658	264.88
330.887	186.88
331.115	151.88
331.344	96.88
331.572	92.88
331.801	104.88
332.03	118.88
332.258	116.88
332.486	91.88
332.715	99.88
332.943	97.88
333.172	106.88
333.4	102.88
333.629	116.88
333.857	148.88
334.085	188.88
334.314	315.88
334.542	550.88
334.771	563.88
334.999	191.88
335.227	120.88
335.455	112.88
335.684	103.88
335.912	107.88
336.14	106.88
336.369	108.88
336.597	105.88
336.825	100.88
337.053	92.88
337.281	101.88
337.51	100.88
337.738	98.88
337.966	117.88
338.194	102.88
338.422	104.88
338.65	99.88
338.878	99.88
339.106	93.88
339.334	99.88
339.562	95.88
339.79	76.88
340.018	99.88
340.246	102.88
340.474	101.88
340.702	96.88
340.93	104.88
341.158	78.88
341.386	108.88
341.614	92.88
341.842	90.88
342.07	100.88
342.298	86.88
342.526	105.88
342.754	79.88
342.981	87.88
343.209	98.88
343.437	111.88
343.665	77.88
343.893	93.88
344.12	87.88
344.348	88.88
344.576	108.88
344.804	102.88
345.031	103.88
345.259	93.88
345.487	103.88
345.714	94.88
345.942	101.88
346.17	87.88
346.397	96.88
346.625	91.88
346.853	88.88
347.08	93.88
347.308	98.88
347.535	103.88
347.763	105.88
347.99	110.88
348.218	101.88
348.445	99.88
348.673	102.88
348.9	111.88
349.128	100.88
349.355	99.88
349.583	93.88
349.81	92.88
350.037	91.88
350.265	101.88
350.492	105.88
350.72	103.88
350.947	101.88
351.174	116.88
351.402	110.88
351.629	113.88
351.856	98.88
352.083	99.88
352.311	111.88
352.538	118.88
352.765	112.88
352.992	100.88
353.22	121.88
353.447	113.88
353.674	106.88
353.901	103.88
354.128	98.88
354.355	116.88
354.583	107.88
354.81	102.88
355.037	100.88
355.264	86.88
355.491	93.88
355.718	106.88
355.945	106.88
356.172	92.88
356.399	91.88
356.626	104.88
356.853	109.88
357.08	112.88
357.307	88.88
357.534	93.88
357.761	89.88
357.988	107.88
358.215	97.88
358.441	99.88
358.668	99.88
358.895	95.88
359.122	101.88
359.349	102.88
359.576	92.88
359.802	106.88
360.029	134.88
360.256	123.88
360.483	103.88
360.709	93.88
360.936	74.88
361.163	93.88
361.39	95.88
361.616	106.88
361.843	99.88
362.07	95.88
362.296	99.88
362.523	88.88
362.749	106.88
362.976	95.88
363.203	88.88
363.429	102.88
363.656	96.88
363.882	81.88
364.109	96.88
364.335	100.88
364.562	92.88
364.788	89.88
365.015	100.88
365.241	92.88
365.468	131.88
365.694	112.88
365.92	115.88
366.147	93.88
366.373	96.88
366.599	85.88
366.826	83.88
367.052	100.88
367.278	92.88
367.505	99.88
367.731	89.88
367.957	90.88
368.184	89.88
368.41	102.88
368.636	122.88
368.862	113.88
369.089	123.88
369.315	96.88
369.541	95.88
369.767	87.88
369.993	91.88
370.219	95.88
370.445	86.88
370.672	74.88
370.898	84.88
371.124	96.88
371.35	89.88
371.576	93.88
371.802	93.88
372.028	88.88
372.254	86.88
372.48	85.88
372.706	86.88
372.932	88.88
373.158	101.88
373.384	93.88
373.61	106.88
373.835	86.88
374.061	94.88
374.287	109.88
374.513	107.88
374.739	100.88
374.965	99.88
375.191	101.88
375.416	96.88
375.642	91.88
375.868	88.88
376.094	96.88
376.319	77.88
376.545	100.88
376.771	101.88
376.997	89.88
377.222	90.88
377.448	100.88
377.674	86.88
377.899	96.88
378.125	91.88
378.35	90.88
378.576	96.88
378.802	88.88
379.027	103.88
379.253	105.88
379.478	93.88
379.704	109.88
379.929	104.88
380.155	99.88
380.38	103.88
380.606	121.88
380.831	90.88
381.057	104.88
381.282	93.88
381.507	122.88
381.733	120.88
381.958	107.88
382.184	113.88
382.409	112.88
382.634	124.88
382.86	99.88
383.085	108.88
383.31	109.88
383.535	112.88
383.761	96.88
383.986	108.88
384.211	117.88
384.436	109.88
384.662	121.88
384.887	123.88
385.112	128.88
385.337	131.88
385.562	125.88
385.787	123.88
386.013	127.88
386.238	140.88
386.463	117.88
386.688	129.88
386.913	126.88
387.138	142.88
387.363	110.88
387.588	113.88
387.813	129.88
388.038	132.88
388.263	139.88
388.488	121.88
388.713	102.88
388.938	104.88
389.163	85.88
389.387	93.88
389.612	100.88
389.837	96.88
390.062	98.88
390.287	88.88
390.512	104.88
390.736	81.88
390.961	93.88
391.186	92.88
391.411	97.88
391.636	102.88
391.86	84.88
392.085	79.88
392.31	80.88
392.534	100.88
392.759	80.88
392.984	94.88
393.208	93.88
393.433	117.88
393.658	108.88
393.882	109.88
394.107	89.88
394.331	94.88
394.556	95.88
394.78	95.88
395.005	100.88
395.229	82.88
395.454	107.88
395.678	71.88
395.903	91.88
396.127	95.88
396.352	99.88
396.576	80.88
396.801	99.88
397.025	98.88
397.249	99.88
397.474	71.88
397.698	96.88
397.922	78.88
398.147	90.88
398.371	85.88
398.595	83.88
398.82	87.88
399.044	77.88
399.268	90.88
399.492	88.88
399.717	93.88
399.941	87.88
400.165	100.88
400.389	105.88
400.613	92.88
400.837	81.88
401.062	97.88
401.286	99.88
401.51	79.88
401.734	86.88
401.958	112.88
402.182	125.88
402.406	155.88
402.63	144.88
402.854	99.88
403.078	93.88
403.302	102.88
403.526	89.88
403.75	99.88
403.974	90.88
404.198	101.88
404.422	76.88
404.645	98.88
404.869	97.88
405.093	116.88
405.317	106.88
405.541	118.88
405.765	115.88
405.988	121.88
406.212	176.88
406.436	259.88
406.66	155.88
406.883	94.88
407.107	99.88
407.331	92.88
407.555	104.88
407.778	101.88
408.002	85.88
408.226	91.88
408.449	90.88
408.673	88.88
408.896	102.88
409.12	86.88
409.344	102.88
409.567	94.88
409.791	83.88
410.014	101.88
410.238	90.88
410.461	98.88
410.685	78.88
410.908	117.88
411.132	107.88
411.355	107.88
411.578	86.88
411.802	103.88
412.025	93.88
412.249	95.88
412.472	92.88
412.695	105.88
412.919	100.88
413.142	96.88
413.365	92.88
413.589	93.88
413.812	97.88
414.035	101.88
414.258	91.88
414.482	102.88
414.705	84.88
414.928	95.88
415.151	85.88
415.374	83.88
415.597	95.88
415.821	82.88
416.044	104.88
416.267	95.88
416.49	91.88
416.713	105.88
416.936	97.88
417.159	99.88
417.382	90.88
417.605	80.88
417.828	99.88
418.051	99.88
418.274	83.88
418.497	76.88
418.72	87.88
418.943	97.88
419.166	99.88
419.389	98.88
419.611	94.88
419.834	93.88
420.057	95.88
420.28	96.88
420.503	87.88
420.726	87.88
420.948	93.88
421.171	107.88
421.394	97.88
421.617	90.88
421.839	93.88
422.062	94.88
422.285	104.88
422.507	116.88
422.73	120.88
422.953	103.88
423.175	107.88
423.398	95.88
423.621	103.88
423.843	106.88
424.066	88.88
424.288	92.88
424.511	94.88
424.733	113.88
424.956	126.88
425.178	101.88
425.401	109.88
425.623	107.88
425.846	99.88
426.068	94.88
426.291	87.88
426.513	90.88
426.735	95.88
426.958	109.88
427.18	99.88
427.402	142.88
427.625	195.88
427.847	168.88
428.069	142.88
428.292	101.88
428.514	88.88
428.736	87.88
428.958	87.88
429.181	85.88
429.403	83.88
429.625	88.88
429.847	83.88
430.069	94.88
430.292	106.88
430.514	92.88
430.736	94.88
430.958	84.88
431.18	97.88
431.402	74.88
431.624	91.88
431.846	91.88
432.068	89.88
432.29	81.88
432.512	102.88
432.734	87.88
432.956	93.88
433.178	99.88
433.4	92.88
433.622	89.88
433.844	95.88
434.066	80.88
434.287	85.88
434.509	95.88
434.731	94.88
434.953	94.88
435.175	93.88
435.397	100.88
435.618	94.88
435.84	109.88
436.062	119.88
436.284	120.88
436.505	91.88
436.727	95.88
436.949	95.88
437.17	89.88
437.392	99.88
437.614	90.88
437.835	133.88
438.057	108.88
438.278	109.88
438.5	116.88
438.721	124.88
438.943	100.88
439.165	94.88
439.386	81.88
439.608	106.88
439.829	120.88
440.05	137.88
440.272	151.88
440.493	109.88
440.715	92.88
440.936	84.88
441.158	91.88
441.379	85.88
441.6	96.88
441.822	99.88
442.043	105.88
442.264	97.88
442.486	122.88
442.707	95.88
442.928	118.88
443.149	144.88
443.371	134.88
443.592	120.88
443.813	110.88
444.034	103.88
444.255	103.88
444.476	89.88
444.698	76.88
444.919	80.88
445.14	119.88
445.361	117.88
445.582	119.88
445.803	142.88
446.024	148.88
446.245	139.88
446.466	134.88
446.687	105.88
446.908	83.88
447.129	87.88
447.35	87.88
447.571	97.88
447.792	101.88
448.013	104.88
448.234	116.88
448.455	112.88
448.675	107.88
448.896	129.88
449.117	96.88
449.338	115.88
449.559	143.88
449.779	128.88
450	94.88
450.221	84.88
450.442	88.88
450.662	109.88
450.883	82.88
451.104	131.88
451.324	102.88
451.545	92.88
451.766	89.88
451.986	87.88
452.207	89.88
452.428	88.88
452.648	108.88
452.869	110.88
453.089	130.88
453.31	122.88
453.53	108.88
453.751	90.88
453.971	107.88
454.192	119.88
454.412	91.88
454.633	77.88
454.853	83.88
455.073	86.88
455.294	90.88
455.514	91.88
455.734	90.88
455.955	96.88
456.175	82.88
456.395	87.88
456.616	88.88
456.836	82.88
457.056	87.88
457.276	94.88
457.497	92.88
457.717	79.88
457.937	96.88
458.157	90.88
458.377	99.88
458.598	105.88
458.818	171.88
459.038	182.88
459.258	138.88
459.478	102.88
459.698	82.88
459.918	78.88
460.138	86.88
460.358	87.88
460.578	92.88
460.798	108.88
461.018	101.88
461.238	84.88
461.458	84.88
461.678	86.88
461.898	97.88
462.118	85.88
462.338	88.88
462.558	97.88
462.777	97.88
462.997	91.88
463.217	90.88
463.437	87.88
463.657	95.88
463.876	82.88
464.096	70.88
464.316	101.88
464.536	110.88
464.755	91.88
464.975	102.88
465.195	181.88
465.414	172.88
465.634	105.88
465.854	87.88
466.073	83.88
466.293	76.88
466.512	86.88
466.732	80.88
466.951	86.88
467.171	95.88
467.391	93.88
467.61	112.88
467.829	115.88
468.049	189.88
468.268	267.88
468.488	121.88
468.707	99.88
468.927	88.88
469.146	89.88
469.365	73.88
469.585	78.88
469.804	100.88
470.023	108.88
470.243	91.88
470.462	113.88
470.681	111.88
470.901	90.88
471.12	100.88
471.339	91.88
471.558	80.88
471.777	102.88
471.997	153.88
472.216	335.88
472.435	685.88
472.654	213.88
472.873	104.88
473.092	92.88
473.311	82.88
473.53	92.88
473.749	83.88
473.968	89.88
474.187	102.88
474.406	96.88
474.625	99.88
474.844	83.88
475.063	102.88
475.282	92.88
475.501	96.88
475.72	87.88
475.939	98.88
476.158	94.88
476.377	87.88
476.596	85.88
476.814	107.88
477.033	92.88
477.252	85.88
477.471	93.88
477.69	99.88
477.908	91.88
478.127	93.88
478.346	96.88
478.564	99.88
478.783	93.88
479.002	86.88
479.22	98.88
479.439	119.88
479.658	115.88
479.876	102.88
480.095	94.88
480.313	103.88
480.532	105.88
480.751	116.88
480.969	301.88
481.188	1122.88
481.406	794.88
481.624	168.88
481.843	98.88
482.061	99.88
482.28	102.88
482.498	98.88
482.717	87.88
482.935	77.88
483.153	92.88
483.372	82.88
483.59	86.88
483.808	86.88
484.027	97.88
484.245	85.88
484.463	86.88
484.681	106.88
484.9	103.88
485.118	90.88
485.336	89.88
485.554	98.88
485.772	90.88
485.99	109.88
486.209	101.88
486.427	109.88
486.645	116.88
486.863	119.88
487.081	111.88
487.299	113.88
487.517	101.88
487.735	100.88
487.953	97.88
488.171	97.88
488.389	98.88
488.607	83.88
488.825	104.88
489.043	91.88
489.261	90.88
489.479	107.88
489.696	79.88
489.914	89.88
490.132	93.88
490.35	93.88
490.568	84.88
490.786	74.88
491.003	94.88
491.221	85.88
491.439	96.88
491.657	99.88
491.874	94.88
492.092	95.88
492.31	108.88
492.527	106.88
492.745	98.88
492.963	106.88
493.18	104.88
493.398	90.88
493.615	85.88
493.833	99.88
494.05	81.88
494.268	87.88
494.485	93.88
494.703	86.88
494.92	99.88
495.138	102.88
495.355	95.88
495.573	89.88
495.79	99.88
496.008	96.88
496.225	88.88
496.442	91.88
496.66	98.88
496.877	99.88
497.094	103.88
497.312	101.88
497.529	76.88
497.746	77.88
497.963	105.88
498.181	109.88
498.398	108.88
498.615	110.88
498.832	104.88
499.049	72.88
499.267	83.88
499.484	80.88
499.701	105.88
499.918	94.88
500.135	80.88
500.352	88.88
500.569	90.88
500.786	93.88
501.003	93.88
501.22	89.88
501.437	93.88
501.654	103.88
501.871	124.88
502.088	92.88
502.305	95.88
502.522	85.88
502.739	96.88
502.956	90.88
503.172	86.88
503.389	94.88
503.606	97.88
503.823	86.88
504.04	92.88
504.256	77.88
504.473	94.88
504.69	92.88
504.907	92.88
505.123	87.88
505.34	94.88
505.557	100.88
505.773	97.88
505.99	97.88
506.207	92.88
506.423	92.88
506.64	98.88
506.856	94.88
507.073	91.88
507.289	107.88
507.506	92.88
507.722	124.88
507.939	124.88
508.155	94.88
508.372	85.88
508.588	92.88
508.805	97.88
509.021	93.88
509.238	90.88
509.454	105.88
509.67	108.88
509.887	116.88
510.103	137.88
510.319	211.88
510.536	711.88
510.752	2367.88
510.968	706.88
511.184	145.88
511.401	103.88
511.617	91.88
511.833	96.88
512.049	96.88
512.265	92.88
512.481	96.88
512.698	86.88
512.914	96.88
513.13	86.88
513.346	100.88
513.562	115.88
513.778	101.88
513.994	103.88
514.21	97.88
514.426	117.88
514.642	149.88
514.858	127.88
515.074	167.88
515.29	488.88
515.506	1751.88
515.721	695.88
515.937	175.88
516.153	119.88
516.369	96.88
516.585	104.88
516.801	88.88
517.016	109.88
517.232	102.88
517.448	103.88
517.664	87.88
517.879	96.88
518.095	102.88
518.311	106.88
518.527	94.88
518.742	104.88
518.958	81.88
519.173	93.88
519.389	101.88
519.605	91.88
519.82	104.88
520.036	114.88
520.251	135.88
520.467	133.88
520.682	104.88
520.898	111.88
521.113	120.88
521.329	135.88
521.544	222.88
521.76	609.88
521.975	2831.88
522.19	1824.88
522.406	380.88
522.621	144.88
522.836	106.88
523.052	106.88
523.267	88.88
523.482	102.88
523.698	103.88
523.913	139.88
524.128	110.88
524.343	100.88
524.559	93.88
524.774	99.88
524.989	98.88
525.204	109.88
525.419	110.88
525.634	88.88
525.849	81.88
526.064	85.88
526.28	83.88
526.495	99.88
526.71	114.88
526.925	88.88
527.14	102.88
527.355	92.88
527.57	102.88
527.785	110.88
527.999	86.88
528.214	96.88
528.429	84.88
528.644	91.88
528.859	92.88
529.074	93.88
529.289	129.88
529.503	207.88
529.718	103.88
529.933	97.88
530.148	99.88
530.363	91.88
530.577	95.88
530.792	79.88
531.007	98.88
531.221	87.88
531.436	87.88
531.651	100.88
531.865	94.88
532.08	89.88
532.295	99.88
532.509	92.88
532.724	99.88
532.938	90.88
533.153	100.88
533.367	94.88
533.582	104.88
533.796	95.88
534.011	98.88
534.225	109.88
534.44	98.88
534.654	100.88
534.868	87.88
535.083	101.88
535.297	93.88
535.511	112.88
535.726	111.88
535.94	117.88
536.154	94.88
536.369	110.88
536.583	89.88
536.797	92.88
537.011	94.88
537.225	101.88
537.44	87.88
537.654	83.88
537.868	94.88
538.082	112.88
538.296	101.88
538.51	100.88
538.724	93.88
538.938	102.88
539.153	94.88
539.367	108.88
539.581	102.88
539.795	90.88
540.009	83.88
540.222	89.88
540.436	86.88
540.65	99.88
540.864	95.88
541.078	91.88
541.292	93.88
541.506	80.88
541.72	91.88
541.934	91.88
542.147	99.88
542.361	89.88
542.575	68.88
542.789	86.88
543.002	99.88
543.216	92.88
543.43	99.88
543.644	91.88
543.857	100.88
544.071	88.88
544.285	103.88
544.498	99.88
544.712	96.88
544.925	100.88
545.139	96.88
545.352	93.88
545.566	86.88
545.779	108.88
545.993	98.88
546.206	98.88
546.42	97.88
546.633	90.88
546.847	95.88
547.06	87.88
547.274	87.88
547.487	97.88
547.7	89.88
547.914	79.88
548.127	88.88
548.34	96.88
548.554	89.88
548.767	86.88
548.98	102.88
549.193	92.88
549.407	77.88
549.62	94.88
549.833	97.88
550.046	100.88
550.259	97.88
550.473	95.88
550.686	88.88
550.899	97.88
551.112	79.88
551.325	82.88
551.538	80.88
551.751	78.88
551.964	101.88
552.177	100.88
552.39	96.88
552.603	94.88
552.816	86.88
553.029	76.88
553.242	91.88
553.455	94.88
553.667	102.88
553.88	109.88
554.093	108.88
554.306	96.88
554.519	89.88
554.732	91.88
554.944	95.88
555.157	95.88
555.37	90.88
555.583	91.88
555.795	88.88
556.008	87.88
556.221	90.88
556.433	88.88
556.646	105.88
556.859	89.88
557.071	103.88
557.284	85.88
557.496	93.88
557.709	91.88
557.921	87.88
558.134	95.88
558.346	91.88
558.559	86.88
558.771	106.88
558.984	97.88
559.196	92.88
559.409	86.88
559.621	95.88
559.833	105.88
560.046	90.88
560.258	100.88
560.47	101.88
560.683	97.88
560.895	88.88
561.107	86.88
561.32	90.88
561.532	96.88
561.744	93.88
561.956	89.88
562.168	98.88
562.381	98.88
562.593	89.88
562.805	98.88
563.017	99.88
563.229	94.88
563.441	109.88
563.653	100.88
563.865	91.88
564.077	100.88
564.289	79.88
564.501	93.88
564.713	99.88
564.925	93.88
565.137	116.88
565.349	91.88
565.561	91.88
565.773	102.88
565.985	89.88
566.197	92.88
566.408	101.88
566.62	99.88
566.832	98.88
567.044	89.88
567.255	75.88
567.467	93.88
567.679	87.88
567.891	87.88
568.102	97.88
568.314	95.88
568.526	90.88
568.737	85.88
568.949	101.88
569.161	93.88
569.372	98.88
569.584	87.88
569.795	87.88
570.007	124.88
570.218	234.88
570.43	133.88
570.641	100.88
570.853	78.88
571.064	79.88
571.276	77.88
571.487	83.88
571.698	108.88
571.91	93.88
572.121	98.88
572.333	92.88
572.544	83.88
572.755	82.88
572.966	84.88
573.178	93.88
573.389	83.88
573.6	87.88
573.811	86.88
574.023	95.88
574.234	76.88
574.445	87.88
574.656	87.88
574.867	95.88
575.078	97.88
575.289	92.88
575.501	81.88
575.712	92.88
575.923	80.88
576.134	79.88
576.345	86.88
576.556	104.88
576.767	95.88
576.978	95.88
577.188	87.88
577.399	88.88
577.61	77.88
577.821	110.88
578.032	124.88
578.243	255.88
578.454	771.88
578.665	232.88
578.875	110.88
579.086	102.88
579.297	89.88
579.508	93.88
579.718	97.88
579.929	82.88
580.14	85.88
580.35	86.88
580.561	100.88
580.772	100.88
580.982	87.88
581.193	90.88
581.403	100.88
581.614	79.88
581.825	90.88
582.035	80.88
582.246	86.88
582.456	77.88
582.667	91.88
582.877	96.88
583.087	83.88
583.298	94.88
583.508	94.88
583.719	80.88
583.929	91.88
584.139	85.88
584.35	65.88
584.56	88.88
584.77	104.88
584.981	82.88
585.191	94.88
585.401	99.88
585.611	89.88
585.821	100.88
586.032	83.88
586.242	78.88
586.452	88.88
586.662	85.88
586.872	87.88
587.082	94.88
587.292	92.88
587.502	88.88
587.713	81.88
587.923	82.88
588.133	79.88
588.343	81.88
588.553	86.88
588.762	88.88
588.972	121.88
589.182	253.88
589.392	157.88
589.602	109.88
589.812	184.88
590.022	101.88
590.232	88.88
590.441	92.88
590.651	88.88
590.861	85.88
591.071	89.88
591.281	99.88
591.49	93.88
591.7	92.88
591.91	93.88
592.119	92.88
592.329	88.88
592.539	93.88
592.748	88.88
592.958	92.88
593.167	103.88
593.377	98.88
593.587	94.88
593.796	93.88
594.006	81.88
594.215	87.88
594.424	96.88
594.634	79.88
594.843	93.88
595.053	95.88
595.262	92.88
595.472	87.88
595.681	97.88
595.89	73.88
596.1	86.88
596.309	86.88
596.518	85.88
596.727	89.88
596.937	84.88
597.146	87.88
597.355	79.88
597.564	93.88
597.774	78.88
597.983	96.88
598.192	98.88
598.401	99.88
598.61	105.88
598.819	95.88
599.028	76.88
599.237	88.88
599.446	85.88
599.655	82.88
599.864	94.88
600.073	92.88
600.282	95.88
600.491	93.88
600.7	105.88
600.909	97.88
601.118	101.88
601.327	90.88
601.536	107.88
601.745	83.88
601.953	100.88
602.162	80.88
602.371	85.88
602.58	88.88
602.789	83.88
602.997	91.88
603.206	89.88
603.415	95.88
603.623	83.88
603.832	90.88
604.041	81.88
604.249	81.88
604.458	91.88
604.666	91.88
604.875	97.88
605.084	93.88
605.292	97.88
605.501	85.88
605.709	81.88
605.918	92.88
606.126	91.88
606.334	102.88
606.543	81.88
606.751	88.88
606.96	77.88
607.168	92.88
607.376	91.88
607.585	85.88
607.793	81.88
608.001	84.88
608.21	101.88
608.418	84.88
608.626	85.88
608.834	76.88
609.043	81.88
609.251	89.88
609.459	81.88
609.667	89.88
609.875	95.88
610.083	78.88
610.291	73.88
610.499	88.88
610.707	89.88
610.916	91.88
611.124	86.88
611.332	92.88
611.54	91.88
611.748	95.88
611.955	89.88
612.163	86.88
612.371	96.88
612.579	95.88
612.787	88.88
612.995	87.88
613.203	75.88
613.411	83.88
613.618	90.88
613.826	82.88
614.034	63.88
614.242	96.88
614.449	85.88
614.657	85.88
614.865	96.88
615.072	91.88
615.28	82.88
615.488	94.88
615.695	100.88
615.903	97.88
616.111	97.88
616.318	89.88
616.526	90.88
616.733	107.88
616.941	110.88
617.148	95.88
617.356	92.88
617.563	94.88
617.771	91.88
617.978	88.88
618.185	83.88
618.393	100.88
618.6	89.88
618.807	91.88
619.015	84.88
619.222	84.88
619.429	89.88
619.637	89.88
619.844	89.88
620.051	90.88
620.258	87.88
620.466	96.88
620.673	83.88
620.88	99.88
621.087	80.88
621.294	87.88
621.501	86.88
621.708	89.88
621.915	85.88
622.122	84.88
622.329	86.88
622.536	81.88
622.743	77.88
622.95	74.88
623.157	81.88
623.364	84.88
623.571	81.88
623.778	88.88
623.985	93.88
624.192	84.88
624.399	96.88
624.606	77.88
624.812	78.88
625.019	84.88
625.226	85.88
625.433	91.88
625.639	89.88
625.846	89.88
626.053	79.88
626.259	85.88
626.466	83.88
626.673	80.88
626.879	84.88
627.086	87.88
627.293	85.88
627.499	87.88
627.706	88.88
627.912	89.88
628.119	88.88
628.325	84.88
628.532	79.88
628.738	87.88
628.945	77.88
629.151	71.88
629.357	81.88
629.564	78.88
629.77	91.88
629.976	88.88
630.183	81.88
630.389	88.88
630.595	84.88
630.802	97.88
631.008	91.88
631.214	89.88
631.42	98.88
631.627	85.88
631.833	83.88
632.039	73.88
632.245	85.88
632.451	75.88
632.657	91.88
632.863	93.88
633.069	85.88
633.275	99.88
633.481	77.88
633.688	79.88
633.893	91.88
634.099	89.88
634.305	83.88
634.511	79.88
634.717	80.88
634.923	86.88
635.129	93.88
635.335	87.88
635.541	85.88
635.747	86.88
635.952	108.88
636.158	99.88
636.364	155.88
636.57	164.88
636.775	104.88
636.981	86.88
637.187	90.88
637.392	96.88
637.598	72.88
637.804	95.88
638.009	89.88
638.215	84.88
638.421	86.88
638.626	83.88
638.832	86.88
639.037	87.88
639.243	95.88
639.448	85.88
639.654	80.88
639.859	104.88
640.065	85.88
640.27	69.88
640.475	97.88
640.681	80.88
640.886	87.88
641.091	71.88
641.297	72.88
641.502	84.88
641.707	101.88
641.913	98.88
642.118	84.88
642.323	73.88
642.528	93.88
642.733	95.88
642.939	103.88
643.144	72.88
643.349	85.88
643.554	93.88
643.759	95.88
643.964	82.88
644.169	86.88
644.374	89.88
644.579	104.88
644.784	96.88
644.989	79.88
645.194	88.88
645.399	97.88
645.604	76.88
645.809	81.88
646.014	88.88
646.219	65.88
646.423	78.88
646.628	80.88
646.833	76.88
647.038	81.88
647.243	81.88
647.447	99.88
647.652	80.88
647.857	81.88
648.062	100.88
648.266	75.88
648.471	89.88
648.676	97.88
648.88	104.88
649.085	86.88
649.289	89.88
649.494	94.88
649.698	144.88
649.903	100.88
650.107	85.88
650.312	105.88
650.516	86.88
650.721	82.88
650.925	92.88
651.13	83.88
651.334	84.88
651.539	94.88
651.743	71.88
651.947	76.88
652.152	74.88
652.356	81.88
652.56	95.88
652.764	84.88
652.969	81.88
653.173	82.88
653.377	83.88
653.581	81.88
653.785	79.88
653.99	86.88
654.194	88.88
654.398	95.88
654.602	88.88
654.806	92.88
655.01	113.88
655.214	102.88
655.418	95.88
655.622	86.88
655.826	99.88
656.03	91.88
656.234	98.88
656.438	112.88
656.642	98.88
656.846	102.88
657.049	92.88
657.253	95.88
657.457	84.88
657.661	87.88
657.865	87.88
658.068	89.88
658.272	68.88
658.476	79.88
658.68	90.88
658.883	86.88
659.087	97.88
659.291	96.88
659.494	80.88
659.698	86.88
659.901	72.88
660.105	84.88
660.309	95.88
660.512	92.88
660.716	72.88
660.919	87.88
661.123	90.88
661.326	76.88
661.53	77.88
661.733	92.88
661.936	93.88
662.14	91.88
662.343	74.88
662.546	93.88
662.75	74.88
662.953	80.88
663.156	86.88
663.36	77.88
663.563	87.88
663.766	90.88
663.969	85.88
664.173	94.88
664.376	65.88
664.579	80.88
664.782	89.88
664.985	89.88
665.188	93.88
665.391	91.88
665.594	94.88
665.797	84.88
666	87.88
666.203	73.88
666.406	81.88
666.609	83.88
666.812	86.88
667.015	76.88
667.218	71.88
667.421	82.88
667.624	85.88
667.827	81.88
668.03	73.88
668.232	68.88
668.435	71.88
668.638	74.88
668.841	85.88
669.043	76.88
669.246	86.88
669.449	77.88
669.651	82.88
669.854	85.88
670.057	89.88
670.259	84.88
670.462	78.88
670.665	79.88
670.867	84.88
671.07	76.88
671.272	80.88
671.475	87.88
671.677	91.88
671.88	82.88
672.082	80.88
672.284	77.88
672.487	72.88
672.689	84.88
672.892	88.88
