Data from Circ_2013_H10_HRD10591_00034.txt Node
Date: Wed Jan 03 10:04:07 EST 2024
User: Yrep
Spectrometer: HR+D1059
Trigger mode: 1
Integration Time (sec): 1.000000E-1
Scans to average: 1
Electric dark correction enabled: true
Nonlinearity correction enabled: false
Boxcar width: 0
XAxis mode: Wavelengths
Number of Pixels in Spectrum: 2048
>>>>>Begin Spectral Data<<<<<
223.165	-18.44
223.4	-18.44
223.635	-18.44
223.869	-22.44
224.104	-6.44
224.338	-25.44
224.573	-6.44
224.808	-14.44
225.042	-17.44
225.277	-10.44
225.511	0.56
225.746	1.56
225.98	4.56
226.215	20.56
226.449	22.56
226.683	28.56
226.918	25.56
227.152	17.56
227.387	31.56
227.621	39.56
227.856	34.56
228.09	54.56
228.324	50.56
228.559	62.56
228.793	56.56
229.027	65.56
229.262	66.56
229.496	70.56
229.73	88.56
229.964	85.56
230.199	71.56
230.433	69.56
230.667	69.56
230.901	80.56
231.136	77.56
231.37	70.56
231.604	76.56
231.838	81.56
232.072	66.56
232.306	78.56
232.541	68.56
232.775	75.56
233.009	87.56
233.243	82.56
233.477	82.56
233.711	93.56
233.945	74.56
234.179	68.56
234.413	81.56
234.647	72.56
234.881	74.56
235.115	81.56
235.349	77.56
235.583	65.56
235.817	91.56
236.051	95.56
236.285	85.56
236.519	67.56
236.753	82.56
236.987	92.56
237.221	95.56
237.455	88.56
237.689	60.56
237.922	73.56
238.156	80.56
238.39	76.56
238.624	68.56
238.858	77.56
239.091	68.56
239.325	90.56
239.559	89.56
239.793	79.56
240.027	80.56
240.26	68.56
240.494	80.56
240.728	68.56
240.961	78.56
241.195	81.56
241.429	84.56
241.662	85.56
241.896	86.56
242.13	81.56
242.363	77.56
242.597	56.56
242.83	76.56
243.064	80.56
243.298	81.56
243.531	81.56
243.765	82.56
243.998	68.56
244.232	88.56
244.465	86.56
244.699	77.56
244.932	88.56
245.166	68.56
245.399	75.56
245.633	67.56
245.866	85.56
246.099	87.56
246.333	84.56
246.566	82.56
246.8	90.56
247.033	73.56
247.266	71.56
247.5	83.56
247.733	77.56
247.966	86.56
248.2	80.56
248.433	79.56
248.666	82.56
248.899	84.56
249.133	87.56
249.366	105.56
249.599	120.56
249.832	71.56
250.066	88.56
250.299	82.56
250.532	76.56
250.765	82.56
250.998	94.56
251.231	93.56
251.465	87.56
251.698	74.56
251.931	88.56
252.164	83.56
252.397	85.56
252.63	80.56
252.863	70.56
253.096	93.56
253.329	85.56
253.562	72.56
253.795	89.56
254.028	81.56
254.261	63.56
254.494	84.56
254.727	86.56
254.96	76.56
255.193	96.56
255.426	87.56
255.659	78.56
255.892	86.56
256.124	76.56
256.357	87.56
256.59	80.56
256.823	84.56
257.056	69.56
257.289	91.56
257.521	92.56
257.754	87.56
257.987	96.56
258.22	76.56
258.452	103.56
258.685	91.56
258.918	79.56
259.151	79.56
259.383	73.56
259.616	80.56
259.849	82.56
260.081	86.56
260.314	81.56
260.547	84.56
260.779	86.56
261.012	91.56
261.244	96.56
261.477	70.56
261.71	102.56
261.942	122.56
262.175	140.56
262.407	104.56
262.64	108.56
262.872	93.56
263.105	83.56
263.337	78.56
263.57	83.56
263.802	91.56
264.035	90.56
264.267	78.56
264.499	70.56
264.732	85.56
264.964	77.56
265.197	70.56
265.429	85.56
265.661	94.56
265.894	89.56
266.126	90.56
266.358	89.56
266.591	78.56
266.823	89.56
267.055	85.56
267.287	94.56
267.52	101.56
267.752	79.56
267.984	84.56
268.216	81.56
268.448	83.56
268.681	84.56
268.913	90.56
269.145	84.56
269.377	86.56
269.609	91.56
269.841	76.56
270.073	81.56
270.306	82.56
270.538	83.56
270.77	92.56
271.002	85.56
271.234	96.56
271.466	95.56
271.698	92.56
271.93	79.56
272.162	77.56
272.394	82.56
272.626	85.56
272.858	75.56
273.09	100.56
273.322	86.56
273.553	80.56
273.785	96.56
274.017	81.56
274.249	85.56
274.481	88.56
274.713	100.56
274.945	87.56
275.176	93.56
275.408	91.56
275.64	101.56
275.872	104.56
276.104	98.56
276.335	100.56
276.567	106.56
276.799	121.56
277.031	132.56
277.262	130.56
277.494	107.56
277.726	94.56
277.957	88.56
278.189	74.56
278.421	88.56
278.652	84.56
278.884	90.56
279.115	85.56
279.347	87.56
279.579	92.56
279.81	94.56
280.042	114.56
280.273	147.56
280.505	111.56
280.736	83.56
280.968	98.56
281.199	99.56
281.431	89.56
281.662	78.56
281.894	90.56
282.125	104.56
282.356	119.56
282.588	146.56
282.819	136.56
283.051	97.56
283.282	88.56
283.513	103.56
283.745	73.56
283.976	76.56
284.207	72.56
284.439	82.56
284.67	85.56
284.901	88.56
285.132	78.56
285.364	86.56
285.595	86.56
285.826	89.56
286.057	77.56
286.288	91.56
286.52	77.56
286.751	86.56
286.982	76.56
287.213	74.56
287.444	90.56
287.675	82.56
287.906	96.56
288.138	90.56
288.369	98.56
288.6	92.56
288.831	82.56
289.062	86.56
289.293	88.56
289.524	78.56
289.755	86.56
289.986	82.56
290.217	85.56
290.448	72.56
290.679	79.56
290.91	79.56
291.141	91.56
291.371	78.56
291.602	93.56
291.833	90.56
292.064	86.56
292.295	102.56
292.526	82.56
292.757	98.56
292.987	100.56
293.218	112.56
293.449	80.56
293.68	94.56
293.91	66.56
294.141	80.56
294.372	76.56
294.603	88.56
294.833	77.56
295.064	87.56
295.295	78.56
295.525	65.56
295.756	99.56
295.987	116.56
296.217	156.56
296.448	147.56
296.679	89.56
296.909	92.56
297.14	100.56
297.37	100.56
297.601	93.56
297.831	90.56
298.062	103.56
298.292	83.56
298.523	106.56
298.753	87.56
298.984	89.56
299.214	99.56
299.445	95.56
299.675	91.56
299.905	98.56
300.136	89.56
300.366	86.56
300.597	76.56
300.827	90.56
301.057	87.56
301.288	115.56
301.518	90.56
301.748	106.56
301.979	103.56
302.209	101.56
302.439	94.56
302.669	83.56
302.9	101.56
303.13	89.56
303.36	85.56
303.59	116.56
303.82	123.56
304.051	88.56
304.281	89.56
304.511	93.56
304.741	96.56
304.971	78.56
305.201	97.56
305.431	101.56
305.661	83.56
305.891	87.56
306.121	87.56
306.352	119.56
306.582	102.56
306.812	93.56
307.042	97.56
307.272	142.56
307.502	143.56
307.731	121.56
307.961	103.56
308.191	93.56
308.421	89.56
308.651	90.56
308.881	98.56
309.111	93.56
309.341	97.56
309.571	107.56
309.8	100.56
310.03	72.56
310.26	106.56
310.49	100.56
310.72	103.56
310.949	109.56
311.179	86.56
311.409	82.56
311.639	93.56
311.868	105.56
312.098	86.56
312.328	101.56
312.557	104.56
312.787	118.56
313.017	116.56
313.246	101.56
313.476	100.56
313.706	101.56
313.935	96.56
314.165	109.56
314.394	120.56
314.624	98.56
314.853	95.56
315.083	82.56
315.312	81.56
315.542	93.56
315.771	82.56
316.001	89.56
316.23	85.56
316.46	98.56
316.689	96.56
316.919	90.56
317.148	94.56
317.377	111.56
317.607	80.56
317.836	90.56
318.065	87.56
318.295	96.56
318.524	77.56
318.753	99.56
318.983	79.56
319.212	100.56
319.441	98.56
319.67	109.56
319.9	99.56
320.129	93.56
320.358	92.56
320.587	91.56
320.816	104.56
321.046	102.56
321.275	89.56
321.504	95.56
321.733	91.56
321.962	107.56
322.191	99.56
322.42	103.56
322.649	121.56
322.878	107.56
323.108	136.56
323.337	142.56
323.566	160.56
323.795	169.56
324.024	236.56
324.253	443.56
324.482	940.56
324.71	2011.56
324.939	2658.56
325.168	979.56
325.397	274.56
325.626	171.56
325.855	142.56
326.084	132.56
326.313	140.56
326.542	155.56
326.77	253.56
326.999	514.56
327.228	1058.56
327.457	1913.56
327.686	1531.56
327.914	451.56
328.143	327.56
328.372	350.56
328.6	234.56
328.829	158.56
329.058	157.56
329.287	159.56
329.515	144.56
329.744	149.56
329.972	243.56
330.201	420.56
330.43	631.56
330.658	341.56
330.887	208.56
331.115	160.56
331.344	106.56
331.572	116.56
331.801	109.56
332.03	116.56
332.258	90.56
332.486	98.56
332.715	97.56
332.943	103.56
333.172	109.56
333.4	112.56
333.629	115.56
333.857	169.56
334.085	235.56
334.314	396.56
334.542	747.56
334.771	785.56
334.999	242.56
335.227	122.56
335.455	101.56
335.684	100.56
335.912	106.56
336.14	108.56
336.369	92.56
336.597	107.56
336.825	85.56
337.053	99.56
337.281	89.56
337.51	89.56
337.738	85.56
337.966	100.56
338.194	114.56
338.422	108.56
338.65	80.56
338.878	92.56
339.106	95.56
339.334	79.56
339.562	94.56
339.79	83.56
340.018	106.56
340.246	99.56
340.474	107.56
340.702	102.56
340.93	96.56
341.158	102.56
341.386	94.56
341.614	102.56
341.842	95.56
342.07	92.56
342.298	97.56
342.526	108.56
342.754	88.56
342.981	90.56
343.209	89.56
343.437	92.56
343.665	100.56
343.893	92.56
344.12	91.56
344.348	83.56
344.576	96.56
344.804	90.56
345.031	96.56
345.259	108.56
345.487	81.56
345.714	99.56
345.942	104.56
346.17	89.56
346.397	83.56
346.625	85.56
346.853	107.56
347.08	92.56
347.308	101.56
347.535	103.56
347.763	100.56
347.99	104.56
348.218	113.56
348.445	114.56
348.673	118.56
348.9	106.56
349.128	87.56
349.355	84.56
349.583	94.56
349.81	106.56
350.037	106.56
350.265	87.56
350.492	91.56
350.72	91.56
350.947	100.56
351.174	106.56
351.402	107.56
351.629	105.56
351.856	105.56
352.083	97.56
352.311	101.56
352.538	107.56
352.765	121.56
352.992	113.56
353.22	114.56
353.447	99.56
353.674	106.56
353.901	110.56
354.128	97.56
354.355	88.56
354.583	91.56
354.81	100.56
355.037	91.56
355.264	88.56
355.491	80.56
355.718	97.56
355.945	89.56
356.172	101.56
356.399	91.56
356.626	77.56
356.853	90.56
357.08	94.56
357.307	89.56
357.534	82.56
357.761	84.56
357.988	99.56
358.215	94.56
358.441	92.56
358.668	89.56
358.895	76.56
359.122	94.56
359.349	86.56
359.576	91.56
359.802	119.56
360.029	136.56
360.256	116.56
360.483	115.56
360.709	92.56
360.936	90.56
361.163	99.56
361.39	101.56
361.616	100.56
361.843	98.56
362.07	101.56
362.296	103.56
362.523	83.56
362.749	104.56
362.976	84.56
363.203	86.56
363.429	95.56
363.656	112.56
363.882	88.56
364.109	85.56
364.335	94.56
364.562	88.56
364.788	81.56
365.015	88.56
365.241	97.56
365.468	118.56
365.694	118.56
365.92	95.56
366.147	84.56
366.373	99.56
366.599	96.56
366.826	78.56
367.052	103.56
367.278	101.56
367.505	82.56
367.731	78.56
367.957	103.56
368.184	96.56
368.41	97.56
368.636	104.56
368.862	135.56
369.089	124.56
369.315	118.56
369.541	106.56
369.767	92.56
369.993	91.56
370.219	81.56
370.445	98.56
370.672	95.56
370.898	99.56
371.124	86.56
371.35	96.56
371.576	89.56
371.802	89.56
372.028	86.56
372.254	86.56
372.48	86.56
372.706	89.56
372.932	72.56
373.158	82.56
373.384	99.56
373.61	97.56
373.835	93.56
374.061	91.56
374.287	95.56
374.513	100.56
374.739	87.56
374.965	78.56
375.191	88.56
375.416	68.56
375.642	104.56
375.868	104.56
376.094	95.56
376.319	91.56
376.545	87.56
376.771	82.56
376.997	85.56
377.222	93.56
377.448	95.56
377.674	86.56
377.899	100.56
378.125	76.56
378.35	88.56
378.576	86.56
378.802	100.56
379.027	85.56
379.253	93.56
379.478	103.56
379.704	102.56
379.929	98.56
380.155	94.56
380.38	82.56
380.606	93.56
380.831	97.56
381.057	92.56
381.282	83.56
381.507	101.56
381.733	96.56
381.958	90.56
382.184	100.56
382.409	104.56
382.634	103.56
382.86	100.56
383.085	112.56
383.31	98.56
383.535	101.56
383.761	85.56
383.986	109.56
384.211	89.56
384.436	102.56
384.662	96.56
384.887	99.56
385.112	96.56
385.337	104.56
385.562	100.56
385.787	105.56
386.013	120.56
386.238	129.56
386.463	117.56
386.688	110.56
386.913	117.56
387.138	95.56
387.363	93.56
387.588	94.56
387.813	90.56
388.038	103.56
388.263	107.56
388.488	121.56
388.713	101.56
388.938	101.56
389.163	85.56
389.387	100.56
389.612	104.56
389.837	86.56
390.062	78.56
390.287	86.56
390.512	84.56
390.736	98.56
390.961	75.56
391.186	92.56
391.411	98.56
391.636	85.56
391.86	90.56
392.085	80.56
392.31	81.56
392.534	88.56
392.759	95.56
392.984	84.56
393.208	77.56
393.433	100.56
393.658	94.56
393.882	75.56
394.107	84.56
394.331	95.56
394.556	100.56
394.78	105.56
395.005	86.56
395.229	94.56
395.454	92.56
395.678	93.56
395.903	82.56
396.127	90.56
396.352	81.56
396.576	87.56
396.801	97.56
397.025	100.56
397.249	88.56
397.474	88.56
397.698	89.56
397.922	92.56
398.147	96.56
398.371	104.56
398.595	90.56
398.82	87.56
399.044	81.56
399.268	78.56
399.492	84.56
399.717	76.56
399.941	97.56
400.165	107.56
400.389	87.56
400.613	88.56
400.837	88.56
401.062	87.56
401.286	93.56
401.51	88.56
401.734	94.56
401.958	102.56
402.182	121.56
402.406	202.56
402.63	135.56
402.854	106.56
403.078	94.56
403.302	87.56
403.526	80.56
403.75	84.56
403.974	91.56
404.198	89.56
404.422	91.56
404.645	83.56
404.869	91.56
405.093	98.56
405.317	108.56
405.541	114.56
405.765	113.56
405.988	133.56
406.212	203.56
406.436	301.56
406.66	183.56
406.883	99.56
407.107	107.56
407.331	92.56
407.555	96.56
407.778	102.56
408.002	98.56
408.226	93.56
408.449	94.56
408.673	100.56
408.896	88.56
409.12	88.56
409.344	85.56
409.567	76.56
409.791	86.56
410.014	104.56
410.238	102.56
410.461	90.56
410.685	77.56
410.908	91.56
411.132	119.56
411.355	101.56
411.578	90.56
411.802	97.56
412.025	73.56
412.249	91.56
412.472	92.56
412.695	132.56
412.919	106.56
413.142	90.56
413.365	81.56
413.589	86.56
413.812	73.56
414.035	94.56
414.258	87.56
414.482	95.56
414.705	93.56
414.928	74.56
415.151	76.56
415.374	85.56
415.597	75.56
415.821	86.56
416.044	81.56
416.267	83.56
416.49	78.56
416.713	77.56
416.936	88.56
417.159	85.56
417.382	79.56
417.605	89.56
417.828	99.56
418.051	93.56
418.274	87.56
418.497	74.56
418.72	91.56
418.943	76.56
419.166	88.56
419.389	87.56
419.611	99.56
419.834	91.56
420.057	83.56
420.28	99.56
420.503	97.56
420.726	95.56
420.948	86.56
421.171	84.56
421.394	97.56
421.617	93.56
421.839	93.56
422.062	88.56
422.285	89.56
422.507	92.56
422.73	94.56
422.953	90.56
423.175	93.56
423.398	88.56
423.621	87.56
423.843	96.56
424.066	94.56
424.288	92.56
424.511	100.56
424.733	103.56
424.956	113.56
425.178	100.56
425.401	112.56
425.623	116.56
425.846	89.56
426.068	90.56
426.291	103.56
426.513	85.56
426.735	69.56
426.958	84.56
427.18	107.56
427.402	150.56
427.625	217.56
427.847	190.56
428.069	159.56
428.292	107.56
428.514	86.56
428.736	80.56
428.958	86.56
429.181	89.56
429.403	75.56
429.625	78.56
429.847	100.56
430.069	96.56
430.292	84.56
430.514	88.56
430.736	89.56
430.958	83.56
431.18	80.56
431.402	80.56
431.624	65.56
431.846	76.56
432.068	72.56
432.29	91.56
432.512	78.56
432.734	78.56
432.956	93.56
433.178	102.56
433.4	88.56
433.622	89.56
433.844	101.56
434.066	96.56
434.287	92.56
434.509	83.56
434.731	97.56
434.953	83.56
435.175	86.56
435.397	84.56
435.618	92.56
435.84	93.56
436.062	128.56
436.284	123.56
436.505	88.56
436.727	104.56
436.949	97.56
437.17	102.56
437.392	97.56
437.614	85.56
437.835	106.56
438.057	122.56
438.278	102.56
438.5	106.56
438.721	115.56
438.943	107.56
439.165	96.56
439.386	78.56
439.608	88.56
439.829	106.56
440.05	139.56
440.272	173.56
440.493	107.56
440.715	96.56
440.936	91.56
441.158	97.56
441.379	81.56
441.6	98.56
441.822	93.56
442.043	91.56
442.264	116.56
442.486	99.56
442.707	89.56
442.928	114.56
443.149	150.56
443.371	164.56
443.592	120.56
443.813	107.56
444.034	100.56
444.255	101.56
444.476	88.56
444.698	83.56
444.919	85.56
445.14	137.56
445.361	120.56
445.582	122.56
445.803	162.56
446.024	152.56
446.245	148.56
446.466	131.56
446.687	99.56
446.908	94.56
447.129	93.56
447.35	93.56
447.571	84.56
447.792	93.56
448.013	106.56
448.234	113.56
448.455	107.56
448.675	109.56
448.896	113.56
449.117	89.56
449.338	87.56
449.559	126.56
449.779	133.56
450	97.56
450.221	85.56
450.442	80.56
450.662	108.56
450.883	112.56
451.104	120.56
451.324	105.56
451.545	84.56
451.766	84.56
451.986	91.56
452.207	97.56
452.428	93.56
452.648	110.56
452.869	118.56
453.089	124.56
453.31	125.56
453.53	97.56
453.751	100.56
453.971	118.56
454.192	136.56
454.412	114.56
454.633	83.56
454.853	87.56
455.073	87.56
455.294	85.56
455.514	102.56
455.734	81.56
455.955	91.56
456.175	82.56
456.395	79.56
456.616	77.56
456.836	84.56
457.056	70.56
457.276	89.56
457.497	97.56
457.717	87.56
457.937	68.56
458.157	83.56
458.377	89.56
458.598	122.56
458.818	181.56
459.038	172.56
459.258	133.56
459.478	82.56
459.698	78.56
459.918	85.56
460.138	82.56
460.358	85.56
460.578	88.56
460.798	90.56
461.018	91.56
461.238	74.56
461.458	86.56
461.678	64.56
461.898	83.56
462.118	81.56
462.338	89.56
462.558	88.56
462.777	86.56
462.997	88.56
463.217	98.56
463.437	86.56
463.657	103.56
463.876	85.56
464.096	89.56
464.316	80.56
464.536	84.56
464.755	87.56
464.975	126.56
465.195	212.56
465.414	197.56
465.634	101.56
465.854	85.56
466.073	94.56
466.293	87.56
466.512	80.56
466.732	101.56
466.951	94.56
467.171	94.56
467.391	97.56
467.61	139.56
467.829	158.56
468.049	269.56
468.268	382.56
468.488	128.56
468.707	88.56
468.927	98.56
469.146	102.56
469.365	86.56
469.585	99.56
469.804	98.56
470.023	111.56
470.243	123.56
470.462	104.56
470.681	118.56
470.901	102.56
471.12	87.56
471.339	91.56
471.558	92.56
471.777	104.56
471.997	169.56
472.216	484.56
472.435	1076.56
472.654	301.56
472.873	131.56
473.092	93.56
473.311	105.56
473.53	93.56
473.749	77.56
473.968	92.56
474.187	113.56
474.406	126.56
474.625	89.56
474.844	77.56
475.063	74.56
475.282	73.56
475.501	79.56
475.72	105.56
475.939	87.56
476.158	79.56
476.377	82.56
476.596	87.56
476.814	82.56
477.033	85.56
477.252	85.56
477.471	92.56
477.69	84.56
477.908	86.56
478.127	104.56
478.346	98.56
478.564	100.56
478.783	101.56
479.002	91.56
479.22	108.56
479.439	117.56
479.658	119.56
479.876	98.56
480.095	99.56
480.313	104.56
480.532	121.56
480.751	159.56
480.969	440.56
481.188	1757.56
481.406	1167.56
481.624	212.56
481.843	114.56
482.061	90.56
482.28	91.56
482.498	88.56
482.717	92.56
482.935	79.56
483.153	85.56
483.372	75.56
483.59	79.56
483.808	99.56
484.027	99.56
484.245	96.56
484.463	91.56
484.681	85.56
484.9	91.56
485.118	100.56
485.336	87.56
485.554	97.56
485.772	105.56
485.99	95.56
486.209	86.56
486.427	100.56
486.645	113.56
486.863	132.56
487.081	123.56
487.299	93.56
487.517	89.56
487.735	92.56
487.953	77.56
488.171	91.56
488.389	93.56
488.607	106.56
488.825	88.56
489.043	78.56
489.261	93.56
489.479	96.56
489.696	89.56
489.914	87.56
490.132	91.56
490.35	77.56
490.568	89.56
490.786	84.56
491.003	77.56
491.221	92.56
491.439	78.56
491.657	92.56
491.874	101.56
492.092	89.56
492.31	97.56
492.527	100.56
492.745	97.56
492.963	99.56
493.18	101.56
493.398	93.56
493.615	104.56
493.833	101.56
494.05	93.56
494.268	85.56
494.485	86.56
494.703	101.56
494.92	95.56
495.138	82.56
495.355	78.56
495.573	83.56
495.79	96.56
496.008	95.56
496.225	85.56
496.442	83.56
496.66	81.56
496.877	79.56
497.094	99.56
497.312	82.56
497.529	77.56
497.746	85.56
497.963	89.56
498.181	93.56
498.398	98.56
498.615	113.56
498.832	102.56
499.049	97.56
499.267	85.56
499.484	98.56
499.701	95.56
499.918	85.56
500.135	94.56
500.352	96.56
500.569	84.56
500.786	95.56
501.003	82.56
501.22	100.56
501.437	97.56
501.654	98.56
501.871	107.56
502.088	98.56
502.305	89.56
502.522	90.56
502.739	93.56
502.956	99.56
503.172	89.56
503.389	107.56
503.606	100.56
503.823	107.56
504.04	89.56
504.256	82.56
504.473	88.56
504.69	87.56
504.907	92.56
505.123	85.56
505.34	98.56
505.557	91.56
505.773	93.56
505.99	97.56
506.207	90.56
506.423	77.56
506.64	89.56
506.856	89.56
507.073	83.56
507.289	103.56
507.506	93.56
507.722	135.56
507.939	114.56
508.155	96.56
508.372	97.56
508.588	91.56
508.805	97.56
509.021	105.56
509.238	93.56
509.454	115.56
509.67	109.56
509.887	111.56
510.103	130.56
510.319	233.56
510.536	844.56
510.752	3064.56
510.968	882.56
511.184	184.56
511.401	124.56
511.617	87.56
511.833	105.56
512.049	85.56
512.265	88.56
512.481	93.56
512.698	71.56
512.914	100.56
513.13	87.56
513.346	90.56
513.562	109.56
513.778	99.56
513.994	107.56
514.21	118.56
514.426	116.56
514.642	170.56
514.858	150.56
515.074	206.56
515.29	620.56
515.506	2299.56
515.721	889.56
515.937	205.56
516.153	125.56
516.369	102.56
516.585	100.56
516.801	97.56
517.016	89.56
517.232	97.56
517.448	99.56
517.664	105.56
517.879	96.56
518.095	110.56
518.311	98.56
518.527	109.56
518.742	88.56
518.958	112.56
519.173	87.56
519.389	102.56
519.605	101.56
519.82	98.56
520.036	109.56
520.251	146.56
520.467	136.56
520.682	120.56
520.898	97.56
521.113	132.56
521.329	170.56
521.544	269.56
521.76	788.56
521.975	3800.56
522.19	2367.56
522.406	471.56
522.621	160.56
522.836	120.56
523.052	103.56
523.267	104.56
523.482	102.56
523.698	109.56
523.913	137.56
524.128	105.56
524.343	110.56
524.559	100.56
524.774	82.56
524.989	105.56
525.204	127.56
525.419	114.56
525.634	95.56
525.849	89.56
526.064	96.56
526.28	108.56
526.495	79.56
526.71	82.56
526.925	90.56
527.14	96.56
527.355	86.56
527.57	92.56
527.785	96.56
527.999	96.56
528.214	99.56
528.429	112.56
528.644	97.56
528.859	94.56
529.074	99.56
529.289	156.56
529.503	238.56
529.718	125.56
529.933	107.56
530.148	82.56
530.363	91.56
530.577	100.56
530.792	85.56
531.007	75.56
531.221	93.56
531.436	93.56
531.651	92.56
531.865	85.56
532.08	86.56
532.295	90.56
532.509	87.56
532.724	85.56
532.938	86.56
533.153	90.56
533.367	76.56
533.582	72.56
533.796	90.56
534.011	89.56
534.225	94.56
534.44	93.56
534.654	105.56
534.868	89.56
535.083	96.56
535.297	86.56
535.511	94.56
535.726	114.56
535.94	110.56
536.154	104.56
536.369	98.56
536.583	85.56
536.797	71.56
537.011	84.56
537.225	93.56
537.44	68.56
537.654	76.56
537.868	72.56
538.082	83.56
538.296	93.56
538.51	93.56
538.724	90.56
538.938	81.56
539.153	119.56
539.367	124.56
539.581	96.56
539.795	91.56
540.009	100.56
540.222	100.56
540.436	97.56
540.65	81.56
540.864	88.56
541.078	104.56
541.292	90.56
541.506	90.56
541.72	73.56
541.934	75.56
542.147	71.56
542.361	84.56
542.575	81.56
542.789	77.56
543.002	90.56
543.216	95.56
543.43	101.56
543.644	94.56
543.857	97.56
544.071	68.56
544.285	100.56
544.498	89.56
544.712	67.56
544.925	95.56
545.139	79.56
545.352	92.56
545.566	88.56
545.779	96.56
545.993	91.56
546.206	94.56
546.42	102.56
546.633	92.56
546.847	92.56
547.06	94.56
547.274	90.56
547.487	94.56
547.7	94.56
547.914	89.56
548.127	81.56
548.34	81.56
548.554	85.56
548.767	77.56
548.98	93.56
549.193	86.56
549.407	84.56
549.62	74.56
549.833	94.56
550.046	88.56
550.259	85.56
550.473	101.56
550.686	90.56
550.899	78.56
551.112	87.56
551.325	101.56
551.538	103.56
551.751	90.56
551.964	87.56
552.177	93.56
552.39	93.56
552.603	81.56
552.816	89.56
553.029	97.56
553.242	83.56
553.455	105.56
553.667	119.56
553.88	93.56
554.093	108.56
554.306	98.56
554.519	101.56
554.732	84.56
554.944	93.56
555.157	86.56
555.37	89.56
555.583	90.56
555.795	95.56
556.008	103.56
556.221	101.56
556.433	86.56
556.646	83.56
556.859	97.56
557.071	88.56
557.284	91.56
557.496	89.56
557.709	91.56
557.921	82.56
558.134	88.56
558.346	94.56
558.559	78.56
558.771	74.56
558.984	88.56
559.196	95.56
559.409	72.56
559.621	94.56
559.833	91.56
560.046	97.56
560.258	96.56
560.47	98.56
560.683	87.56
560.895	95.56
561.107	106.56
561.32	93.56
561.532	89.56
561.744	91.56
561.956	110.56
562.168	103.56
562.381	93.56
562.593	87.56
562.805	90.56
563.017	97.56
563.229	84.56
563.441	87.56
563.653	90.56
563.865	104.56
564.077	102.56
564.289	81.56
564.501	86.56
564.713	86.56
564.925	100.56
565.137	127.56
565.349	100.56
565.561	88.56
565.773	88.56
565.985	87.56
566.197	77.56
566.408	86.56
566.62	103.56
566.832	91.56
567.044	82.56
567.255	91.56
567.467	80.56
567.679	94.56
567.891	90.56
568.102	70.56
568.314	94.56
568.526	81.56
568.737	94.56
568.949	92.56
569.161	85.56
569.372	90.56
569.584	73.56
569.795	105.56
570.007	131.56
570.218	300.56
570.43	150.56
570.641	76.56
570.853	85.56
571.064	81.56
571.276	86.56
571.487	90.56
571.698	91.56
571.91	91.56
572.121	93.56
572.333	81.56
572.544	84.56
572.755	94.56
572.966	91.56
573.178	87.56
573.389	60.56
573.6	83.56
573.811	88.56
574.023	79.56
574.234	79.56
574.445	85.56
574.656	97.56
574.867	76.56
575.078	91.56
575.289	78.56
575.501	83.56
575.712	92.56
575.923	90.56
576.134	88.56
576.345	83.56
576.556	88.56
576.767	108.56
576.978	88.56
577.188	90.56
577.399	87.56
577.61	93.56
577.821	111.56
578.032	128.56
578.243	316.56
578.454	973.56
578.665	264.56
578.875	112.56
579.086	84.56
579.297	87.56
579.508	100.56
579.718	83.56
579.929	94.56
580.14	90.56
580.35	82.56
580.561	92.56
580.772	86.56
580.982	69.56
581.193	84.56
581.403	97.56
581.614	107.56
581.825	104.56
582.035	86.56
582.246	82.56
582.456	82.56
582.667	81.56
582.877	82.56
583.087	88.56
583.298	107.56
583.508	97.56
583.719	74.56
583.929	83.56
584.139	82.56
584.35	80.56
584.56	84.56
584.77	81.56
584.981	85.56
585.191	87.56
585.401	109.56
585.611	99.56
585.821	96.56
586.032	96.56
586.242	82.56
586.452	84.56
586.662	84.56
586.872	114.56
587.082	76.56
587.292	84.56
587.502	89.56
587.713	85.56
587.923	89.56
588.133	80.56
588.343	88.56
588.553	77.56
588.762	97.56
588.972	89.56
589.182	156.56
589.392	115.56
589.602	108.56
589.812	133.56
590.022	101.56
590.232	92.56
590.441	86.56
590.651	83.56
590.861	87.56
591.071	83.56
591.281	80.56
591.49	64.56
591.7	91.56
591.91	79.56
592.119	82.56
592.329	102.56
592.539	93.56
592.748	78.56
592.958	89.56
593.167	89.56
593.377	84.56
593.587	81.56
593.796	80.56
594.006	83.56
594.215	90.56
594.424	86.56
594.634	77.56
594.843	79.56
595.053	86.56
595.262	98.56
595.472	86.56
595.681	86.56
595.89	91.56
596.1	83.56
596.309	91.56
596.518	92.56
596.727	79.56
596.937	93.56
597.146	89.56
597.355	92.56
597.564	91.56
597.774	83.56
597.983	89.56
598.192	81.56
598.401	83.56
598.61	93.56
598.819	88.56
599.028	81.56
599.237	77.56
599.446	94.56
599.655	87.56
599.864	97.56
600.073	95.56
600.282	90.56
600.491	89.56
600.7	83.56
600.909	71.56
601.118	92.56
601.327	81.56
601.536	74.56
601.745	86.56
601.953	94.56
602.162	78.56
602.371	93.56
602.58	89.56
602.789	77.56
602.997	89.56
603.206	88.56
603.415	84.56
603.623	82.56
603.832	86.56
604.041	83.56
604.249	94.56
604.458	91.56
604.666	83.56
604.875	78.56
605.084	78.56
605.292	95.56
605.501	68.56
605.709	82.56
605.918	85.56
606.126	84.56
606.334	95.56
606.543	92.56
606.751	91.56
606.96	84.56
607.168	78.56
607.376	75.56
607.585	80.56
607.793	89.56
608.001	89.56
608.21	90.56
608.418	90.56
608.626	96.56
608.834	78.56
609.043	77.56
609.251	74.56
609.459	90.56
609.667	95.56
609.875	78.56
610.083	91.56
610.291	84.56
610.499	75.56
610.707	70.56
610.916	84.56
611.124	94.56
611.332	88.56
611.54	86.56
611.748	93.56
611.955	83.56
612.163	82.56
612.371	80.56
612.579	88.56
612.787	78.56
612.995	94.56
613.203	80.56
613.411	87.56
613.618	91.56
613.826	91.56
614.034	82.56
614.242	99.56
614.449	80.56
614.657	79.56
614.865	85.56
615.072	82.56
615.28	84.56
615.488	72.56
615.695	86.56
615.903	74.56
616.111	93.56
616.318	97.56
616.526	97.56
616.733	84.56
616.941	87.56
617.148	106.56
617.356	105.56
617.563	78.56
617.771	97.56
617.978	91.56
618.185	80.56
618.393	80.56
618.6	76.56
618.807	89.56
619.015	84.56
619.222	77.56
619.429	79.56
619.637	93.56
619.844	77.56
620.051	78.56
620.258	84.56
620.466	96.56
620.673	85.56
620.88	75.56
621.087	70.56
621.294	73.56
621.501	79.56
621.708	92.56
621.915	80.56
622.122	84.56
622.329	78.56
622.536	84.56
622.743	75.56
622.95	85.56
623.157	88.56
623.364	82.56
623.571	86.56
623.778	98.56
623.985	85.56
624.192	85.56
624.399	86.56
624.606	100.56
624.812	67.56
625.019	75.56
625.226	86.56
625.433	88.56
625.639	96.56
625.846	91.56
626.053	89.56
626.259	73.56
626.466	81.56
626.673	83.56
626.879	84.56
627.086	99.56
627.293	80.56
627.499	75.56
627.706	73.56
627.912	78.56
628.119	88.56
628.325	85.56
628.532	84.56
628.738	75.56
628.945	82.56
629.151	89.56
629.357	85.56
629.564	88.56
629.77	88.56
629.976	90.56
630.183	76.56
630.389	84.56
630.595	96.56
630.802	91.56
631.008	81.56
631.214	78.56
631.42	88.56
631.627	76.56
631.833	81.56
632.039	88.56
632.245	90.56
632.451	64.56
632.657	75.56
632.863	76.56
633.069	83.56
633.275	92.56
633.481	73.56
633.688	91.56
633.893	76.56
634.099	76.56
634.305	73.56
634.511	92.56
634.717	91.56
634.923	79.56
635.129	85.56
635.335	81.56
635.541	84.56
635.747	89.56
635.952	87.56
636.158	112.56
636.364	208.56
636.57	173.56
636.775	109.56
636.981	94.56
637.187	84.56
637.392	79.56
637.598	78.56
637.804	83.56
638.009	75.56
638.215	75.56
638.421	89.56
638.626	82.56
638.832	84.56
639.037	83.56
639.243	87.56
639.448	70.56
639.654	90.56
639.859	77.56
640.065	74.56
640.27	85.56
640.475	76.56
640.681	83.56
640.886	83.56
641.091	73.56
641.297	90.56
641.502	83.56
641.707	75.56
641.913	109.56
642.118	86.56
642.323	78.56
642.528	83.56
642.733	93.56
642.939	77.56
643.144	84.56
643.349	87.56
643.554	84.56
643.759	72.56
643.964	69.56
644.169	83.56
644.374	100.56
644.579	91.56
644.784	75.56
644.989	92.56
645.194	77.56
645.399	84.56
645.604	85.56
645.809	98.56
646.014	89.56
646.219	86.56
646.423	74.56
646.628	82.56
646.833	78.56
647.038	80.56
647.243	74.56
647.447	81.56
647.652	85.56
647.857	85.56
648.062	64.56
648.266	94.56
648.471	88.56
648.676	95.56
648.88	96.56
649.085	82.56
649.289	85.56
649.494	111.56
649.698	137.56
649.903	97.56
650.107	90.56
650.312	96.56
650.516	85.56
650.721	82.56
650.925	98.56
651.13	81.56
651.334	82.56
651.539	80.56
651.743	83.56
651.947	82.56
652.152	78.56
652.356	100.56
652.56	86.56
652.764	93.56
652.969	85.56
653.173	94.56
653.377	85.56
653.581	78.56
653.785	78.56
653.99	75.56
654.194	77.56
654.398	81.56
654.602	77.56
654.806	99.56
655.01	93.56
655.214	78.56
655.418	97.56
655.622	76.56
655.826	83.56
656.03	92.56
656.234	98.56
656.438	101.56
656.642	97.56
656.846	97.56
657.049	96.56
657.253	81.56
657.457	80.56
657.661	84.56
657.865	83.56
658.068	67.56
658.272	82.56
658.476	91.56
658.68	85.56
658.883	70.56
659.087	79.56
659.291	79.56
659.494	80.56
659.698	74.56
659.901	79.56
660.105	85.56
660.309	74.56
660.512	65.56
660.716	86.56
660.919	76.56
661.123	65.56
661.326	78.56
661.53	68.56
661.733	79.56
661.936	76.56
662.14	66.56
662.343	86.56
662.546	80.56
662.75	77.56
662.953	89.56
663.156	93.56
663.36	96.56
663.563	89.56
663.766	90.56
663.969	81.56
664.173	78.56
664.376	86.56
664.579	65.56
664.782	67.56
664.985	88.56
665.188	77.56
665.391	85.56
665.594	84.56
665.797	78.56
666	82.56
666.203	72.56
666.406	89.56
666.609	84.56
666.812	72.56
667.015	80.56
667.218	80.56
667.421	78.56
667.624	75.56
667.827	85.56
668.03	79.56
668.232	68.56
668.435	86.56
668.638	87.56
668.841	77.56
669.043	81.56
669.246	80.56
669.449	83.56
669.651	69.56
669.854	77.56
670.057	74.56
670.259	93.56
670.462	68.56
670.665	76.56
670.867	79.56
671.07	96.56
671.272	81.56
671.475	74.56
671.677	74.56
671.88	75.56
672.082	86.56
672.284	77.56
672.487	77.56
672.689	91.56
672.892	89.56
