Data from Circ_2016_H10_HRD10591_00064.txt Node
Date: Wed Jan 03 09:58:53 EST 2024
User: Yrep
Spectrometer: HR+D1059
Trigger mode: 1
Integration Time (sec): 1.000000E-1
Scans to average: 1
Electric dark correction enabled: true
Nonlinearity correction enabled: false
Boxcar width: 0
XAxis mode: Wavelengths
Number of Pixels in Spectrum: 2048
>>>>>Begin Spectral Data<<<<<
223.165	-14.88
223.4	-14.88
223.635	-14.88
223.869	-14.88
224.104	-10.88
224.338	-10.88
224.573	-7.88
224.808	-9.88
225.042	1.12
225.277	-10.88
225.511	-0.88
225.746	-13.88
225.98	17.12
226.215	12.12
226.449	3.12
226.683	26.12
226.918	19.12
227.152	16.12
227.387	30.12
227.621	34.12
227.856	29.12
228.09	48.12
228.324	43.12
228.559	57.12
228.793	64.12
229.027	56.12
229.262	74.12
229.496	77.12
229.73	70.12
229.964	81.12
230.199	85.12
230.433	74.12
230.667	75.12
230.901	74.12
231.136	85.12
231.37	78.12
231.604	88.12
231.838	74.12
232.072	77.12
232.306	87.12
232.541	98.12
232.775	81.12
233.009	72.12
233.243	85.12
233.477	89.12
233.711	75.12
233.945	78.12
234.179	91.12
234.413	79.12
234.647	82.12
234.881	68.12
235.115	73.12
235.349	67.12
235.583	70.12
235.817	79.12
236.051	88.12
236.285	75.12
236.519	77.12
236.753	69.12
236.987	86.12
237.221	102.12
237.455	87.12
237.689	83.12
237.922	83.12
238.156	74.12
238.39	86.12
238.624	70.12
238.858	70.12
239.091	82.12
239.325	66.12
239.559	78.12
239.793	78.12
240.027	91.12
240.26	75.12
240.494	94.12
240.728	75.12
240.961	78.12
241.195	73.12
241.429	92.12
241.662	82.12
241.896	81.12
242.13	69.12
242.363	66.12
242.597	100.12
242.83	91.12
243.064	85.12
243.298	83.12
243.531	77.12
243.765	64.12
243.998	73.12
244.232	90.12
244.465	91.12
244.699	83.12
244.932	85.12
245.166	76.12
245.399	60.12
245.633	90.12
245.866	75.12
246.099	78.12
246.333	77.12
246.566	73.12
246.8	82.12
247.033	77.12
247.266	81.12
247.5	98.12
247.733	83.12
247.966	88.12
248.2	86.12
248.433	77.12
248.666	95.12
248.899	76.12
249.133	81.12
249.366	90.12
249.599	97.12
249.832	79.12
250.066	78.12
250.299	90.12
250.532	79.12
250.765	68.12
250.998	85.12
251.231	79.12
251.465	73.12
251.698	75.12
251.931	79.12
252.164	77.12
252.397	80.12
252.63	86.12
252.863	83.12
253.096	82.12
253.329	89.12
253.562	74.12
253.795	65.12
254.028	77.12
254.261	89.12
254.494	96.12
254.727	78.12
254.96	89.12
255.193	85.12
255.426	75.12
255.659	79.12
255.892	81.12
256.124	74.12
256.357	73.12
256.59	78.12
256.823	85.12
257.056	89.12
257.289	79.12
257.521	76.12
257.754	72.12
257.987	94.12
258.22	85.12
258.452	68.12
258.685	93.12
258.918	77.12
259.151	74.12
259.383	83.12
259.616	91.12
259.849	74.12
260.081	77.12
260.314	85.12
260.547	79.12
260.779	74.12
261.012	83.12
261.244	96.12
261.477	102.12
261.71	86.12
261.942	92.12
262.175	127.12
262.407	86.12
262.64	91.12
262.872	92.12
263.105	65.12
263.337	77.12
263.57	81.12
263.802	87.12
264.035	85.12
264.267	84.12
264.499	92.12
264.732	100.12
264.964	81.12
265.197	92.12
265.429	95.12
265.661	90.12
265.894	70.12
266.126	78.12
266.358	78.12
266.591	99.12
266.823	90.12
267.055	77.12
267.287	97.12
267.52	61.12
267.752	68.12
267.984	84.12
268.216	87.12
268.448	76.12
268.681	83.12
268.913	90.12
269.145	90.12
269.377	71.12
269.609	65.12
269.841	81.12
270.073	87.12
270.306	87.12
270.538	91.12
270.77	86.12
271.002	76.12
271.234	73.12
271.466	79.12
271.698	91.12
271.93	90.12
272.162	97.12
272.394	92.12
272.626	85.12
272.858	90.12
273.09	87.12
273.322	94.12
273.553	85.12
273.785	87.12
274.017	86.12
274.249	77.12
274.481	88.12
274.713	84.12
274.945	102.12
275.176	67.12
275.408	87.12
275.64	81.12
275.872	81.12
276.104	84.12
276.335	90.12
276.567	99.12
276.799	101.12
277.031	102.12
277.262	90.12
277.494	93.12
277.726	101.12
277.957	93.12
278.189	66.12
278.421	85.12
278.652	90.12
278.884	79.12
279.115	87.12
279.347	91.12
279.579	78.12
279.81	100.12
280.042	91.12
280.273	92.12
280.505	92.12
280.736	83.12
280.968	77.12
281.199	79.12
281.431	86.12
281.662	80.12
281.894	78.12
282.125	99.12
282.356	99.12
282.588	114.12
282.819	121.12
283.051	84.12
283.282	93.12
283.513	90.12
283.745	84.12
283.976	90.12
284.207	90.12
284.439	83.12
284.67	96.12
284.901	86.12
285.132	94.12
285.364	83.12
285.595	103.12
285.826	94.12
286.057	76.12
286.288	89.12
286.52	89.12
286.751	78.12
286.982	86.12
287.213	87.12
287.444	76.12
287.675	88.12
287.906	91.12
288.138	101.12
288.369	98.12
288.6	98.12
288.831	78.12
289.062	98.12
289.293	91.12
289.524	78.12
289.755	84.12
289.986	71.12
290.217	93.12
290.448	81.12
290.679	87.12
290.91	83.12
291.141	83.12
291.371	74.12
291.602	87.12
291.833	94.12
292.064	78.12
292.295	80.12
292.526	94.12
292.757	82.12
292.987	73.12
293.218	85.12
293.449	94.12
293.68	72.12
293.91	77.12
294.141	89.12
294.372	88.12
294.603	98.12
294.833	83.12
295.064	97.12
295.295	95.12
295.525	100.12
295.756	97.12
295.987	102.12
296.217	129.12
296.448	114.12
296.679	93.12
296.909	86.12
297.14	92.12
297.37	89.12
297.601	90.12
297.831	78.12
298.062	89.12
298.292	99.12
298.523	94.12
298.753	86.12
298.984	88.12
299.214	93.12
299.445	83.12
299.675	100.12
299.905	95.12
300.136	85.12
300.366	86.12
300.597	90.12
300.827	80.12
301.057	98.12
301.288	100.12
301.518	102.12
301.748	88.12
301.979	93.12
302.209	102.12
302.439	95.12
302.669	90.12
302.9	78.12
303.13	87.12
303.36	98.12
303.59	97.12
303.82	99.12
304.051	93.12
304.281	85.12
304.511	99.12
304.741	86.12
304.971	93.12
305.201	89.12
305.431	78.12
305.661	79.12
305.891	74.12
306.121	89.12
306.352	98.12
306.582	113.12
306.812	85.12
307.042	84.12
307.272	87.12
307.502	98.12
307.731	88.12
307.961	82.12
308.191	93.12
308.421	84.12
308.651	98.12
308.881	91.12
309.111	82.12
309.341	91.12
309.571	94.12
309.8	102.12
310.03	105.12
310.26	103.12
310.49	99.12
310.72	98.12
310.949	110.12
311.179	89.12
311.409	85.12
311.639	84.12
311.868	106.12
312.098	106.12
312.328	95.12
312.557	97.12
312.787	113.12
313.017	89.12
313.246	87.12
313.476	95.12
313.706	92.12
313.935	95.12
314.165	94.12
314.394	103.12
314.624	88.12
314.853	85.12
315.083	91.12
315.312	84.12
315.542	92.12
315.771	86.12
316.001	94.12
316.23	102.12
316.46	84.12
316.689	96.12
316.919	104.12
317.148	90.12
317.377	91.12
317.607	91.12
317.836	98.12
318.065	91.12
318.295	106.12
318.524	86.12
318.753	81.12
318.983	95.12
319.212	85.12
319.441	110.12
319.67	107.12
319.9	113.12
320.129	101.12
320.358	87.12
320.587	106.12
320.816	84.12
321.046	97.12
321.275	95.12
321.504	93.12
321.733	95.12
321.962	106.12
322.191	101.12
322.42	110.12
322.649	113.12
322.878	108.12
323.108	119.12
323.337	130.12
323.566	122.12
323.795	153.12
324.024	202.12
324.253	381.12
324.482	798.12
324.71	1604.12
324.939	2127.12
325.168	791.12
325.397	234.12
325.626	147.12
325.855	133.12
326.084	142.12
326.313	115.12
326.542	146.12
326.77	222.12
326.999	464.12
327.228	891.12
327.457	1679.12
327.686	1318.12
327.914	349.12
328.143	187.12
328.372	138.12
328.6	129.12
328.829	131.12
329.058	122.12
329.287	126.12
329.515	112.12
329.744	118.12
329.972	98.12
330.201	129.12
330.43	137.12
330.658	122.12
330.887	142.12
331.115	110.12
331.344	95.12
331.572	83.12
331.801	102.12
332.03	99.12
332.258	98.12
332.486	103.12
332.715	95.12
332.943	104.12
333.172	102.12
333.4	92.12
333.629	119.12
333.857	123.12
334.085	111.12
334.314	124.12
334.542	138.12
334.771	129.12
334.999	108.12
335.227	98.12
335.455	86.12
335.684	108.12
335.912	97.12
336.14	108.12
336.369	92.12
336.597	101.12
336.825	104.12
337.053	92.12
337.281	94.12
337.51	81.12
337.738	80.12
337.966	105.12
338.194	101.12
338.422	97.12
338.65	94.12
338.878	101.12
339.106	93.12
339.334	76.12
339.562	87.12
339.79	87.12
340.018	106.12
340.246	88.12
340.474	84.12
340.702	86.12
340.93	95.12
341.158	82.12
341.386	102.12
341.614	85.12
341.842	96.12
342.07	95.12
342.298	86.12
342.526	92.12
342.754	88.12
342.981	99.12
343.209	82.12
343.437	100.12
343.665	91.12
343.893	99.12
344.12	84.12
344.348	101.12
344.576	78.12
344.804	85.12
345.031	87.12
345.259	85.12
345.487	102.12
345.714	95.12
345.942	96.12
346.17	88.12
346.397	78.12
346.625	81.12
346.853	89.12
347.08	88.12
347.308	110.12
347.535	92.12
347.763	95.12
347.99	87.12
348.218	105.12
348.445	108.12
348.673	91.12
348.9	97.12
349.128	102.12
349.355	87.12
349.583	90.12
349.81	106.12
350.037	94.12
350.265	102.12
350.492	93.12
350.72	99.12
350.947	102.12
351.174	113.12
351.402	102.12
351.629	100.12
351.856	95.12
352.083	100.12
352.311	93.12
352.538	117.12
352.765	117.12
352.992	108.12
353.22	113.12
353.447	97.12
353.674	106.12
353.901	102.12
354.128	92.12
354.355	88.12
354.583	96.12
354.81	96.12
355.037	96.12
355.264	101.12
355.491	101.12
355.718	106.12
355.945	104.12
356.172	91.12
356.399	90.12
356.626	105.12
356.853	102.12
357.08	86.12
357.307	93.12
357.534	89.12
357.761	102.12
357.988	99.12
358.215	104.12
358.441	95.12
358.668	97.12
358.895	95.12
359.122	89.12
359.349	79.12
359.576	85.12
359.802	100.12
360.029	108.12
360.256	94.12
360.483	98.12
360.709	92.12
360.936	79.12
361.163	107.12
361.39	97.12
361.616	106.12
361.843	91.12
362.07	94.12
362.296	84.12
362.523	91.12
362.749	85.12
362.976	84.12
363.203	84.12
363.429	92.12
363.656	86.12
363.882	90.12
364.109	90.12
364.335	90.12
364.562	91.12
364.788	91.12
365.015	86.12
365.241	89.12
365.468	97.12
365.694	93.12
365.92	96.12
366.147	94.12
366.373	101.12
366.599	76.12
366.826	85.12
367.052	72.12
367.278	92.12
367.505	98.12
367.731	88.12
367.957	94.12
368.184	101.12
368.41	100.12
368.636	108.12
368.862	103.12
369.089	99.12
369.315	98.12
369.541	97.12
369.767	81.12
369.993	95.12
370.219	97.12
370.445	77.12
370.672	86.12
370.898	88.12
371.124	93.12
371.35	92.12
371.576	90.12
371.802	70.12
372.028	77.12
372.254	81.12
372.48	85.12
372.706	82.12
372.932	90.12
373.158	74.12
373.384	75.12
373.61	96.12
373.835	96.12
374.061	102.12
374.287	90.12
374.513	84.12
374.739	89.12
374.965	83.12
375.191	86.12
375.416	80.12
375.642	97.12
375.868	85.12
376.094	87.12
376.319	91.12
376.545	89.12
376.771	81.12
376.997	91.12
377.222	78.12
377.448	92.12
377.674	90.12
377.899	84.12
378.125	94.12
378.35	97.12
378.576	92.12
378.802	101.12
379.027	97.12
379.253	106.12
379.478	82.12
379.704	104.12
379.929	78.12
380.155	91.12
380.38	108.12
380.606	99.12
380.831	100.12
381.057	104.12
381.282	110.12
381.507	106.12
381.733	94.12
381.958	98.12
382.184	96.12
382.409	88.12
382.634	106.12
382.86	108.12
383.085	101.12
383.31	113.12
383.535	96.12
383.761	100.12
383.986	95.12
384.211	99.12
384.436	114.12
384.662	107.12
384.887	103.12
385.112	113.12
385.337	113.12
385.562	116.12
385.787	113.12
386.013	98.12
386.238	117.12
386.463	108.12
386.688	114.12
386.913	108.12
387.138	109.12
387.363	108.12
387.588	114.12
387.813	113.12
388.038	116.12
388.263	113.12
388.488	121.12
388.713	98.12
388.938	102.12
389.163	89.12
389.387	95.12
389.612	104.12
389.837	90.12
390.062	93.12
390.287	105.12
390.512	92.12
390.736	88.12
390.961	76.12
391.186	90.12
391.411	101.12
391.636	88.12
391.86	91.12
392.085	98.12
392.31	81.12
392.534	87.12
392.759	85.12
392.984	100.12
393.208	93.12
393.433	101.12
393.658	95.12
393.882	100.12
394.107	80.12
394.331	88.12
394.556	77.12
394.78	82.12
395.005	83.12
395.229	89.12
395.454	91.12
395.678	97.12
395.903	93.12
396.127	87.12
396.352	106.12
396.576	89.12
396.801	94.12
397.025	95.12
397.249	85.12
397.474	78.12
397.698	97.12
397.922	90.12
398.147	98.12
398.371	93.12
398.595	88.12
398.82	79.12
399.044	79.12
399.268	80.12
399.492	104.12
399.717	92.12
399.941	99.12
400.165	103.12
400.389	91.12
400.613	104.12
400.837	75.12
401.062	85.12
401.286	79.12
401.51	91.12
401.734	99.12
401.958	103.12
402.182	117.12
402.406	148.12
402.63	127.12
402.854	103.12
403.078	91.12
403.302	95.12
403.526	92.12
403.75	90.12
403.974	87.12
404.198	102.12
404.422	85.12
404.645	80.12
404.869	79.12
405.093	92.12
405.317	113.12
405.541	97.12
405.765	97.12
405.988	115.12
406.212	153.12
406.436	202.12
406.66	158.12
406.883	122.12
407.107	103.12
407.331	92.12
407.555	95.12
407.778	108.12
408.002	84.12
408.226	97.12
408.449	110.12
408.673	101.12
408.896	85.12
409.12	100.12
409.344	105.12
409.567	99.12
409.791	78.12
410.014	93.12
410.238	92.12
410.461	90.12
410.685	107.12
410.908	99.12
411.132	130.12
411.355	99.12
411.578	90.12
411.802	94.12
412.025	99.12
412.249	96.12
412.472	97.12
412.695	103.12
412.919	90.12
413.142	84.12
413.365	103.12
413.589	99.12
413.812	94.12
414.035	79.12
414.258	85.12
414.482	89.12
414.705	90.12
414.928	106.12
415.151	98.12
415.374	95.12
415.597	98.12
415.821	91.12
416.044	95.12
416.267	91.12
416.49	91.12
416.713	94.12
416.936	94.12
417.159	93.12
417.382	94.12
417.605	92.12
417.828	97.12
418.051	94.12
418.274	87.12
418.497	92.12
418.72	97.12
418.943	100.12
419.166	89.12
419.389	94.12
419.611	86.12
419.834	98.12
420.057	98.12
420.28	90.12
420.503	90.12
420.726	89.12
420.948	91.12
421.171	89.12
421.394	91.12
421.617	97.12
421.839	79.12
422.062	96.12
422.285	97.12
422.507	116.12
422.73	108.12
422.953	89.12
423.175	99.12
423.398	79.12
423.621	93.12
423.843	76.12
424.066	84.12
424.288	91.12
424.511	104.12
424.733	91.12
424.956	94.12
425.178	89.12
425.401	95.12
425.623	106.12
425.846	79.12
426.068	94.12
426.291	100.12
426.513	74.12
426.735	93.12
426.958	75.12
427.18	95.12
427.402	144.12
427.625	140.12
427.847	129.12
428.069	106.12
428.292	100.12
428.514	92.12
428.736	88.12
428.958	82.12
429.181	71.12
429.403	84.12
429.625	87.12
429.847	87.12
430.069	93.12
430.292	92.12
430.514	86.12
430.736	95.12
430.958	93.12
431.18	79.12
431.402	83.12
431.624	82.12
431.846	79.12
432.068	83.12
432.29	86.12
432.512	87.12
432.734	87.12
432.956	90.12
433.178	90.12
433.4	93.12
433.622	98.12
433.844	96.12
434.066	107.12
434.287	82.12
434.509	84.12
434.731	90.12
434.953	100.12
435.175	103.12
435.397	106.12
435.618	98.12
435.84	102.12
436.062	131.12
436.284	111.12
436.505	98.12
436.727	102.12
436.949	93.12
437.17	86.12
437.392	102.12
437.614	102.12
437.835	106.12
438.057	111.12
438.278	108.12
438.5	107.12
438.721	126.12
438.943	105.12
439.165	87.12
439.386	94.12
439.608	92.12
439.829	108.12
440.05	108.12
440.272	144.12
440.493	102.12
440.715	93.12
440.936	85.12
441.158	91.12
441.379	94.12
441.6	103.12
441.822	103.12
442.043	95.12
442.264	102.12
442.486	85.12
442.707	106.12
442.928	100.12
443.149	110.12
443.371	120.12
443.592	96.12
443.813	105.12
444.034	112.12
444.255	93.12
444.476	78.12
444.698	76.12
444.919	100.12
445.14	121.12
445.361	116.12
445.582	126.12
445.803	123.12
446.024	140.12
446.245	124.12
446.466	101.12
446.687	81.12
446.908	74.12
447.129	101.12
447.35	99.12
447.571	97.12
447.792	87.12
448.013	98.12
448.234	93.12
448.455	85.12
448.675	109.12
448.896	119.12
449.117	95.12
449.338	94.12
449.559	118.12
449.779	122.12
450	99.12
450.221	97.12
450.442	96.12
450.662	96.12
450.883	111.12
451.104	105.12
451.324	94.12
451.545	87.12
451.766	82.12
451.986	90.12
452.207	92.12
452.428	85.12
452.648	89.12
452.869	101.12
453.089	107.12
453.31	114.12
453.53	80.12
453.751	86.12
453.971	101.12
454.192	103.12
454.412	91.12
454.633	78.12
454.853	89.12
455.073	84.12
455.294	91.12
455.514	82.12
455.734	86.12
455.955	90.12
456.175	75.12
456.395	84.12
456.616	80.12
456.836	90.12
457.056	78.12
457.276	82.12
457.497	69.12
457.717	80.12
457.937	87.12
458.157	82.12
458.377	83.12
458.598	110.12
458.818	134.12
459.038	146.12
459.258	108.12
459.478	90.12
459.698	86.12
459.918	83.12
460.138	82.12
460.358	83.12
460.578	85.12
460.798	97.12
461.018	90.12
461.238	101.12
461.458	103.12
461.678	98.12
461.898	80.12
462.118	78.12
462.338	79.12
462.558	98.12
462.777	104.12
462.997	99.12
463.217	79.12
463.437	74.12
463.657	86.12
463.876	89.12
464.096	91.12
464.316	85.12
464.536	90.12
464.755	91.12
464.975	100.12
465.195	156.12
465.414	149.12
465.634	94.12
465.854	86.12
466.073	99.12
466.293	93.12
466.512	86.12
466.732	88.12
466.951	89.12
467.171	87.12
467.391	91.12
467.61	99.12
467.829	115.12
468.049	108.12
468.268	108.12
468.488	91.12
468.707	80.12
468.927	66.12
469.146	79.12
469.365	78.12
469.585	88.12
469.804	90.12
470.023	102.12
470.243	85.12
470.462	94.12
470.681	99.12
470.901	91.12
471.12	91.12
471.339	95.12
471.558	86.12
471.777	91.12
471.997	101.12
472.216	115.12
472.435	164.12
472.654	108.12
472.873	99.12
473.092	70.12
473.311	95.12
473.53	87.12
473.749	81.12
473.968	104.12
474.187	113.12
474.406	107.12
474.625	93.12
474.844	89.12
475.063	90.12
475.282	84.12
475.501	88.12
475.72	96.12
475.939	89.12
476.158	74.12
476.377	104.12
476.596	89.12
476.814	77.12
477.033	99.12
477.252	93.12
477.471	95.12
477.69	93.12
477.908	81.12
478.127	90.12
478.346	86.12
478.564	80.12
478.783	90.12
479.002	89.12
479.22	84.12
479.439	106.12
479.658	102.12
479.876	102.12
480.095	94.12
480.313	94.12
480.532	77.12
480.751	96.12
480.969	114.12
481.188	231.12
481.406	175.12
481.624	107.12
481.843	91.12
482.061	106.12
482.28	87.12
482.498	96.12
482.717	96.12
482.935	85.12
483.153	86.12
483.372	91.12
483.59	86.12
483.808	91.12
484.027	90.12
484.245	102.12
484.463	97.12
484.681	103.12
484.9	88.12
485.118	106.12
485.336	95.12
485.554	102.12
485.772	103.12
485.99	108.12
486.209	118.12
486.427	109.12
486.645	113.12
486.863	112.12
487.081	101.12
487.299	93.12
487.517	92.12
487.735	91.12
487.953	99.12
488.171	96.12
488.389	100.12
488.607	99.12
488.825	93.12
489.043	93.12
489.261	80.12
489.479	81.12
489.696	97.12
489.914	94.12
490.132	87.12
490.35	87.12
490.568	103.12
490.786	90.12
491.003	92.12
491.221	81.12
491.439	85.12
491.657	96.12
491.874	102.12
492.092	95.12
492.31	91.12
492.527	90.12
492.745	93.12
492.963	98.12
493.18	83.12
493.398	90.12
493.615	89.12
493.833	83.12
494.05	98.12
494.268	91.12
494.485	105.12
494.703	89.12
494.92	102.12
495.138	93.12
495.355	96.12
495.573	96.12
495.79	97.12
496.008	97.12
496.225	88.12
496.442	88.12
496.66	87.12
496.877	94.12
497.094	88.12
497.312	75.12
497.529	90.12
497.746	93.12
497.963	84.12
498.181	94.12
498.398	98.12
498.615	114.12
498.832	83.12
499.049	108.12
499.267	99.12
499.484	98.12
499.701	109.12
499.918	91.12
500.135	101.12
500.352	101.12
500.569	93.12
500.786	81.12
501.003	91.12
501.22	90.12
501.437	95.12
501.654	95.12
501.871	114.12
502.088	87.12
502.305	106.12
502.522	88.12
502.739	89.12
502.956	104.12
503.172	97.12
503.389	95.12
503.606	103.12
503.823	94.12
504.04	87.12
504.256	86.12
504.473	84.12
504.69	97.12
504.907	95.12
505.123	85.12
505.34	87.12
505.557	91.12
505.773	97.12
505.99	89.12
506.207	100.12
506.423	88.12
506.64	99.12
506.856	86.12
507.073	92.12
507.289	93.12
507.506	95.12
507.722	105.12
507.939	103.12
508.155	92.12
508.372	97.12
508.588	89.12
508.805	89.12
509.021	102.12
509.238	105.12
509.454	110.12
509.67	105.12
509.887	127.12
510.103	105.12
510.319	193.12
510.536	694.12
510.752	2202.12
510.968	667.12
511.184	154.12
511.401	107.12
511.617	121.12
511.833	91.12
512.049	93.12
512.265	86.12
512.481	87.12
512.698	88.12
512.914	94.12
513.13	87.12
513.346	95.12
513.562	90.12
513.778	91.12
513.994	106.12
514.21	93.12
514.426	105.12
514.642	115.12
514.858	126.12
515.074	145.12
515.29	403.12
515.506	1326.12
515.721	513.12
515.937	159.12
516.153	106.12
516.369	104.12
516.585	88.12
516.801	98.12
517.016	97.12
517.232	87.12
517.448	94.12
517.664	90.12
517.879	91.12
518.095	99.12
518.311	104.12
518.527	94.12
518.742	90.12
518.958	105.12
519.173	93.12
519.389	82.12
519.605	106.12
519.82	95.12
520.036	92.12
520.251	97.12
520.467	101.12
520.682	94.12
520.898	114.12
521.113	122.12
521.329	130.12
521.544	180.12
521.76	471.12
521.975	2081.12
522.19	1379.12
522.406	306.12
522.621	111.12
522.836	106.12
523.052	106.12
523.267	113.12
523.482	94.12
523.698	104.12
523.913	113.12
524.128	99.12
524.343	105.12
524.559	84.12
524.774	97.12
524.989	98.12
525.204	99.12
525.419	94.12
525.634	76.12
525.849	84.12
526.064	84.12
526.28	91.12
526.495	89.12
526.71	76.12
526.925	87.12
527.14	86.12
527.355	86.12
527.57	85.12
527.785	87.12
527.999	100.12
528.214	86.12
528.429	94.12
528.644	91.12
528.859	100.12
529.074	98.12
529.289	94.12
529.503	175.12
529.718	107.12
529.933	93.12
530.148	94.12
530.363	83.12
530.577	98.12
530.792	96.12
531.007	86.12
531.221	105.12
531.436	79.12
531.651	94.12
531.865	95.12
532.08	88.12
532.295	102.12
532.509	100.12
532.724	81.12
532.938	92.12
533.153	85.12
533.367	91.12
533.582	97.12
533.796	86.12
534.011	100.12
534.225	92.12
534.44	75.12
534.654	84.12
534.868	110.12
535.083	92.12
535.297	84.12
535.511	114.12
535.726	83.12
535.94	102.12
536.154	108.12
536.369	103.12
536.583	91.12
536.797	97.12
537.011	107.12
537.225	90.12
537.44	85.12
537.654	87.12
537.868	80.12
538.082	77.12
538.296	92.12
538.51	86.12
538.724	92.12
538.938	82.12
539.153	82.12
539.367	101.12
539.581	100.12
539.795	85.12
540.009	89.12
540.222	102.12
540.436	91.12
540.65	79.12
540.864	91.12
541.078	88.12
541.292	85.12
541.506	82.12
541.72	99.12
541.934	105.12
542.147	90.12
542.361	87.12
542.575	80.12
542.789	84.12
543.002	86.12
543.216	100.12
543.43	100.12
543.644	88.12
543.857	91.12
544.071	97.12
544.285	98.12
544.498	88.12
544.712	74.12
544.925	67.12
545.139	97.12
545.352	84.12
545.566	105.12
545.779	96.12
545.993	80.12
546.206	88.12
546.42	99.12
546.633	93.12
546.847	87.12
547.06	85.12
547.274	92.12
547.487	88.12
547.7	97.12
547.914	92.12
548.127	77.12
548.34	90.12
548.554	96.12
548.767	89.12
548.98	79.12
549.193	87.12
549.407	108.12
549.62	99.12
549.833	89.12
550.046	102.12
550.259	84.12
550.473	92.12
550.686	89.12
550.899	93.12
551.112	94.12
551.325	85.12
551.538	84.12
551.751	87.12
551.964	78.12
552.177	95.12
552.39	86.12
552.603	86.12
552.816	95.12
553.029	97.12
553.242	100.12
553.455	104.12
553.667	94.12
553.88	101.12
554.093	100.12
554.306	99.12
554.519	105.12
554.732	98.12
554.944	97.12
555.157	89.12
555.37	85.12
555.583	103.12
555.795	101.12
556.008	95.12
556.221	95.12
556.433	93.12
556.646	78.12
556.859	93.12
557.071	94.12
557.284	97.12
557.496	94.12
557.709	95.12
557.921	92.12
558.134	89.12
558.346	103.12
558.559	94.12
558.771	71.12
558.984	86.12
559.196	98.12
559.409	90.12
559.621	84.12
559.833	83.12
560.046	85.12
560.258	89.12
560.47	91.12
560.683	100.12
560.895	94.12
561.107	86.12
561.32	86.12
561.532	93.12
561.744	91.12
561.956	87.12
562.168	77.12
562.381	94.12
562.593	92.12
562.805	88.12
563.017	99.12
563.229	84.12
563.441	95.12
563.653	84.12
563.865	87.12
564.077	81.12
564.289	82.12
564.501	91.12
564.713	100.12
564.925	95.12
565.137	97.12
565.349	96.12
565.561	87.12
565.773	87.12
565.985	89.12
566.197	92.12
566.408	81.12
566.62	75.12
566.832	85.12
567.044	81.12
567.255	78.12
567.467	89.12
567.679	93.12
567.891	70.12
568.102	93.12
568.314	92.12
568.526	94.12
568.737	95.12
568.949	99.12
569.161	81.12
569.372	95.12
569.584	97.12
569.795	88.12
570.007	124.12
570.218	204.12
570.43	139.12
570.641	89.12
570.853	74.12
571.064	84.12
571.276	95.12
571.487	93.12
571.698	88.12
571.91	85.12
572.121	92.12
572.333	86.12
572.544	99.12
572.755	92.12
572.966	94.12
573.178	76.12
573.389	94.12
573.6	79.12
573.811	91.12
574.023	101.12
574.234	90.12
574.445	81.12
574.656	91.12
574.867	83.12
575.078	81.12
575.289	85.12
575.501	92.12
575.712	94.12
575.923	84.12
576.134	89.12
576.345	91.12
576.556	93.12
576.767	82.12
576.978	87.12
577.188	91.12
577.399	93.12
577.61	94.12
577.821	92.12
578.032	105.12
578.243	243.12
578.454	689.12
578.665	206.12
578.875	111.12
579.086	90.12
579.297	106.12
579.508	98.12
579.718	77.12
579.929	81.12
580.14	83.12
580.35	80.12
580.561	87.12
580.772	88.12
580.982	86.12
581.193	92.12
581.403	90.12
581.614	79.12
581.825	95.12
582.035	99.12
582.246	84.12
582.456	80.12
582.667	102.12
582.877	81.12
583.087	80.12
583.298	82.12
583.508	93.12
583.719	93.12
583.929	98.12
584.139	85.12
584.35	98.12
584.56	97.12
584.77	93.12
584.981	94.12
585.191	79.12
585.401	91.12
585.611	86.12
585.821	91.12
586.032	95.12
586.242	98.12
586.452	79.12
586.662	84.12
586.872	92.12
587.082	95.12
587.292	83.12
587.502	85.12
587.713	98.12
587.923	91.12
588.133	88.12
588.343	96.12
588.553	77.12
588.762	82.12
588.972	82.12
589.182	147.12
589.392	125.12
589.602	101.12
589.812	145.12
590.022	93.12
590.232	77.12
590.441	78.12
590.651	97.12
590.861	81.12
591.071	88.12
591.281	88.12
591.49	87.12
591.7	91.12
591.91	89.12
592.119	83.12
592.329	105.12
592.539	77.12
592.748	97.12
592.958	95.12
593.167	83.12
593.377	83.12
593.587	92.12
593.796	83.12
594.006	89.12
594.215	87.12
594.424	71.12
594.634	78.12
594.843	98.12
595.053	86.12
595.262	74.12
595.472	87.12
595.681	69.12
595.89	98.12
596.1	85.12
596.309	95.12
596.518	81.12
596.727	75.12
596.937	74.12
597.146	96.12
597.355	84.12
597.564	84.12
597.774	94.12
597.983	86.12
598.192	98.12
598.401	82.12
598.61	98.12
598.819	95.12
599.028	90.12
599.237	91.12
599.446	86.12
599.655	91.12
599.864	94.12
600.073	93.12
600.282	93.12
600.491	80.12
600.7	97.12
600.909	91.12
601.118	97.12
601.327	81.12
601.536	78.12
601.745	96.12
601.953	81.12
602.162	103.12
602.371	94.12
602.58	88.12
602.789	92.12
602.997	89.12
603.206	87.12
603.415	96.12
603.623	95.12
603.832	94.12
604.041	97.12
604.249	76.12
604.458	82.12
604.666	85.12
604.875	79.12
605.084	86.12
605.292	77.12
605.501	90.12
605.709	95.12
605.918	83.12
606.126	97.12
606.334	78.12
606.543	95.12
606.751	80.12
606.96	89.12
607.168	82.12
607.376	87.12
607.585	89.12
607.793	104.12
608.001	83.12
608.21	75.12
608.418	75.12
608.626	76.12
608.834	92.12
609.043	82.12
609.251	92.12
609.459	78.12
609.667	83.12
609.875	74.12
610.083	104.12
610.291	69.12
610.499	83.12
610.707	84.12
610.916	97.12
611.124	92.12
611.332	80.12
611.54	82.12
611.748	86.12
611.955	102.12
612.163	88.12
612.371	81.12
612.579	86.12
612.787	89.12
612.995	83.12
613.203	82.12
613.411	95.12
613.618	81.12
613.826	78.12
614.034	80.12
614.242	79.12
614.449	85.12
614.657	88.12
614.865	93.12
615.072	104.12
615.28	83.12
615.488	107.12
615.695	95.12
615.903	89.12
616.111	101.12
616.318	106.12
616.526	87.12
616.733	106.12
616.941	84.12
617.148	93.12
617.356	86.12
617.563	95.12
617.771	80.12
617.978	75.12
618.185	89.12
618.393	89.12
618.6	80.12
618.807	91.12
619.015	86.12
619.222	89.12
619.429	78.12
619.637	96.12
619.844	89.12
620.051	85.12
620.258	85.12
620.466	86.12
620.673	73.12
620.88	85.12
621.087	82.12
621.294	75.12
621.501	79.12
621.708	90.12
621.915	81.12
622.122	85.12
622.329	81.12
622.536	92.12
622.743	94.12
622.95	84.12
623.157	86.12
623.364	85.12
623.571	87.12
623.778	98.12
623.985	83.12
624.192	81.12
624.399	88.12
624.606	85.12
624.812	88.12
625.019	89.12
625.226	91.12
625.433	99.12
625.639	86.12
625.846	70.12
626.053	63.12
626.259	79.12
626.466	88.12
626.673	74.12
626.879	86.12
627.086	79.12
627.293	90.12
627.499	87.12
627.706	94.12
627.912	78.12
628.119	71.12
628.325	87.12
628.532	106.12
628.738	99.12
628.945	102.12
629.151	73.12
629.357	80.12
629.564	73.12
629.77	93.12
629.976	87.12
630.183	80.12
630.389	89.12
630.595	84.12
630.802	86.12
631.008	82.12
631.214	86.12
631.42	87.12
631.627	77.12
631.833	86.12
632.039	71.12
632.245	80.12
632.451	93.12
632.657	85.12
632.863	81.12
633.069	85.12
633.275	86.12
633.481	75.12
633.688	84.12
633.893	93.12
634.099	76.12
634.305	69.12
634.511	86.12
634.717	98.12
634.923	88.12
635.129	90.12
635.335	70.12
635.541	78.12
635.747	76.12
635.952	85.12
636.158	90.12
636.364	87.12
636.57	79.12
636.775	90.12
636.981	87.12
637.187	93.12
637.392	85.12
637.598	94.12
637.804	95.12
638.009	84.12
638.215	79.12
638.421	97.12
638.626	69.12
638.832	77.12
639.037	72.12
639.243	97.12
639.448	72.12
639.654	80.12
639.859	86.12
640.065	68.12
640.27	102.12
640.475	77.12
640.681	82.12
640.886	86.12
641.091	81.12
641.297	98.12
641.502	83.12
641.707	77.12
641.913	92.12
642.118	99.12
642.323	82.12
642.528	78.12
642.733	85.12
642.939	86.12
643.144	102.12
643.349	69.12
643.554	79.12
643.759	84.12
643.964	86.12
644.169	106.12
644.374	82.12
644.579	79.12
644.784	85.12
644.989	83.12
645.194	95.12
645.399	87.12
645.604	89.12
645.809	93.12
646.014	88.12
646.219	84.12
646.423	78.12
646.628	86.12
646.833	91.12
647.038	77.12
647.243	85.12
647.447	77.12
647.652	81.12
647.857	83.12
648.062	88.12
648.266	93.12
648.471	93.12
648.676	88.12
648.88	99.12
649.085	83.12
649.289	94.12
649.494	99.12
649.698	120.12
649.903	111.12
650.107	99.12
650.312	76.12
650.516	80.12
650.721	89.12
650.925	83.12
651.13	90.12
651.334	85.12
651.539	93.12
651.743	67.12
651.947	87.12
652.152	80.12
652.356	98.12
652.56	65.12
652.764	81.12
652.969	79.12
653.173	89.12
653.377	80.12
653.581	83.12
653.785	88.12
653.99	92.12
654.194	93.12
654.398	90.12
654.602	84.12
654.806	92.12
655.01	106.12
655.214	80.12
655.418	84.12
655.622	86.12
655.826	82.12
656.03	91.12
656.234	104.12
656.438	103.12
656.642	102.12
656.846	96.12
657.049	92.12
657.253	93.12
657.457	79.12
657.661	77.12
657.865	72.12
658.068	77.12
658.272	84.12
658.476	89.12
658.68	70.12
658.883	76.12
659.087	82.12
659.291	82.12
659.494	72.12
659.698	70.12
659.901	95.12
660.105	83.12
660.309	95.12
660.512	102.12
660.716	85.12
660.919	77.12
661.123	85.12
661.326	75.12
661.53	78.12
661.733	91.12
661.936	80.12
662.14	78.12
662.343	81.12
662.546	85.12
662.75	78.12
662.953	76.12
663.156	78.12
663.36	79.12
663.563	88.12
663.766	86.12
663.969	87.12
664.173	86.12
664.376	85.12
664.579	81.12
664.782	91.12
664.985	80.12
665.188	76.12
665.391	77.12
665.594	75.12
665.797	90.12
666	79.12
666.203	74.12
666.406	94.12
666.609	69.12
666.812	82.12
667.015	80.12
667.218	89.12
667.421	86.12
667.624	92.12
667.827	87.12
668.03	85.12
668.232	83.12
668.435	77.12
668.638	101.12
668.841	79.12
669.043	67.12
669.246	78.12
669.449	85.12
669.651	88.12
669.854	82.12
670.057	75.12
670.259	76.12
670.462	70.12
670.665	70.12
670.867	81.12
671.07	71.12
671.272	85.12
671.475	77.12
671.677	72.12
671.88	67.12
672.082	86.12
672.284	78.12
672.487	84.12
672.689	84.12
672.892	97.12
