Data from Circ_2016_H10_HRD10591_00049.txt Node
Date: Wed Jan 03 09:58:50 EST 2024
User: Yrep
Spectrometer: HR+D1059
Trigger mode: 1
Integration Time (sec): 1.000000E-1
Scans to average: 1
Electric dark correction enabled: true
Nonlinearity correction enabled: false
Boxcar width: 0
XAxis mode: Wavelengths
Number of Pixels in Spectrum: 2048
>>>>>Begin Spectral Data<<<<<
223.165	-19.19
223.4	-19.19
223.635	-19.19
223.869	-16.19
224.104	-19.19
224.338	-21.19
224.573	-10.19
224.808	-13.19
225.042	-13.19
225.277	-0.19
225.511	-7.19
225.746	4.81
225.98	7.81
226.215	7.81
226.449	19.81
226.683	17.81
226.918	30.81
227.152	30.81
227.387	48.81
227.621	35.81
227.856	54.81
228.09	36.81
228.324	46.81
228.559	60.81
228.793	63.81
229.027	63.81
229.262	48.81
229.496	71.81
229.73	77.81
229.964	67.81
230.199	84.81
230.433	58.81
230.667	88.81
230.901	81.81
231.136	68.81
231.37	85.81
231.604	79.81
231.838	74.81
232.072	74.81
232.306	76.81
232.541	78.81
232.775	72.81
233.009	64.81
233.243	63.81
233.477	83.81
233.711	80.81
233.945	71.81
234.179	78.81
234.413	83.81
234.647	86.81
234.881	75.81
235.115	81.81
235.349	69.81
235.583	90.81
235.817	71.81
236.051	96.81
236.285	73.81
236.519	74.81
236.753	81.81
236.987	72.81
237.221	84.81
237.455	80.81
237.689	67.81
237.922	58.81
238.156	78.81
238.39	76.81
238.624	74.81
238.858	66.81
239.091	81.81
239.325	71.81
239.559	76.81
239.793	68.81
240.027	64.81
240.26	72.81
240.494	63.81
240.728	75.81
240.961	95.81
241.195	85.81
241.429	76.81
241.662	80.81
241.896	71.81
242.13	78.81
242.363	80.81
242.597	72.81
242.83	74.81
243.064	72.81
243.298	82.81
243.531	79.81
243.765	93.81
243.998	82.81
244.232	71.81
244.465	80.81
244.699	82.81
244.932	67.81
245.166	82.81
245.399	95.81
245.633	75.81
245.866	80.81
246.099	62.81
246.333	77.81
246.566	78.81
246.8	67.81
247.033	82.81
247.266	70.81
247.5	78.81
247.733	86.81
247.966	81.81
248.2	80.81
248.433	71.81
248.666	71.81
248.899	73.81
249.133	74.81
249.366	94.81
249.599	87.81
249.832	88.81
250.066	79.81
250.299	81.81
250.532	85.81
250.765	82.81
250.998	67.81
251.231	77.81
251.465	70.81
251.698	75.81
251.931	69.81
252.164	71.81
252.397	76.81
252.63	73.81
252.863	79.81
253.096	82.81
253.329	75.81
253.562	75.81
253.795	87.81
254.028	67.81
254.261	59.81
254.494	86.81
254.727	87.81
254.96	81.81
255.193	86.81
255.426	81.81
255.659	76.81
255.892	79.81
256.124	87.81
256.357	77.81
256.59	75.81
256.823	91.81
257.056	71.81
257.289	93.81
257.521	83.81
257.754	71.81
257.987	82.81
258.22	83.81
258.452	65.81
258.685	85.81
258.918	78.81
259.151	98.81
259.383	87.81
259.616	81.81
259.849	83.81
260.081	88.81
260.314	74.81
260.547	88.81
260.779	82.81
261.012	89.81
261.244	80.81
261.477	87.81
261.71	90.81
261.942	95.81
262.175	98.81
262.407	73.81
262.64	76.81
262.872	84.81
263.105	73.81
263.337	88.81
263.57	90.81
263.802	95.81
264.035	77.81
264.267	67.81
264.499	83.81
264.732	93.81
264.964	80.81
265.197	84.81
265.429	84.81
265.661	81.81
265.894	78.81
266.126	96.81
266.358	79.81
266.591	81.81
266.823	89.81
267.055	78.81
267.287	76.81
267.52	74.81
267.752	77.81
267.984	75.81
268.216	73.81
268.448	82.81
268.681	82.81
268.913	74.81
269.145	88.81
269.377	76.81
269.609	84.81
269.841	88.81
270.073	68.81
270.306	81.81
270.538	94.81
270.77	73.81
271.002	82.81
271.234	87.81
271.466	73.81
271.698	74.81
271.93	87.81
272.162	82.81
272.394	84.81
272.626	78.81
272.858	80.81
273.09	83.81
273.322	87.81
273.553	81.81
273.785	74.81
274.017	75.81
274.249	73.81
274.481	91.81
274.713	84.81
274.945	88.81
275.176	80.81
275.408	84.81
275.64	94.81
275.872	83.81
276.104	75.81
276.335	73.81
276.567	90.81
276.799	112.81
277.031	99.81
277.262	95.81
277.494	106.81
277.726	86.81
277.957	74.81
278.189	75.81
278.421	83.81
278.652	68.81
278.884	92.81
279.115	71.81
279.347	75.81
279.579	88.81
279.81	92.81
280.042	84.81
280.273	99.81
280.505	90.81
280.736	86.81
280.968	100.81
281.199	92.81
281.431	87.81
281.662	76.81
281.894	93.81
282.125	98.81
282.356	108.81
282.588	154.81
282.819	132.81
283.051	85.81
283.282	86.81
283.513	87.81
283.745	82.81
283.976	81.81
284.207	84.81
284.439	77.81
284.67	84.81
284.901	80.81
285.132	90.81
285.364	87.81
285.595	82.81
285.826	81.81
286.057	78.81
286.288	84.81
286.52	91.81
286.751	88.81
286.982	83.81
287.213	91.81
287.444	74.81
287.675	79.81
287.906	86.81
288.138	93.81
288.369	83.81
288.6	97.81
288.831	91.81
289.062	84.81
289.293	68.81
289.524	85.81
289.755	95.81
289.986	91.81
290.217	73.81
290.448	87.81
290.679	90.81
290.91	80.81
291.141	87.81
291.371	93.81
291.602	86.81
291.833	90.81
292.064	87.81
292.295	84.81
292.526	81.81
292.757	94.81
292.987	86.81
293.218	86.81
293.449	89.81
293.68	78.81
293.91	75.81
294.141	88.81
294.372	87.81
294.603	90.81
294.833	69.81
295.064	70.81
295.295	82.81
295.525	79.81
295.756	89.81
295.987	95.81
296.217	122.81
296.448	112.81
296.679	82.81
296.909	117.81
297.14	99.81
297.37	89.81
297.601	93.81
297.831	82.81
298.062	90.81
298.292	83.81
298.523	91.81
298.753	76.81
298.984	94.81
299.214	81.81
299.445	75.81
299.675	96.81
299.905	95.81
300.136	88.81
300.366	80.81
300.597	84.81
300.827	94.81
301.057	100.81
301.288	99.81
301.518	86.81
301.748	104.81
301.979	88.81
302.209	70.81
302.439	86.81
302.669	93.81
302.9	89.81
303.13	84.81
303.36	95.81
303.59	101.81
303.82	103.81
304.051	97.81
304.281	87.81
304.511	90.81
304.741	80.81
304.971	98.81
305.201	82.81
305.431	83.81
305.661	87.81
305.891	86.81
306.121	97.81
306.352	99.81
306.582	93.81
306.812	92.81
307.042	90.81
307.272	94.81
307.502	94.81
307.731	83.81
307.961	83.81
308.191	86.81
308.421	90.81
308.651	99.81
308.881	97.81
309.111	96.81
309.341	85.81
309.571	91.81
309.8	91.81
310.03	95.81
310.26	100.81
310.49	105.81
310.72	87.81
310.949	100.81
311.179	85.81
311.409	97.81
311.639	95.81
311.868	96.81
312.098	95.81
312.328	92.81
312.557	90.81
312.787	98.81
313.017	86.81
313.246	90.81
313.476	84.81
313.706	95.81
313.935	89.81
314.165	115.81
314.394	95.81
314.624	96.81
314.853	111.81
315.083	87.81
315.312	94.81
315.542	93.81
315.771	87.81
316.001	91.81
316.23	87.81
316.46	77.81
316.689	87.81
316.919	82.81
317.148	86.81
317.377	102.81
317.607	101.81
317.836	97.81
318.065	96.81
318.295	92.81
318.524	99.81
318.753	97.81
318.983	94.81
319.212	111.81
319.441	109.81
319.67	102.81
319.9	84.81
320.129	106.81
320.358	94.81
320.587	89.81
320.816	95.81
321.046	105.81
321.275	102.81
321.504	92.81
321.733	87.81
321.962	105.81
322.191	99.81
322.42	103.81
322.649	98.81
322.878	118.81
323.108	119.81
323.337	102.81
323.566	112.81
323.795	136.81
324.024	199.81
324.253	383.81
324.482	798.81
324.71	1676.81
324.939	2205.81
325.168	793.81
325.397	233.81
325.626	140.81
325.855	121.81
326.084	105.81
326.313	127.81
326.542	151.81
326.77	243.81
326.999	443.81
327.228	919.81
327.457	1630.81
327.686	1302.81
327.914	347.81
328.143	171.81
328.372	140.81
328.6	136.81
328.829	104.81
329.058	123.81
329.287	129.81
329.515	97.81
329.744	100.81
329.972	104.81
330.201	102.81
330.43	123.81
330.658	123.81
330.887	131.81
331.115	113.81
331.344	96.81
331.572	99.81
331.801	108.81
332.03	104.81
332.258	102.81
332.486	88.81
332.715	87.81
332.943	83.81
333.172	93.81
333.4	96.81
333.629	102.81
333.857	107.81
334.085	108.81
334.314	111.81
334.542	132.81
334.771	128.81
334.999	90.81
335.227	80.81
335.455	87.81
335.684	97.81
335.912	87.81
336.14	92.81
336.369	85.81
336.597	99.81
336.825	103.81
337.053	89.81
337.281	99.81
337.51	92.81
337.738	100.81
337.966	94.81
338.194	87.81
338.422	76.81
338.65	86.81
338.878	87.81
339.106	90.81
339.334	87.81
339.562	83.81
339.79	72.81
340.018	97.81
340.246	77.81
340.474	92.81
340.702	84.81
340.93	92.81
341.158	106.81
341.386	94.81
341.614	96.81
341.842	82.81
342.07	96.81
342.298	79.81
342.526	97.81
342.754	91.81
342.981	82.81
343.209	84.81
343.437	88.81
343.665	97.81
343.893	99.81
344.12	88.81
344.348	82.81
344.576	92.81
344.804	92.81
345.031	88.81
345.259	102.81
345.487	99.81
345.714	81.81
345.942	81.81
346.17	103.81
346.397	96.81
346.625	85.81
346.853	96.81
347.08	86.81
347.308	94.81
347.535	89.81
347.763	81.81
347.99	87.81
348.218	95.81
348.445	94.81
348.673	86.81
348.9	74.81
349.128	83.81
349.355	90.81
349.583	95.81
349.81	88.81
350.037	97.81
350.265	97.81
350.492	85.81
350.72	82.81
350.947	103.81
351.174	111.81
351.402	110.81
351.629	104.81
351.856	95.81
352.083	95.81
352.311	103.81
352.538	103.81
352.765	103.81
352.992	108.81
353.22	109.81
353.447	104.81
353.674	92.81
353.901	102.81
354.128	97.81
354.355	93.81
354.583	96.81
354.81	84.81
355.037	99.81
355.264	82.81
355.491	100.81
355.718	93.81
355.945	92.81
356.172	87.81
356.399	84.81
356.626	98.81
356.853	102.81
357.08	92.81
357.307	103.81
357.534	99.81
357.761	101.81
357.988	97.81
358.215	101.81
358.441	84.81
358.668	70.81
358.895	76.81
359.122	86.81
359.349	82.81
359.576	96.81
359.802	102.81
360.029	113.81
360.256	109.81
360.483	93.81
360.709	80.81
360.936	89.81
361.163	89.81
361.39	95.81
361.616	82.81
361.843	94.81
362.07	97.81
362.296	101.81
362.523	69.81
362.749	80.81
362.976	97.81
363.203	78.81
363.429	105.81
363.656	102.81
363.882	77.81
364.109	76.81
364.335	83.81
364.562	90.81
364.788	92.81
365.015	97.81
365.241	105.81
365.468	87.81
365.694	80.81
365.92	94.81
366.147	87.81
366.373	94.81
366.599	86.81
366.826	79.81
367.052	94.81
367.278	89.81
367.505	92.81
367.731	89.81
367.957	95.81
368.184	92.81
368.41	82.81
368.636	108.81
368.862	106.81
369.089	101.81
369.315	92.81
369.541	83.81
369.767	95.81
369.993	91.81
370.219	88.81
370.445	93.81
370.672	82.81
370.898	83.81
371.124	88.81
371.35	87.81
371.576	83.81
371.802	92.81
372.028	87.81
372.254	84.81
372.48	87.81
372.706	88.81
372.932	75.81
373.158	86.81
373.384	87.81
373.61	95.81
373.835	81.81
374.061	72.81
374.287	82.81
374.513	82.81
374.739	87.81
374.965	87.81
375.191	99.81
375.416	87.81
375.642	78.81
375.868	89.81
376.094	76.81
376.319	82.81
376.545	84.81
376.771	93.81
376.997	91.81
377.222	88.81
377.448	89.81
377.674	82.81
377.899	92.81
378.125	88.81
378.35	102.81
378.576	94.81
378.802	98.81
379.027	92.81
379.253	84.81
379.478	101.81
379.704	100.81
379.929	89.81
380.155	103.81
380.38	99.81
380.606	106.81
380.831	99.81
381.057	103.81
381.282	102.81
381.507	100.81
381.733	107.81
381.958	91.81
382.184	112.81
382.409	104.81
382.634	106.81
382.86	103.81
383.085	110.81
383.31	125.81
383.535	117.81
383.761	104.81
383.986	99.81
384.211	105.81
384.436	100.81
384.662	106.81
384.887	124.81
385.112	114.81
385.337	125.81
385.562	110.81
385.787	117.81
386.013	126.81
386.238	124.81
386.463	122.81
386.688	122.81
386.913	121.81
387.138	104.81
387.363	117.81
387.588	105.81
387.813	97.81
388.038	126.81
388.263	134.81
388.488	126.81
388.713	96.81
388.938	97.81
389.163	94.81
389.387	97.81
389.612	70.81
389.837	100.81
390.062	101.81
390.287	97.81
390.512	90.81
390.736	88.81
390.961	81.81
391.186	104.81
391.411	103.81
391.636	75.81
391.86	88.81
392.085	101.81
392.31	67.81
392.534	65.81
392.759	87.81
392.984	99.81
393.208	89.81
393.433	101.81
393.658	87.81
393.882	75.81
394.107	87.81
394.331	84.81
394.556	92.81
394.78	82.81
395.005	86.81
395.229	89.81
395.454	79.81
395.678	80.81
395.903	94.81
396.127	67.81
396.352	91.81
396.576	93.81
396.801	90.81
397.025	77.81
397.249	84.81
397.474	73.81
397.698	80.81
397.922	90.81
398.147	94.81
398.371	85.81
398.595	85.81
398.82	76.81
399.044	84.81
399.268	99.81
399.492	98.81
399.717	96.81
399.941	93.81
400.165	101.81
400.389	76.81
400.613	85.81
400.837	88.81
401.062	96.81
401.286	97.81
401.51	76.81
401.734	81.81
401.958	92.81
402.182	135.81
402.406	150.81
402.63	127.81
402.854	64.81
403.078	87.81
403.302	74.81
403.526	82.81
403.75	85.81
403.974	83.81
404.198	80.81
404.422	68.81
404.645	95.81
404.869	84.81
405.093	101.81
405.317	98.81
405.541	97.81
405.765	96.81
405.988	105.81
406.212	162.81
406.436	217.81
406.66	147.81
406.883	99.81
407.107	83.81
407.331	91.81
407.555	86.81
407.778	92.81
408.002	82.81
408.226	80.81
408.449	82.81
408.673	84.81
408.896	82.81
409.12	90.81
409.344	106.81
409.567	90.81
409.791	89.81
410.014	96.81
410.238	88.81
410.461	83.81
410.685	86.81
410.908	103.81
411.132	102.81
411.355	102.81
411.578	102.81
411.802	79.81
412.025	98.81
412.249	92.81
412.472	91.81
412.695	82.81
412.919	87.81
413.142	89.81
413.365	84.81
413.589	83.81
413.812	86.81
414.035	84.81
414.258	95.81
414.482	83.81
414.705	90.81
414.928	90.81
415.151	94.81
415.374	79.81
415.597	83.81
415.821	86.81
416.044	89.81
416.267	83.81
416.49	88.81
416.713	96.81
416.936	95.81
417.159	81.81
417.382	86.81
417.605	93.81
417.828	104.81
418.051	100.81
418.274	90.81
418.497	78.81
418.72	87.81
418.943	100.81
419.166	82.81
419.389	84.81
419.611	88.81
419.834	84.81
420.057	89.81
420.28	76.81
420.503	76.81
420.726	81.81
420.948	75.81
421.171	93.81
421.394	89.81
421.617	92.81
421.839	82.81
422.062	82.81
422.285	86.81
422.507	121.81
422.73	100.81
422.953	100.81
423.175	87.81
423.398	95.81
423.621	83.81
423.843	82.81
424.066	70.81
424.288	93.81
424.511	89.81
424.733	93.81
424.956	88.81
425.178	97.81
425.401	110.81
425.623	94.81
425.846	90.81
426.068	88.81
426.291	89.81
426.513	105.81
426.735	95.81
426.958	91.81
427.18	95.81
427.402	134.81
427.625	159.81
427.847	132.81
428.069	100.81
428.292	88.81
428.514	76.81
428.736	96.81
428.958	80.81
429.181	74.81
429.403	87.81
429.625	90.81
429.847	101.81
430.069	93.81
430.292	90.81
430.514	79.81
430.736	91.81
430.958	95.81
431.18	90.81
431.402	89.81
431.624	75.81
431.846	91.81
432.068	84.81
432.29	103.81
432.512	96.81
432.734	82.81
432.956	88.81
433.178	82.81
433.4	95.81
433.622	85.81
433.844	103.81
434.066	93.81
434.287	94.81
434.509	90.81
434.731	83.81
434.953	80.81
435.175	83.81
435.397	99.81
435.618	99.81
435.84	108.81
436.062	146.81
436.284	105.81
436.505	91.81
436.727	105.81
436.949	97.81
437.17	88.81
437.392	68.81
437.614	88.81
437.835	101.81
438.057	123.81
438.278	105.81
438.5	106.81
438.721	110.81
438.943	99.81
439.165	93.81
439.386	97.81
439.608	99.81
439.829	104.81
440.05	109.81
440.272	133.81
440.493	103.81
440.715	79.81
440.936	94.81
441.158	93.81
441.379	83.81
441.6	85.81
441.822	91.81
442.043	95.81
442.264	112.81
442.486	97.81
442.707	82.81
442.928	112.81
443.149	123.81
443.371	120.81
443.592	93.81
443.813	118.81
444.034	89.81
444.255	89.81
444.476	90.81
444.698	88.81
444.919	91.81
445.14	130.81
445.361	134.81
445.582	115.81
445.803	136.81
446.024	128.81
446.245	136.81
446.466	114.81
446.687	91.81
446.908	82.81
447.129	80.81
447.35	86.81
447.571	80.81
447.792	82.81
448.013	97.81
448.234	108.81
448.455	91.81
448.675	106.81
448.896	114.81
449.117	112.81
449.338	105.81
449.559	118.81
449.779	112.81
450	101.81
450.221	78.81
450.442	85.81
450.662	90.81
450.883	99.81
451.104	107.81
451.324	102.81
451.545	92.81
451.766	92.81
451.986	78.81
452.207	86.81
452.428	92.81
452.648	86.81
452.869	101.81
453.089	106.81
453.31	110.81
453.53	83.81
453.751	88.81
453.971	104.81
454.192	110.81
454.412	84.81
454.633	96.81
454.853	76.81
455.073	81.81
455.294	98.81
455.514	107.81
455.734	85.81
455.955	91.81
456.175	87.81
456.395	85.81
456.616	87.81
456.836	88.81
457.056	83.81
457.276	80.81
457.497	81.81
457.717	98.81
457.937	98.81
458.157	83.81
458.377	86.81
458.598	104.81
458.818	144.81
459.038	148.81
459.258	107.81
459.478	90.81
459.698	90.81
459.918	79.81
460.138	84.81
460.358	90.81
460.578	88.81
460.798	96.81
461.018	98.81
461.238	81.81
461.458	79.81
461.678	72.81
461.898	88.81
462.118	101.81
462.338	86.81
462.558	93.81
462.777	89.81
462.997	86.81
463.217	91.81
463.437	90.81
463.657	79.81
463.876	87.81
464.096	99.81
464.316	88.81
464.536	76.81
464.755	95.81
464.975	111.81
465.195	147.81
465.414	157.81
465.634	102.81
465.854	74.81
466.073	88.81
466.293	79.81
466.512	98.81
466.732	88.81
466.951	86.81
467.171	89.81
467.391	96.81
467.61	96.81
467.829	95.81
468.049	99.81
468.268	83.81
468.488	77.81
468.707	86.81
468.927	85.81
469.146	83.81
469.365	96.81
469.585	83.81
469.804	98.81
470.023	102.81
470.243	85.81
470.462	102.81
470.681	105.81
470.901	89.81
471.12	71.81
471.339	86.81
471.558	90.81
471.777	96.81
471.997	89.81
472.216	110.81
472.435	140.81
472.654	112.81
472.873	82.81
473.092	89.81
473.311	91.81
473.53	89.81
473.749	80.81
473.968	87.81
474.187	86.81
474.406	87.81
474.625	89.81
474.844	98.81
475.063	83.81
475.282	79.81
475.501	87.81
475.72	74.81
475.939	83.81
476.158	92.81
476.377	95.81
476.596	81.81
476.814	88.81
477.033	87.81
477.252	94.81
477.471	74.81
477.69	92.81
477.908	100.81
478.127	97.81
478.346	68.81
478.564	98.81
478.783	97.81
479.002	106.81
479.22	95.81
479.439	80.81
479.658	105.81
479.876	81.81
480.095	95.81
480.313	86.81
480.532	67.81
480.751	88.81
480.969	106.81
481.188	188.81
481.406	150.81
481.624	100.81
481.843	69.81
482.061	84.81
482.28	75.81
482.498	90.81
482.717	103.81
482.935	92.81
483.153	89.81
483.372	79.81
483.59	80.81
483.808	82.81
484.027	95.81
484.245	95.81
484.463	80.81
484.681	99.81
484.9	89.81
485.118	82.81
485.336	107.81
485.554	95.81
485.772	94.81
485.99	95.81
486.209	101.81
486.427	102.81
486.645	114.81
486.863	117.81
487.081	95.81
487.299	91.81
487.517	104.81
487.735	108.81
487.953	91.81
488.171	91.81
488.389	86.81
488.607	91.81
488.825	103.81
489.043	75.81
489.261	103.81
489.479	93.81
489.696	73.81
489.914	89.81
490.132	79.81
490.35	90.81
490.568	98.81
490.786	95.81
491.003	95.81
491.221	94.81
491.439	95.81
491.657	98.81
491.874	101.81
492.092	77.81
492.31	98.81
492.527	84.81
492.745	97.81
492.963	91.81
493.18	78.81
493.398	75.81
493.615	94.81
493.833	96.81
494.05	84.81
494.268	97.81
494.485	94.81
494.703	96.81
494.92	96.81
495.138	75.81
495.355	80.81
495.573	85.81
495.79	85.81
496.008	97.81
496.225	80.81
496.442	71.81
496.66	95.81
496.877	87.81
497.094	84.81
497.312	81.81
497.529	93.81
497.746	84.81
497.963	102.81
498.181	92.81
498.398	96.81
498.615	118.81
498.832	103.81
499.049	94.81
499.267	84.81
499.484	97.81
499.701	78.81
499.918	91.81
500.135	79.81
500.352	91.81
500.569	70.81
500.786	82.81
501.003	75.81
501.22	87.81
501.437	81.81
501.654	86.81
501.871	100.81
502.088	97.81
502.305	90.81
502.522	89.81
502.739	96.81
502.956	82.81
503.172	101.81
503.389	94.81
503.606	105.81
503.823	96.81
504.04	84.81
504.256	71.81
504.473	98.81
504.69	82.81
504.907	103.81
505.123	97.81
505.34	82.81
505.557	100.81
505.773	110.81
505.99	91.81
506.207	77.81
506.423	95.81
506.64	82.81
506.856	92.81
507.073	87.81
507.289	100.81
507.506	97.81
507.722	119.81
507.939	106.81
508.155	97.81
508.372	97.81
508.588	79.81
508.805	88.81
509.021	101.81
509.238	104.81
509.454	115.81
509.67	99.81
509.887	120.81
510.103	127.81
510.319	203.81
510.536	755.81
510.752	2418.81
510.968	682.81
511.184	154.81
511.401	92.81
511.617	86.81
511.833	94.81
512.049	90.81
512.265	87.81
512.481	81.81
512.698	84.81
512.914	90.81
513.13	96.81
513.346	89.81
513.562	91.81
513.778	106.81
513.994	101.81
514.21	96.81
514.426	110.81
514.642	133.81
514.858	124.81
515.074	177.81
515.29	428.81
515.506	1416.81
515.721	558.81
515.937	141.81
516.153	112.81
516.369	85.81
516.585	84.81
516.801	94.81
517.016	89.81
517.232	106.81
517.448	99.81
517.664	93.81
517.879	93.81
518.095	89.81
518.311	90.81
518.527	99.81
518.742	89.81
518.958	93.81
519.173	91.81
519.389	98.81
519.605	89.81
519.82	91.81
520.036	102.81
520.251	126.81
520.467	121.81
520.682	104.81
520.898	102.81
521.113	104.81
521.329	134.81
521.544	181.81
521.76	516.81
521.975	2274.81
522.19	1482.81
522.406	312.81
522.621	139.81
522.836	93.81
523.052	91.81
523.267	77.81
523.482	105.81
523.698	88.81
523.913	125.81
524.128	107.81
524.343	104.81
524.559	102.81
524.774	77.81
524.989	83.81
525.204	101.81
525.419	83.81
525.634	74.81
525.849	70.81
526.064	92.81
526.28	97.81
526.495	92.81
526.71	81.81
526.925	82.81
527.14	76.81
527.355	90.81
527.57	80.81
527.785	85.81
527.999	94.81
528.214	97.81
528.429	98.81
528.644	88.81
528.859	84.81
529.074	96.81
529.289	104.81
529.503	167.81
529.718	102.81
529.933	80.81
530.148	92.81
530.363	93.81
530.577	80.81
530.792	85.81
531.007	91.81
531.221	84.81
531.436	84.81
531.651	95.81
531.865	94.81
532.08	89.81
532.295	79.81
532.509	79.81
532.724	85.81
532.938	97.81
533.153	96.81
533.367	92.81
533.582	91.81
533.796	82.81
534.011	66.81
534.225	84.81
534.44	89.81
534.654	80.81
534.868	83.81
535.083	97.81
535.297	95.81
535.511	102.81
535.726	110.81
535.94	101.81
536.154	99.81
536.369	95.81
536.583	66.81
536.797	86.81
537.011	89.81
537.225	102.81
537.44	81.81
537.654	87.81
537.868	86.81
538.082	90.81
538.296	84.81
538.51	98.81
538.724	99.81
538.938	91.81
539.153	103.81
539.367	100.81
539.581	93.81
539.795	81.81
540.009	78.81
540.222	89.81
540.436	83.81
540.65	90.81
540.864	92.81
541.078	81.81
541.292	91.81
541.506	86.81
541.72	82.81
541.934	80.81
542.147	82.81
542.361	88.81
542.575	84.81
542.789	89.81
543.002	83.81
543.216	90.81
543.43	94.81
543.644	103.81
543.857	82.81
544.071	95.81
544.285	92.81
544.498	96.81
544.712	101.81
544.925	83.81
545.139	103.81
545.352	94.81
545.566	88.81
545.779	97.81
545.993	95.81
546.206	112.81
546.42	102.81
546.633	93.81
546.847	77.81
547.06	83.81
547.274	86.81
547.487	99.81
547.7	80.81
547.914	88.81
548.127	81.81
548.34	86.81
548.554	78.81
548.767	88.81
548.98	80.81
549.193	86.81
549.407	85.81
549.62	103.81
549.833	86.81
550.046	91.81
550.259	97.81
550.473	87.81
550.686	95.81
550.899	99.81
551.112	93.81
551.325	78.81
551.538	72.81
551.751	82.81
551.964	87.81
552.177	80.81
552.39	75.81
552.603	96.81
552.816	83.81
553.029	89.81
553.242	95.81
553.455	100.81
553.667	100.81
553.88	86.81
554.093	101.81
554.306	83.81
554.519	90.81
554.732	90.81
554.944	98.81
555.157	93.81
555.37	73.81
555.583	87.81
555.795	98.81
556.008	89.81
556.221	83.81
556.433	79.81
556.646	82.81
556.859	95.81
557.071	90.81
557.284	89.81
557.496	99.81
557.709	91.81
557.921	87.81
558.134	90.81
558.346	85.81
558.559	95.81
558.771	87.81
558.984	104.81
559.196	92.81
559.409	94.81
559.621	94.81
559.833	80.81
560.046	78.81
560.258	86.81
560.47	89.81
560.683	94.81
560.895	96.81
561.107	86.81
561.32	89.81
561.532	88.81
561.744	92.81
561.956	76.81
562.168	97.81
562.381	90.81
562.593	84.81
562.805	86.81
563.017	80.81
563.229	95.81
563.441	88.81
563.653	89.81
563.865	91.81
564.077	82.81
564.289	97.81
564.501	93.81
564.713	100.81
564.925	92.81
565.137	99.81
565.349	89.81
565.561	101.81
565.773	81.81
565.985	99.81
566.197	78.81
566.408	86.81
566.62	81.81
566.832	88.81
567.044	82.81
567.255	78.81
567.467	82.81
567.679	98.81
567.891	92.81
568.102	82.81
568.314	89.81
568.526	79.81
568.737	74.81
568.949	90.81
569.161	106.81
569.372	99.81
569.584	99.81
569.795	104.81
570.007	114.81
570.218	249.81
570.43	142.81
570.641	99.81
570.853	78.81
571.064	81.81
571.276	85.81
571.487	85.81
571.698	95.81
571.91	85.81
572.121	100.81
572.333	90.81
572.544	77.81
572.755	81.81
572.966	92.81
573.178	79.81
573.389	83.81
573.6	82.81
573.811	95.81
574.023	85.81
574.234	88.81
574.445	97.81
574.656	74.81
574.867	96.81
575.078	94.81
575.289	96.81
575.501	77.81
575.712	92.81
575.923	96.81
576.134	84.81
576.345	82.81
576.556	92.81
576.767	90.81
576.978	98.81
577.188	91.81
577.399	82.81
577.61	98.81
577.821	95.81
578.032	112.81
578.243	262.81
578.454	779.81
578.665	211.81
578.875	100.81
579.086	100.81
579.297	98.81
579.508	84.81
579.718	93.81
579.929	81.81
580.14	88.81
580.35	92.81
580.561	87.81
580.772	76.81
580.982	84.81
581.193	82.81
581.403	88.81
581.614	82.81
581.825	87.81
582.035	96.81
582.246	82.81
582.456	89.81
582.667	89.81
582.877	75.81
583.087	86.81
583.298	86.81
583.508	79.81
583.719	74.81
583.929	76.81
584.139	93.81
584.35	86.81
584.56	71.81
584.77	90.81
584.981	75.81
585.191	91.81
585.401	98.81
585.611	91.81
585.821	89.81
586.032	85.81
586.242	82.81
586.452	91.81
586.662	76.81
586.872	88.81
587.082	112.81
587.292	87.81
587.502	71.81
587.713	83.81
587.923	83.81
588.133	99.81
588.343	79.81
588.553	101.81
588.762	81.81
588.972	106.81
589.182	192.81
589.392	122.81
589.602	98.81
589.812	145.81
590.022	102.81
590.232	90.81
590.441	68.81
590.651	92.81
590.861	73.81
591.071	86.81
591.281	84.81
591.49	65.81
591.7	89.81
591.91	79.81
592.119	83.81
592.329	83.81
592.539	96.81
592.748	89.81
592.958	73.81
593.167	85.81
593.377	73.81
593.587	84.81
593.796	76.81
594.006	76.81
594.215	104.81
594.424	87.81
594.634	88.81
594.843	93.81
595.053	86.81
595.262	94.81
595.472	80.81
595.681	86.81
595.89	84.81
596.1	93.81
596.309	78.81
596.518	87.81
596.727	69.81
596.937	79.81
597.146	92.81
597.355	85.81
597.564	80.81
597.774	78.81
597.983	89.81
598.192	76.81
598.401	91.81
598.61	85.81
598.819	89.81
599.028	81.81
599.237	85.81
599.446	93.81
599.655	70.81
599.864	90.81
600.073	94.81
600.282	92.81
600.491	79.81
600.7	81.81
600.909	98.81
601.118	76.81
601.327	91.81
601.536	85.81
601.745	80.81
601.953	90.81
602.162	92.81
602.371	86.81
602.58	74.81
602.789	86.81
602.997	86.81
603.206	99.81
603.415	82.81
603.623	76.81
603.832	87.81
604.041	87.81
604.249	80.81
604.458	87.81
604.666	83.81
604.875	86.81
605.084	94.81
605.292	81.81
605.501	88.81
605.709	83.81
605.918	84.81
606.126	74.81
606.334	83.81
606.543	80.81
606.751	64.81
606.96	80.81
607.168	75.81
607.376	75.81
607.585	87.81
607.793	95.81
608.001	97.81
608.21	74.81
608.418	82.81
608.626	86.81
608.834	96.81
609.043	86.81
609.251	82.81
609.459	78.81
609.667	90.81
609.875	83.81
610.083	84.81
610.291	87.81
610.499	94.81
610.707	82.81
610.916	79.81
611.124	90.81
611.332	79.81
611.54	84.81
611.748	90.81
611.955	81.81
612.163	81.81
612.371	75.81
612.579	65.81
612.787	80.81
612.995	96.81
613.203	89.81
613.411	82.81
613.618	78.81
613.826	74.81
614.034	84.81
614.242	80.81
614.449	107.81
614.657	72.81
614.865	80.81
615.072	100.81
615.28	90.81
615.488	85.81
615.695	82.81
615.903	99.81
616.111	87.81
616.318	96.81
616.526	92.81
616.733	83.81
616.941	85.81
617.148	93.81
617.356	80.81
617.563	88.81
617.771	87.81
617.978	80.81
618.185	81.81
618.393	86.81
618.6	86.81
618.807	104.81
619.015	63.81
619.222	84.81
619.429	77.81
619.637	79.81
619.844	86.81
620.051	82.81
620.258	79.81
620.466	85.81
620.673	86.81
620.88	87.81
621.087	76.81
621.294	78.81
621.501	102.81
621.708	88.81
621.915	88.81
622.122	89.81
622.329	79.81
622.536	86.81
622.743	88.81
622.95	91.81
623.157	66.81
623.364	92.81
623.571	89.81
623.778	88.81
623.985	85.81
624.192	70.81
624.399	90.81
624.606	72.81
624.812	71.81
625.019	71.81
625.226	87.81
625.433	78.81
625.639	83.81
625.846	76.81
626.053	100.81
626.259	93.81
626.466	81.81
626.673	84.81
626.879	79.81
627.086	82.81
627.293	91.81
627.499	86.81
627.706	81.81
627.912	86.81
628.119	84.81
628.325	90.81
628.532	84.81
628.738	94.81
628.945	96.81
629.151	84.81
629.357	82.81
629.564	81.81
629.77	62.81
629.976	75.81
630.183	68.81
630.389	90.81
630.595	80.81
630.802	83.81
631.008	72.81
631.214	77.81
631.42	67.81
631.627	103.81
631.833	76.81
632.039	89.81
632.245	83.81
632.451	76.81
632.657	83.81
632.863	72.81
633.069	78.81
633.275	76.81
633.481	71.81
633.688	89.81
633.893	76.81
634.099	84.81
634.305	90.81
634.511	92.81
634.717	98.81
634.923	73.81
635.129	92.81
635.335	71.81
635.541	78.81
635.747	84.81
635.952	81.81
636.158	89.81
636.364	88.81
636.57	70.81
636.775	83.81
636.981	87.81
637.187	80.81
637.392	72.81
637.598	62.81
637.804	76.81
638.009	81.81
638.215	81.81
638.421	88.81
638.626	80.81
638.832	71.81
639.037	76.81
639.243	95.81
639.448	80.81
639.654	88.81
639.859	81.81
640.065	84.81
640.27	94.81
640.475	74.81
640.681	70.81
640.886	84.81
641.091	86.81
641.297	90.81
641.502	81.81
641.707	82.81
641.913	76.81
642.118	64.81
642.323	83.81
642.528	78.81
642.733	72.81
642.939	89.81
643.144	80.81
643.349	75.81
643.554	89.81
643.759	69.81
643.964	87.81
644.169	94.81
644.374	95.81
644.579	64.81
644.784	83.81
644.989	77.81
645.194	82.81
645.399	87.81
645.604	72.81
645.809	79.81
646.014	87.81
646.219	77.81
646.423	78.81
646.628	79.81
646.833	87.81
647.038	84.81
647.243	78.81
647.447	76.81
647.652	84.81
647.857	91.81
648.062	86.81
648.266	101.81
648.471	90.81
648.676	88.81
648.88	87.81
649.085	90.81
649.289	91.81
649.494	84.81
649.698	129.81
649.903	101.81
650.107	87.81
650.312	83.81
650.516	87.81
650.721	79.81
650.925	80.81
651.13	85.81
651.334	77.81
651.539	84.81
651.743	82.81
651.947	73.81
652.152	76.81
652.356	91.81
652.56	83.81
652.764	79.81
652.969	66.81
653.173	76.81
653.377	76.81
653.581	97.81
653.785	87.81
653.99	72.81
654.194	69.81
654.398	78.81
654.602	81.81
654.806	87.81
655.01	101.81
655.214	91.81
655.418	79.81
655.622	83.81
655.826	82.81
656.03	87.81
656.234	87.81
656.438	84.81
656.642	88.81
656.846	85.81
657.049	78.81
657.253	90.81
657.457	75.81
657.661	86.81
657.865	89.81
658.068	70.81
658.272	85.81
658.476	59.81
658.68	81.81
658.883	59.81
659.087	64.81
659.291	72.81
659.494	87.81
659.698	81.81
659.901	75.81
660.105	76.81
660.309	83.81
660.512	82.81
660.716	79.81
660.919	83.81
661.123	86.81
661.326	70.81
661.53	79.81
661.733	96.81
661.936	87.81
662.14	78.81
662.343	82.81
662.546	86.81
662.75	76.81
662.953	75.81
663.156	77.81
663.36	65.81
663.563	77.81
663.766	83.81
663.969	77.81
664.173	69.81
664.376	79.81
664.579	80.81
664.782	82.81
664.985	81.81
665.188	69.81
665.391	73.81
665.594	68.81
665.797	78.81
666	75.81
666.203	74.81
666.406	80.81
666.609	72.81
666.812	76.81
667.015	98.81
667.218	84.81
667.421	74.81
667.624	68.81
667.827	80.81
668.03	77.81
668.232	77.81
668.435	86.81
668.638	63.81
668.841	78.81
669.043	79.81
669.246	89.81
669.449	84.81
669.651	78.81
669.854	80.81
670.057	80.81
670.259	86.81
670.462	76.81
670.665	84.81
670.867	79.81
671.07	79.81
671.272	70.81
671.475	83.81
671.677	101.81
671.88	68.81
672.082	78.81
672.284	82.81
672.487	75.81
672.689	83.81
672.892	84.81
