Data from Circ_2016_H10_HRD10591_00008.txt Node
Date: Wed Jan 03 09:58:42 EST 2024
User: Yrep
Spectrometer: HR+D1059
Trigger mode: 1
Integration Time (sec): 1.000000E-1
Scans to average: 1
Electric dark correction enabled: true
Nonlinearity correction enabled: false
Boxcar width: 0
XAxis mode: Wavelengths
Number of Pixels in Spectrum: 2048
>>>>>Begin Spectral Data<<<<<
223.165	-8.62
223.4	-8.62
223.635	-8.62
223.869	-19.62
224.104	-23.62
224.338	-17.62
224.573	-19.62
224.808	-13.62
225.042	-1.62
225.277	-16.62
225.511	-1.62
225.746	-5.62
225.98	6.38
226.215	14.38
226.449	32.38
226.683	29.38
226.918	14.38
227.152	31.38
227.387	34.38
227.621	41.38
227.856	46.38
228.09	62.38
228.324	55.38
228.559	66.38
228.793	69.38
229.027	53.38
229.262	66.38
229.496	85.38
229.73	78.38
229.964	71.38
230.199	77.38
230.433	94.38
230.667	90.38
230.901	80.38
231.136	77.38
231.37	86.38
231.604	84.38
231.838	82.38
232.072	78.38
232.306	89.38
232.541	75.38
232.775	76.38
233.009	80.38
233.243	79.38
233.477	79.38
233.711	95.38
233.945	90.38
234.179	82.38
234.413	82.38
234.647	77.38
234.881	56.38
235.115	86.38
235.349	83.38
235.583	78.38
235.817	75.38
236.051	81.38
236.285	91.38
236.519	82.38
236.753	88.38
236.987	90.38
237.221	79.38
237.455	93.38
237.689	77.38
237.922	85.38
238.156	66.38
238.39	87.38
238.624	83.38
238.858	81.38
239.091	86.38
239.325	72.38
239.559	78.38
239.793	78.38
240.027	73.38
240.26	89.38
240.494	78.38
240.728	83.38
240.961	82.38
241.195	90.38
241.429	80.38
241.662	74.38
241.896	84.38
242.13	69.38
242.363	76.38
242.597	77.38
242.83	87.38
243.064	93.38
243.298	74.38
243.531	85.38
243.765	73.38
243.998	86.38
244.232	97.38
244.465	100.38
244.699	88.38
244.932	74.38
245.166	82.38
245.399	74.38
245.633	86.38
245.866	74.38
246.099	83.38
246.333	86.38
246.566	84.38
246.8	85.38
247.033	73.38
247.266	71.38
247.5	72.38
247.733	97.38
247.966	85.38
248.2	72.38
248.433	83.38
248.666	77.38
248.899	92.38
249.133	84.38
249.366	102.38
249.599	107.38
249.832	80.38
250.066	81.38
250.299	73.38
250.532	98.38
250.765	91.38
250.998	96.38
251.231	83.38
251.465	86.38
251.698	72.38
251.931	73.38
252.164	77.38
252.397	86.38
252.63	86.38
252.863	83.38
253.096	86.38
253.329	78.38
253.562	70.38
253.795	72.38
254.028	98.38
254.261	71.38
254.494	95.38
254.727	94.38
254.96	85.38
255.193	81.38
255.426	91.38
255.659	84.38
255.892	95.38
256.124	85.38
256.357	83.38
256.59	86.38
256.823	89.38
257.056	83.38
257.289	90.38
257.521	92.38
257.754	87.38
257.987	88.38
258.22	79.38
258.452	92.38
258.685	81.38
258.918	88.38
259.151	89.38
259.383	91.38
259.616	89.38
259.849	89.38
260.081	88.38
260.314	99.38
260.547	84.38
260.779	78.38
261.012	85.38
261.244	85.38
261.477	83.38
261.71	88.38
261.942	104.38
262.175	102.38
262.407	93.38
262.64	78.38
262.872	90.38
263.105	74.38
263.337	81.38
263.57	89.38
263.802	83.38
264.035	88.38
264.267	90.38
264.499	83.38
264.732	89.38
264.964	78.38
265.197	86.38
265.429	84.38
265.661	85.38
265.894	74.38
266.126	96.38
266.358	93.38
266.591	80.38
266.823	88.38
267.055	85.38
267.287	91.38
267.52	81.38
267.752	71.38
267.984	89.38
268.216	87.38
268.448	91.38
268.681	93.38
268.913	78.38
269.145	96.38
269.377	109.38
269.609	87.38
269.841	93.38
270.073	92.38
270.306	78.38
270.538	92.38
270.77	83.38
271.002	91.38
271.234	90.38
271.466	90.38
271.698	90.38
271.93	83.38
272.162	85.38
272.394	84.38
272.626	75.38
272.858	98.38
273.09	93.38
273.322	82.38
273.553	88.38
273.785	84.38
274.017	84.38
274.249	92.38
274.481	85.38
274.713	102.38
274.945	99.38
275.176	90.38
275.408	90.38
275.64	94.38
275.872	88.38
276.104	92.38
276.335	89.38
276.567	90.38
276.799	110.38
277.031	95.38
277.262	84.38
277.494	92.38
277.726	95.38
277.957	98.38
278.189	84.38
278.421	88.38
278.652	85.38
278.884	93.38
279.115	71.38
279.347	85.38
279.579	93.38
279.81	87.38
280.042	86.38
280.273	78.38
280.505	71.38
280.736	88.38
280.968	95.38
281.199	107.38
281.431	88.38
281.662	90.38
281.894	102.38
282.125	87.38
282.356	116.38
282.588	137.38
282.819	110.38
283.051	93.38
283.282	84.38
283.513	94.38
283.745	83.38
283.976	83.38
284.207	92.38
284.439	76.38
284.67	87.38
284.901	82.38
285.132	96.38
285.364	106.38
285.595	101.38
285.826	80.38
286.057	97.38
286.288	89.38
286.52	87.38
286.751	88.38
286.982	94.38
287.213	74.38
287.444	92.38
287.675	74.38
287.906	78.38
288.138	88.38
288.369	91.38
288.6	79.38
288.831	81.38
289.062	93.38
289.293	100.38
289.524	92.38
289.755	97.38
289.986	88.38
290.217	83.38
290.448	84.38
290.679	87.38
290.91	85.38
291.141	88.38
291.371	91.38
291.602	82.38
291.833	98.38
292.064	82.38
292.295	86.38
292.526	103.38
292.757	98.38
292.987	97.38
293.218	95.38
293.449	89.38
293.68	89.38
293.91	93.38
294.141	93.38
294.372	95.38
294.603	79.38
294.833	82.38
295.064	98.38
295.295	96.38
295.525	102.38
295.756	99.38
295.987	129.38
296.217	127.38
296.448	119.38
296.679	96.38
296.909	105.38
297.14	82.38
297.37	108.38
297.601	95.38
297.831	77.38
298.062	85.38
298.292	94.38
298.523	88.38
298.753	80.38
298.984	87.38
299.214	100.38
299.445	93.38
299.675	88.38
299.905	89.38
300.136	90.38
300.366	99.38
300.597	98.38
300.827	111.38
301.057	109.38
301.288	106.38
301.518	97.38
301.748	87.38
301.979	83.38
302.209	84.38
302.439	102.38
302.669	86.38
302.9	76.38
303.13	86.38
303.36	104.38
303.59	120.38
303.82	95.38
304.051	95.38
304.281	92.38
304.511	77.38
304.741	86.38
304.971	99.38
305.201	89.38
305.431	102.38
305.661	89.38
305.891	98.38
306.121	89.38
306.352	94.38
306.582	114.38
306.812	78.38
307.042	82.38
307.272	92.38
307.502	94.38
307.731	86.38
307.961	79.38
308.191	95.38
308.421	89.38
308.651	100.38
308.881	105.38
309.111	119.38
309.341	96.38
309.571	101.38
309.8	96.38
310.03	90.38
310.26	101.38
310.49	97.38
310.72	100.38
310.949	105.38
311.179	93.38
311.409	103.38
311.639	95.38
311.868	105.38
312.098	107.38
312.328	99.38
312.557	96.38
312.787	100.38
313.017	105.38
313.246	88.38
313.476	90.38
313.706	98.38
313.935	100.38
314.165	85.38
314.394	108.38
314.624	98.38
314.853	89.38
315.083	103.38
315.312	83.38
315.542	91.38
315.771	95.38
316.001	96.38
316.23	98.38
316.46	90.38
316.689	84.38
316.919	83.38
317.148	97.38
317.377	104.38
317.607	110.38
317.836	87.38
318.065	94.38
318.295	83.38
318.524	87.38
318.753	91.38
318.983	98.38
319.212	115.38
319.441	122.38
319.67	114.38
319.9	108.38
320.129	98.38
320.358	110.38
320.587	90.38
320.816	104.38
321.046	109.38
321.275	87.38
321.504	96.38
321.733	105.38
321.962	91.38
322.191	89.38
322.42	105.38
322.649	131.38
322.878	122.38
323.108	124.38
323.337	133.38
323.566	139.38
323.795	142.38
324.024	192.38
324.253	397.38
324.482	804.38
324.71	1685.38
324.939	2126.38
325.168	821.38
325.397	246.38
325.626	127.38
325.855	134.38
326.084	124.38
326.313	138.38
326.542	152.38
326.77	230.38
326.999	480.38
327.228	951.38
327.457	1741.38
327.686	1347.38
327.914	377.38
328.143	198.38
328.372	150.38
328.6	137.38
328.829	90.38
329.058	118.38
329.287	110.38
329.515	101.38
329.744	106.38
329.972	96.38
330.201	106.38
330.43	111.38
330.658	126.38
330.887	145.38
331.115	125.38
331.344	100.38
331.572	114.38
331.801	113.38
332.03	98.38
332.258	100.38
332.486	89.38
332.715	94.38
332.943	94.38
333.172	106.38
333.4	106.38
333.629	107.38
333.857	114.38
334.085	115.38
334.314	98.38
334.542	114.38
334.771	92.38
334.999	115.38
335.227	102.38
335.455	100.38
335.684	89.38
335.912	76.38
336.14	104.38
336.369	102.38
336.597	103.38
336.825	101.38
337.053	90.38
337.281	86.38
337.51	87.38
337.738	79.38
337.966	91.38
338.194	98.38
338.422	92.38
338.65	106.38
338.878	98.38
339.106	106.38
339.334	83.38
339.562	92.38
339.79	88.38
340.018	78.38
340.246	82.38
340.474	82.38
340.702	92.38
340.93	82.38
341.158	94.38
341.386	93.38
341.614	97.38
341.842	106.38
342.07	88.38
342.298	86.38
342.526	101.38
342.754	99.38
342.981	98.38
343.209	88.38
343.437	97.38
343.665	95.38
343.893	106.38
344.12	91.38
344.348	94.38
344.576	95.38
344.804	94.38
345.031	95.38
345.259	90.38
345.487	92.38
345.714	85.38
345.942	95.38
346.17	96.38
346.397	88.38
346.625	85.38
346.853	93.38
347.08	90.38
347.308	96.38
347.535	91.38
347.763	115.38
347.99	98.38
348.218	100.38
348.445	102.38
348.673	106.38
348.9	107.38
349.128	105.38
349.355	99.38
349.583	83.38
349.81	102.38
350.037	104.38
350.265	100.38
350.492	90.38
350.72	90.38
350.947	103.38
351.174	101.38
351.402	108.38
351.629	101.38
351.856	97.38
352.083	103.38
352.311	103.38
352.538	118.38
352.765	109.38
352.992	116.38
353.22	122.38
353.447	112.38
353.674	106.38
353.901	113.38
354.128	111.38
354.355	115.38
354.583	101.38
354.81	101.38
355.037	108.38
355.264	100.38
355.491	99.38
355.718	110.38
355.945	103.38
356.172	109.38
356.399	104.38
356.626	109.38
356.853	92.38
357.08	98.38
357.307	86.38
357.534	97.38
357.761	91.38
357.988	112.38
358.215	122.38
358.441	121.38
358.668	135.38
358.895	103.38
359.122	92.38
359.349	105.38
359.576	85.38
359.802	90.38
360.029	117.38
360.256	94.38
360.483	96.38
360.709	100.38
360.936	89.38
361.163	93.38
361.39	106.38
361.616	108.38
361.843	104.38
362.07	88.38
362.296	97.38
362.523	81.38
362.749	85.38
362.976	98.38
363.203	91.38
363.429	87.38
363.656	89.38
363.882	98.38
364.109	113.38
364.335	86.38
364.562	99.38
364.788	79.38
365.015	92.38
365.241	108.38
365.468	110.38
365.694	92.38
365.92	96.38
366.147	92.38
366.373	92.38
366.599	92.38
366.826	93.38
367.052	82.38
367.278	99.38
367.505	90.38
367.731	93.38
367.957	98.38
368.184	89.38
368.41	87.38
368.636	102.38
368.862	103.38
369.089	119.38
369.315	92.38
369.541	87.38
369.767	85.38
369.993	101.38
370.219	94.38
370.445	91.38
370.672	96.38
370.898	91.38
371.124	99.38
371.35	71.38
371.576	97.38
371.802	85.38
372.028	98.38
372.254	93.38
372.48	99.38
372.706	87.38
372.932	92.38
373.158	89.38
373.384	86.38
373.61	100.38
373.835	94.38
374.061	98.38
374.287	102.38
374.513	102.38
374.739	92.38
374.965	105.38
375.191	84.38
375.416	97.38
375.642	94.38
375.868	98.38
376.094	104.38
376.319	93.38
376.545	102.38
376.771	118.38
376.997	90.38
377.222	105.38
377.448	93.38
377.674	103.38
377.899	98.38
378.125	95.38
378.35	104.38
378.576	110.38
378.802	120.38
379.027	113.38
379.253	101.38
379.478	116.38
379.704	107.38
379.929	115.38
380.155	109.38
380.38	125.38
380.606	110.38
380.831	117.38
381.057	129.38
381.282	140.38
381.507	128.38
381.733	133.38
381.958	134.38
382.184	131.38
382.409	137.38
382.634	147.38
382.86	144.38
383.085	144.38
383.31	132.38
383.535	160.38
383.761	132.38
383.986	151.38
384.211	144.38
384.436	148.38
384.662	153.38
384.887	182.38
385.112	198.38
385.337	196.38
385.562	177.38
385.787	181.38
386.013	184.38
386.238	195.38
386.463	174.38
386.688	158.38
386.913	178.38
387.138	189.38
387.363	183.38
387.588	145.38
387.813	146.38
388.038	182.38
388.263	212.38
388.488	207.38
388.713	133.38
388.938	113.38
389.163	101.38
389.387	98.38
389.612	88.38
389.837	90.38
390.062	84.38
390.287	90.38
390.512	93.38
390.736	108.38
390.961	91.38
391.186	100.38
391.411	101.38
391.636	88.38
391.86	79.38
392.085	106.38
392.31	86.38
392.534	79.38
392.759	88.38
392.984	109.38
393.208	110.38
393.433	163.38
393.658	134.38
393.882	101.38
394.107	95.38
394.331	88.38
394.556	97.38
394.78	81.38
395.005	109.38
395.229	99.38
395.454	100.38
395.678	103.38
395.903	93.38
396.127	99.38
396.352	94.38
396.576	98.38
396.801	116.38
397.025	127.38
397.249	99.38
397.474	87.38
397.698	100.38
397.922	94.38
398.147	86.38
398.371	83.38
398.595	91.38
398.82	94.38
399.044	83.38
399.268	102.38
399.492	91.38
399.717	84.38
399.941	86.38
400.165	106.38
400.389	104.38
400.613	92.38
400.837	71.38
401.062	83.38
401.286	106.38
401.51	95.38
401.734	98.38
401.958	97.38
402.182	119.38
402.406	127.38
402.63	116.38
402.854	93.38
403.078	105.38
403.302	92.38
403.526	78.38
403.75	91.38
403.974	75.38
404.198	87.38
404.422	92.38
404.645	82.38
404.869	81.38
405.093	100.38
405.317	90.38
405.541	88.38
405.765	84.38
405.988	104.38
406.212	143.38
406.436	201.38
406.66	148.38
406.883	88.38
407.107	104.38
407.331	99.38
407.555	105.38
407.778	94.38
408.002	85.38
408.226	78.38
408.449	107.38
408.673	92.38
408.896	105.38
409.12	97.38
409.344	101.38
409.567	90.38
409.791	90.38
410.014	103.38
410.238	96.38
410.461	102.38
410.685	91.38
410.908	114.38
411.132	107.38
411.355	104.38
411.578	96.38
411.802	89.38
412.025	97.38
412.249	96.38
412.472	101.38
412.695	101.38
412.919	95.38
413.142	97.38
413.365	91.38
413.589	94.38
413.812	77.38
414.035	99.38
414.258	86.38
414.482	86.38
414.705	99.38
414.928	107.38
415.151	103.38
415.374	111.38
415.597	115.38
415.821	97.38
416.044	104.38
416.267	100.38
416.49	105.38
416.713	92.38
416.936	98.38
417.159	94.38
417.382	86.38
417.605	97.38
417.828	108.38
418.051	103.38
418.274	105.38
418.497	107.38
418.72	92.38
418.943	95.38
419.166	89.38
419.389	100.38
419.611	98.38
419.834	91.38
420.057	96.38
420.28	88.38
420.503	93.38
420.726	78.38
420.948	77.38
421.171	99.38
421.394	98.38
421.617	87.38
421.839	115.38
422.062	96.38
422.285	107.38
422.507	121.38
422.73	145.38
422.953	123.38
423.175	92.38
423.398	100.38
423.621	88.38
423.843	75.38
424.066	86.38
424.288	97.38
424.511	93.38
424.733	95.38
424.956	101.38
425.178	95.38
425.401	94.38
425.623	101.38
425.846	113.38
426.068	94.38
426.291	93.38
426.513	90.38
426.735	96.38
426.958	79.38
427.18	104.38
427.402	131.38
427.625	150.38
427.847	133.38
428.069	113.38
428.292	79.38
428.514	99.38
428.736	80.38
428.958	87.38
429.181	90.38
429.403	79.38
429.625	75.38
429.847	89.38
430.069	97.38
430.292	102.38
430.514	97.38
430.736	86.38
430.958	95.38
431.18	87.38
431.402	77.38
431.624	88.38
431.846	93.38
432.068	74.38
432.29	80.38
432.512	85.38
432.734	91.38
432.956	104.38
433.178	100.38
433.4	97.38
433.622	78.38
433.844	85.38
434.066	103.38
434.287	93.38
434.509	89.38
434.731	82.38
434.953	91.38
435.175	87.38
435.397	101.38
435.618	102.38
435.84	84.38
436.062	114.38
436.284	117.38
436.505	95.38
436.727	111.38
436.949	96.38
437.17	79.38
437.392	102.38
437.614	99.38
437.835	100.38
438.057	104.38
438.278	100.38
438.5	105.38
438.721	125.38
438.943	107.38
439.165	91.38
439.386	77.38
439.608	93.38
439.829	108.38
440.05	121.38
440.272	136.38
440.493	86.38
440.715	87.38
440.936	84.38
441.158	82.38
441.379	99.38
441.6	94.38
441.822	80.38
442.043	95.38
442.264	92.38
442.486	107.38
442.707	89.38
442.928	107.38
443.149	114.38
443.371	118.38
443.592	99.38
443.813	109.38
444.034	97.38
444.255	75.38
444.476	90.38
444.698	92.38
444.919	97.38
445.14	142.38
445.361	109.38
445.582	119.38
445.803	131.38
446.024	130.38
446.245	141.38
446.466	96.38
446.687	97.38
446.908	99.38
447.129	83.38
447.35	79.38
447.571	97.38
447.792	83.38
448.013	101.38
448.234	97.38
448.455	98.38
448.675	100.38
448.896	115.38
449.117	108.38
449.338	103.38
449.559	132.38
449.779	144.38
450	106.38
450.221	84.38
450.442	90.38
450.662	106.38
450.883	101.38
451.104	109.38
451.324	95.38
451.545	101.38
451.766	81.38
451.986	97.38
452.207	101.38
452.428	76.38
452.648	81.38
452.869	110.38
453.089	115.38
453.31	113.38
453.53	91.38
453.751	92.38
453.971	99.38
454.192	102.38
454.412	109.38
454.633	81.38
454.853	91.38
455.073	92.38
455.294	94.38
455.514	95.38
455.734	92.38
455.955	96.38
456.175	73.38
456.395	83.38
456.616	74.38
456.836	81.38
457.056	83.38
457.276	93.38
457.497	92.38
457.717	92.38
457.937	91.38
458.157	87.38
458.377	100.38
458.598	92.38
458.818	132.38
459.038	146.38
459.258	98.38
459.478	94.38
459.698	82.38
459.918	91.38
460.138	74.38
460.358	87.38
460.578	92.38
460.798	84.38
461.018	91.38
461.238	78.38
461.458	86.38
461.678	97.38
461.898	98.38
462.118	84.38
462.338	87.38
462.558	98.38
462.777	96.38
462.997	94.38
463.217	87.38
463.437	87.38
463.657	86.38
463.876	104.38
464.096	75.38
464.316	102.38
464.536	100.38
464.755	90.38
464.975	98.38
465.195	143.38
465.414	158.38
465.634	107.38
465.854	87.38
466.073	88.38
466.293	100.38
466.512	91.38
466.732	97.38
466.951	91.38
467.171	98.38
467.391	94.38
467.61	96.38
467.829	94.38
468.049	94.38
468.268	94.38
468.488	102.38
468.707	87.38
468.927	86.38
469.146	85.38
469.365	83.38
469.585	75.38
469.804	85.38
470.023	95.38
470.243	86.38
470.462	94.38
470.681	91.38
470.901	107.38
471.12	88.38
471.339	87.38
471.558	83.38
471.777	86.38
471.997	86.38
472.216	76.38
472.435	80.38
472.654	81.38
472.873	90.38
473.092	88.38
473.311	67.38
473.53	89.38
473.749	81.38
473.968	113.38
474.187	117.38
474.406	91.38
474.625	80.38
474.844	87.38
475.063	93.38
475.282	85.38
475.501	86.38
475.72	94.38
475.939	85.38
476.158	90.38
476.377	84.38
476.596	94.38
476.814	92.38
477.033	85.38
477.252	103.38
477.471	88.38
477.69	91.38
477.908	103.38
478.127	77.38
478.346	77.38
478.564	94.38
478.783	92.38
479.002	78.38
479.22	101.38
479.439	88.38
479.658	102.38
479.876	97.38
480.095	92.38
480.313	81.38
480.532	85.38
480.751	105.38
480.969	89.38
481.188	86.38
481.406	91.38
481.624	95.38
481.843	89.38
482.061	98.38
482.28	82.38
482.498	94.38
482.717	88.38
482.935	83.38
483.153	93.38
483.372	90.38
483.59	110.38
483.808	106.38
484.027	90.38
484.245	89.38
484.463	93.38
484.681	98.38
484.9	98.38
485.118	108.38
485.336	99.38
485.554	103.38
485.772	116.38
485.99	121.38
486.209	119.38
486.427	110.38
486.645	107.38
486.863	131.38
487.081	109.38
487.299	107.38
487.517	98.38
487.735	98.38
487.953	105.38
488.171	101.38
488.389	93.38
488.607	96.38
488.825	97.38
489.043	89.38
489.261	92.38
489.479	106.38
489.696	103.38
489.914	94.38
490.132	93.38
490.35	106.38
490.568	82.38
490.786	95.38
491.003	98.38
491.221	99.38
491.439	87.38
491.657	98.38
491.874	107.38
492.092	93.38
492.31	84.38
492.527	93.38
492.745	106.38
492.963	100.38
493.18	100.38
493.398	92.38
493.615	101.38
493.833	80.38
494.05	89.38
494.268	88.38
494.485	94.38
494.703	101.38
494.92	86.38
495.138	88.38
495.355	88.38
495.573	89.38
495.79	108.38
496.008	110.38
496.225	91.38
496.442	97.38
496.66	99.38
496.877	90.38
497.094	98.38
497.312	98.38
497.529	89.38
497.746	82.38
497.963	89.38
498.181	102.38
498.398	88.38
498.615	100.38
498.832	100.38
499.049	81.38
499.267	90.38
499.484	99.38
499.701	95.38
499.918	76.38
500.135	95.38
500.352	88.38
500.569	92.38
500.786	103.38
501.003	91.38
501.22	93.38
501.437	86.38
501.654	109.38
501.871	114.38
502.088	104.38
502.305	91.38
502.522	102.38
502.739	93.38
502.956	82.38
503.172	89.38
503.389	92.38
503.606	96.38
503.823	93.38
504.04	91.38
504.256	98.38
504.473	98.38
504.69	98.38
504.907	87.38
505.123	85.38
505.34	72.38
505.557	96.38
505.773	78.38
505.99	102.38
506.207	102.38
506.423	84.38
506.64	91.38
506.856	105.38
507.073	96.38
507.289	106.38
507.506	97.38
507.722	113.38
507.939	109.38
508.155	92.38
508.372	92.38
508.588	101.38
508.805	98.38
509.021	89.38
509.238	99.38
509.454	99.38
509.67	106.38
509.887	122.38
510.103	148.38
510.319	184.38
510.536	674.38
510.752	2158.38
510.968	644.38
511.184	158.38
511.401	123.38
511.617	92.38
511.833	94.38
512.049	101.38
512.265	91.38
512.481	85.38
512.698	98.38
512.914	102.38
513.13	104.38
513.346	90.38
513.562	106.38
513.778	102.38
513.994	92.38
514.21	115.38
514.426	121.38
514.642	132.38
514.858	126.38
515.074	157.38
515.29	401.38
515.506	1274.38
515.721	530.38
515.937	149.38
516.153	107.38
516.369	104.38
516.585	105.38
516.801	84.38
517.016	98.38
517.232	93.38
517.448	95.38
517.664	99.38
517.879	98.38
518.095	94.38
518.311	94.38
518.527	96.38
518.742	89.38
518.958	105.38
519.173	100.38
519.389	113.38
519.605	90.38
519.82	103.38
520.036	106.38
520.251	110.38
520.467	117.38
520.682	110.38
520.898	100.38
521.113	123.38
521.329	136.38
521.544	181.38
521.76	480.38
521.975	2063.38
522.19	1301.38
522.406	299.38
522.621	119.38
522.836	118.38
523.052	92.38
523.267	111.38
523.482	98.38
523.698	87.38
523.913	102.38
524.128	97.38
524.343	91.38
524.559	87.38
524.774	107.38
524.989	89.38
525.204	108.38
525.419	109.38
525.634	94.38
525.849	111.38
526.064	98.38
526.28	95.38
526.495	94.38
526.71	87.38
526.925	92.38
527.14	85.38
527.355	85.38
527.57	90.38
527.785	98.38
527.999	103.38
528.214	84.38
528.429	79.38
528.644	94.38
528.859	91.38
529.074	93.38
529.289	119.38
529.503	164.38
529.718	112.38
529.933	87.38
530.148	89.38
530.363	85.38
530.577	90.38
530.792	93.38
531.007	100.38
531.221	92.38
531.436	103.38
531.651	92.38
531.865	91.38
532.08	98.38
532.295	81.38
532.509	99.38
532.724	82.38
532.938	100.38
533.153	76.38
533.367	99.38
533.582	117.38
533.796	92.38
534.011	87.38
534.225	82.38
534.44	85.38
534.654	86.38
534.868	97.38
535.083	86.38
535.297	102.38
535.511	95.38
535.726	91.38
535.94	92.38
536.154	103.38
536.369	99.38
536.583	87.38
536.797	98.38
537.011	85.38
537.225	81.38
537.44	84.38
537.654	103.38
537.868	89.38
538.082	94.38
538.296	73.38
538.51	89.38
538.724	98.38
538.938	93.38
539.153	105.38
539.367	115.38
539.581	98.38
539.795	85.38
540.009	106.38
540.222	103.38
540.436	88.38
540.65	102.38
540.864	104.38
541.078	80.38
541.292	87.38
541.506	105.38
541.72	89.38
541.934	85.38
542.147	94.38
542.361	68.38
542.575	99.38
542.789	92.38
543.002	86.38
543.216	99.38
543.43	94.38
543.644	107.38
543.857	101.38
544.071	86.38
544.285	96.38
544.498	98.38
544.712	98.38
544.925	80.38
545.139	88.38
545.352	114.38
545.566	97.38
545.779	95.38
545.993	94.38
546.206	107.38
546.42	88.38
546.633	89.38
546.847	96.38
547.06	92.38
547.274	89.38
547.487	77.38
547.7	83.38
547.914	87.38
548.127	100.38
548.34	97.38
548.554	95.38
548.767	93.38
548.98	93.38
549.193	94.38
549.407	94.38
549.62	85.38
549.833	91.38
550.046	89.38
550.259	86.38
550.473	91.38
550.686	99.38
550.899	84.38
551.112	85.38
551.325	107.38
551.538	88.38
551.751	93.38
551.964	88.38
552.177	96.38
552.39	107.38
552.603	110.38
552.816	90.38
553.029	76.38
553.242	97.38
553.455	102.38
553.667	94.38
553.88	101.38
554.093	81.38
554.306	94.38
554.519	87.38
554.732	98.38
554.944	96.38
555.157	90.38
555.37	97.38
555.583	98.38
555.795	98.38
556.008	97.38
556.221	78.38
556.433	106.38
556.646	93.38
556.859	90.38
557.071	96.38
557.284	90.38
557.496	94.38
557.709	95.38
557.921	97.38
558.134	82.38
558.346	91.38
558.559	107.38
558.771	96.38
558.984	94.38
559.196	86.38
559.409	97.38
559.621	87.38
559.833	85.38
560.046	94.38
560.258	98.38
560.47	94.38
560.683	83.38
560.895	83.38
561.107	95.38
561.32	87.38
561.532	89.38
561.744	83.38
561.956	85.38
562.168	96.38
562.381	90.38
562.593	85.38
562.805	93.38
563.017	79.38
563.229	93.38
563.441	97.38
563.653	89.38
563.865	92.38
564.077	87.38
564.289	80.38
564.501	82.38
564.713	101.38
564.925	100.38
565.137	116.38
565.349	102.38
565.561	94.38
565.773	92.38
565.985	89.38
566.197	98.38
566.408	102.38
566.62	78.38
566.832	87.38
567.044	83.38
567.255	82.38
567.467	85.38
567.679	82.38
567.891	91.38
568.102	95.38
568.314	92.38
568.526	90.38
568.737	93.38
568.949	93.38
569.161	98.38
569.372	100.38
569.584	98.38
569.795	106.38
570.007	114.38
570.218	223.38
570.43	136.38
570.641	95.38
570.853	82.38
571.064	80.38
571.276	90.38
571.487	92.38
571.698	93.38
571.91	90.38
572.121	92.38
572.333	90.38
572.544	99.38
572.755	100.38
572.966	94.38
573.178	88.38
573.389	85.38
573.6	82.38
573.811	92.38
574.023	82.38
574.234	88.38
574.445	101.38
574.656	89.38
574.867	93.38
575.078	73.38
575.289	84.38
575.501	82.38
575.712	85.38
575.923	92.38
576.134	85.38
576.345	93.38
576.556	98.38
576.767	86.38
576.978	91.38
577.188	95.38
577.399	102.38
577.61	89.38
577.821	86.38
578.032	113.38
578.243	229.38
578.454	676.38
578.665	198.38
578.875	102.38
579.086	91.38
579.297	107.38
579.508	94.38
579.718	87.38
579.929	104.38
580.14	66.38
580.35	81.38
580.561	87.38
580.772	94.38
580.982	89.38
581.193	76.38
581.403	91.38
581.614	77.38
581.825	93.38
582.035	91.38
582.246	83.38
582.456	93.38
582.667	83.38
582.877	86.38
583.087	87.38
583.298	91.38
583.508	93.38
583.719	98.38
583.929	90.38
584.139	68.38
584.35	81.38
584.56	90.38
584.77	90.38
584.981	99.38
585.191	87.38
585.401	97.38
585.611	79.38
585.821	80.38
586.032	99.38
586.242	91.38
586.452	82.38
586.662	98.38
586.872	78.38
587.082	92.38
587.292	91.38
587.502	94.38
587.713	95.38
587.923	90.38
588.133	95.38
588.343	87.38
588.553	94.38
588.762	118.38
588.972	161.38
589.182	437.38
589.392	227.38
589.602	164.38
589.812	312.38
590.022	135.38
590.232	97.38
590.441	89.38
590.651	85.38
590.861	92.38
591.071	87.38
591.281	94.38
591.49	82.38
591.7	98.38
591.91	99.38
592.119	97.38
592.329	109.38
592.539	100.38
592.748	91.38
592.958	89.38
593.167	83.38
593.377	79.38
593.587	90.38
593.796	84.38
594.006	81.38
594.215	79.38
594.424	94.38
594.634	108.38
594.843	96.38
595.053	78.38
595.262	78.38
595.472	104.38
595.681	71.38
595.89	89.38
596.1	97.38
596.309	91.38
596.518	86.38
596.727	81.38
596.937	84.38
597.146	83.38
597.355	99.38
597.564	95.38
597.774	76.38
597.983	76.38
598.192	80.38
598.401	81.38
598.61	91.38
598.819	90.38
599.028	92.38
599.237	91.38
599.446	94.38
599.655	85.38
599.864	82.38
600.073	91.38
600.282	100.38
600.491	79.38
600.7	86.38
600.909	85.38
601.118	102.38
601.327	79.38
601.536	94.38
601.745	92.38
601.953	75.38
602.162	96.38
602.371	96.38
602.58	94.38
602.789	84.38
602.997	85.38
603.206	88.38
603.415	94.38
603.623	79.38
603.832	78.38
604.041	88.38
604.249	103.38
604.458	89.38
604.666	87.38
604.875	86.38
605.084	98.38
605.292	98.38
605.501	86.38
605.709	88.38
605.918	82.38
606.126	94.38
606.334	87.38
606.543	108.38
606.751	101.38
606.96	83.38
607.168	84.38
607.376	75.38
607.585	88.38
607.793	82.38
608.001	78.38
608.21	85.38
608.418	94.38
608.626	94.38
608.834	71.38
609.043	95.38
609.251	103.38
609.459	89.38
609.667	102.38
609.875	94.38
610.083	92.38
610.291	96.38
610.499	84.38
610.707	73.38
610.916	86.38
611.124	83.38
611.332	92.38
611.54	84.38
611.748	84.38
611.955	87.38
612.163	112.38
612.371	85.38
612.579	95.38
612.787	84.38
612.995	87.38
613.203	101.38
613.411	81.38
613.618	93.38
613.826	86.38
614.034	97.38
614.242	94.38
614.449	92.38
614.657	89.38
614.865	89.38
615.072	76.38
615.28	78.38
615.488	100.38
615.695	101.38
615.903	89.38
616.111	105.38
616.318	81.38
616.526	99.38
616.733	98.38
616.941	94.38
617.148	88.38
617.356	93.38
617.563	94.38
617.771	80.38
617.978	90.38
618.185	87.38
618.393	78.38
618.6	85.38
618.807	83.38
619.015	87.38
619.222	79.38
619.429	86.38
619.637	87.38
619.844	83.38
620.051	92.38
620.258	80.38
620.466	83.38
620.673	78.38
620.88	90.38
621.087	80.38
621.294	87.38
621.501	100.38
621.708	89.38
621.915	86.38
622.122	87.38
622.329	80.38
622.536	90.38
622.743	76.38
622.95	81.38
623.157	94.38
623.364	74.38
623.571	89.38
623.778	87.38
623.985	83.38
624.192	81.38
624.399	85.38
624.606	96.38
624.812	92.38
625.019	91.38
625.226	79.38
625.433	81.38
625.639	87.38
625.846	94.38
626.053	84.38
626.259	96.38
626.466	89.38
626.673	88.38
626.879	86.38
627.086	78.38
627.293	90.38
627.499	78.38
627.706	84.38
627.912	81.38
628.119	76.38
628.325	93.38
628.532	89.38
628.738	78.38
628.945	85.38
629.151	86.38
629.357	85.38
629.564	97.38
629.77	85.38
629.976	79.38
630.183	83.38
630.389	94.38
630.595	93.38
630.802	95.38
631.008	91.38
631.214	87.38
631.42	86.38
631.627	90.38
631.833	83.38
632.039	79.38
632.245	92.38
632.451	102.38
632.657	81.38
632.863	91.38
633.069	89.38
633.275	77.38
633.481	91.38
633.688	73.38
633.893	87.38
634.099	76.38
634.305	89.38
634.511	89.38
634.717	85.38
634.923	86.38
635.129	92.38
635.335	87.38
635.541	82.38
635.747	90.38
635.952	81.38
636.158	77.38
636.364	73.38
636.57	86.38
636.775	86.38
636.981	73.38
637.187	87.38
637.392	79.38
637.598	81.38
637.804	89.38
638.009	65.38
638.215	83.38
638.421	98.38
638.626	82.38
638.832	75.38
639.037	72.38
639.243	86.38
639.448	73.38
639.654	80.38
639.859	82.38
640.065	89.38
640.27	87.38
640.475	76.38
640.681	72.38
640.886	81.38
641.091	95.38
641.297	100.38
641.502	83.38
641.707	86.38
641.913	88.38
642.118	96.38
642.323	79.38
642.528	89.38
642.733	76.38
642.939	86.38
643.144	87.38
643.349	90.38
643.554	86.38
643.759	80.38
643.964	70.38
644.169	71.38
644.374	85.38
644.579	97.38
644.784	97.38
644.989	75.38
645.194	91.38
645.399	85.38
645.604	88.38
645.809	80.38
646.014	77.38
646.219	78.38
646.423	88.38
646.628	98.38
646.833	77.38
647.038	73.38
647.243	94.38
647.447	86.38
647.652	84.38
647.857	104.38
648.062	82.38
648.266	98.38
648.471	91.38
648.676	97.38
648.88	99.38
649.085	100.38
649.289	101.38
649.494	119.38
649.698	129.38
649.903	103.38
650.107	90.38
650.312	85.38
650.516	81.38
650.721	78.38
650.925	86.38
651.13	87.38
651.334	83.38
651.539	79.38
651.743	89.38
651.947	76.38
652.152	84.38
652.356	72.38
652.56	83.38
652.764	94.38
652.969	93.38
653.173	80.38
653.377	89.38
653.581	74.38
653.785	89.38
653.99	76.38
654.194	92.38
654.398	81.38
654.602	93.38
654.806	95.38
655.01	101.38
655.214	100.38
655.418	94.38
655.622	76.38
655.826	96.38
656.03	97.38
656.234	101.38
656.438	106.38
656.642	110.38
656.846	101.38
657.049	94.38
657.253	90.38
657.457	102.38
657.661	91.38
657.865	89.38
658.068	89.38
658.272	83.38
658.476	78.38
658.68	84.38
658.883	75.38
659.087	72.38
659.291	79.38
659.494	82.38
659.698	85.38
659.901	78.38
660.105	85.38
660.309	90.38
660.512	91.38
660.716	79.38
660.919	90.38
661.123	97.38
661.326	87.38
661.53	81.38
661.733	71.38
661.936	92.38
662.14	81.38
662.343	89.38
662.546	83.38
662.75	73.38
662.953	75.38
663.156	87.38
663.36	93.38
663.563	78.38
663.766	87.38
663.969	91.38
664.173	88.38
664.376	87.38
664.579	88.38
664.782	79.38
664.985	79.38
665.188	76.38
665.391	84.38
665.594	75.38
665.797	85.38
666	87.38
666.203	74.38
666.406	85.38
666.609	92.38
666.812	92.38
667.015	79.38
667.218	82.38
667.421	91.38
667.624	89.38
667.827	88.38
668.03	74.38
668.232	71.38
668.435	76.38
668.638	79.38
668.841	87.38
669.043	75.38
669.246	91.38
669.449	84.38
669.651	86.38
669.854	91.38
670.057	89.38
670.259	87.38
670.462	87.38
670.665	80.38
670.867	89.38
671.07	75.38
671.272	94.38
671.475	96.38
671.677	74.38
671.88	88.38
672.082	83.38
672.284	97.38
672.487	81.38
672.689	84.38
672.892	82.38
