Data from Circ_2016_H10_HRD10591_00038.txt Node
Date: Wed Jan 03 09:58:48 EST 2024
User: Yrep
Spectrometer: HR+D1059
Trigger mode: 1
Integration Time (sec): 1.000000E-1
Scans to average: 1
Electric dark correction enabled: true
Nonlinearity correction enabled: false
Boxcar width: 0
XAxis mode: Wavelengths
Number of Pixels in Spectrum: 2048
>>>>>Begin Spectral Data<<<<<
223.165	-14.56
223.4	-14.56
223.635	-14.56
223.869	-15.56
224.104	-22.56
224.338	-14.56
224.573	-7.56
224.808	-7.56
225.042	-18.56
225.277	5.44
225.511	-3.56
225.746	4.44
225.98	10.44
226.215	12.44
226.449	4.44
226.683	23.44
226.918	15.44
227.152	28.44
227.387	44.44
227.621	33.44
227.856	42.44
228.09	53.44
228.324	52.44
228.559	51.44
228.793	63.44
229.027	62.44
229.262	80.44
229.496	78.44
229.73	60.44
229.964	68.44
230.199	70.44
230.433	61.44
230.667	82.44
230.901	81.44
231.136	89.44
231.37	82.44
231.604	82.44
231.838	80.44
232.072	81.44
232.306	78.44
232.541	85.44
232.775	75.44
233.009	88.44
233.243	75.44
233.477	97.44
233.711	87.44
233.945	91.44
234.179	84.44
234.413	80.44
234.647	79.44
234.881	66.44
235.115	78.44
235.349	80.44
235.583	69.44
235.817	64.44
236.051	66.44
236.285	68.44
236.519	73.44
236.753	72.44
236.987	76.44
237.221	75.44
237.455	81.44
237.689	67.44
237.922	78.44
238.156	81.44
238.39	71.44
238.624	79.44
238.858	73.44
239.091	68.44
239.325	79.44
239.559	66.44
239.793	67.44
240.027	86.44
240.26	89.44
240.494	81.44
240.728	86.44
240.961	79.44
241.195	74.44
241.429	64.44
241.662	71.44
241.896	74.44
242.13	70.44
242.363	74.44
242.597	74.44
242.83	86.44
243.064	73.44
243.298	71.44
243.531	70.44
243.765	68.44
243.998	85.44
244.232	76.44
244.465	81.44
244.699	79.44
244.932	82.44
245.166	85.44
245.399	75.44
245.633	87.44
245.866	75.44
246.099	61.44
246.333	80.44
246.566	86.44
246.8	83.44
247.033	90.44
247.266	85.44
247.5	82.44
247.733	73.44
247.966	72.44
248.2	78.44
248.433	76.44
248.666	81.44
248.899	83.44
249.133	78.44
249.366	96.44
249.599	89.44
249.832	70.44
250.066	80.44
250.299	66.44
250.532	85.44
250.765	84.44
250.998	83.44
251.231	78.44
251.465	83.44
251.698	76.44
251.931	79.44
252.164	83.44
252.397	90.44
252.63	69.44
252.863	77.44
253.096	79.44
253.329	86.44
253.562	64.44
253.795	72.44
254.028	88.44
254.261	80.44
254.494	67.44
254.727	82.44
254.96	80.44
255.193	68.44
255.426	77.44
255.659	84.44
255.892	83.44
256.124	86.44
256.357	73.44
256.59	77.44
256.823	84.44
257.056	72.44
257.289	72.44
257.521	84.44
257.754	88.44
257.987	79.44
258.22	83.44
258.452	73.44
258.685	77.44
258.918	74.44
259.151	86.44
259.383	83.44
259.616	88.44
259.849	81.44
260.081	75.44
260.314	72.44
260.547	86.44
260.779	70.44
261.012	78.44
261.244	98.44
261.477	80.44
261.71	92.44
261.942	119.44
262.175	112.44
262.407	91.44
262.64	79.44
262.872	82.44
263.105	83.44
263.337	76.44
263.57	62.44
263.802	89.44
264.035	75.44
264.267	79.44
264.499	70.44
264.732	88.44
264.964	85.44
265.197	79.44
265.429	77.44
265.661	92.44
265.894	85.44
266.126	77.44
266.358	83.44
266.591	59.44
266.823	81.44
267.055	87.44
267.287	76.44
267.52	87.44
267.752	87.44
267.984	88.44
268.216	81.44
268.448	78.44
268.681	85.44
268.913	76.44
269.145	71.44
269.377	77.44
269.609	89.44
269.841	88.44
270.073	86.44
270.306	83.44
270.538	92.44
270.77	76.44
271.002	80.44
271.234	80.44
271.466	70.44
271.698	75.44
271.93	77.44
272.162	77.44
272.394	92.44
272.626	87.44
272.858	78.44
273.09	73.44
273.322	77.44
273.553	87.44
273.785	85.44
274.017	80.44
274.249	79.44
274.481	99.44
274.713	77.44
274.945	88.44
275.176	76.44
275.408	74.44
275.64	100.44
275.872	85.44
276.104	91.44
276.335	89.44
276.567	96.44
276.799	108.44
277.031	105.44
277.262	86.44
277.494	88.44
277.726	83.44
277.957	85.44
278.189	75.44
278.421	88.44
278.652	81.44
278.884	84.44
279.115	98.44
279.347	101.44
279.579	88.44
279.81	96.44
280.042	89.44
280.273	82.44
280.505	85.44
280.736	81.44
280.968	90.44
281.199	81.44
281.431	91.44
281.662	78.44
281.894	90.44
282.125	87.44
282.356	105.44
282.588	155.44
282.819	115.44
283.051	87.44
283.282	79.44
283.513	90.44
283.745	70.44
283.976	86.44
284.207	94.44
284.439	94.44
284.67	84.44
284.901	91.44
285.132	85.44
285.364	81.44
285.595	85.44
285.826	80.44
286.057	71.44
286.288	82.44
286.52	96.44
286.751	74.44
286.982	84.44
287.213	86.44
287.444	90.44
287.675	77.44
287.906	93.44
288.138	89.44
288.369	85.44
288.6	77.44
288.831	85.44
289.062	84.44
289.293	93.44
289.524	89.44
289.755	91.44
289.986	86.44
290.217	87.44
290.448	105.44
290.679	90.44
290.91	79.44
291.141	83.44
291.371	84.44
291.602	86.44
291.833	77.44
292.064	87.44
292.295	73.44
292.526	89.44
292.757	78.44
292.987	81.44
293.218	89.44
293.449	83.44
293.68	86.44
293.91	79.44
294.141	95.44
294.372	100.44
294.603	94.44
294.833	86.44
295.064	77.44
295.295	86.44
295.525	89.44
295.756	98.44
295.987	116.44
296.217	132.44
296.448	125.44
296.679	100.44
296.909	78.44
297.14	79.44
297.37	90.44
297.601	98.44
297.831	88.44
298.062	88.44
298.292	96.44
298.523	92.44
298.753	83.44
298.984	97.44
299.214	104.44
299.445	82.44
299.675	89.44
299.905	87.44
300.136	99.44
300.366	96.44
300.597	87.44
300.827	91.44
301.057	103.44
301.288	101.44
301.518	74.44
301.748	99.44
301.979	109.44
302.209	99.44
302.439	93.44
302.669	85.44
302.9	85.44
303.13	90.44
303.36	97.44
303.59	99.44
303.82	97.44
304.051	88.44
304.281	85.44
304.511	89.44
304.741	76.44
304.971	90.44
305.201	92.44
305.431	81.44
305.661	102.44
305.891	90.44
306.121	90.44
306.352	96.44
306.582	106.44
306.812	96.44
307.042	85.44
307.272	81.44
307.502	83.44
307.731	88.44
307.961	102.44
308.191	86.44
308.421	95.44
308.651	95.44
308.881	92.44
309.111	93.44
309.341	92.44
309.571	103.44
309.8	98.44
310.03	100.44
310.26	93.44
310.49	93.44
310.72	87.44
310.949	111.44
311.179	98.44
311.409	97.44
311.639	92.44
311.868	83.44
312.098	88.44
312.328	101.44
312.557	103.44
312.787	106.44
313.017	87.44
313.246	92.44
313.476	87.44
313.706	80.44
313.935	94.44
314.165	114.44
314.394	83.44
314.624	106.44
314.853	98.44
315.083	83.44
315.312	82.44
315.542	85.44
315.771	93.44
316.001	96.44
316.23	89.44
316.46	100.44
316.689	90.44
316.919	92.44
317.148	79.44
317.377	88.44
317.607	107.44
317.836	91.44
318.065	90.44
318.295	85.44
318.524	93.44
318.753	83.44
318.983	92.44
319.212	89.44
319.441	111.44
319.67	104.44
319.9	98.44
320.129	96.44
320.358	106.44
320.587	114.44
320.816	95.44
321.046	91.44
321.275	108.44
321.504	88.44
321.733	102.44
321.962	99.44
322.191	112.44
322.42	92.44
322.649	106.44
322.878	119.44
323.108	113.44
323.337	125.44
323.566	129.44
323.795	140.44
324.024	196.44
324.253	389.44
324.482	818.44
324.71	1714.44
324.939	2273.44
325.168	810.44
325.397	241.44
325.626	153.44
325.855	135.44
326.084	130.44
326.313	142.44
326.542	154.44
326.77	242.44
326.999	449.44
327.228	941.44
327.457	1774.44
327.686	1377.44
327.914	375.44
328.143	183.44
328.372	151.44
328.6	120.44
328.829	128.44
329.058	127.44
329.287	120.44
329.515	104.44
329.744	96.44
329.972	91.44
330.201	93.44
330.43	100.44
330.658	124.44
330.887	136.44
331.115	112.44
331.344	99.44
331.572	101.44
331.801	97.44
332.03	101.44
332.258	98.44
332.486	102.44
332.715	93.44
332.943	93.44
333.172	100.44
333.4	95.44
333.629	89.44
333.857	108.44
334.085	94.44
334.314	100.44
334.542	119.44
334.771	102.44
334.999	106.44
335.227	100.44
335.455	74.44
335.684	98.44
335.912	103.44
336.14	108.44
336.369	95.44
336.597	99.44
336.825	80.44
337.053	84.44
337.281	104.44
337.51	106.44
337.738	101.44
337.966	93.44
338.194	85.44
338.422	95.44
338.65	95.44
338.878	92.44
339.106	97.44
339.334	84.44
339.562	87.44
339.79	81.44
340.018	104.44
340.246	107.44
340.474	91.44
340.702	104.44
340.93	88.44
341.158	88.44
341.386	89.44
341.614	94.44
341.842	98.44
342.07	82.44
342.298	72.44
342.526	84.44
342.754	83.44
342.981	91.44
343.209	91.44
343.437	104.44
343.665	97.44
343.893	89.44
344.12	104.44
344.348	101.44
344.576	91.44
344.804	95.44
345.031	93.44
345.259	105.44
345.487	86.44
345.714	94.44
345.942	95.44
346.17	90.44
346.397	88.44
346.625	91.44
346.853	78.44
347.08	84.44
347.308	79.44
347.535	91.44
347.763	97.44
347.99	111.44
348.218	96.44
348.445	101.44
348.673	91.44
348.9	96.44
349.128	95.44
349.355	85.44
349.583	82.44
349.81	92.44
350.037	96.44
350.265	95.44
350.492	101.44
350.72	75.44
350.947	96.44
351.174	98.44
351.402	92.44
351.629	92.44
351.856	109.44
352.083	92.44
352.311	99.44
352.538	116.44
352.765	108.44
352.992	124.44
353.22	118.44
353.447	113.44
353.674	98.44
353.901	103.44
354.128	84.44
354.355	84.44
354.583	96.44
354.81	104.44
355.037	99.44
355.264	86.44
355.491	97.44
355.718	99.44
355.945	90.44
356.172	90.44
356.399	88.44
356.626	98.44
356.853	105.44
357.08	105.44
357.307	100.44
357.534	106.44
357.761	102.44
357.988	111.44
358.215	99.44
358.441	89.44
358.668	93.44
358.895	87.44
359.122	96.44
359.349	87.44
359.576	82.44
359.802	85.44
360.029	86.44
360.256	109.44
360.483	95.44
360.709	92.44
360.936	95.44
361.163	85.44
361.39	86.44
361.616	95.44
361.843	92.44
362.07	79.44
362.296	88.44
362.523	91.44
362.749	90.44
362.976	91.44
363.203	91.44
363.429	93.44
363.656	97.44
363.882	90.44
364.109	91.44
364.335	95.44
364.562	101.44
364.788	89.44
365.015	83.44
365.241	93.44
365.468	107.44
365.694	98.44
365.92	82.44
366.147	92.44
366.373	92.44
366.599	83.44
366.826	72.44
367.052	89.44
367.278	113.44
367.505	101.44
367.731	100.44
367.957	98.44
368.184	94.44
368.41	113.44
368.636	106.44
368.862	112.44
369.089	101.44
369.315	106.44
369.541	95.44
369.767	103.44
369.993	84.44
370.219	80.44
370.445	78.44
370.672	92.44
370.898	94.44
371.124	111.44
371.35	91.44
371.576	90.44
371.802	64.44
372.028	91.44
372.254	81.44
372.48	90.44
372.706	90.44
372.932	81.44
373.158	85.44
373.384	91.44
373.61	92.44
373.835	74.44
374.061	95.44
374.287	106.44
374.513	103.44
374.739	75.44
374.965	86.44
375.191	95.44
375.416	82.44
375.642	82.44
375.868	79.44
376.094	98.44
376.319	91.44
376.545	87.44
376.771	97.44
376.997	87.44
377.222	95.44
377.448	95.44
377.674	108.44
377.899	91.44
378.125	89.44
378.35	105.44
378.576	106.44
378.802	90.44
379.027	89.44
379.253	96.44
379.478	88.44
379.704	92.44
379.929	103.44
380.155	102.44
380.38	101.44
380.606	105.44
380.831	102.44
381.057	115.44
381.282	104.44
381.507	98.44
381.733	107.44
381.958	107.44
382.184	108.44
382.409	102.44
382.634	116.44
382.86	92.44
383.085	109.44
383.31	118.44
383.535	120.44
383.761	111.44
383.986	106.44
384.211	114.44
384.436	117.44
384.662	108.44
384.887	127.44
385.112	123.44
385.337	120.44
385.562	108.44
385.787	120.44
386.013	129.44
386.238	135.44
386.463	137.44
386.688	123.44
386.913	119.44
387.138	127.44
387.363	127.44
387.588	107.44
387.813	103.44
388.038	121.44
388.263	144.44
388.488	133.44
388.713	96.44
388.938	84.44
389.163	88.44
389.387	102.44
389.612	99.44
389.837	93.44
390.062	107.44
390.287	97.44
390.512	98.44
390.736	99.44
390.961	81.44
391.186	83.44
391.411	107.44
391.636	96.44
391.86	83.44
392.085	84.44
392.31	92.44
392.534	92.44
392.759	84.44
392.984	97.44
393.208	92.44
393.433	108.44
393.658	96.44
393.882	89.44
394.107	83.44
394.331	76.44
394.556	92.44
394.78	99.44
395.005	87.44
395.229	84.44
395.454	77.44
395.678	82.44
395.903	96.44
396.127	92.44
396.352	95.44
396.576	87.44
396.801	82.44
397.025	98.44
397.249	76.44
397.474	74.44
397.698	74.44
397.922	91.44
398.147	88.44
398.371	88.44
398.595	75.44
398.82	96.44
399.044	89.44
399.268	76.44
399.492	70.44
399.717	74.44
399.941	87.44
400.165	95.44
400.389	81.44
400.613	77.44
400.837	77.44
401.062	96.44
401.286	83.44
401.51	95.44
401.734	95.44
401.958	104.44
402.182	116.44
402.406	144.44
402.63	105.44
402.854	86.44
403.078	91.44
403.302	91.44
403.526	72.44
403.75	82.44
403.974	77.44
404.198	88.44
404.422	88.44
404.645	82.44
404.869	85.44
405.093	103.44
405.317	106.44
405.541	86.44
405.765	100.44
405.988	114.44
406.212	163.44
406.436	187.44
406.66	135.44
406.883	98.44
407.107	88.44
407.331	92.44
407.555	98.44
407.778	83.44
408.002	77.44
408.226	91.44
408.449	88.44
408.673	86.44
408.896	91.44
409.12	91.44
409.344	99.44
409.567	84.44
409.791	88.44
410.014	100.44
410.238	102.44
410.461	93.44
410.685	96.44
410.908	93.44
411.132	103.44
411.355	104.44
411.578	105.44
411.802	84.44
412.025	100.44
412.249	87.44
412.472	91.44
412.695	79.44
412.919	79.44
413.142	81.44
413.365	86.44
413.589	100.44
413.812	99.44
414.035	92.44
414.258	88.44
414.482	105.44
414.705	95.44
414.928	80.44
415.151	93.44
415.374	91.44
415.597	93.44
415.821	97.44
416.044	87.44
416.267	93.44
416.49	103.44
416.713	95.44
416.936	92.44
417.159	95.44
417.382	85.44
417.605	85.44
417.828	112.44
418.051	87.44
418.274	92.44
418.497	85.44
418.72	88.44
418.943	75.44
419.166	102.44
419.389	89.44
419.611	101.44
419.834	99.44
420.057	87.44
420.28	84.44
420.503	89.44
420.726	85.44
420.948	90.44
421.171	80.44
421.394	92.44
421.617	100.44
421.839	89.44
422.062	94.44
422.285	87.44
422.507	98.44
422.73	101.44
422.953	108.44
423.175	93.44
423.398	90.44
423.621	97.44
423.843	80.44
424.066	92.44
424.288	85.44
424.511	81.44
424.733	99.44
424.956	105.44
425.178	75.44
425.401	90.44
425.623	100.44
425.846	97.44
426.068	100.44
426.291	89.44
426.513	85.44
426.735	92.44
426.958	77.44
427.18	96.44
427.402	130.44
427.625	156.44
427.847	115.44
428.069	91.44
428.292	74.44
428.514	104.44
428.736	74.44
428.958	83.44
429.181	76.44
429.403	79.44
429.625	91.44
429.847	92.44
430.069	101.44
430.292	88.44
430.514	83.44
430.736	76.44
430.958	77.44
431.18	90.44
431.402	80.44
431.624	84.44
431.846	93.44
432.068	82.44
432.29	83.44
432.512	96.44
432.734	75.44
432.956	84.44
433.178	86.44
433.4	93.44
433.622	92.44
433.844	94.44
434.066	95.44
434.287	90.44
434.509	95.44
434.731	97.44
434.953	93.44
435.175	97.44
435.397	99.44
435.618	99.44
435.84	101.44
436.062	138.44
436.284	119.44
436.505	96.44
436.727	100.44
436.949	90.44
437.17	87.44
437.392	75.44
437.614	77.44
437.835	101.44
438.057	114.44
438.278	99.44
438.5	95.44
438.721	107.44
438.943	92.44
439.165	84.44
439.386	82.44
439.608	92.44
439.829	87.44
440.05	131.44
440.272	129.44
440.493	85.44
440.715	95.44
440.936	95.44
441.158	83.44
441.379	77.44
441.6	101.44
441.822	106.44
442.043	101.44
442.264	97.44
442.486	112.44
442.707	103.44
442.928	95.44
443.149	127.44
443.371	120.44
443.592	92.44
443.813	89.44
444.034	100.44
444.255	91.44
444.476	85.44
444.698	90.44
444.919	97.44
445.14	133.44
445.361	105.44
445.582	108.44
445.803	130.44
446.024	119.44
446.245	137.44
446.466	109.44
446.687	88.44
446.908	82.44
447.129	102.44
447.35	92.44
447.571	81.44
447.792	93.44
448.013	96.44
448.234	98.44
448.455	85.44
448.675	109.44
448.896	108.44
449.117	98.44
449.338	98.44
449.559	131.44
449.779	129.44
450	103.44
450.221	99.44
450.442	81.44
450.662	90.44
450.883	106.44
451.104	108.44
451.324	99.44
451.545	79.44
451.766	90.44
451.986	95.44
452.207	92.44
452.428	92.44
452.648	92.44
452.869	106.44
453.089	93.44
453.31	108.44
453.53	91.44
453.751	78.44
453.971	97.44
454.192	107.44
454.412	101.44
454.633	91.44
454.853	87.44
455.073	90.44
455.294	77.44
455.514	93.44
455.734	88.44
455.955	91.44
456.175	99.44
456.395	84.44
456.616	77.44
456.836	77.44
457.056	80.44
457.276	82.44
457.497	87.44
457.717	75.44
457.937	82.44
458.157	82.44
458.377	91.44
458.598	100.44
458.818	139.44
459.038	146.44
459.258	116.44
459.478	96.44
459.698	71.44
459.918	91.44
460.138	71.44
460.358	86.44
460.578	84.44
460.798	105.44
461.018	85.44
461.238	76.44
461.458	99.44
461.678	75.44
461.898	73.44
462.118	77.44
462.338	79.44
462.558	86.44
462.777	78.44
462.997	75.44
463.217	88.44
463.437	88.44
463.657	82.44
463.876	80.44
464.096	100.44
464.316	86.44
464.536	82.44
464.755	94.44
464.975	101.44
465.195	145.44
465.414	133.44
465.634	88.44
465.854	84.44
466.073	79.44
466.293	95.44
466.512	89.44
466.732	71.44
466.951	85.44
467.171	101.44
467.391	95.44
467.61	105.44
467.829	98.44
468.049	82.44
468.268	92.44
468.488	96.44
468.707	82.44
468.927	84.44
469.146	71.44
469.365	78.44
469.585	82.44
469.804	79.44
470.023	89.44
470.243	96.44
470.462	91.44
470.681	101.44
470.901	82.44
471.12	83.44
471.339	83.44
471.558	89.44
471.777	75.44
471.997	74.44
472.216	92.44
472.435	108.44
472.654	97.44
472.873	81.44
473.092	75.44
473.311	92.44
473.53	90.44
473.749	96.44
473.968	94.44
474.187	112.44
474.406	91.44
474.625	90.44
474.844	91.44
475.063	71.44
475.282	93.44
475.501	71.44
475.72	98.44
475.939	93.44
476.158	74.44
476.377	92.44
476.596	98.44
476.814	86.44
477.033	84.44
477.252	98.44
477.471	97.44
477.69	75.44
477.908	82.44
478.127	79.44
478.346	78.44
478.564	95.44
478.783	95.44
479.002	85.44
479.22	83.44
479.439	106.44
479.658	118.44
479.876	92.44
480.095	92.44
480.313	76.44
480.532	95.44
480.751	113.44
480.969	113.44
481.188	132.44
481.406	119.44
481.624	101.44
481.843	90.44
482.061	92.44
482.28	86.44
482.498	84.44
482.717	98.44
482.935	92.44
483.153	80.44
483.372	72.44
483.59	83.44
483.808	91.44
484.027	84.44
484.245	90.44
484.463	88.44
484.681	96.44
484.9	84.44
485.118	104.44
485.336	87.44
485.554	97.44
485.772	104.44
485.99	99.44
486.209	104.44
486.427	119.44
486.645	109.44
486.863	105.44
487.081	102.44
487.299	99.44
487.517	94.44
487.735	97.44
487.953	87.44
488.171	96.44
488.389	96.44
488.607	85.44
488.825	88.44
489.043	84.44
489.261	80.44
489.479	92.44
489.696	99.44
489.914	85.44
490.132	94.44
490.35	100.44
490.568	92.44
490.786	88.44
491.003	88.44
491.221	90.44
491.439	98.44
491.657	96.44
491.874	90.44
492.092	90.44
492.31	98.44
492.527	79.44
492.745	103.44
492.963	87.44
493.18	88.44
493.398	91.44
493.615	94.44
493.833	85.44
494.05	96.44
494.268	75.44
494.485	91.44
494.703	70.44
494.92	75.44
495.138	81.44
495.355	85.44
495.573	84.44
495.79	84.44
496.008	94.44
496.225	99.44
496.442	77.44
496.66	103.44
496.877	93.44
497.094	95.44
497.312	84.44
497.529	95.44
497.746	85.44
497.963	87.44
498.181	92.44
498.398	97.44
498.615	108.44
498.832	95.44
499.049	95.44
499.267	82.44
499.484	80.44
499.701	90.44
499.918	79.44
500.135	87.44
500.352	90.44
500.569	88.44
500.786	87.44
501.003	90.44
501.22	84.44
501.437	96.44
501.654	81.44
501.871	105.44
502.088	68.44
502.305	86.44
502.522	84.44
502.739	90.44
502.956	74.44
503.172	104.44
503.389	100.44
503.606	105.44
503.823	91.44
504.04	95.44
504.256	96.44
504.473	77.44
504.69	89.44
504.907	88.44
505.123	85.44
505.34	82.44
505.557	83.44
505.773	89.44
505.99	82.44
506.207	104.44
506.423	104.44
506.64	106.44
506.856	104.44
507.073	93.44
507.289	96.44
507.506	94.44
507.722	116.44
507.939	97.44
508.155	83.44
508.372	97.44
508.588	90.44
508.805	102.44
509.021	95.44
509.238	105.44
509.454	91.44
509.67	99.44
509.887	99.44
510.103	120.44
510.319	199.44
510.536	690.44
510.752	2252.44
510.968	660.44
511.184	157.44
511.401	90.44
511.617	93.44
511.833	99.44
512.049	83.44
512.265	104.44
512.481	95.44
512.698	90.44
512.914	74.44
513.13	86.44
513.346	87.44
513.562	86.44
513.778	104.44
513.994	87.44
514.21	98.44
514.426	118.44
514.642	130.44
514.858	120.44
515.074	151.44
515.29	410.44
515.506	1320.44
515.721	529.44
515.937	155.44
516.153	108.44
516.369	98.44
516.585	87.44
516.801	88.44
517.016	100.44
517.232	96.44
517.448	89.44
517.664	94.44
517.879	97.44
518.095	90.44
518.311	89.44
518.527	90.44
518.742	98.44
518.958	97.44
519.173	97.44
519.389	99.44
519.605	95.44
519.82	106.44
520.036	90.44
520.251	109.44
520.467	122.44
520.682	101.44
520.898	104.44
521.113	119.44
521.329	135.44
521.544	183.44
521.76	484.44
521.975	2107.44
522.19	1347.44
522.406	291.44
522.621	115.44
522.836	100.44
523.052	89.44
523.267	103.44
523.482	82.44
523.698	99.44
523.913	122.44
524.128	87.44
524.343	98.44
524.559	85.44
524.774	81.44
524.989	87.44
525.204	95.44
525.419	101.44
525.634	85.44
525.849	93.44
526.064	96.44
526.28	82.44
526.495	99.44
526.71	93.44
526.925	88.44
527.14	95.44
527.355	91.44
527.57	99.44
527.785	82.44
527.999	76.44
528.214	87.44
528.429	93.44
528.644	89.44
528.859	85.44
529.074	91.44
529.289	119.44
529.503	157.44
529.718	104.44
529.933	87.44
530.148	78.44
530.363	87.44
530.577	77.44
530.792	104.44
531.007	90.44
531.221	85.44
531.436	90.44
531.651	92.44
531.865	88.44
532.08	90.44
532.295	83.44
532.509	89.44
532.724	85.44
532.938	98.44
533.153	92.44
533.367	85.44
533.582	86.44
533.796	96.44
534.011	94.44
534.225	85.44
534.44	88.44
534.654	99.44
534.868	109.44
535.083	95.44
535.297	103.44
535.511	94.44
535.726	95.44
535.94	84.44
536.154	91.44
536.369	86.44
536.583	85.44
536.797	82.44
537.011	84.44
537.225	80.44
537.44	74.44
537.654	90.44
537.868	87.44
538.082	101.44
538.296	89.44
538.51	88.44
538.724	89.44
538.938	84.44
539.153	111.44
539.367	101.44
539.581	97.44
539.795	83.44
540.009	84.44
540.222	88.44
540.436	92.44
540.65	82.44
540.864	91.44
541.078	97.44
541.292	95.44
541.506	88.44
541.72	77.44
541.934	92.44
542.147	102.44
542.361	92.44
542.575	76.44
542.789	93.44
543.002	97.44
543.216	83.44
543.43	95.44
543.644	85.44
543.857	85.44
544.071	79.44
544.285	96.44
544.498	89.44
544.712	88.44
544.925	78.44
545.139	87.44
545.352	76.44
545.566	80.44
545.779	95.44
545.993	98.44
546.206	88.44
546.42	85.44
546.633	75.44
546.847	82.44
547.06	87.44
547.274	78.44
547.487	89.44
547.7	86.44
547.914	86.44
548.127	78.44
548.34	83.44
548.554	91.44
548.767	92.44
548.98	87.44
549.193	80.44
549.407	92.44
549.62	76.44
549.833	67.44
550.046	83.44
550.259	89.44
550.473	92.44
550.686	81.44
550.899	89.44
551.112	92.44
551.325	82.44
551.538	101.44
551.751	84.44
551.964	92.44
552.177	89.44
552.39	89.44
552.603	82.44
552.816	97.44
553.029	94.44
553.242	103.44
553.455	100.44
553.667	98.44
553.88	101.44
554.093	97.44
554.306	100.44
554.519	80.44
554.732	88.44
554.944	85.44
555.157	90.44
555.37	88.44
555.583	105.44
555.795	96.44
556.008	90.44
556.221	83.44
556.433	80.44
556.646	83.44
556.859	95.44
557.071	85.44
557.284	81.44
557.496	88.44
557.709	88.44
557.921	74.44
558.134	80.44
558.346	90.44
558.559	92.44
558.771	105.44
558.984	95.44
559.196	92.44
559.409	86.44
559.621	66.44
559.833	72.44
560.046	76.44
560.258	93.44
560.47	78.44
560.683	74.44
560.895	84.44
561.107	83.44
561.32	90.44
561.532	89.44
561.744	93.44
561.956	100.44
562.168	102.44
562.381	95.44
562.593	92.44
562.805	94.44
563.017	97.44
563.229	100.44
563.441	89.44
563.653	97.44
563.865	88.44
564.077	84.44
564.289	80.44
564.501	89.44
564.713	86.44
564.925	90.44
565.137	100.44
565.349	87.44
565.561	68.44
565.773	79.44
565.985	88.44
566.197	71.44
566.408	94.44
566.62	81.44
566.832	80.44
567.044	101.44
567.255	87.44
567.467	77.44
567.679	85.44
567.891	80.44
568.102	101.44
568.314	90.44
568.526	82.44
568.737	89.44
568.949	81.44
569.161	83.44
569.372	90.44
569.584	88.44
569.795	107.44
570.007	87.44
570.218	223.44
570.43	145.44
570.641	95.44
570.853	96.44
571.064	85.44
571.276	91.44
571.487	81.44
571.698	92.44
571.91	84.44
572.121	76.44
572.333	83.44
572.544	76.44
572.755	85.44
572.966	78.44
573.178	79.44
573.389	72.44
573.6	88.44
573.811	92.44
574.023	70.44
574.234	88.44
574.445	82.44
574.656	89.44
574.867	79.44
575.078	85.44
575.289	78.44
575.501	97.44
575.712	77.44
575.923	92.44
576.134	80.44
576.345	96.44
576.556	90.44
576.767	98.44
576.978	102.44
577.188	93.44
577.399	100.44
577.61	93.44
577.821	91.44
578.032	109.44
578.243	240.44
578.454	707.44
578.665	205.44
578.875	101.44
579.086	95.44
579.297	83.44
579.508	94.44
579.718	88.44
579.929	94.44
580.14	91.44
580.35	78.44
580.561	95.44
580.772	90.44
580.982	79.44
581.193	93.44
581.403	94.44
581.614	81.44
581.825	85.44
582.035	89.44
582.246	92.44
582.456	90.44
582.667	89.44
582.877	76.44
583.087	85.44
583.298	84.44
583.508	77.44
583.719	98.44
583.929	95.44
584.139	90.44
584.35	89.44
584.56	84.44
584.77	80.44
584.981	91.44
585.191	99.44
585.401	98.44
585.611	73.44
585.821	92.44
586.032	75.44
586.242	97.44
586.452	88.44
586.662	94.44
586.872	76.44
587.082	89.44
587.292	76.44
587.502	90.44
587.713	91.44
587.923	89.44
588.133	84.44
588.343	81.44
588.553	88.44
588.762	83.44
588.972	92.44
589.182	225.44
589.392	133.44
589.602	104.44
589.812	168.44
590.022	99.44
590.232	92.44
590.441	81.44
590.651	75.44
590.861	92.44
591.071	89.44
591.281	91.44
591.49	82.44
591.7	84.44
591.91	87.44
592.119	84.44
592.329	79.44
592.539	99.44
592.748	94.44
592.958	85.44
593.167	97.44
593.377	78.44
593.587	88.44
593.796	96.44
594.006	95.44
594.215	84.44
594.424	100.44
594.634	75.44
594.843	77.44
595.053	95.44
595.262	90.44
595.472	80.44
595.681	94.44
595.89	91.44
596.1	84.44
596.309	83.44
596.518	97.44
596.727	90.44
596.937	89.44
597.146	80.44
597.355	78.44
597.564	93.44
597.774	89.44
597.983	78.44
598.192	86.44
598.401	91.44
598.61	88.44
598.819	88.44
599.028	112.44
599.237	88.44
599.446	90.44
599.655	73.44
599.864	84.44
600.073	95.44
600.282	104.44
600.491	90.44
600.7	96.44
600.909	82.44
601.118	85.44
601.327	88.44
601.536	88.44
601.745	99.44
601.953	93.44
602.162	97.44
602.371	74.44
602.58	95.44
602.789	84.44
602.997	74.44
603.206	74.44
603.415	85.44
603.623	79.44
603.832	86.44
604.041	78.44
604.249	88.44
604.458	90.44
604.666	92.44
604.875	95.44
605.084	91.44
605.292	77.44
605.501	90.44
605.709	97.44
605.918	83.44
606.126	96.44
606.334	80.44
606.543	100.44
606.751	84.44
606.96	95.44
607.168	97.44
607.376	89.44
607.585	97.44
607.793	106.44
608.001	80.44
608.21	87.44
608.418	78.44
608.626	95.44
608.834	79.44
609.043	82.44
609.251	79.44
609.459	97.44
609.667	91.44
609.875	88.44
610.083	85.44
610.291	75.44
610.499	88.44
610.707	94.44
610.916	92.44
611.124	88.44
611.332	84.44
611.54	65.44
611.748	83.44
611.955	86.44
612.163	77.44
612.371	86.44
612.579	82.44
612.787	88.44
612.995	88.44
613.203	77.44
613.411	84.44
613.618	79.44
613.826	96.44
614.034	99.44
614.242	96.44
614.449	83.44
614.657	92.44
614.865	85.44
615.072	82.44
615.28	82.44
615.488	86.44
615.695	99.44
615.903	86.44
616.111	97.44
616.318	107.44
616.526	108.44
616.733	98.44
616.941	93.44
617.148	79.44
617.356	96.44
617.563	83.44
617.771	82.44
617.978	85.44
618.185	96.44
618.393	87.44
618.6	78.44
618.807	83.44
619.015	72.44
619.222	93.44
619.429	83.44
619.637	78.44
619.844	76.44
620.051	69.44
620.258	74.44
620.466	77.44
620.673	89.44
620.88	78.44
621.087	83.44
621.294	83.44
621.501	91.44
621.708	87.44
621.915	86.44
622.122	77.44
622.329	88.44
622.536	84.44
622.743	83.44
622.95	91.44
623.157	82.44
623.364	92.44
623.571	83.44
623.778	91.44
623.985	79.44
624.192	76.44
624.399	69.44
624.606	91.44
624.812	91.44
625.019	91.44
625.226	83.44
625.433	94.44
625.639	91.44
625.846	82.44
626.053	88.44
626.259	80.44
626.466	83.44
626.673	79.44
626.879	79.44
627.086	78.44
627.293	69.44
627.499	81.44
627.706	75.44
627.912	95.44
628.119	84.44
628.325	79.44
628.532	79.44
628.738	82.44
628.945	80.44
629.151	89.44
629.357	82.44
629.564	84.44
629.77	82.44
629.976	77.44
630.183	86.44
630.389	71.44
630.595	87.44
630.802	94.44
631.008	86.44
631.214	96.44
631.42	92.44
631.627	87.44
631.833	81.44
632.039	81.44
632.245	82.44
632.451	92.44
632.657	92.44
632.863	84.44
633.069	64.44
633.275	89.44
633.481	90.44
633.688	85.44
633.893	76.44
634.099	84.44
634.305	82.44
634.511	87.44
634.717	81.44
634.923	75.44
635.129	90.44
635.335	84.44
635.541	79.44
635.747	79.44
635.952	83.44
636.158	86.44
636.364	84.44
636.57	83.44
636.775	72.44
636.981	88.44
637.187	84.44
637.392	100.44
637.598	74.44
637.804	84.44
638.009	92.44
638.215	85.44
638.421	88.44
638.626	77.44
638.832	99.44
639.037	76.44
639.243	73.44
639.448	93.44
639.654	90.44
639.859	96.44
640.065	78.44
640.27	93.44
640.475	78.44
640.681	85.44
640.886	90.44
641.091	82.44
641.297	83.44
641.502	99.44
641.707	89.44
641.913	79.44
642.118	85.44
642.323	83.44
642.528	78.44
642.733	81.44
642.939	83.44
643.144	79.44
643.349	76.44
643.554	93.44
643.759	99.44
643.964	70.44
644.169	69.44
644.374	87.44
644.579	86.44
644.784	88.44
644.989	80.44
645.194	84.44
645.399	92.44
645.604	77.44
645.809	92.44
646.014	92.44
646.219	90.44
646.423	82.44
646.628	83.44
646.833	97.44
647.038	86.44
647.243	92.44
647.447	83.44
647.652	92.44
647.857	86.44
648.062	93.44
648.266	77.44
648.471	86.44
648.676	90.44
648.88	93.44
649.085	98.44
649.289	87.44
649.494	108.44
649.698	145.44
649.903	93.44
650.107	93.44
650.312	73.44
650.516	88.44
650.721	83.44
650.925	86.44
651.13	78.44
651.334	83.44
651.539	94.44
651.743	88.44
651.947	83.44
652.152	81.44
652.356	82.44
652.56	77.44
652.764	66.44
652.969	72.44
653.173	81.44
653.377	85.44
653.581	94.44
653.785	82.44
653.99	93.44
654.194	78.44
654.398	83.44
654.602	89.44
654.806	104.44
655.01	107.44
655.214	88.44
655.418	94.44
655.622	80.44
655.826	83.44
656.03	85.44
656.234	94.44
656.438	96.44
656.642	112.44
656.846	98.44
657.049	83.44
657.253	76.44
657.457	78.44
657.661	88.44
657.865	90.44
658.068	84.44
658.272	75.44
658.476	76.44
658.68	70.44
658.883	67.44
659.087	81.44
659.291	84.44
659.494	74.44
659.698	76.44
659.901	68.44
660.105	70.44
660.309	89.44
660.512	90.44
660.716	90.44
660.919	95.44
661.123	88.44
661.326	74.44
661.53	77.44
661.733	80.44
661.936	92.44
662.14	72.44
662.343	86.44
662.546	81.44
662.75	92.44
662.953	72.44
663.156	84.44
663.36	81.44
663.563	78.44
663.766	75.44
663.969	92.44
664.173	90.44
664.376	84.44
664.579	81.44
664.782	83.44
664.985	82.44
665.188	65.44
665.391	67.44
665.594	81.44
665.797	69.44
666	72.44
666.203	81.44
666.406	76.44
666.609	65.44
666.812	85.44
667.015	66.44
667.218	82.44
667.421	71.44
667.624	79.44
667.827	92.44
668.03	61.44
668.232	74.44
668.435	80.44
668.638	88.44
668.841	85.44
669.043	91.44
669.246	85.44
669.449	94.44
669.651	84.44
669.854	84.44
670.057	66.44
670.259	81.44
670.462	77.44
670.665	93.44
670.867	84.44
671.07	84.44
671.272	66.44
671.475	84.44
671.677	86.44
671.88	82.44
672.082	75.44
672.284	69.44
672.487	84.44
672.689	90.44
672.892	94.44
