Data from Circ_2016_H10_HRD10591_00028.txt Node
Date: Wed Jan 03 09:58:46 EST 2024
User: Yrep
Spectrometer: HR+D1059
Trigger mode: 1
Integration Time (sec): 1.000000E-1
Scans to average: 1
Electric dark correction enabled: true
Nonlinearity correction enabled: false
Boxcar width: 0
XAxis mode: Wavelengths
Number of Pixels in Spectrum: 2048
>>>>>Begin Spectral Data<<<<<
223.165	-13.19
223.4	-13.19
223.635	-13.19
223.869	-23.19
224.104	-2.19
224.338	-14.19
224.573	-18.19
224.808	-32.19
225.042	-12.19
225.277	-13.19
225.511	-4.19
225.746	12.81
225.98	1.81
226.215	2.81
226.449	24.81
226.683	29.81
226.918	24.81
227.152	35.81
227.387	44.81
227.621	27.81
227.856	34.81
228.09	47.81
228.324	50.81
228.559	55.81
228.793	68.81
229.027	57.81
229.262	41.81
229.496	75.81
229.73	75.81
229.964	77.81
230.199	69.81
230.433	75.81
230.667	70.81
230.901	73.81
231.136	73.81
231.37	89.81
231.604	72.81
231.838	64.81
232.072	68.81
232.306	61.81
232.541	79.81
232.775	61.81
233.009	77.81
233.243	78.81
233.477	74.81
233.711	83.81
233.945	95.81
234.179	91.81
234.413	85.81
234.647	78.81
234.881	70.81
235.115	76.81
235.349	75.81
235.583	88.81
235.817	76.81
236.051	61.81
236.285	70.81
236.519	76.81
236.753	78.81
236.987	76.81
237.221	75.81
237.455	85.81
237.689	71.81
237.922	71.81
238.156	71.81
238.39	73.81
238.624	76.81
238.858	68.81
239.091	73.81
239.325	76.81
239.559	69.81
239.793	80.81
240.027	83.81
240.26	73.81
240.494	69.81
240.728	83.81
240.961	82.81
241.195	64.81
241.429	71.81
241.662	72.81
241.896	79.81
242.13	78.81
242.363	70.81
242.597	70.81
242.83	75.81
243.064	78.81
243.298	71.81
243.531	70.81
243.765	72.81
243.998	90.81
244.232	85.81
244.465	90.81
244.699	72.81
244.932	70.81
245.166	71.81
245.399	62.81
245.633	65.81
245.866	77.81
246.099	83.81
246.333	68.81
246.566	79.81
246.8	75.81
247.033	75.81
247.266	68.81
247.5	81.81
247.733	67.81
247.966	78.81
248.2	65.81
248.433	91.81
248.666	77.81
248.899	70.81
249.133	83.81
249.366	84.81
249.599	93.81
249.832	84.81
250.066	80.81
250.299	76.81
250.532	73.81
250.765	74.81
250.998	75.81
251.231	89.81
251.465	75.81
251.698	66.81
251.931	73.81
252.164	73.81
252.397	72.81
252.63	79.81
252.863	71.81
253.096	82.81
253.329	85.81
253.562	84.81
253.795	70.81
254.028	81.81
254.261	81.81
254.494	82.81
254.727	80.81
254.96	84.81
255.193	64.81
255.426	87.81
255.659	77.81
255.892	76.81
256.124	87.81
256.357	78.81
256.59	88.81
256.823	80.81
257.056	83.81
257.289	92.81
257.521	78.81
257.754	84.81
257.987	57.81
258.22	80.81
258.452	82.81
258.685	72.81
258.918	83.81
259.151	71.81
259.383	79.81
259.616	89.81
259.849	71.81
260.081	78.81
260.314	89.81
260.547	92.81
260.779	59.81
261.012	47.81
261.244	87.81
261.477	89.81
261.71	96.81
261.942	107.81
262.175	102.81
262.407	86.81
262.64	89.81
262.872	92.81
263.105	79.81
263.337	72.81
263.57	94.81
263.802	91.81
264.035	70.81
264.267	82.81
264.499	86.81
264.732	70.81
264.964	65.81
265.197	78.81
265.429	90.81
265.661	82.81
265.894	95.81
266.126	82.81
266.358	85.81
266.591	71.81
266.823	78.81
267.055	66.81
267.287	80.81
267.52	80.81
267.752	86.81
267.984	68.81
268.216	77.81
268.448	86.81
268.681	79.81
268.913	68.81
269.145	75.81
269.377	77.81
269.609	86.81
269.841	72.81
270.073	70.81
270.306	73.81
270.538	65.81
270.77	63.81
271.002	80.81
271.234	73.81
271.466	73.81
271.698	88.81
271.93	78.81
272.162	79.81
272.394	74.81
272.626	86.81
272.858	68.81
273.09	78.81
273.322	83.81
273.553	81.81
273.785	78.81
274.017	73.81
274.249	81.81
274.481	92.81
274.713	73.81
274.945	70.81
275.176	67.81
275.408	83.81
275.64	95.81
275.872	70.81
276.104	95.81
276.335	84.81
276.567	86.81
276.799	109.81
277.031	97.81
277.262	85.81
277.494	90.81
277.726	84.81
277.957	80.81
278.189	93.81
278.421	81.81
278.652	78.81
278.884	74.81
279.115	91.81
279.347	78.81
279.579	75.81
279.81	72.81
280.042	73.81
280.273	87.81
280.505	84.81
280.736	76.81
280.968	89.81
281.199	73.81
281.431	95.81
281.662	74.81
281.894	78.81
282.125	101.81
282.356	124.81
282.588	131.81
282.819	110.81
283.051	96.81
283.282	81.81
283.513	76.81
283.745	79.81
283.976	80.81
284.207	86.81
284.439	79.81
284.67	78.81
284.901	81.81
285.132	82.81
285.364	81.81
285.595	94.81
285.826	87.81
286.057	77.81
286.288	70.81
286.52	86.81
286.751	72.81
286.982	82.81
287.213	88.81
287.444	73.81
287.675	99.81
287.906	82.81
288.138	91.81
288.369	92.81
288.6	75.81
288.831	80.81
289.062	77.81
289.293	79.81
289.524	97.81
289.755	90.81
289.986	89.81
290.217	75.81
290.448	84.81
290.679	84.81
290.91	85.81
291.141	77.81
291.371	86.81
291.602	72.81
291.833	83.81
292.064	81.81
292.295	82.81
292.526	75.81
292.757	81.81
292.987	89.81
293.218	84.81
293.449	86.81
293.68	83.81
293.91	87.81
294.141	90.81
294.372	73.81
294.603	82.81
294.833	95.81
295.064	80.81
295.295	94.81
295.525	87.81
295.756	99.81
295.987	120.81
296.217	140.81
296.448	119.81
296.679	86.81
296.909	78.81
297.14	85.81
297.37	101.81
297.601	84.81
297.831	80.81
298.062	91.81
298.292	77.81
298.523	91.81
298.753	88.81
298.984	88.81
299.214	94.81
299.445	93.81
299.675	87.81
299.905	94.81
300.136	85.81
300.366	80.81
300.597	80.81
300.827	100.81
301.057	94.81
301.288	104.81
301.518	96.81
301.748	85.81
301.979	95.81
302.209	86.81
302.439	86.81
302.669	71.81
302.9	84.81
303.13	91.81
303.36	81.81
303.59	96.81
303.82	107.81
304.051	87.81
304.281	77.81
304.511	76.81
304.741	75.81
304.971	80.81
305.201	89.81
305.431	95.81
305.661	77.81
305.891	88.81
306.121	84.81
306.352	98.81
306.582	90.81
306.812	92.81
307.042	78.81
307.272	93.81
307.502	88.81
307.731	88.81
307.961	89.81
308.191	82.81
308.421	102.81
308.651	92.81
308.881	94.81
309.111	82.81
309.341	109.81
309.571	96.81
309.8	103.81
310.03	91.81
310.26	115.81
310.49	90.81
310.72	88.81
310.949	94.81
311.179	110.81
311.409	91.81
311.639	84.81
311.868	94.81
312.098	97.81
312.328	93.81
312.557	91.81
312.787	92.81
313.017	93.81
313.246	87.81
313.476	96.81
313.706	88.81
313.935	85.81
314.165	85.81
314.394	101.81
314.624	93.81
314.853	86.81
315.083	77.81
315.312	97.81
315.542	90.81
315.771	80.81
316.001	95.81
316.23	87.81
316.46	94.81
316.689	88.81
316.919	85.81
317.148	78.81
317.377	88.81
317.607	84.81
317.836	96.81
318.065	90.81
318.295	79.81
318.524	91.81
318.753	99.81
318.983	88.81
319.212	113.81
319.441	99.81
319.67	93.81
319.9	95.81
320.129	92.81
320.358	85.81
320.587	94.81
320.816	96.81
321.046	98.81
321.275	93.81
321.504	95.81
321.733	94.81
321.962	96.81
322.191	99.81
322.42	92.81
322.649	117.81
322.878	100.81
323.108	113.81
323.337	116.81
323.566	129.81
323.795	150.81
324.024	227.81
324.253	444.81
324.482	987.81
324.71	2060.81
324.939	2671.81
325.168	967.81
325.397	269.81
325.626	147.81
325.855	132.81
326.084	112.81
326.313	134.81
326.542	166.81
326.77	253.81
326.999	563.81
327.228	1099.81
327.457	2015.81
327.686	1636.81
327.914	418.81
328.143	181.81
328.372	151.81
328.6	131.81
328.829	119.81
329.058	119.81
329.287	126.81
329.515	109.81
329.744	101.81
329.972	99.81
330.201	109.81
330.43	114.81
330.658	120.81
330.887	159.81
331.115	115.81
331.344	80.81
331.572	85.81
331.801	97.81
332.03	99.81
332.258	92.81
332.486	88.81
332.715	88.81
332.943	91.81
333.172	82.81
333.4	83.81
333.629	100.81
333.857	104.81
334.085	113.81
334.314	93.81
334.542	85.81
334.771	96.81
334.999	92.81
335.227	88.81
335.455	90.81
335.684	94.81
335.912	84.81
336.14	97.81
336.369	83.81
336.597	107.81
336.825	84.81
337.053	105.81
337.281	78.81
337.51	84.81
337.738	91.81
337.966	90.81
338.194	108.81
338.422	99.81
338.65	85.81
338.878	89.81
339.106	92.81
339.334	109.81
339.562	86.81
339.79	88.81
340.018	84.81
340.246	91.81
340.474	93.81
340.702	89.81
340.93	80.81
341.158	85.81
341.386	92.81
341.614	88.81
341.842	94.81
342.07	81.81
342.298	94.81
342.526	100.81
342.754	104.81
342.981	85.81
343.209	71.81
343.437	90.81
343.665	79.81
343.893	93.81
344.12	92.81
344.348	100.81
344.576	89.81
344.804	98.81
345.031	94.81
345.259	87.81
345.487	81.81
345.714	88.81
345.942	92.81
346.17	89.81
346.397	92.81
346.625	83.81
346.853	89.81
347.08	95.81
347.308	87.81
347.535	90.81
347.763	104.81
347.99	88.81
348.218	107.81
348.445	88.81
348.673	85.81
348.9	82.81
349.128	93.81
349.355	73.81
349.583	91.81
349.81	95.81
350.037	95.81
350.265	101.81
350.492	92.81
350.72	102.81
350.947	88.81
351.174	104.81
351.402	99.81
351.629	100.81
351.856	106.81
352.083	102.81
352.311	101.81
352.538	114.81
352.765	110.81
352.992	116.81
353.22	105.81
353.447	84.81
353.674	90.81
353.901	108.81
354.128	99.81
354.355	95.81
354.583	97.81
354.81	107.81
355.037	95.81
355.264	91.81
355.491	93.81
355.718	92.81
355.945	97.81
356.172	83.81
356.399	88.81
356.626	91.81
356.853	94.81
357.08	87.81
357.307	78.81
357.534	107.81
357.761	82.81
357.988	97.81
358.215	96.81
358.441	96.81
358.668	101.81
358.895	90.81
359.122	88.81
359.349	94.81
359.576	96.81
359.802	86.81
360.029	109.81
360.256	113.81
360.483	76.81
360.709	88.81
360.936	92.81
361.163	86.81
361.39	84.81
361.616	80.81
361.843	86.81
362.07	78.81
362.296	77.81
362.523	88.81
362.749	85.81
362.976	82.81
363.203	87.81
363.429	87.81
363.656	101.81
363.882	90.81
364.109	87.81
364.335	86.81
364.562	88.81
364.788	89.81
365.015	89.81
365.241	85.81
365.468	104.81
365.694	100.81
365.92	98.81
366.147	83.81
366.373	95.81
366.599	77.81
366.826	88.81
367.052	85.81
367.278	89.81
367.505	84.81
367.731	91.81
367.957	79.81
368.184	85.81
368.41	94.81
368.636	100.81
368.862	105.81
369.089	101.81
369.315	82.81
369.541	94.81
369.767	77.81
369.993	81.81
370.219	86.81
370.445	74.81
370.672	95.81
370.898	64.81
371.124	84.81
371.35	94.81
371.576	81.81
371.802	87.81
372.028	97.81
372.254	72.81
372.48	80.81
372.706	66.81
372.932	73.81
373.158	92.81
373.384	90.81
373.61	82.81
373.835	93.81
374.061	80.81
374.287	102.81
374.513	93.81
374.739	83.81
374.965	73.81
375.191	73.81
375.416	82.81
375.642	86.81
375.868	101.81
376.094	84.81
376.319	100.81
376.545	84.81
376.771	85.81
376.997	89.81
377.222	90.81
377.448	95.81
377.674	100.81
377.899	109.81
378.125	94.81
378.35	88.81
378.576	93.81
378.802	89.81
379.027	92.81
379.253	89.81
379.478	88.81
379.704	84.81
379.929	99.81
380.155	120.81
380.38	99.81
380.606	95.81
380.831	108.81
381.057	115.81
381.282	98.81
381.507	115.81
381.733	110.81
381.958	109.81
382.184	96.81
382.409	92.81
382.634	112.81
382.86	117.81
383.085	104.81
383.31	111.81
383.535	111.81
383.761	117.81
383.986	119.81
384.211	114.81
384.436	114.81
384.662	108.81
384.887	131.81
385.112	131.81
385.337	120.81
385.562	124.81
385.787	127.81
386.013	136.81
386.238	128.81
386.463	126.81
386.688	127.81
386.913	136.81
387.138	126.81
387.363	133.81
387.588	108.81
387.813	117.81
388.038	127.81
388.263	135.81
388.488	131.81
388.713	100.81
388.938	80.81
389.163	88.81
389.387	93.81
389.612	88.81
389.837	95.81
390.062	100.81
390.287	75.81
390.512	86.81
390.736	77.81
390.961	86.81
391.186	91.81
391.411	106.81
391.636	76.81
391.86	80.81
392.085	77.81
392.31	78.81
392.534	88.81
392.759	81.81
392.984	68.81
393.208	74.81
393.433	103.81
393.658	107.81
393.882	86.81
394.107	84.81
394.331	92.81
394.556	90.81
394.78	87.81
395.005	87.81
395.229	90.81
395.454	82.81
395.678	78.81
395.903	83.81
396.127	73.81
396.352	71.81
396.576	98.81
396.801	91.81
397.025	98.81
397.249	94.81
397.474	80.81
397.698	80.81
397.922	79.81
398.147	75.81
398.371	85.81
398.595	91.81
398.82	69.81
399.044	79.81
399.268	80.81
399.492	78.81
399.717	79.81
399.941	92.81
400.165	96.81
400.389	95.81
400.613	85.81
400.837	84.81
401.062	89.81
401.286	76.81
401.51	86.81
401.734	103.81
401.958	83.81
402.182	123.81
402.406	155.81
402.63	119.81
402.854	80.81
403.078	76.81
403.302	77.81
403.526	87.81
403.75	104.81
403.974	72.81
404.198	74.81
404.422	84.81
404.645	89.81
404.869	94.81
405.093	89.81
405.317	98.81
405.541	90.81
405.765	81.81
405.988	111.81
406.212	178.81
406.436	226.81
406.66	148.81
406.883	96.81
407.107	87.81
407.331	89.81
407.555	100.81
407.778	83.81
408.002	94.81
408.226	83.81
408.449	79.81
408.673	110.81
408.896	91.81
409.12	89.81
409.344	80.81
409.567	81.81
409.791	85.81
410.014	100.81
410.238	90.81
410.461	88.81
410.685	88.81
410.908	99.81
411.132	101.81
411.355	100.81
411.578	91.81
411.802	80.81
412.025	87.81
412.249	87.81
412.472	89.81
412.695	86.81
412.919	78.81
413.142	77.81
413.365	86.81
413.589	93.81
413.812	81.81
414.035	91.81
414.258	81.81
414.482	101.81
414.705	84.81
414.928	93.81
415.151	82.81
415.374	96.81
415.597	85.81
415.821	72.81
416.044	96.81
416.267	95.81
416.49	88.81
416.713	92.81
416.936	78.81
417.159	69.81
417.382	91.81
417.605	83.81
417.828	104.81
418.051	77.81
418.274	80.81
418.497	88.81
418.72	81.81
418.943	78.81
419.166	69.81
419.389	67.81
419.611	88.81
419.834	97.81
420.057	82.81
420.28	92.81
420.503	82.81
420.726	87.81
420.948	95.81
421.171	84.81
421.394	97.81
421.617	75.81
421.839	80.81
422.062	82.81
422.285	92.81
422.507	92.81
422.73	115.81
422.953	97.81
423.175	89.81
423.398	100.81
423.621	86.81
423.843	95.81
424.066	95.81
424.288	86.81
424.511	92.81
424.733	69.81
424.956	89.81
425.178	92.81
425.401	82.81
425.623	94.81
425.846	87.81
426.068	68.81
426.291	91.81
426.513	85.81
426.735	84.81
426.958	85.81
427.18	96.81
427.402	128.81
427.625	165.81
427.847	109.81
428.069	97.81
428.292	80.81
428.514	87.81
428.736	78.81
428.958	80.81
429.181	78.81
429.403	78.81
429.625	82.81
429.847	89.81
430.069	95.81
430.292	91.81
430.514	77.81
430.736	82.81
430.958	73.81
431.18	79.81
431.402	72.81
431.624	74.81
431.846	71.81
432.068	84.81
432.29	71.81
432.512	94.81
432.734	79.81
432.956	94.81
433.178	112.81
433.4	107.81
433.622	85.81
433.844	83.81
434.066	91.81
434.287	76.81
434.509	81.81
434.731	83.81
434.953	76.81
435.175	79.81
435.397	92.81
435.618	86.81
435.84	86.81
436.062	133.81
436.284	101.81
436.505	85.81
436.727	89.81
436.949	96.81
437.17	84.81
437.392	92.81
437.614	85.81
437.835	94.81
438.057	110.81
438.278	102.81
438.5	99.81
438.721	123.81
438.943	81.81
439.165	82.81
439.386	88.81
439.608	78.81
439.829	84.81
440.05	120.81
440.272	146.81
440.493	93.81
440.715	93.81
440.936	87.81
441.158	80.81
441.379	89.81
441.6	69.81
441.822	86.81
442.043	92.81
442.264	104.81
442.486	90.81
442.707	92.81
442.928	96.81
443.149	132.81
443.371	134.81
443.592	110.81
443.813	112.81
444.034	111.81
444.255	73.81
444.476	79.81
444.698	84.81
444.919	84.81
445.14	129.81
445.361	112.81
445.582	126.81
445.803	145.81
446.024	140.81
446.245	127.81
446.466	109.81
446.687	96.81
446.908	87.81
447.129	83.81
447.35	93.81
447.571	84.81
447.792	79.81
448.013	92.81
448.234	101.81
448.455	100.81
448.675	108.81
448.896	106.81
449.117	106.81
449.338	109.81
449.559	117.81
449.779	122.81
450	91.81
450.221	101.81
450.442	77.81
450.662	90.81
450.883	103.81
451.104	95.81
451.324	94.81
451.545	70.81
451.766	75.81
451.986	86.81
452.207	87.81
452.428	95.81
452.648	84.81
452.869	99.81
453.089	95.81
453.31	117.81
453.53	93.81
453.751	95.81
453.971	114.81
454.192	90.81
454.412	86.81
454.633	91.81
454.853	77.81
455.073	81.81
455.294	85.81
455.514	79.81
455.734	72.81
455.955	68.81
456.175	79.81
456.395	81.81
456.616	79.81
456.836	68.81
457.056	86.81
457.276	80.81
457.497	79.81
457.717	88.81
457.937	84.81
458.157	79.81
458.377	96.81
458.598	104.81
458.818	149.81
459.038	158.81
459.258	109.81
459.478	101.81
459.698	81.81
459.918	73.81
460.138	71.81
460.358	87.81
460.578	88.81
460.798	88.81
461.018	91.81
461.238	85.81
461.458	88.81
461.678	84.81
461.898	85.81
462.118	72.81
462.338	86.81
462.558	71.81
462.777	77.81
462.997	83.81
463.217	82.81
463.437	94.81
463.657	81.81
463.876	92.81
464.096	81.81
464.316	93.81
464.536	87.81
464.755	81.81
464.975	99.81
465.195	166.81
465.414	147.81
465.634	89.81
465.854	98.81
466.073	82.81
466.293	97.81
466.512	85.81
466.732	78.81
466.951	81.81
467.171	83.81
467.391	83.81
467.61	101.81
467.829	111.81
468.049	86.81
468.268	82.81
468.488	81.81
468.707	90.81
468.927	90.81
469.146	78.81
469.365	83.81
469.585	79.81
469.804	91.81
470.023	81.81
470.243	97.81
470.462	99.81
470.681	95.81
470.901	80.81
471.12	83.81
471.339	102.81
471.558	88.81
471.777	86.81
471.997	86.81
472.216	94.81
472.435	97.81
472.654	93.81
472.873	79.81
473.092	85.81
473.311	79.81
473.53	82.81
473.749	85.81
473.968	84.81
474.187	85.81
474.406	108.81
474.625	85.81
474.844	77.81
475.063	77.81
475.282	78.81
475.501	80.81
475.72	94.81
475.939	96.81
476.158	87.81
476.377	95.81
476.596	93.81
476.814	80.81
477.033	94.81
477.252	73.81
477.471	77.81
477.69	77.81
477.908	87.81
478.127	76.81
478.346	90.81
478.564	96.81
478.783	88.81
479.002	73.81
479.22	89.81
479.439	96.81
479.658	114.81
479.876	92.81
480.095	86.81
480.313	96.81
480.532	80.81
480.751	85.81
480.969	94.81
481.188	110.81
481.406	99.81
481.624	76.81
481.843	77.81
482.061	72.81
482.28	89.81
482.498	83.81
482.717	89.81
482.935	80.81
483.153	72.81
483.372	73.81
483.59	76.81
483.808	70.81
484.027	79.81
484.245	100.81
484.463	101.81
484.681	85.81
484.9	94.81
485.118	95.81
485.336	80.81
485.554	96.81
485.772	89.81
485.99	107.81
486.209	107.81
486.427	107.81
486.645	110.81
486.863	120.81
487.081	103.81
487.299	78.81
487.517	93.81
487.735	90.81
487.953	78.81
488.171	93.81
488.389	100.81
488.607	96.81
488.825	86.81
489.043	96.81
489.261	91.81
489.479	84.81
489.696	91.81
489.914	93.81
490.132	84.81
490.35	101.81
490.568	82.81
490.786	80.81
491.003	67.81
491.221	88.81
491.439	87.81
491.657	76.81
491.874	92.81
492.092	92.81
492.31	90.81
492.527	78.81
492.745	85.81
492.963	87.81
493.18	91.81
493.398	87.81
493.615	97.81
493.833	79.81
494.05	95.81
494.268	100.81
494.485	78.81
494.703	81.81
494.92	92.81
495.138	72.81
495.355	88.81
495.573	94.81
495.79	94.81
496.008	94.81
496.225	86.81
496.442	68.81
496.66	86.81
496.877	78.81
497.094	84.81
497.312	94.81
497.529	87.81
497.746	85.81
497.963	76.81
498.181	81.81
498.398	84.81
498.615	98.81
498.832	89.81
499.049	95.81
499.267	79.81
499.484	71.81
499.701	91.81
499.918	75.81
500.135	73.81
500.352	77.81
500.569	72.81
500.786	85.81
501.003	72.81
501.22	91.81
501.437	98.81
501.654	92.81
501.871	101.81
502.088	93.81
502.305	66.81
502.522	72.81
502.739	78.81
502.956	76.81
503.172	91.81
503.389	98.81
503.606	97.81
503.823	102.81
504.04	86.81
504.256	92.81
504.473	75.81
504.69	76.81
504.907	81.81
505.123	93.81
505.34	81.81
505.557	102.81
505.773	79.81
505.99	87.81
506.207	83.81
506.423	88.81
506.64	105.81
506.856	80.81
507.073	83.81
507.289	77.81
507.506	89.81
507.722	95.81
507.939	104.81
508.155	87.81
508.372	95.81
508.588	85.81
508.805	86.81
509.021	96.81
509.238	109.81
509.454	92.81
509.67	94.81
509.887	95.81
510.103	131.81
510.319	218.81
510.536	800.81
510.752	2663.81
510.968	785.81
511.184	159.81
511.401	104.81
511.617	101.81
511.833	84.81
512.049	91.81
512.265	81.81
512.481	95.81
512.698	78.81
512.914	92.81
513.13	82.81
513.346	86.81
513.562	84.81
513.778	100.81
513.994	99.81
514.21	104.81
514.426	106.81
514.642	131.81
514.858	127.81
515.074	165.81
515.29	479.81
515.506	1589.81
515.721	609.81
515.937	156.81
516.153	111.81
516.369	91.81
516.585	96.81
516.801	84.81
517.016	96.81
517.232	85.81
517.448	107.81
517.664	83.81
517.879	93.81
518.095	92.81
518.311	91.81
518.527	94.81
518.742	102.81
518.958	99.81
519.173	91.81
519.389	89.81
519.605	94.81
519.82	97.81
520.036	107.81
520.251	109.81
520.467	97.81
520.682	99.81
520.898	95.81
521.113	111.81
521.329	143.81
521.544	215.81
521.76	562.81
521.975	2646.81
522.19	1670.81
522.406	343.81
522.621	131.81
522.836	92.81
523.052	90.81
523.267	89.81
523.482	103.81
523.698	81.81
523.913	123.81
524.128	97.81
524.343	91.81
524.559	72.81
524.774	89.81
524.989	101.81
525.204	98.81
525.419	101.81
525.634	84.81
525.849	85.81
526.064	82.81
526.28	86.81
526.495	77.81
526.71	90.81
526.925	98.81
527.14	76.81
527.355	96.81
527.57	81.81
527.785	88.81
527.999	94.81
528.214	95.81
528.429	87.81
528.644	87.81
528.859	95.81
529.074	89.81
529.289	129.81
529.503	173.81
529.718	92.81
529.933	87.81
530.148	95.81
530.363	88.81
530.577	86.81
530.792	84.81
531.007	90.81
531.221	83.81
531.436	75.81
531.651	89.81
531.865	93.81
532.08	74.81
532.295	94.81
532.509	93.81
532.724	88.81
532.938	81.81
533.153	81.81
533.367	75.81
533.582	88.81
533.796	86.81
534.011	80.81
534.225	94.81
534.44	90.81
534.654	84.81
534.868	89.81
535.083	91.81
535.297	88.81
535.511	88.81
535.726	102.81
535.94	89.81
536.154	89.81
536.369	83.81
536.583	96.81
536.797	76.81
537.011	73.81
537.225	73.81
537.44	81.81
537.654	87.81
537.868	87.81
538.082	93.81
538.296	77.81
538.51	72.81
538.724	77.81
538.938	60.81
539.153	96.81
539.367	88.81
539.581	80.81
539.795	78.81
540.009	88.81
540.222	85.81
540.436	89.81
540.65	87.81
540.864	76.81
541.078	101.81
541.292	92.81
541.506	87.81
541.72	79.81
541.934	86.81
542.147	91.81
542.361	78.81
542.575	83.81
542.789	76.81
543.002	81.81
543.216	94.81
543.43	80.81
543.644	83.81
543.857	86.81
544.071	91.81
544.285	77.81
544.498	66.81
544.712	95.81
544.925	83.81
545.139	84.81
545.352	76.81
545.566	97.81
545.779	100.81
545.993	83.81
546.206	85.81
546.42	97.81
546.633	83.81
546.847	94.81
547.06	87.81
547.274	93.81
547.487	91.81
547.7	83.81
547.914	85.81
548.127	92.81
548.34	75.81
548.554	92.81
548.767	83.81
548.98	88.81
549.193	84.81
549.407	78.81
549.62	82.81
549.833	96.81
550.046	79.81
550.259	82.81
550.473	95.81
550.686	85.81
550.899	76.81
551.112	88.81
551.325	77.81
551.538	77.81
551.751	84.81
551.964	72.81
552.177	91.81
552.39	75.81
552.603	89.81
552.816	93.81
553.029	86.81
553.242	79.81
553.455	101.81
553.667	106.81
553.88	93.81
554.093	95.81
554.306	89.81
554.519	82.81
554.732	78.81
554.944	89.81
555.157	86.81
555.37	94.81
555.583	88.81
555.795	90.81
556.008	83.81
556.221	73.81
556.433	92.81
556.646	100.81
556.859	73.81
557.071	85.81
557.284	84.81
557.496	81.81
557.709	94.81
557.921	77.81
558.134	82.81
558.346	87.81
558.559	77.81
558.771	67.81
558.984	83.81
559.196	82.81
559.409	75.81
559.621	78.81
559.833	92.81
560.046	90.81
560.258	86.81
560.47	88.81
560.683	90.81
560.895	64.81
561.107	93.81
561.32	88.81
561.532	82.81
561.744	91.81
561.956	83.81
562.168	85.81
562.381	83.81
562.593	92.81
562.805	96.81
563.017	78.81
563.229	91.81
563.441	86.81
563.653	91.81
563.865	74.81
564.077	80.81
564.289	84.81
564.501	99.81
564.713	94.81
564.925	75.81
565.137	103.81
565.349	77.81
565.561	79.81
565.773	85.81
565.985	88.81
566.197	81.81
566.408	81.81
566.62	94.81
566.832	82.81
567.044	90.81
567.255	85.81
567.467	77.81
567.679	72.81
567.891	84.81
568.102	90.81
568.314	82.81
568.526	87.81
568.737	96.81
568.949	81.81
569.161	78.81
569.372	81.81
569.584	75.81
569.795	78.81
570.007	113.81
570.218	257.81
570.43	143.81
570.641	93.81
570.853	85.81
571.064	74.81
571.276	74.81
571.487	79.81
571.698	91.81
571.91	84.81
572.121	76.81
572.333	86.81
572.544	78.81
572.755	86.81
572.966	79.81
573.178	83.81
573.389	97.81
573.6	83.81
573.811	89.81
574.023	79.81
574.234	77.81
574.445	92.81
574.656	84.81
574.867	84.81
575.078	75.81
575.289	81.81
575.501	74.81
575.712	87.81
575.923	91.81
576.134	84.81
576.345	87.81
576.556	74.81
576.767	81.81
576.978	111.81
577.188	79.81
577.399	87.81
577.61	109.81
577.821	100.81
578.032	105.81
578.243	265.81
578.454	829.81
578.665	230.81
578.875	108.81
579.086	79.81
579.297	83.81
579.508	85.81
579.718	100.81
579.929	83.81
580.14	84.81
580.35	81.81
580.561	88.81
580.772	73.81
580.982	71.81
581.193	84.81
581.403	87.81
581.614	75.81
581.825	80.81
582.035	88.81
582.246	79.81
582.456	84.81
582.667	91.81
582.877	87.81
583.087	72.81
583.298	82.81
583.508	76.81
583.719	74.81
583.929	75.81
584.139	71.81
584.35	80.81
584.56	91.81
584.77	90.81
584.981	75.81
585.191	76.81
585.401	73.81
585.611	72.81
585.821	80.81
586.032	87.81
586.242	88.81
586.452	90.81
586.662	71.81
586.872	85.81
587.082	75.81
587.292	83.81
587.502	72.81
587.713	89.81
587.923	93.81
588.133	87.81
588.343	92.81
588.553	84.81
588.762	86.81
588.972	131.81
589.182	387.81
589.392	201.81
589.602	141.81
589.812	259.81
590.022	125.81
590.232	90.81
590.441	82.81
590.651	82.81
590.861	88.81
591.071	88.81
591.281	75.81
591.49	83.81
591.7	79.81
591.91	82.81
592.119	86.81
592.329	78.81
592.539	82.81
592.748	95.81
592.958	95.81
593.167	79.81
593.377	84.81
593.587	88.81
593.796	74.81
594.006	78.81
594.215	85.81
594.424	92.81
594.634	83.81
594.843	70.81
595.053	77.81
595.262	83.81
595.472	79.81
595.681	65.81
595.89	75.81
596.1	97.81
596.309	78.81
596.518	93.81
596.727	89.81
596.937	88.81
597.146	75.81
597.355	67.81
597.564	81.81
597.774	84.81
597.983	76.81
598.192	88.81
598.401	78.81
598.61	72.81
598.819	81.81
599.028	88.81
599.237	91.81
599.446	69.81
599.655	78.81
599.864	70.81
600.073	71.81
600.282	83.81
600.491	83.81
600.7	72.81
600.909	70.81
601.118	86.81
601.327	96.81
601.536	86.81
601.745	72.81
601.953	76.81
602.162	76.81
602.371	91.81
602.58	78.81
602.789	77.81
602.997	76.81
603.206	82.81
603.415	69.81
603.623	93.81
603.832	96.81
604.041	89.81
604.249	80.81
604.458	64.81
604.666	83.81
604.875	73.81
605.084	76.81
605.292	80.81
605.501	88.81
605.709	63.81
605.918	77.81
606.126	79.81
606.334	80.81
606.543	93.81
606.751	87.81
606.96	80.81
607.168	77.81
607.376	80.81
607.585	88.81
607.793	79.81
608.001	101.81
608.21	72.81
608.418	82.81
608.626	69.81
608.834	75.81
609.043	81.81
609.251	76.81
609.459	83.81
609.667	81.81
609.875	88.81
610.083	92.81
610.291	80.81
610.499	80.81
610.707	80.81
610.916	88.81
611.124	85.81
611.332	82.81
611.54	95.81
611.748	87.81
611.955	69.81
612.163	80.81
612.371	85.81
612.579	89.81
612.787	71.81
612.995	77.81
613.203	73.81
613.411	76.81
613.618	68.81
613.826	71.81
614.034	79.81
614.242	84.81
614.449	80.81
614.657	79.81
614.865	87.81
615.072	74.81
615.28	75.81
615.488	70.81
615.695	80.81
615.903	89.81
616.111	93.81
616.318	101.81
616.526	74.81
616.733	77.81
616.941	74.81
617.148	80.81
617.356	87.81
617.563	81.81
617.771	83.81
617.978	66.81
618.185	86.81
618.393	78.81
618.6	73.81
618.807	81.81
619.015	80.81
619.222	74.81
619.429	77.81
619.637	85.81
619.844	75.81
620.051	76.81
620.258	90.81
620.466	73.81
620.673	81.81
620.88	90.81
621.087	83.81
621.294	73.81
621.501	78.81
621.708	71.81
621.915	79.81
622.122	79.81
622.329	78.81
622.536	64.81
622.743	66.81
622.95	86.81
623.157	79.81
623.364	82.81
623.571	92.81
623.778	79.81
623.985	85.81
624.192	84.81
624.399	61.81
624.606	80.81
624.812	86.81
625.019	87.81
625.226	81.81
625.433	88.81
625.639	74.81
625.846	85.81
626.053	88.81
626.259	83.81
626.466	87.81
626.673	85.81
626.879	84.81
627.086	85.81
627.293	78.81
627.499	71.81
627.706	85.81
627.912	75.81
628.119	63.81
628.325	76.81
628.532	83.81
628.738	68.81
628.945	65.81
629.151	66.81
629.357	73.81
629.564	77.81
629.77	94.81
629.976	86.81
630.183	87.81
630.389	86.81
630.595	87.81
630.802	74.81
631.008	88.81
631.214	75.81
631.42	75.81
631.627	91.81
631.833	91.81
632.039	78.81
632.245	88.81
632.451	77.81
632.657	87.81
632.863	79.81
633.069	68.81
633.275	81.81
633.481	89.81
633.688	96.81
633.893	90.81
634.099	67.81
634.305	78.81
634.511	65.81
634.717	85.81
634.923	75.81
635.129	88.81
635.335	56.81
635.541	69.81
635.747	76.81
635.952	68.81
636.158	74.81
636.364	88.81
636.57	87.81
636.775	78.81
636.981	75.81
637.187	75.81
637.392	93.81
637.598	84.81
637.804	86.81
638.009	92.81
638.215	83.81
638.421	77.81
638.626	88.81
638.832	85.81
639.037	83.81
639.243	72.81
639.448	85.81
639.654	73.81
639.859	83.81
640.065	75.81
640.27	84.81
640.475	87.81
640.681	81.81
640.886	90.81
641.091	72.81
641.297	84.81
641.502	78.81
641.707	79.81
641.913	78.81
642.118	92.81
642.323	82.81
642.528	86.81
642.733	82.81
642.939	92.81
643.144	88.81
643.349	80.81
643.554	81.81
643.759	80.81
643.964	72.81
644.169	66.81
644.374	72.81
644.579	90.81
644.784	68.81
644.989	85.81
645.194	80.81
645.399	67.81
645.604	78.81
645.809	72.81
646.014	77.81
646.219	96.81
646.423	93.81
646.628	70.81
646.833	76.81
647.038	80.81
647.243	80.81
647.447	74.81
647.652	97.81
647.857	79.81
648.062	87.81
648.266	72.81
648.471	68.81
648.676	103.81
648.88	84.81
649.085	93.81
649.289	88.81
649.494	87.81
649.698	123.81
649.903	98.81
650.107	89.81
650.312	89.81
650.516	94.81
650.721	67.81
650.925	81.81
651.13	72.81
651.334	86.81
651.539	73.81
651.743	78.81
651.947	76.81
652.152	62.81
652.356	76.81
652.56	65.81
652.764	86.81
652.969	71.81
653.173	84.81
653.377	72.81
653.581	63.81
653.785	81.81
653.99	77.81
654.194	73.81
654.398	72.81
654.602	80.81
654.806	87.81
655.01	107.81
655.214	76.81
655.418	93.81
655.622	94.81
655.826	81.81
656.03	72.81
656.234	87.81
656.438	98.81
656.642	80.81
656.846	88.81
657.049	93.81
657.253	73.81
657.457	72.81
657.661	80.81
657.865	77.81
658.068	88.81
658.272	63.81
658.476	67.81
658.68	76.81
658.883	76.81
659.087	73.81
659.291	80.81
659.494	81.81
659.698	77.81
659.901	75.81
660.105	72.81
660.309	82.81
660.512	87.81
660.716	87.81
660.919	92.81
661.123	89.81
661.326	84.81
661.53	78.81
661.733	80.81
661.936	78.81
662.14	63.81
662.343	64.81
662.546	75.81
662.75	83.81
662.953	76.81
663.156	80.81
663.36	83.81
663.563	70.81
663.766	85.81
663.969	73.81
664.173	82.81
664.376	88.81
664.579	76.81
664.782	77.81
664.985	69.81
665.188	76.81
665.391	85.81
665.594	64.81
665.797	66.81
666	72.81
666.203	81.81
666.406	66.81
666.609	85.81
666.812	71.81
667.015	69.81
667.218	88.81
667.421	83.81
667.624	68.81
667.827	71.81
668.03	69.81
668.232	71.81
668.435	69.81
668.638	76.81
668.841	80.81
669.043	90.81
669.246	73.81
669.449	76.81
669.651	78.81
669.854	69.81
670.057	84.81
670.259	85.81
670.462	73.81
670.665	80.81
670.867	72.81
671.07	73.81
671.272	58.81
671.475	71.81
671.677	67.81
671.88	69.81
672.082	61.81
672.284	70.81
672.487	74.81
672.689	69.81
672.892	70.81
