Data from Circ_2016_H10_HRD10591_00058.txt Node
Date: Wed Jan 03 09:58:52 EST 2024
User: Yrep
Spectrometer: HR+D1059
Trigger mode: 1
Integration Time (sec): 1.000000E-1
Scans to average: 1
Electric dark correction enabled: true
Nonlinearity correction enabled: false
Boxcar width: 0
XAxis mode: Wavelengths
Number of Pixels in Spectrum: 2048
>>>>>Begin Spectral Data<<<<<
223.165	-26.81
223.4	-26.81
223.635	-26.81
223.869	-23.81
224.104	-10.81
224.338	-14.81
224.573	-9.81
224.808	-5.81
225.042	-15.81
225.277	-6.81
225.511	6.19
225.746	8.19
225.98	16.19
226.215	15.19
226.449	8.19
226.683	16.19
226.918	16.19
227.152	28.19
227.387	37.19
227.621	21.19
227.856	26.19
228.09	37.19
228.324	42.19
228.559	39.19
228.793	65.19
229.027	55.19
229.262	62.19
229.496	65.19
229.73	83.19
229.964	70.19
230.199	87.19
230.433	71.19
230.667	78.19
230.901	67.19
231.136	74.19
231.37	79.19
231.604	82.19
231.838	80.19
232.072	85.19
232.306	86.19
232.541	73.19
232.775	73.19
233.009	74.19
233.243	89.19
233.477	62.19
233.711	67.19
233.945	92.19
234.179	79.19
234.413	69.19
234.647	87.19
234.881	70.19
235.115	80.19
235.349	71.19
235.583	84.19
235.817	67.19
236.051	81.19
236.285	95.19
236.519	64.19
236.753	81.19
236.987	83.19
237.221	74.19
237.455	83.19
237.689	79.19
237.922	61.19
238.156	53.19
238.39	72.19
238.624	80.19
238.858	73.19
239.091	75.19
239.325	75.19
239.559	92.19
239.793	67.19
240.027	72.19
240.26	57.19
240.494	68.19
240.728	84.19
240.961	66.19
241.195	81.19
241.429	76.19
241.662	73.19
241.896	73.19
242.13	83.19
242.363	82.19
242.597	95.19
242.83	77.19
243.064	86.19
243.298	74.19
243.531	71.19
243.765	69.19
243.998	82.19
244.232	81.19
244.465	80.19
244.699	71.19
244.932	70.19
245.166	71.19
245.399	88.19
245.633	70.19
245.866	82.19
246.099	86.19
246.333	67.19
246.566	69.19
246.8	80.19
247.033	93.19
247.266	80.19
247.5	66.19
247.733	73.19
247.966	64.19
248.2	74.19
248.433	86.19
248.666	74.19
248.899	87.19
249.133	86.19
249.366	81.19
249.599	101.19
249.832	98.19
250.066	89.19
250.299	69.19
250.532	78.19
250.765	65.19
250.998	73.19
251.231	84.19
251.465	98.19
251.698	81.19
251.931	64.19
252.164	79.19
252.397	80.19
252.63	74.19
252.863	86.19
253.096	85.19
253.329	101.19
253.562	84.19
253.795	74.19
254.028	88.19
254.261	97.19
254.494	83.19
254.727	66.19
254.96	72.19
255.193	69.19
255.426	78.19
255.659	71.19
255.892	93.19
256.124	83.19
256.357	87.19
256.59	69.19
256.823	79.19
257.056	69.19
257.289	83.19
257.521	77.19
257.754	77.19
257.987	61.19
258.22	84.19
258.452	74.19
258.685	88.19
258.918	77.19
259.151	66.19
259.383	83.19
259.616	89.19
259.849	73.19
260.081	76.19
260.314	83.19
260.547	83.19
260.779	93.19
261.012	72.19
261.244	91.19
261.477	81.19
261.71	104.19
261.942	111.19
262.175	114.19
262.407	105.19
262.64	75.19
262.872	78.19
263.105	83.19
263.337	82.19
263.57	79.19
263.802	87.19
264.035	79.19
264.267	81.19
264.499	82.19
264.732	74.19
264.964	82.19
265.197	72.19
265.429	88.19
265.661	75.19
265.894	79.19
266.126	80.19
266.358	74.19
266.591	90.19
266.823	80.19
267.055	85.19
267.287	107.19
267.52	76.19
267.752	79.19
267.984	75.19
268.216	71.19
268.448	95.19
268.681	90.19
268.913	91.19
269.145	97.19
269.377	93.19
269.609	91.19
269.841	81.19
270.073	93.19
270.306	80.19
270.538	86.19
270.77	79.19
271.002	82.19
271.234	75.19
271.466	75.19
271.698	89.19
271.93	73.19
272.162	81.19
272.394	80.19
272.626	96.19
272.858	84.19
273.09	73.19
273.322	72.19
273.553	81.19
273.785	72.19
274.017	81.19
274.249	83.19
274.481	82.19
274.713	85.19
274.945	78.19
275.176	70.19
275.408	73.19
275.64	83.19
275.872	91.19
276.104	87.19
276.335	88.19
276.567	99.19
276.799	97.19
277.031	100.19
277.262	83.19
277.494	85.19
277.726	74.19
277.957	90.19
278.189	90.19
278.421	86.19
278.652	81.19
278.884	87.19
279.115	109.19
279.347	79.19
279.579	84.19
279.81	75.19
280.042	81.19
280.273	75.19
280.505	86.19
280.736	100.19
280.968	81.19
281.199	69.19
281.431	89.19
281.662	80.19
281.894	75.19
282.125	89.19
282.356	111.19
282.588	149.19
282.819	132.19
283.051	94.19
283.282	93.19
283.513	85.19
283.745	75.19
283.976	93.19
284.207	80.19
284.439	82.19
284.67	89.19
284.901	82.19
285.132	79.19
285.364	71.19
285.595	90.19
285.826	79.19
286.057	75.19
286.288	89.19
286.52	94.19
286.751	87.19
286.982	82.19
287.213	82.19
287.444	93.19
287.675	86.19
287.906	97.19
288.138	88.19
288.369	97.19
288.6	96.19
288.831	80.19
289.062	94.19
289.293	93.19
289.524	90.19
289.755	95.19
289.986	86.19
290.217	98.19
290.448	82.19
290.679	81.19
290.91	90.19
291.141	91.19
291.371	86.19
291.602	70.19
291.833	83.19
292.064	95.19
292.295	86.19
292.526	97.19
292.757	93.19
292.987	86.19
293.218	106.19
293.449	76.19
293.68	86.19
293.91	84.19
294.141	87.19
294.372	96.19
294.603	89.19
294.833	86.19
295.064	96.19
295.295	92.19
295.525	106.19
295.756	95.19
295.987	104.19
296.217	143.19
296.448	129.19
296.679	81.19
296.909	96.19
297.14	79.19
297.37	85.19
297.601	81.19
297.831	87.19
298.062	99.19
298.292	87.19
298.523	87.19
298.753	96.19
298.984	97.19
299.214	88.19
299.445	75.19
299.675	104.19
299.905	97.19
300.136	85.19
300.366	90.19
300.597	98.19
300.827	102.19
301.057	109.19
301.288	103.19
301.518	103.19
301.748	93.19
301.979	92.19
302.209	89.19
302.439	98.19
302.669	87.19
302.9	94.19
303.13	81.19
303.36	84.19
303.59	102.19
303.82	115.19
304.051	93.19
304.281	92.19
304.511	93.19
304.741	70.19
304.971	88.19
305.201	93.19
305.431	75.19
305.661	95.19
305.891	88.19
306.121	86.19
306.352	109.19
306.582	101.19
306.812	87.19
307.042	101.19
307.272	90.19
307.502	94.19
307.731	90.19
307.961	81.19
308.191	79.19
308.421	81.19
308.651	78.19
308.881	95.19
309.111	94.19
309.341	97.19
309.571	96.19
309.8	108.19
310.03	91.19
310.26	95.19
310.49	84.19
310.72	98.19
310.949	107.19
311.179	93.19
311.409	96.19
311.639	95.19
311.868	93.19
312.098	98.19
312.328	102.19
312.557	101.19
312.787	117.19
313.017	102.19
313.246	104.19
313.476	96.19
313.706	94.19
313.935	109.19
314.165	95.19
314.394	110.19
314.624	118.19
314.853	89.19
315.083	77.19
315.312	75.19
315.542	87.19
315.771	86.19
316.001	87.19
316.23	90.19
316.46	95.19
316.689	88.19
316.919	102.19
317.148	88.19
317.377	104.19
317.607	99.19
317.836	84.19
318.065	112.19
318.295	109.19
318.524	95.19
318.753	92.19
318.983	86.19
319.212	87.19
319.441	106.19
319.67	113.19
319.9	85.19
320.129	103.19
320.358	89.19
320.587	80.19
320.816	98.19
321.046	108.19
321.275	94.19
321.504	101.19
321.733	100.19
321.962	102.19
322.191	103.19
322.42	111.19
322.649	105.19
322.878	113.19
323.108	110.19
323.337	123.19
323.566	138.19
323.795	156.19
324.024	225.19
324.253	443.19
324.482	987.19
324.71	1990.19
324.939	2654.19
325.168	976.19
325.397	283.19
325.626	149.19
325.855	149.19
326.084	126.19
326.313	144.19
326.542	172.19
326.77	269.19
326.999	543.19
327.228	1117.19
327.457	2034.19
327.686	1569.19
327.914	434.19
328.143	216.19
328.372	157.19
328.6	135.19
328.829	114.19
329.058	112.19
329.287	136.19
329.515	107.19
329.744	97.19
329.972	126.19
330.201	129.19
330.43	133.19
330.658	134.19
330.887	154.19
331.115	129.19
331.344	89.19
331.572	108.19
331.801	113.19
332.03	106.19
332.258	93.19
332.486	91.19
332.715	101.19
332.943	76.19
333.172	102.19
333.4	96.19
333.629	105.19
333.857	116.19
334.085	120.19
334.314	129.19
334.542	147.19
334.771	135.19
334.999	102.19
335.227	102.19
335.455	90.19
335.684	97.19
335.912	102.19
336.14	103.19
336.369	108.19
336.597	97.19
336.825	105.19
337.053	91.19
337.281	89.19
337.51	82.19
337.738	96.19
337.966	118.19
338.194	101.19
338.422	93.19
338.65	102.19
338.878	71.19
339.106	96.19
339.334	82.19
339.562	84.19
339.79	100.19
340.018	83.19
340.246	91.19
340.474	86.19
340.702	97.19
340.93	73.19
341.158	85.19
341.386	106.19
341.614	101.19
341.842	93.19
342.07	91.19
342.298	89.19
342.526	104.19
342.754	96.19
342.981	79.19
343.209	90.19
343.437	99.19
343.665	75.19
343.893	88.19
344.12	88.19
344.348	84.19
344.576	90.19
344.804	93.19
345.031	81.19
345.259	80.19
345.487	93.19
345.714	89.19
345.942	100.19
346.17	102.19
346.397	93.19
346.625	85.19
346.853	96.19
347.08	93.19
347.308	84.19
347.535	91.19
347.763	88.19
347.99	96.19
348.218	95.19
348.445	104.19
348.673	93.19
348.9	96.19
349.128	84.19
349.355	101.19
349.583	95.19
349.81	103.19
350.037	92.19
350.265	95.19
350.492	87.19
350.72	90.19
350.947	114.19
351.174	100.19
351.402	113.19
351.629	94.19
351.856	109.19
352.083	88.19
352.311	88.19
352.538	113.19
352.765	89.19
352.992	116.19
353.22	104.19
353.447	106.19
353.674	103.19
353.901	93.19
354.128	94.19
354.355	89.19
354.583	96.19
354.81	105.19
355.037	104.19
355.264	85.19
355.491	84.19
355.718	89.19
355.945	78.19
356.172	96.19
356.399	85.19
356.626	97.19
356.853	96.19
357.08	80.19
357.307	101.19
357.534	79.19
357.761	93.19
357.988	92.19
358.215	103.19
358.441	92.19
358.668	97.19
358.895	95.19
359.122	86.19
359.349	94.19
359.576	91.19
359.802	84.19
360.029	106.19
360.256	117.19
360.483	103.19
360.709	88.19
360.936	88.19
361.163	101.19
361.39	95.19
361.616	95.19
361.843	84.19
362.07	101.19
362.296	99.19
362.523	94.19
362.749	94.19
362.976	99.19
363.203	91.19
363.429	100.19
363.656	88.19
363.882	97.19
364.109	81.19
364.335	91.19
364.562	79.19
364.788	88.19
365.015	87.19
365.241	100.19
365.468	106.19
365.694	101.19
365.92	95.19
366.147	77.19
366.373	94.19
366.599	86.19
366.826	75.19
367.052	86.19
367.278	112.19
367.505	83.19
367.731	89.19
367.957	90.19
368.184	100.19
368.41	106.19
368.636	107.19
368.862	113.19
369.089	115.19
369.315	103.19
369.541	90.19
369.767	94.19
369.993	98.19
370.219	85.19
370.445	92.19
370.672	76.19
370.898	72.19
371.124	93.19
371.35	83.19
371.576	88.19
371.802	84.19
372.028	88.19
372.254	111.19
372.48	92.19
372.706	82.19
372.932	67.19
373.158	88.19
373.384	89.19
373.61	89.19
373.835	78.19
374.061	90.19
374.287	88.19
374.513	96.19
374.739	75.19
374.965	90.19
375.191	95.19
375.416	94.19
375.642	88.19
375.868	70.19
376.094	87.19
376.319	84.19
376.545	86.19
376.771	90.19
376.997	87.19
377.222	76.19
377.448	97.19
377.674	103.19
377.899	94.19
378.125	82.19
378.35	96.19
378.576	94.19
378.802	78.19
379.027	93.19
379.253	95.19
379.478	80.19
379.704	73.19
379.929	88.19
380.155	104.19
380.38	106.19
380.606	98.19
380.831	103.19
381.057	96.19
381.282	97.19
381.507	114.19
381.733	108.19
381.958	94.19
382.184	94.19
382.409	87.19
382.634	103.19
382.86	96.19
383.085	97.19
383.31	116.19
383.535	93.19
383.761	104.19
383.986	93.19
384.211	110.19
384.436	93.19
384.662	98.19
384.887	109.19
385.112	118.19
385.337	99.19
385.562	119.19
385.787	117.19
386.013	97.19
386.238	120.19
386.463	103.19
386.688	117.19
386.913	115.19
387.138	119.19
387.363	110.19
387.588	116.19
387.813	96.19
388.038	103.19
388.263	117.19
388.488	128.19
388.713	98.19
388.938	103.19
389.163	91.19
389.387	93.19
389.612	82.19
389.837	102.19
390.062	88.19
390.287	102.19
390.512	80.19
390.736	89.19
390.961	98.19
391.186	93.19
391.411	89.19
391.636	75.19
391.86	80.19
392.085	85.19
392.31	82.19
392.534	84.19
392.759	79.19
392.984	89.19
393.208	79.19
393.433	95.19
393.658	103.19
393.882	89.19
394.107	74.19
394.331	83.19
394.556	85.19
394.78	92.19
395.005	72.19
395.229	78.19
395.454	79.19
395.678	95.19
395.903	92.19
396.127	81.19
396.352	96.19
396.576	94.19
396.801	94.19
397.025	111.19
397.249	73.19
397.474	80.19
397.698	91.19
397.922	81.19
398.147	80.19
398.371	86.19
398.595	92.19
398.82	79.19
399.044	79.19
399.268	81.19
399.492	88.19
399.717	93.19
399.941	92.19
400.165	88.19
400.389	91.19
400.613	86.19
400.837	73.19
401.062	92.19
401.286	85.19
401.51	79.19
401.734	84.19
401.958	93.19
402.182	125.19
402.406	159.19
402.63	125.19
402.854	101.19
403.078	75.19
403.302	90.19
403.526	83.19
403.75	73.19
403.974	107.19
404.198	90.19
404.422	89.19
404.645	94.19
404.869	101.19
405.093	77.19
405.317	82.19
405.541	84.19
405.765	98.19
405.988	118.19
406.212	177.19
406.436	262.19
406.66	148.19
406.883	113.19
407.107	92.19
407.331	103.19
407.555	94.19
407.778	104.19
408.002	79.19
408.226	88.19
408.449	91.19
408.673	96.19
408.896	88.19
409.12	101.19
409.344	85.19
409.567	96.19
409.791	88.19
410.014	82.19
410.238	88.19
410.461	85.19
410.685	83.19
410.908	96.19
411.132	95.19
411.355	84.19
411.578	84.19
411.802	96.19
412.025	81.19
412.249	89.19
412.472	82.19
412.695	90.19
412.919	84.19
413.142	83.19
413.365	96.19
413.589	90.19
413.812	99.19
414.035	86.19
414.258	89.19
414.482	75.19
414.705	80.19
414.928	96.19
415.151	91.19
415.374	87.19
415.597	88.19
415.821	78.19
416.044	85.19
416.267	88.19
416.49	60.19
416.713	73.19
416.936	76.19
417.159	71.19
417.382	80.19
417.605	72.19
417.828	84.19
418.051	65.19
418.274	86.19
418.497	77.19
418.72	79.19
418.943	91.19
419.166	89.19
419.389	90.19
419.611	69.19
419.834	81.19
420.057	78.19
420.28	84.19
420.503	97.19
420.726	86.19
420.948	77.19
421.171	79.19
421.394	82.19
421.617	80.19
421.839	100.19
422.062	83.19
422.285	92.19
422.507	96.19
422.73	96.19
422.953	82.19
423.175	102.19
423.398	91.19
423.621	79.19
423.843	88.19
424.066	80.19
424.288	87.19
424.511	81.19
424.733	96.19
424.956	101.19
425.178	96.19
425.401	73.19
425.623	93.19
425.846	94.19
426.068	67.19
426.291	79.19
426.513	89.19
426.735	88.19
426.958	94.19
427.18	92.19
427.402	126.19
427.625	166.19
427.847	144.19
428.069	97.19
428.292	84.19
428.514	101.19
428.736	81.19
428.958	88.19
429.181	90.19
429.403	73.19
429.625	78.19
429.847	113.19
430.069	90.19
430.292	89.19
430.514	73.19
430.736	64.19
430.958	99.19
431.18	83.19
431.402	93.19
431.624	76.19
431.846	81.19
432.068	76.19
432.29	88.19
432.512	94.19
432.734	95.19
432.956	85.19
433.178	95.19
433.4	100.19
433.622	91.19
433.844	92.19
434.066	77.19
434.287	94.19
434.509	103.19
434.731	89.19
434.953	75.19
435.175	78.19
435.397	90.19
435.618	91.19
435.84	100.19
436.062	125.19
436.284	120.19
436.505	103.19
436.727	98.19
436.949	93.19
437.17	84.19
437.392	65.19
437.614	82.19
437.835	105.19
438.057	127.19
438.278	94.19
438.5	105.19
438.721	102.19
438.943	102.19
439.165	70.19
439.386	79.19
439.608	88.19
439.829	87.19
440.05	128.19
440.272	155.19
440.493	93.19
440.715	77.19
440.936	89.19
441.158	85.19
441.379	82.19
441.6	98.19
441.822	89.19
442.043	94.19
442.264	89.19
442.486	101.19
442.707	68.19
442.928	100.19
443.149	128.19
443.371	130.19
443.592	100.19
443.813	98.19
444.034	111.19
444.255	79.19
444.476	83.19
444.698	85.19
444.919	85.19
445.14	140.19
445.361	130.19
445.582	117.19
445.803	145.19
446.024	143.19
446.245	140.19
446.466	101.19
446.687	90.19
446.908	80.19
447.129	87.19
447.35	74.19
447.571	94.19
447.792	79.19
448.013	115.19
448.234	94.19
448.455	88.19
448.675	115.19
448.896	112.19
449.117	80.19
449.338	93.19
449.559	138.19
449.779	131.19
450	99.19
450.221	73.19
450.442	86.19
450.662	95.19
450.883	109.19
451.104	102.19
451.324	93.19
451.545	91.19
451.766	87.19
451.986	90.19
452.207	90.19
452.428	82.19
452.648	106.19
452.869	98.19
453.089	111.19
453.31	117.19
453.53	87.19
453.751	90.19
453.971	98.19
454.192	97.19
454.412	96.19
454.633	74.19
454.853	79.19
455.073	74.19
455.294	85.19
455.514	102.19
455.734	95.19
455.955	78.19
456.175	86.19
456.395	80.19
456.616	86.19
456.836	79.19
457.056	88.19
457.276	79.19
457.497	91.19
457.717	86.19
457.937	69.19
458.157	89.19
458.377	88.19
458.598	104.19
458.818	153.19
459.038	164.19
459.258	131.19
459.478	103.19
459.698	86.19
459.918	82.19
460.138	92.19
460.358	74.19
460.578	89.19
460.798	98.19
461.018	81.19
461.238	74.19
461.458	76.19
461.678	80.19
461.898	79.19
462.118	79.19
462.338	86.19
462.558	90.19
462.777	82.19
462.997	92.19
463.217	82.19
463.437	81.19
463.657	80.19
463.876	66.19
464.096	80.19
464.316	86.19
464.536	90.19
464.755	97.19
464.975	106.19
465.195	166.19
465.414	165.19
465.634	88.19
465.854	86.19
466.073	88.19
466.293	90.19
466.512	84.19
466.732	85.19
466.951	87.19
467.171	89.19
467.391	102.19
467.61	90.19
467.829	100.19
468.049	90.19
468.268	96.19
468.488	85.19
468.707	79.19
468.927	81.19
469.146	81.19
469.365	89.19
469.585	79.19
469.804	80.19
470.023	90.19
470.243	105.19
470.462	95.19
470.681	110.19
470.901	94.19
471.12	72.19
471.339	84.19
471.558	88.19
471.777	84.19
471.997	100.19
472.216	118.19
472.435	157.19
472.654	95.19
472.873	81.19
473.092	82.19
473.311	80.19
473.53	81.19
473.749	83.19
473.968	89.19
474.187	103.19
474.406	96.19
474.625	87.19
474.844	81.19
475.063	68.19
475.282	80.19
475.501	81.19
475.72	91.19
475.939	74.19
476.158	80.19
476.377	84.19
476.596	74.19
476.814	94.19
477.033	83.19
477.252	75.19
477.471	76.19
477.69	91.19
477.908	71.19
478.127	70.19
478.346	82.19
478.564	75.19
478.783	77.19
479.002	82.19
479.22	91.19
479.439	103.19
479.658	90.19
479.876	96.19
480.095	80.19
480.313	80.19
480.532	97.19
480.751	102.19
480.969	115.19
481.188	218.19
481.406	163.19
481.624	106.19
481.843	71.19
482.061	75.19
482.28	82.19
482.498	73.19
482.717	89.19
482.935	87.19
483.153	89.19
483.372	94.19
483.59	97.19
483.808	88.19
484.027	80.19
484.245	74.19
484.463	95.19
484.681	92.19
484.9	91.19
485.118	99.19
485.336	90.19
485.554	94.19
485.772	83.19
485.99	93.19
486.209	102.19
486.427	95.19
486.645	100.19
486.863	124.19
487.081	102.19
487.299	105.19
487.517	97.19
487.735	79.19
487.953	80.19
488.171	82.19
488.389	92.19
488.607	94.19
488.825	85.19
489.043	83.19
489.261	95.19
489.479	81.19
489.696	91.19
489.914	88.19
490.132	93.19
490.35	82.19
490.568	91.19
490.786	87.19
491.003	81.19
491.221	89.19
491.439	64.19
491.657	83.19
491.874	90.19
492.092	83.19
492.31	79.19
492.527	79.19
492.745	80.19
492.963	86.19
493.18	83.19
493.398	89.19
493.615	85.19
493.833	77.19
494.05	91.19
494.268	78.19
494.485	76.19
494.703	78.19
494.92	91.19
495.138	75.19
495.355	83.19
495.573	96.19
495.79	78.19
496.008	98.19
496.225	83.19
496.442	79.19
496.66	91.19
496.877	80.19
497.094	85.19
497.312	91.19
497.529	93.19
497.746	104.19
497.963	94.19
498.181	80.19
498.398	84.19
498.615	97.19
498.832	93.19
499.049	85.19
499.267	78.19
499.484	80.19
499.701	90.19
499.918	93.19
500.135	98.19
500.352	95.19
500.569	80.19
500.786	99.19
501.003	85.19
501.22	95.19
501.437	74.19
501.654	77.19
501.871	103.19
502.088	84.19
502.305	83.19
502.522	85.19
502.739	86.19
502.956	90.19
503.172	89.19
503.389	93.19
503.606	102.19
503.823	103.19
504.04	111.19
504.256	83.19
504.473	89.19
504.69	78.19
504.907	99.19
505.123	88.19
505.34	83.19
505.557	82.19
505.773	88.19
505.99	72.19
506.207	76.19
506.423	90.19
506.64	81.19
506.856	85.19
507.073	107.19
507.289	80.19
507.506	104.19
507.722	112.19
507.939	110.19
508.155	86.19
508.372	88.19
508.588	90.19
508.805	112.19
509.021	96.19
509.238	102.19
509.454	105.19
509.67	103.19
509.887	115.19
510.103	129.19
510.319	226.19
510.536	862.19
510.752	3022.19
510.968	848.19
511.184	184.19
511.401	100.19
511.617	104.19
511.833	85.19
512.049	100.19
512.265	71.19
512.481	73.19
512.698	83.19
512.914	84.19
513.13	83.19
513.346	87.19
513.562	88.19
513.778	104.19
513.994	105.19
514.21	103.19
514.426	106.19
514.642	125.19
514.858	134.19
515.074	179.19
515.29	531.19
515.506	1823.19
515.721	683.19
515.937	170.19
516.153	113.19
516.369	104.19
516.585	85.19
516.801	85.19
517.016	90.19
517.232	86.19
517.448	90.19
517.664	88.19
517.879	96.19
518.095	109.19
518.311	103.19
518.527	88.19
518.742	89.19
518.958	96.19
519.173	98.19
519.389	83.19
519.605	103.19
519.82	99.19
520.036	97.19
520.251	116.19
520.467	106.19
520.682	96.19
520.898	94.19
521.113	111.19
521.329	136.19
521.544	217.19
521.76	662.19
521.975	2920.19
522.19	1853.19
522.406	384.19
522.621	143.19
522.836	99.19
523.052	92.19
523.267	94.19
523.482	93.19
523.698	94.19
523.913	120.19
524.128	102.19
524.343	101.19
524.559	88.19
524.774	84.19
524.989	103.19
525.204	95.19
525.419	89.19
525.634	88.19
525.849	84.19
526.064	100.19
526.28	87.19
526.495	87.19
526.71	82.19
526.925	93.19
527.14	93.19
527.355	81.19
527.57	75.19
527.785	75.19
527.999	86.19
528.214	104.19
528.429	96.19
528.644	93.19
528.859	86.19
529.074	94.19
529.289	133.19
529.503	201.19
529.718	94.19
529.933	71.19
530.148	94.19
530.363	87.19
530.577	85.19
530.792	78.19
531.007	82.19
531.221	95.19
531.436	89.19
531.651	83.19
531.865	87.19
532.08	76.19
532.295	90.19
532.509	91.19
532.724	96.19
532.938	91.19
533.153	82.19
533.367	101.19
533.582	83.19
533.796	84.19
534.011	84.19
534.225	86.19
534.44	98.19
534.654	81.19
534.868	78.19
535.083	97.19
535.297	94.19
535.511	93.19
535.726	104.19
535.94	84.19
536.154	81.19
536.369	92.19
536.583	85.19
536.797	89.19
537.011	91.19
537.225	88.19
537.44	77.19
537.654	78.19
537.868	74.19
538.082	93.19
538.296	85.19
538.51	91.19
538.724	97.19
538.938	88.19
539.153	89.19
539.367	114.19
539.581	85.19
539.795	84.19
540.009	87.19
540.222	82.19
540.436	78.19
540.65	93.19
540.864	88.19
541.078	86.19
541.292	96.19
541.506	98.19
541.72	88.19
541.934	90.19
542.147	95.19
542.361	81.19
542.575	84.19
542.789	79.19
543.002	86.19
543.216	71.19
543.43	85.19
543.644	87.19
543.857	88.19
544.071	86.19
544.285	87.19
544.498	78.19
544.712	92.19
544.925	85.19
545.139	85.19
545.352	83.19
545.566	82.19
545.779	87.19
545.993	86.19
546.206	94.19
546.42	92.19
546.633	96.19
546.847	83.19
547.06	101.19
547.274	81.19
547.487	90.19
547.7	79.19
547.914	72.19
548.127	89.19
548.34	74.19
548.554	77.19
548.767	94.19
548.98	87.19
549.193	78.19
549.407	86.19
549.62	79.19
549.833	67.19
550.046	82.19
550.259	89.19
550.473	84.19
550.686	81.19
550.899	92.19
551.112	96.19
551.325	83.19
551.538	82.19
551.751	57.19
551.964	89.19
552.177	91.19
552.39	78.19
552.603	73.19
552.816	91.19
553.029	94.19
553.242	92.19
553.455	95.19
553.667	113.19
553.88	116.19
554.093	97.19
554.306	90.19
554.519	78.19
554.732	88.19
554.944	68.19
555.157	93.19
555.37	89.19
555.583	85.19
555.795	100.19
556.008	84.19
556.221	85.19
556.433	90.19
556.646	90.19
556.859	83.19
557.071	98.19
557.284	88.19
557.496	79.19
557.709	86.19
557.921	98.19
558.134	65.19
558.346	94.19
558.559	87.19
558.771	93.19
558.984	72.19
559.196	79.19
559.409	67.19
559.621	78.19
559.833	84.19
560.046	82.19
560.258	88.19
560.47	85.19
560.683	90.19
560.895	90.19
561.107	81.19
561.32	81.19
561.532	76.19
561.744	83.19
561.956	73.19
562.168	99.19
562.381	100.19
562.593	102.19
562.805	78.19
563.017	83.19
563.229	86.19
563.441	77.19
563.653	97.19
563.865	89.19
564.077	88.19
564.289	81.19
564.501	97.19
564.713	98.19
564.925	89.19
565.137	93.19
565.349	84.19
565.561	72.19
565.773	87.19
565.985	87.19
566.197	87.19
566.408	79.19
566.62	88.19
566.832	88.19
567.044	81.19
567.255	81.19
567.467	78.19
567.679	75.19
567.891	80.19
568.102	86.19
568.314	81.19
568.526	75.19
568.737	91.19
568.949	97.19
569.161	93.19
569.372	84.19
569.584	91.19
569.795	111.19
570.007	131.19
570.218	274.19
570.43	153.19
570.641	82.19
570.853	86.19
571.064	77.19
571.276	91.19
571.487	80.19
571.698	84.19
571.91	94.19
572.121	75.19
572.333	76.19
572.544	88.19
572.755	84.19
572.966	95.19
573.178	82.19
573.389	78.19
573.6	84.19
573.811	88.19
574.023	81.19
574.234	97.19
574.445	98.19
574.656	80.19
574.867	88.19
575.078	92.19
575.289	90.19
575.501	78.19
575.712	86.19
575.923	81.19
576.134	89.19
576.345	74.19
576.556	98.19
576.767	87.19
576.978	91.19
577.188	93.19
577.399	97.19
577.61	84.19
577.821	93.19
578.032	100.19
578.243	295.19
578.454	927.19
578.665	242.19
578.875	112.19
579.086	96.19
579.297	75.19
579.508	105.19
579.718	84.19
579.929	88.19
580.14	94.19
580.35	90.19
580.561	82.19
580.772	88.19
580.982	77.19
581.193	84.19
581.403	82.19
581.614	79.19
581.825	82.19
582.035	83.19
582.246	82.19
582.456	72.19
582.667	98.19
582.877	96.19
583.087	80.19
583.298	97.19
583.508	92.19
583.719	87.19
583.929	97.19
584.139	67.19
584.35	87.19
584.56	83.19
584.77	80.19
584.981	78.19
585.191	89.19
585.401	101.19
585.611	93.19
585.821	82.19
586.032	97.19
586.242	87.19
586.452	99.19
586.662	97.19
586.872	98.19
587.082	89.19
587.292	75.19
587.502	80.19
587.713	89.19
587.923	93.19
588.133	81.19
588.343	82.19
588.553	90.19
588.762	84.19
588.972	90.19
589.182	185.19
589.392	112.19
589.602	92.19
589.812	149.19
590.022	103.19
590.232	94.19
590.441	83.19
590.651	83.19
590.861	88.19
591.071	86.19
591.281	74.19
591.49	82.19
591.7	86.19
591.91	67.19
592.119	89.19
592.329	95.19
592.539	85.19
592.748	79.19
592.958	98.19
593.167	86.19
593.377	100.19
593.587	98.19
593.796	94.19
594.006	70.19
594.215	65.19
594.424	76.19
594.634	72.19
594.843	93.19
595.053	89.19
595.262	75.19
595.472	90.19
595.681	79.19
595.89	82.19
596.1	95.19
596.309	86.19
596.518	85.19
596.727	74.19
596.937	78.19
597.146	87.19
597.355	75.19
597.564	80.19
597.774	80.19
597.983	82.19
598.192	85.19
598.401	85.19
598.61	86.19
598.819	90.19
599.028	94.19
599.237	75.19
599.446	80.19
599.655	92.19
599.864	91.19
600.073	83.19
600.282	85.19
600.491	101.19
600.7	87.19
600.909	86.19
601.118	75.19
601.327	90.19
601.536	91.19
601.745	87.19
601.953	95.19
602.162	87.19
602.371	93.19
602.58	97.19
602.789	82.19
602.997	81.19
603.206	95.19
603.415	86.19
603.623	86.19
603.832	86.19
604.041	83.19
604.249	95.19
604.458	85.19
604.666	76.19
604.875	94.19
605.084	81.19
605.292	80.19
605.501	71.19
605.709	76.19
605.918	79.19
606.126	99.19
606.334	89.19
606.543	85.19
606.751	85.19
606.96	78.19
607.168	75.19
607.376	97.19
607.585	97.19
607.793	94.19
608.001	89.19
608.21	79.19
608.418	92.19
608.626	88.19
608.834	87.19
609.043	93.19
609.251	85.19
609.459	89.19
609.667	77.19
609.875	76.19
610.083	83.19
610.291	89.19
610.499	87.19
610.707	90.19
610.916	78.19
611.124	80.19
611.332	82.19
611.54	81.19
611.748	81.19
611.955	70.19
612.163	86.19
612.371	86.19
612.579	89.19
612.787	78.19
612.995	80.19
613.203	89.19
613.411	80.19
613.618	81.19
613.826	78.19
614.034	89.19
614.242	82.19
614.449	74.19
614.657	81.19
614.865	100.19
615.072	94.19
615.28	93.19
615.488	89.19
615.695	85.19
615.903	84.19
616.111	84.19
616.318	92.19
616.526	101.19
616.733	96.19
616.941	77.19
617.148	80.19
617.356	78.19
617.563	82.19
617.771	78.19
617.978	86.19
618.185	85.19
618.393	71.19
618.6	75.19
618.807	73.19
619.015	73.19
619.222	87.19
619.429	77.19
619.637	85.19
619.844	83.19
620.051	93.19
620.258	89.19
620.466	84.19
620.673	80.19
620.88	66.19
621.087	87.19
621.294	70.19
621.501	84.19
621.708	74.19
621.915	79.19
622.122	83.19
622.329	82.19
622.536	94.19
622.743	83.19
622.95	82.19
623.157	81.19
623.364	80.19
623.571	79.19
623.778	77.19
623.985	97.19
624.192	91.19
624.399	91.19
624.606	83.19
624.812	74.19
625.019	78.19
625.226	84.19
625.433	89.19
625.639	91.19
625.846	94.19
626.053	84.19
626.259	88.19
626.466	89.19
626.673	102.19
626.879	74.19
627.086	91.19
627.293	85.19
627.499	81.19
627.706	86.19
627.912	58.19
628.119	84.19
628.325	88.19
628.532	76.19
628.738	81.19
628.945	69.19
629.151	65.19
629.357	87.19
629.564	90.19
629.77	83.19
629.976	91.19
630.183	81.19
630.389	86.19
630.595	80.19
630.802	75.19
631.008	72.19
631.214	88.19
631.42	78.19
631.627	88.19
631.833	81.19
632.039	79.19
632.245	80.19
632.451	85.19
632.657	81.19
632.863	78.19
633.069	86.19
633.275	73.19
633.481	82.19
633.688	80.19
633.893	80.19
634.099	90.19
634.305	88.19
634.511	82.19
634.717	84.19
634.923	65.19
635.129	81.19
635.335	82.19
635.541	82.19
635.747	77.19
635.952	90.19
636.158	85.19
636.364	95.19
636.57	98.19
636.775	82.19
636.981	80.19
637.187	81.19
637.392	75.19
637.598	73.19
637.804	80.19
638.009	98.19
638.215	94.19
638.421	70.19
638.626	78.19
638.832	92.19
639.037	82.19
639.243	92.19
639.448	81.19
639.654	85.19
639.859	74.19
640.065	82.19
640.27	94.19
640.475	66.19
640.681	90.19
640.886	89.19
641.091	84.19
641.297	94.19
641.502	90.19
641.707	82.19
641.913	96.19
642.118	83.19
642.323	96.19
642.528	81.19
642.733	90.19
642.939	90.19
643.144	88.19
643.349	83.19
643.554	83.19
643.759	77.19
643.964	73.19
644.169	84.19
644.374	81.19
644.579	98.19
644.784	85.19
644.989	74.19
645.194	88.19
645.399	81.19
645.604	84.19
645.809	79.19
646.014	74.19
646.219	81.19
646.423	77.19
646.628	87.19
646.833	82.19
647.038	86.19
647.243	90.19
647.447	82.19
647.652	75.19
647.857	63.19
648.062	85.19
648.266	79.19
648.471	79.19
648.676	90.19
648.88	85.19
649.085	85.19
649.289	95.19
649.494	98.19
649.698	137.19
649.903	93.19
650.107	88.19
650.312	85.19
650.516	64.19
650.721	86.19
650.925	88.19
651.13	73.19
651.334	83.19
651.539	80.19
651.743	88.19
651.947	77.19
652.152	76.19
652.356	67.19
652.56	81.19
652.764	74.19
652.969	80.19
653.173	73.19
653.377	78.19
653.581	68.19
653.785	74.19
653.99	84.19
654.194	79.19
654.398	88.19
654.602	89.19
654.806	88.19
655.01	110.19
655.214	71.19
655.418	73.19
655.622	103.19
655.826	75.19
656.03	86.19
656.234	79.19
656.438	115.19
656.642	109.19
656.846	89.19
657.049	97.19
657.253	88.19
657.457	75.19
657.661	65.19
657.865	92.19
658.068	73.19
658.272	86.19
658.476	82.19
658.68	81.19
658.883	81.19
659.087	67.19
659.291	86.19
659.494	82.19
659.698	88.19
659.901	84.19
660.105	61.19
660.309	82.19
660.512	83.19
660.716	82.19
660.919	95.19
661.123	87.19
661.326	65.19
661.53	68.19
661.733	82.19
661.936	85.19
662.14	89.19
662.343	66.19
662.546	81.19
662.75	77.19
662.953	82.19
663.156	85.19
663.36	72.19
663.563	90.19
663.766	74.19
663.969	84.19
664.173	72.19
664.376	64.19
664.579	72.19
664.782	79.19
664.985	79.19
665.188	73.19
665.391	86.19
665.594	91.19
665.797	78.19
666	74.19
666.203	70.19
666.406	82.19
666.609	80.19
666.812	76.19
667.015	82.19
667.218	100.19
667.421	76.19
667.624	80.19
667.827	80.19
668.03	85.19
668.232	78.19
668.435	72.19
668.638	80.19
668.841	74.19
669.043	86.19
669.246	80.19
669.449	76.19
669.651	81.19
669.854	87.19
670.057	82.19
670.259	67.19
670.462	70.19
670.665	67.19
670.867	90.19
671.07	85.19
671.272	96.19
671.475	69.19
671.677	82.19
671.88	70.19
672.082	85.19
672.284	75.19
672.487	84.19
672.689	73.19
672.892	64.19
