Data from Circ_2016_H10_HRD10591_00043.txt Node
Date: Wed Jan 03 09:58:49 EST 2024
User: Yrep
Spectrometer: HR+D1059
Trigger mode: 1
Integration Time (sec): 1.000000E-1
Scans to average: 1
Electric dark correction enabled: true
Nonlinearity correction enabled: false
Boxcar width: 0
XAxis mode: Wavelengths
Number of Pixels in Spectrum: 2048
>>>>>Begin Spectral Data<<<<<
223.165	-26.06
223.4	-26.06
223.635	-26.06
223.869	-24.06
224.104	-23.06
224.338	-14.06
224.573	-15.06
224.808	-17.06
225.042	-7.06
225.277	4.94
225.511	-1.06
225.746	6.94
225.98	4.94
226.215	7.94
226.449	7.94
226.683	23.94
226.918	33.94
227.152	36.94
227.387	37.94
227.621	36.94
227.856	43.94
228.09	48.94
228.324	55.94
228.559	56.94
228.793	88.94
229.027	67.94
229.262	75.94
229.496	61.94
229.73	81.94
229.964	87.94
230.199	72.94
230.433	68.94
230.667	84.94
230.901	87.94
231.136	93.94
231.37	94.94
231.604	78.94
231.838	86.94
232.072	85.94
232.306	63.94
232.541	83.94
232.775	83.94
233.009	87.94
233.243	93.94
233.477	87.94
233.711	81.94
233.945	68.94
234.179	73.94
234.413	88.94
234.647	78.94
234.881	75.94
235.115	83.94
235.349	68.94
235.583	81.94
235.817	91.94
236.051	87.94
236.285	68.94
236.519	72.94
236.753	95.94
236.987	82.94
237.221	86.94
237.455	67.94
237.689	80.94
237.922	88.94
238.156	74.94
238.39	78.94
238.624	61.94
238.858	69.94
239.091	83.94
239.325	86.94
239.559	74.94
239.793	84.94
240.027	86.94
240.26	65.94
240.494	65.94
240.728	71.94
240.961	68.94
241.195	74.94
241.429	76.94
241.662	70.94
241.896	83.94
242.13	86.94
242.363	83.94
242.597	68.94
242.83	83.94
243.064	69.94
243.298	76.94
243.531	81.94
243.765	89.94
243.998	71.94
244.232	82.94
244.465	89.94
244.699	77.94
244.932	78.94
245.166	74.94
245.399	86.94
245.633	72.94
245.866	77.94
246.099	83.94
246.333	75.94
246.566	78.94
246.8	72.94
247.033	72.94
247.266	95.94
247.5	86.94
247.733	77.94
247.966	84.94
248.2	77.94
248.433	86.94
248.666	79.94
248.899	86.94
249.133	94.94
249.366	91.94
249.599	96.94
249.832	76.94
250.066	83.94
250.299	90.94
250.532	92.94
250.765	92.94
250.998	78.94
251.231	91.94
251.465	82.94
251.698	80.94
251.931	75.94
252.164	74.94
252.397	72.94
252.63	76.94
252.863	72.94
253.096	82.94
253.329	76.94
253.562	70.94
253.795	79.94
254.028	76.94
254.261	80.94
254.494	81.94
254.727	84.94
254.96	89.94
255.193	89.94
255.426	82.94
255.659	81.94
255.892	72.94
256.124	91.94
256.357	77.94
256.59	76.94
256.823	78.94
257.056	79.94
257.289	83.94
257.521	81.94
257.754	66.94
257.987	68.94
258.22	79.94
258.452	108.94
258.685	86.94
258.918	86.94
259.151	91.94
259.383	84.94
259.616	79.94
259.849	80.94
260.081	64.94
260.314	90.94
260.547	80.94
260.779	75.94
261.012	88.94
261.244	91.94
261.477	86.94
261.71	95.94
261.942	115.94
262.175	109.94
262.407	95.94
262.64	82.94
262.872	96.94
263.105	100.94
263.337	87.94
263.57	80.94
263.802	98.94
264.035	95.94
264.267	72.94
264.499	72.94
264.732	87.94
264.964	85.94
265.197	83.94
265.429	82.94
265.661	88.94
265.894	92.94
266.126	89.94
266.358	74.94
266.591	80.94
266.823	76.94
267.055	84.94
267.287	86.94
267.52	87.94
267.752	85.94
267.984	80.94
268.216	88.94
268.448	75.94
268.681	85.94
268.913	87.94
269.145	94.94
269.377	84.94
269.609	96.94
269.841	84.94
270.073	95.94
270.306	90.94
270.538	80.94
270.77	79.94
271.002	98.94
271.234	86.94
271.466	83.94
271.698	87.94
271.93	80.94
272.162	98.94
272.394	101.94
272.626	99.94
272.858	90.94
273.09	81.94
273.322	80.94
273.553	69.94
273.785	81.94
274.017	80.94
274.249	85.94
274.481	73.94
274.713	93.94
274.945	80.94
275.176	85.94
275.408	101.94
275.64	90.94
275.872	85.94
276.104	87.94
276.335	75.94
276.567	103.94
276.799	117.94
277.031	111.94
277.262	89.94
277.494	91.94
277.726	86.94
277.957	78.94
278.189	84.94
278.421	90.94
278.652	94.94
278.884	83.94
279.115	78.94
279.347	88.94
279.579	83.94
279.81	85.94
280.042	91.94
280.273	86.94
280.505	95.94
280.736	106.94
280.968	88.94
281.199	75.94
281.431	86.94
281.662	86.94
281.894	87.94
282.125	98.94
282.356	112.94
282.588	137.94
282.819	104.94
283.051	97.94
283.282	97.94
283.513	91.94
283.745	86.94
283.976	88.94
284.207	71.94
284.439	95.94
284.67	80.94
284.901	92.94
285.132	92.94
285.364	84.94
285.595	93.94
285.826	76.94
286.057	90.94
286.288	80.94
286.52	89.94
286.751	89.94
286.982	92.94
287.213	76.94
287.444	90.94
287.675	82.94
287.906	97.94
288.138	99.94
288.369	112.94
288.6	97.94
288.831	93.94
289.062	84.94
289.293	87.94
289.524	91.94
289.755	97.94
289.986	87.94
290.217	99.94
290.448	93.94
290.679	94.94
290.91	85.94
291.141	89.94
291.371	98.94
291.602	98.94
291.833	101.94
292.064	80.94
292.295	86.94
292.526	95.94
292.757	89.94
292.987	81.94
293.218	87.94
293.449	84.94
293.68	93.94
293.91	80.94
294.141	92.94
294.372	72.94
294.603	84.94
294.833	84.94
295.064	72.94
295.295	83.94
295.525	95.94
295.756	106.94
295.987	110.94
296.217	137.94
296.448	138.94
296.679	99.94
296.909	104.94
297.14	86.94
297.37	82.94
297.601	91.94
297.831	90.94
298.062	92.94
298.292	94.94
298.523	98.94
298.753	91.94
298.984	104.94
299.214	91.94
299.445	83.94
299.675	91.94
299.905	96.94
300.136	99.94
300.366	91.94
300.597	106.94
300.827	93.94
301.057	97.94
301.288	108.94
301.518	95.94
301.748	89.94
301.979	101.94
302.209	88.94
302.439	93.94
302.669	99.94
302.9	83.94
303.13	84.94
303.36	93.94
303.59	90.94
303.82	114.94
304.051	95.94
304.281	85.94
304.511	103.94
304.741	77.94
304.971	94.94
305.201	106.94
305.431	100.94
305.661	79.94
305.891	91.94
306.121	105.94
306.352	104.94
306.582	106.94
306.812	104.94
307.042	94.94
307.272	111.94
307.502	98.94
307.731	106.94
307.961	100.94
308.191	94.94
308.421	101.94
308.651	82.94
308.881	96.94
309.111	92.94
309.341	84.94
309.571	100.94
309.8	103.94
310.03	91.94
310.26	93.94
310.49	100.94
310.72	90.94
310.949	104.94
311.179	100.94
311.409	112.94
311.639	104.94
311.868	78.94
312.098	96.94
312.328	92.94
312.557	113.94
312.787	95.94
313.017	108.94
313.246	94.94
313.476	104.94
313.706	85.94
313.935	91.94
314.165	100.94
314.394	103.94
314.624	106.94
314.853	107.94
315.083	95.94
315.312	96.94
315.542	92.94
315.771	84.94
316.001	96.94
316.23	100.94
316.46	91.94
316.689	83.94
316.919	83.94
317.148	108.94
317.377	93.94
317.607	104.94
317.836	105.94
318.065	88.94
318.295	98.94
318.524	96.94
318.753	99.94
318.983	93.94
319.212	116.94
319.441	90.94
319.67	116.94
319.9	92.94
320.129	94.94
320.358	90.94
320.587	92.94
320.816	93.94
321.046	98.94
321.275	90.94
321.504	86.94
321.733	91.94
321.962	92.94
322.191	100.94
322.42	110.94
322.649	119.94
322.878	117.94
323.108	107.94
323.337	128.94
323.566	118.94
323.795	152.94
324.024	231.94
324.253	437.94
324.482	930.94
324.71	1862.94
324.939	2448.94
325.168	892.94
325.397	262.94
325.626	159.94
325.855	129.94
326.084	132.94
326.313	132.94
326.542	155.94
326.77	248.94
326.999	510.94
327.228	1032.94
327.457	1912.94
327.686	1473.94
327.914	407.94
328.143	203.94
328.372	140.94
328.6	147.94
328.829	124.94
329.058	131.94
329.287	134.94
329.515	90.94
329.744	111.94
329.972	108.94
330.201	107.94
330.43	126.94
330.658	130.94
330.887	140.94
331.115	116.94
331.344	98.94
331.572	97.94
331.801	114.94
332.03	99.94
332.258	103.94
332.486	95.94
332.715	84.94
332.943	93.94
333.172	98.94
333.4	95.94
333.629	107.94
333.857	108.94
334.085	119.94
334.314	100.94
334.542	125.94
334.771	126.94
334.999	107.94
335.227	99.94
335.455	90.94
335.684	102.94
335.912	93.94
336.14	113.94
336.369	101.94
336.597	106.94
336.825	101.94
337.053	89.94
337.281	80.94
337.51	85.94
337.738	99.94
337.966	97.94
338.194	105.94
338.422	94.94
338.65	88.94
338.878	93.94
339.106	98.94
339.334	84.94
339.562	99.94
339.79	99.94
340.018	90.94
340.246	95.94
340.474	85.94
340.702	98.94
340.93	90.94
341.158	91.94
341.386	79.94
341.614	103.94
341.842	90.94
342.07	97.94
342.298	99.94
342.526	86.94
342.754	94.94
342.981	80.94
343.209	116.94
343.437	102.94
343.665	94.94
343.893	84.94
344.12	93.94
344.348	102.94
344.576	91.94
344.804	94.94
345.031	114.94
345.259	104.94
345.487	99.94
345.714	87.94
345.942	103.94
346.17	96.94
346.397	90.94
346.625	97.94
346.853	84.94
347.08	67.94
347.308	97.94
347.535	107.94
347.763	97.94
347.99	97.94
348.218	89.94
348.445	97.94
348.673	93.94
348.9	92.94
349.128	99.94
349.355	111.94
349.583	90.94
349.81	92.94
350.037	92.94
350.265	95.94
350.492	98.94
350.72	103.94
350.947	85.94
351.174	102.94
351.402	111.94
351.629	123.94
351.856	108.94
352.083	94.94
352.311	111.94
352.538	116.94
352.765	120.94
352.992	118.94
353.22	118.94
353.447	120.94
353.674	103.94
353.901	91.94
354.128	94.94
354.355	115.94
354.583	106.94
354.81	96.94
355.037	108.94
355.264	99.94
355.491	83.94
355.718	88.94
355.945	94.94
356.172	90.94
356.399	95.94
356.626	103.94
356.853	98.94
357.08	103.94
357.307	90.94
357.534	101.94
357.761	98.94
357.988	101.94
358.215	103.94
358.441	114.94
358.668	106.94
358.895	92.94
359.122	107.94
359.349	92.94
359.576	86.94
359.802	105.94
360.029	119.94
360.256	109.94
360.483	96.94
360.709	97.94
360.936	86.94
361.163	84.94
361.39	96.94
361.616	98.94
361.843	104.94
362.07	102.94
362.296	111.94
362.523	103.94
362.749	103.94
362.976	85.94
363.203	85.94
363.429	88.94
363.656	92.94
363.882	78.94
364.109	92.94
364.335	100.94
364.562	95.94
364.788	93.94
365.015	90.94
365.241	103.94
365.468	104.94
365.694	107.94
365.92	106.94
366.147	86.94
366.373	94.94
366.599	86.94
366.826	86.94
367.052	91.94
367.278	86.94
367.505	99.94
367.731	103.94
367.957	86.94
368.184	94.94
368.41	102.94
368.636	101.94
368.862	121.94
369.089	101.94
369.315	100.94
369.541	95.94
369.767	88.94
369.993	96.94
370.219	93.94
370.445	80.94
370.672	80.94
370.898	90.94
371.124	95.94
371.35	93.94
371.576	91.94
371.802	94.94
372.028	79.94
372.254	85.94
372.48	79.94
372.706	72.94
372.932	98.94
373.158	90.94
373.384	102.94
373.61	108.94
373.835	99.94
374.061	96.94
374.287	85.94
374.513	84.94
374.739	102.94
374.965	97.94
375.191	91.94
375.416	90.94
375.642	95.94
375.868	85.94
376.094	83.94
376.319	87.94
376.545	98.94
376.771	103.94
376.997	98.94
377.222	105.94
377.448	111.94
377.674	94.94
377.899	85.94
378.125	95.94
378.35	92.94
378.576	94.94
378.802	102.94
379.027	99.94
379.253	101.94
379.478	90.94
379.704	109.94
379.929	105.94
380.155	107.94
380.38	102.94
380.606	93.94
380.831	94.94
381.057	108.94
381.282	89.94
381.507	101.94
381.733	91.94
381.958	104.94
382.184	104.94
382.409	102.94
382.634	112.94
382.86	103.94
383.085	107.94
383.31	116.94
383.535	112.94
383.761	111.94
383.986	114.94
384.211	109.94
384.436	114.94
384.662	110.94
384.887	124.94
385.112	117.94
385.337	120.94
385.562	132.94
385.787	117.94
386.013	132.94
386.238	132.94
386.463	134.94
386.688	122.94
386.913	127.94
387.138	131.94
387.363	127.94
387.588	116.94
387.813	115.94
388.038	118.94
388.263	148.94
388.488	134.94
388.713	110.94
388.938	107.94
389.163	93.94
389.387	107.94
389.612	82.94
389.837	85.94
390.062	86.94
390.287	89.94
390.512	94.94
390.736	96.94
390.961	94.94
391.186	95.94
391.411	86.94
391.636	79.94
391.86	91.94
392.085	84.94
392.31	88.94
392.534	98.94
392.759	98.94
392.984	90.94
393.208	84.94
393.433	97.94
393.658	99.94
393.882	84.94
394.107	84.94
394.331	85.94
394.556	78.94
394.78	101.94
395.005	91.94
395.229	81.94
395.454	91.94
395.678	69.94
395.903	91.94
396.127	87.94
396.352	74.94
396.576	94.94
396.801	99.94
397.025	108.94
397.249	93.94
397.474	96.94
397.698	81.94
397.922	86.94
398.147	93.94
398.371	86.94
398.595	94.94
398.82	95.94
399.044	99.94
399.268	85.94
399.492	96.94
399.717	94.94
399.941	102.94
400.165	105.94
400.389	93.94
400.613	90.94
400.837	82.94
401.062	87.94
401.286	92.94
401.51	95.94
401.734	80.94
401.958	99.94
402.182	134.94
402.406	154.94
402.63	125.94
402.854	84.94
403.078	86.94
403.302	96.94
403.526	105.94
403.75	102.94
403.974	106.94
404.198	86.94
404.422	88.94
404.645	79.94
404.869	96.94
405.093	95.94
405.317	108.94
405.541	103.94
405.765	106.94
405.988	114.94
406.212	181.94
406.436	229.94
406.66	142.94
406.883	95.94
407.107	98.94
407.331	98.94
407.555	95.94
407.778	115.94
408.002	97.94
408.226	92.94
408.449	94.94
408.673	94.94
408.896	86.94
409.12	89.94
409.344	94.94
409.567	84.94
409.791	88.94
410.014	102.94
410.238	89.94
410.461	101.94
410.685	92.94
410.908	89.94
411.132	114.94
411.355	108.94
411.578	91.94
411.802	87.94
412.025	92.94
412.249	88.94
412.472	90.94
412.695	99.94
412.919	94.94
413.142	89.94
413.365	87.94
413.589	92.94
413.812	84.94
414.035	95.94
414.258	78.94
414.482	98.94
414.705	83.94
414.928	80.94
415.151	89.94
415.374	116.94
415.597	87.94
415.821	91.94
416.044	91.94
416.267	97.94
416.49	101.94
416.713	89.94
416.936	95.94
417.159	95.94
417.382	93.94
417.605	93.94
417.828	92.94
418.051	88.94
418.274	91.94
418.497	92.94
418.72	95.94
418.943	87.94
419.166	86.94
419.389	90.94
419.611	100.94
419.834	88.94
420.057	87.94
420.28	101.94
420.503	89.94
420.726	78.94
420.948	85.94
421.171	103.94
421.394	97.94
421.617	95.94
421.839	92.94
422.062	94.94
422.285	98.94
422.507	93.94
422.73	111.94
422.953	103.94
423.175	93.94
423.398	104.94
423.621	78.94
423.843	73.94
424.066	71.94
424.288	87.94
424.511	99.94
424.733	104.94
424.956	111.94
425.178	122.94
425.401	110.94
425.623	100.94
425.846	95.94
426.068	83.94
426.291	86.94
426.513	89.94
426.735	92.94
426.958	90.94
427.18	109.94
427.402	139.94
427.625	172.94
427.847	135.94
428.069	114.94
428.292	93.94
428.514	95.94
428.736	99.94
428.958	95.94
429.181	94.94
429.403	85.94
429.625	95.94
429.847	101.94
430.069	105.94
430.292	98.94
430.514	83.94
430.736	97.94
430.958	92.94
431.18	82.94
431.402	79.94
431.624	76.94
431.846	100.94
432.068	87.94
432.29	89.94
432.512	92.94
432.734	86.94
432.956	95.94
433.178	111.94
433.4	104.94
433.622	91.94
433.844	99.94
434.066	82.94
434.287	88.94
434.509	87.94
434.731	93.94
434.953	93.94
435.175	88.94
435.397	88.94
435.618	84.94
435.84	94.94
436.062	110.94
436.284	115.94
436.505	110.94
436.727	122.94
436.949	99.94
437.17	77.94
437.392	82.94
437.614	90.94
437.835	109.94
438.057	129.94
438.278	119.94
438.5	98.94
438.721	122.94
438.943	103.94
439.165	99.94
439.386	80.94
439.608	85.94
439.829	104.94
440.05	119.94
440.272	165.94
440.493	96.94
440.715	84.94
440.936	84.94
441.158	86.94
441.379	75.94
441.6	92.94
441.822	98.94
442.043	108.94
442.264	127.94
442.486	110.94
442.707	97.94
442.928	105.94
443.149	123.94
443.371	129.94
443.592	117.94
443.813	138.94
444.034	127.94
444.255	105.94
444.476	84.94
444.698	86.94
444.919	100.94
445.14	142.94
445.361	119.94
445.582	126.94
445.803	143.94
446.024	141.94
446.245	159.94
446.466	118.94
446.687	94.94
446.908	92.94
447.129	90.94
447.35	91.94
447.571	87.94
447.792	91.94
448.013	104.94
448.234	120.94
448.455	117.94
448.675	107.94
448.896	117.94
449.117	99.94
449.338	93.94
449.559	111.94
449.779	141.94
450	96.94
450.221	98.94
450.442	91.94
450.662	87.94
450.883	105.94
451.104	109.94
451.324	93.94
451.545	84.94
451.766	92.94
451.986	91.94
452.207	87.94
452.428	100.94
452.648	102.94
452.869	118.94
453.089	114.94
453.31	120.94
453.53	94.94
453.751	101.94
453.971	96.94
454.192	119.94
454.412	88.94
454.633	84.94
454.853	105.94
455.073	82.94
455.294	96.94
455.514	115.94
455.734	92.94
455.955	82.94
456.175	95.94
456.395	77.94
456.616	79.94
456.836	96.94
457.056	85.94
457.276	86.94
457.497	74.94
457.717	90.94
457.937	88.94
458.157	104.94
458.377	86.94
458.598	96.94
458.818	147.94
459.038	155.94
459.258	129.94
459.478	92.94
459.698	86.94
459.918	108.94
460.138	98.94
460.358	78.94
460.578	93.94
460.798	80.94
461.018	102.94
461.238	80.94
461.458	76.94
461.678	95.94
461.898	86.94
462.118	86.94
462.338	86.94
462.558	91.94
462.777	96.94
462.997	94.94
463.217	89.94
463.437	79.94
463.657	101.94
463.876	92.94
464.096	78.94
464.316	91.94
464.536	91.94
464.755	85.94
464.975	117.94
465.195	164.94
465.414	154.94
465.634	100.94
465.854	94.94
466.073	87.94
466.293	88.94
466.512	79.94
466.732	86.94
466.951	94.94
467.171	97.94
467.391	99.94
467.61	104.94
467.829	101.94
468.049	91.94
468.268	86.94
468.488	87.94
468.707	83.94
468.927	92.94
469.146	98.94
469.365	85.94
469.585	68.94
469.804	95.94
470.023	106.94
470.243	87.94
470.462	101.94
470.681	108.94
470.901	89.94
471.12	88.94
471.339	78.94
471.558	79.94
471.777	84.94
471.997	106.94
472.216	107.94
472.435	113.94
472.654	105.94
472.873	91.94
473.092	88.94
473.311	88.94
473.53	94.94
473.749	89.94
473.968	100.94
474.187	110.94
474.406	116.94
474.625	91.94
474.844	89.94
475.063	81.94
475.282	90.94
475.501	80.94
475.72	91.94
475.939	89.94
476.158	97.94
476.377	93.94
476.596	95.94
476.814	98.94
477.033	85.94
477.252	95.94
477.471	96.94
477.69	87.94
477.908	99.94
478.127	100.94
478.346	76.94
478.564	92.94
478.783	92.94
479.002	79.94
479.22	96.94
479.439	94.94
479.658	94.94
479.876	94.94
480.095	96.94
480.313	96.94
480.532	85.94
480.751	96.94
480.969	108.94
481.188	156.94
481.406	128.94
481.624	103.94
481.843	80.94
482.061	99.94
482.28	80.94
482.498	95.94
482.717	88.94
482.935	79.94
483.153	98.94
483.372	87.94
483.59	83.94
483.808	103.94
484.027	98.94
484.245	95.94
484.463	81.94
484.681	100.94
484.9	84.94
485.118	87.94
485.336	101.94
485.554	92.94
485.772	109.94
485.99	99.94
486.209	109.94
486.427	100.94
486.645	101.94
486.863	127.94
487.081	127.94
487.299	107.94
487.517	98.94
487.735	101.94
487.953	108.94
488.171	103.94
488.389	87.94
488.607	99.94
488.825	96.94
489.043	77.94
489.261	88.94
489.479	103.94
489.696	99.94
489.914	93.94
490.132	98.94
490.35	90.94
490.568	103.94
490.786	88.94
491.003	105.94
491.221	79.94
491.439	96.94
491.657	90.94
491.874	91.94
492.092	99.94
492.31	83.94
492.527	84.94
492.745	89.94
492.963	108.94
493.18	85.94
493.398	98.94
493.615	98.94
493.833	93.94
494.05	90.94
494.268	92.94
494.485	90.94
494.703	96.94
494.92	114.94
495.138	95.94
495.355	79.94
495.573	117.94
495.79	97.94
496.008	88.94
496.225	92.94
496.442	88.94
496.66	90.94
496.877	95.94
497.094	99.94
497.312	91.94
497.529	106.94
497.746	85.94
497.963	107.94
498.181	84.94
498.398	86.94
498.615	114.94
498.832	105.94
499.049	90.94
499.267	91.94
499.484	87.94
499.701	93.94
499.918	83.94
500.135	89.94
500.352	101.94
500.569	101.94
500.786	97.94
501.003	100.94
501.22	88.94
501.437	84.94
501.654	104.94
501.871	110.94
502.088	91.94
502.305	92.94
502.522	90.94
502.739	76.94
502.956	81.94
503.172	85.94
503.389	105.94
503.606	107.94
503.823	87.94
504.04	104.94
504.256	96.94
504.473	79.94
504.69	98.94
504.907	95.94
505.123	86.94
505.34	87.94
505.557	91.94
505.773	95.94
505.99	104.94
506.207	99.94
506.423	98.94
506.64	99.94
506.856	77.94
507.073	94.94
507.289	87.94
507.506	92.94
507.722	105.94
507.939	105.94
508.155	130.94
508.372	92.94
508.588	102.94
508.805	91.94
509.021	106.94
509.238	101.94
509.454	110.94
509.67	108.94
509.887	127.94
510.103	153.94
510.319	227.94
510.536	765.94
510.752	2574.94
510.968	726.94
511.184	184.94
511.401	109.94
511.617	102.94
511.833	102.94
512.049	87.94
512.265	95.94
512.481	87.94
512.698	104.94
512.914	94.94
513.13	94.94
513.346	101.94
513.562	95.94
513.778	94.94
513.994	110.94
514.21	99.94
514.426	118.94
514.642	133.94
514.858	118.94
515.074	163.94
515.29	464.94
515.506	1564.94
515.721	594.94
515.937	162.94
516.153	102.94
516.369	103.94
516.585	96.94
516.801	88.94
517.016	92.94
517.232	102.94
517.448	89.94
517.664	85.94
517.879	91.94
518.095	80.94
518.311	102.94
518.527	92.94
518.742	106.94
518.958	85.94
519.173	85.94
519.389	88.94
519.605	96.94
519.82	98.94
520.036	124.94
520.251	122.94
520.467	107.94
520.682	96.94
520.898	99.94
521.113	123.94
521.329	135.94
521.544	208.94
521.76	544.94
521.975	2491.94
522.19	1612.94
522.406	349.94
522.621	144.94
522.836	121.94
523.052	80.94
523.267	84.94
523.482	105.94
523.698	114.94
523.913	134.94
524.128	115.94
524.343	97.94
524.559	109.94
524.774	98.94
524.989	96.94
525.204	108.94
525.419	114.94
525.634	89.94
525.849	91.94
526.064	99.94
526.28	88.94
526.495	80.94
526.71	106.94
526.925	86.94
527.14	76.94
527.355	93.94
527.57	92.94
527.785	100.94
527.999	98.94
528.214	84.94
528.429	105.94
528.644	107.94
528.859	100.94
529.074	100.94
529.289	129.94
529.503	197.94
529.718	105.94
529.933	104.94
530.148	87.94
530.363	99.94
530.577	100.94
530.792	102.94
531.007	79.94
531.221	100.94
531.436	89.94
531.651	88.94
531.865	86.94
532.08	102.94
532.295	93.94
532.509	85.94
532.724	90.94
532.938	83.94
533.153	90.94
533.367	95.94
533.582	96.94
533.796	95.94
534.011	87.94
534.225	94.94
534.44	93.94
534.654	107.94
534.868	107.94
535.083	110.94
535.297	100.94
535.511	119.94
535.726	111.94
535.94	119.94
536.154	98.94
536.369	107.94
536.583	95.94
536.797	79.94
537.011	75.94
537.225	92.94
537.44	89.94
537.654	88.94
537.868	90.94
538.082	99.94
538.296	92.94
538.51	86.94
538.724	84.94
538.938	85.94
539.153	100.94
539.367	118.94
539.581	100.94
539.795	95.94
540.009	87.94
540.222	91.94
540.436	91.94
540.65	92.94
540.864	107.94
541.078	100.94
541.292	95.94
541.506	87.94
541.72	88.94
541.934	99.94
542.147	91.94
542.361	87.94
542.575	96.94
542.789	99.94
543.002	89.94
543.216	78.94
543.43	103.94
543.644	87.94
543.857	84.94
544.071	85.94
544.285	80.94
544.498	85.94
544.712	85.94
544.925	95.94
545.139	100.94
545.352	91.94
545.566	104.94
545.779	86.94
545.993	95.94
546.206	92.94
546.42	88.94
546.633	96.94
546.847	105.94
547.06	92.94
547.274	75.94
547.487	89.94
547.7	90.94
547.914	83.94
548.127	74.94
548.34	81.94
548.554	90.94
548.767	92.94
548.98	87.94
549.193	88.94
549.407	89.94
549.62	90.94
549.833	84.94
550.046	83.94
550.259	87.94
550.473	88.94
550.686	94.94
550.899	95.94
551.112	80.94
551.325	103.94
551.538	86.94
551.751	87.94
551.964	103.94
552.177	91.94
552.39	108.94
552.603	93.94
552.816	90.94
553.029	87.94
553.242	104.94
553.455	96.94
553.667	117.94
553.88	94.94
554.093	94.94
554.306	88.94
554.519	95.94
554.732	92.94
554.944	98.94
555.157	110.94
555.37	95.94
555.583	87.94
555.795	90.94
556.008	90.94
556.221	83.94
556.433	96.94
556.646	102.94
556.859	99.94
557.071	95.94
557.284	90.94
557.496	82.94
557.709	103.94
557.921	96.94
558.134	81.94
558.346	88.94
558.559	77.94
558.771	78.94
558.984	84.94
559.196	82.94
559.409	89.94
559.621	83.94
559.833	84.94
560.046	93.94
560.258	89.94
560.47	98.94
560.683	107.94
560.895	89.94
561.107	86.94
561.32	75.94
561.532	84.94
561.744	93.94
561.956	88.94
562.168	101.94
562.381	91.94
562.593	98.94
562.805	115.94
563.017	101.94
563.229	103.94
563.441	88.94
563.653	92.94
563.865	90.94
564.077	96.94
564.289	85.94
564.501	98.94
564.713	85.94
564.925	86.94
565.137	111.94
565.349	86.94
565.561	91.94
565.773	92.94
565.985	88.94
566.197	91.94
566.408	99.94
566.62	78.94
566.832	84.94
567.044	92.94
567.255	96.94
567.467	90.94
567.679	90.94
567.891	85.94
568.102	78.94
568.314	88.94
568.526	91.94
568.737	94.94
568.949	97.94
569.161	87.94
569.372	79.94
569.584	94.94
569.795	96.94
570.007	122.94
570.218	252.94
570.43	150.94
570.641	100.94
570.853	88.94
571.064	82.94
571.276	98.94
571.487	74.94
571.698	89.94
571.91	99.94
572.121	87.94
572.333	102.94
572.544	79.94
572.755	100.94
572.966	91.94
573.178	93.94
573.389	105.94
573.6	108.94
573.811	83.94
574.023	92.94
574.234	73.94
574.445	87.94
574.656	82.94
574.867	93.94
575.078	67.94
575.289	90.94
575.501	84.94
575.712	108.94
575.923	94.94
576.134	93.94
576.345	106.94
576.556	96.94
576.767	94.94
576.978	93.94
577.188	97.94
577.399	98.94
577.61	94.94
577.821	93.94
578.032	112.94
578.243	262.94
578.454	782.94
578.665	223.94
578.875	99.94
579.086	103.94
579.297	91.94
579.508	88.94
579.718	93.94
579.929	108.94
580.14	94.94
580.35	99.94
580.561	86.94
580.772	82.94
580.982	91.94
581.193	97.94
581.403	90.94
581.614	98.94
581.825	93.94
582.035	78.94
582.246	90.94
582.456	83.94
582.667	83.94
582.877	88.94
583.087	88.94
583.298	87.94
583.508	92.94
583.719	92.94
583.929	99.94
584.139	91.94
584.35	85.94
584.56	80.94
584.77	90.94
584.981	103.94
585.191	98.94
585.401	82.94
585.611	108.94
585.821	105.94
586.032	87.94
586.242	97.94
586.452	85.94
586.662	99.94
586.872	85.94
587.082	95.94
587.292	95.94
587.502	97.94
587.713	70.94
587.923	104.94
588.133	92.94
588.343	83.94
588.553	81.94
588.762	94.94
588.972	102.94
589.182	234.94
589.392	131.94
589.602	92.94
589.812	161.94
590.022	108.94
590.232	91.94
590.441	66.94
590.651	76.94
590.861	90.94
591.071	88.94
591.281	90.94
591.49	91.94
591.7	80.94
591.91	101.94
592.119	83.94
592.329	84.94
592.539	84.94
592.748	94.94
592.958	89.94
593.167	78.94
593.377	98.94
593.587	96.94
593.796	96.94
594.006	86.94
594.215	89.94
594.424	86.94
594.634	79.94
594.843	79.94
595.053	88.94
595.262	83.94
595.472	87.94
595.681	91.94
595.89	86.94
596.1	83.94
596.309	87.94
596.518	87.94
596.727	90.94
596.937	76.94
597.146	90.94
597.355	97.94
597.564	82.94
597.774	88.94
597.983	86.94
598.192	83.94
598.401	85.94
598.61	104.94
598.819	92.94
599.028	82.94
599.237	81.94
599.446	87.94
599.655	103.94
599.864	83.94
600.073	92.94
600.282	89.94
600.491	77.94
600.7	96.94
600.909	81.94
601.118	82.94
601.327	94.94
601.536	87.94
601.745	94.94
601.953	87.94
602.162	97.94
602.371	87.94
602.58	103.94
602.789	102.94
602.997	101.94
603.206	92.94
603.415	85.94
603.623	89.94
603.832	90.94
604.041	85.94
604.249	87.94
604.458	83.94
604.666	74.94
604.875	95.94
605.084	104.94
605.292	84.94
605.501	99.94
605.709	93.94
605.918	84.94
606.126	88.94
606.334	90.94
606.543	86.94
606.751	80.94
606.96	84.94
607.168	102.94
607.376	91.94
607.585	87.94
607.793	83.94
608.001	88.94
608.21	94.94
608.418	90.94
608.626	85.94
608.834	85.94
609.043	85.94
609.251	90.94
609.459	66.94
609.667	87.94
609.875	87.94
610.083	86.94
610.291	90.94
610.499	80.94
610.707	96.94
610.916	91.94
611.124	100.94
611.332	84.94
611.54	78.94
611.748	91.94
611.955	80.94
612.163	85.94
612.371	96.94
612.579	87.94
612.787	91.94
612.995	86.94
613.203	80.94
613.411	98.94
613.618	103.94
613.826	88.94
614.034	98.94
614.242	86.94
614.449	83.94
614.657	79.94
614.865	76.94
615.072	93.94
615.28	84.94
615.488	85.94
615.695	87.94
615.903	89.94
616.111	95.94
616.318	92.94
616.526	96.94
616.733	88.94
616.941	101.94
617.148	94.94
617.356	84.94
617.563	79.94
617.771	90.94
617.978	85.94
618.185	94.94
618.393	85.94
618.6	102.94
618.807	82.94
619.015	91.94
619.222	83.94
619.429	82.94
619.637	94.94
619.844	72.94
620.051	79.94
620.258	100.94
620.466	85.94
620.673	78.94
620.88	88.94
621.087	92.94
621.294	87.94
621.501	87.94
621.708	103.94
621.915	107.94
622.122	101.94
622.329	93.94
622.536	103.94
622.743	100.94
622.95	99.94
623.157	90.94
623.364	84.94
623.571	89.94
623.778	91.94
623.985	93.94
624.192	98.94
624.399	88.94
624.606	99.94
624.812	95.94
625.019	78.94
625.226	84.94
625.433	99.94
625.639	79.94
625.846	72.94
626.053	98.94
626.259	83.94
626.466	81.94
626.673	85.94
626.879	86.94
627.086	76.94
627.293	94.94
627.499	96.94
627.706	91.94
627.912	76.94
628.119	87.94
628.325	80.94
628.532	93.94
628.738	78.94
628.945	99.94
629.151	94.94
629.357	78.94
629.564	77.94
629.77	88.94
629.976	78.94
630.183	81.94
630.389	92.94
630.595	89.94
630.802	91.94
631.008	95.94
631.214	91.94
631.42	85.94
631.627	91.94
631.833	96.94
632.039	78.94
632.245	95.94
632.451	82.94
632.657	85.94
632.863	79.94
633.069	93.94
633.275	92.94
633.481	84.94
633.688	83.94
633.893	85.94
634.099	83.94
634.305	91.94
634.511	92.94
634.717	84.94
634.923	92.94
635.129	102.94
635.335	75.94
635.541	88.94
635.747	89.94
635.952	80.94
636.158	93.94
636.364	84.94
636.57	100.94
636.775	88.94
636.981	80.94
637.187	91.94
637.392	82.94
637.598	82.94
637.804	92.94
638.009	78.94
638.215	76.94
638.421	82.94
638.626	99.94
638.832	88.94
639.037	82.94
639.243	93.94
639.448	77.94
639.654	84.94
639.859	90.94
640.065	100.94
640.27	95.94
640.475	78.94
640.681	88.94
640.886	88.94
641.091	89.94
641.297	79.94
641.502	87.94
641.707	74.94
641.913	99.94
642.118	84.94
642.323	93.94
642.528	88.94
642.733	102.94
642.939	76.94
643.144	88.94
643.349	80.94
643.554	69.94
643.759	93.94
643.964	80.94
644.169	85.94
644.374	89.94
644.579	94.94
644.784	92.94
644.989	94.94
645.194	80.94
645.399	90.94
645.604	96.94
645.809	93.94
646.014	84.94
646.219	86.94
646.423	80.94
646.628	99.94
646.833	92.94
647.038	92.94
647.243	91.94
647.447	84.94
647.652	90.94
647.857	89.94
648.062	106.94
648.266	88.94
648.471	91.94
648.676	89.94
648.88	87.94
649.085	96.94
649.289	86.94
649.494	113.94
649.698	137.94
649.903	98.94
650.107	85.94
650.312	90.94
650.516	83.94
650.721	85.94
650.925	84.94
651.13	91.94
651.334	76.94
651.539	75.94
651.743	68.94
651.947	84.94
652.152	86.94
652.356	68.94
652.56	80.94
652.764	76.94
652.969	86.94
653.173	85.94
653.377	69.94
653.581	77.94
653.785	83.94
653.99	87.94
654.194	82.94
654.398	78.94
654.602	93.94
654.806	85.94
655.01	106.94
655.214	81.94
655.418	94.94
655.622	90.94
655.826	71.94
656.03	93.94
656.234	96.94
656.438	119.94
656.642	104.94
656.846	103.94
657.049	99.94
657.253	99.94
657.457	98.94
657.661	92.94
657.865	75.94
658.068	70.94
658.272	75.94
658.476	72.94
658.68	86.94
658.883	90.94
659.087	94.94
659.291	76.94
659.494	98.94
659.698	87.94
659.901	72.94
660.105	77.94
660.309	85.94
660.512	84.94
660.716	72.94
660.919	87.94
661.123	76.94
661.326	77.94
661.53	95.94
661.733	77.94
661.936	69.94
662.14	92.94
662.343	99.94
662.546	83.94
662.75	70.94
662.953	98.94
663.156	99.94
663.36	80.94
663.563	66.94
663.766	92.94
663.969	89.94
664.173	80.94
664.376	88.94
664.579	90.94
664.782	83.94
664.985	86.94
665.188	88.94
665.391	85.94
665.594	76.94
665.797	84.94
666	77.94
666.203	85.94
666.406	76.94
666.609	82.94
666.812	68.94
667.015	78.94
667.218	91.94
667.421	76.94
667.624	92.94
667.827	90.94
668.03	78.94
668.232	72.94
668.435	98.94
668.638	102.94
668.841	69.94
669.043	67.94
669.246	75.94
669.449	83.94
669.651	80.94
669.854	77.94
670.057	80.94
670.259	76.94
670.462	80.94
670.665	69.94
670.867	84.94
671.07	83.94
671.272	82.94
671.475	94.94
671.677	77.94
671.88	86.94
672.082	85.94
672.284	77.94
672.487	101.94
672.689	105.94
672.892	74.94
