Data from Uncirc_1986_H10_HRD10591_00097.txt Node
Date: Wed Jan 03 12:14:45 EST 2024
User: Yrep
Spectrometer: HR+D1059
Trigger mode: 1
Integration Time (sec): 1.000000E-1
Scans to average: 1
Electric dark correction enabled: true
Nonlinearity correction enabled: false
Boxcar width: 0
XAxis mode: Wavelengths
Number of Pixels in Spectrum: 2048
>>>>>Begin Spectral Data<<<<<
223.165	-22.44
223.4	-22.44
223.635	-22.44
223.869	-19.44
224.104	-29.44
224.338	-11.44
224.573	-24.44
224.808	-11.44
225.042	-4.44
225.277	-6.44
225.511	-4.44
225.746	-3.44
225.98	10.56
226.215	9.56
226.449	9.56
226.683	32.56
226.918	26.56
227.152	48.56
227.387	37.56
227.621	28.56
227.856	42.56
228.09	46.56
228.324	34.56
228.559	43.56
228.793	45.56
229.027	71.56
229.262	73.56
229.496	67.56
229.73	64.56
229.964	88.56
230.199	75.56
230.433	70.56
230.667	70.56
230.901	79.56
231.136	76.56
231.37	79.56
231.604	88.56
231.838	68.56
232.072	69.56
232.306	76.56
232.541	83.56
232.775	89.56
233.009	73.56
233.243	86.56
233.477	88.56
233.711	86.56
233.945	80.56
234.179	78.56
234.413	80.56
234.647	83.56
234.881	73.56
235.115	80.56
235.349	91.56
235.583	74.56
235.817	97.56
236.051	78.56
236.285	70.56
236.519	79.56
236.753	71.56
236.987	71.56
237.221	94.56
237.455	79.56
237.689	78.56
237.922	70.56
238.156	81.56
238.39	86.56
238.624	70.56
238.858	64.56
239.091	72.56
239.325	76.56
239.559	86.56
239.793	72.56
240.027	67.56
240.26	69.56
240.494	72.56
240.728	92.56
240.961	65.56
241.195	81.56
241.429	83.56
241.662	89.56
241.896	83.56
242.13	79.56
242.363	78.56
242.597	93.56
242.83	81.56
243.064	78.56
243.298	75.56
243.531	80.56
243.765	78.56
243.998	79.56
244.232	84.56
244.465	86.56
244.699	69.56
244.932	74.56
245.166	86.56
245.399	67.56
245.633	84.56
245.866	72.56
246.099	82.56
246.333	85.56
246.566	69.56
246.8	96.56
247.033	85.56
247.266	78.56
247.5	82.56
247.733	83.56
247.966	98.56
248.2	84.56
248.433	83.56
248.666	82.56
248.899	77.56
249.133	85.56
249.366	89.56
249.599	93.56
249.832	92.56
250.066	78.56
250.299	71.56
250.532	80.56
250.765	67.56
250.998	82.56
251.231	78.56
251.465	76.56
251.698	84.56
251.931	83.56
252.164	84.56
252.397	90.56
252.63	82.56
252.863	89.56
253.096	77.56
253.329	75.56
253.562	71.56
253.795	80.56
254.028	98.56
254.261	85.56
254.494	67.56
254.727	71.56
254.96	88.56
255.193	73.56
255.426	80.56
255.659	72.56
255.892	88.56
256.124	95.56
256.357	80.56
256.59	74.56
256.823	88.56
257.056	78.56
257.289	78.56
257.521	79.56
257.754	82.56
257.987	85.56
258.22	73.56
258.452	85.56
258.685	76.56
258.918	94.56
259.151	86.56
259.383	82.56
259.616	82.56
259.849	79.56
260.081	96.56
260.314	71.56
260.547	84.56
260.779	78.56
261.012	84.56
261.244	91.56
261.477	99.56
261.71	88.56
261.942	99.56
262.175	107.56
262.407	83.56
262.64	86.56
262.872	90.56
263.105	84.56
263.337	81.56
263.57	73.56
263.802	89.56
264.035	90.56
264.267	69.56
264.499	82.56
264.732	100.56
264.964	76.56
265.197	90.56
265.429	88.56
265.661	82.56
265.894	80.56
266.126	73.56
266.358	71.56
266.591	76.56
266.823	78.56
267.055	88.56
267.287	91.56
267.52	77.56
267.752	72.56
267.984	75.56
268.216	89.56
268.448	86.56
268.681	95.56
268.913	90.56
269.145	84.56
269.377	96.56
269.609	94.56
269.841	85.56
270.073	86.56
270.306	95.56
270.538	81.56
270.77	75.56
271.002	88.56
271.234	91.56
271.466	83.56
271.698	92.56
271.93	90.56
272.162	79.56
272.394	88.56
272.626	99.56
272.858	75.56
273.09	69.56
273.322	81.56
273.553	84.56
273.785	82.56
274.017	87.56
274.249	87.56
274.481	102.56
274.713	71.56
274.945	89.56
275.176	82.56
275.408	81.56
275.64	79.56
275.872	80.56
276.104	87.56
276.335	87.56
276.567	90.56
276.799	113.56
277.031	99.56
277.262	83.56
277.494	84.56
277.726	93.56
277.957	74.56
278.189	75.56
278.421	73.56
278.652	85.56
278.884	84.56
279.115	81.56
279.347	88.56
279.579	98.56
279.81	88.56
280.042	84.56
280.273	98.56
280.505	75.56
280.736	74.56
280.968	80.56
281.199	74.56
281.431	79.56
281.662	90.56
281.894	91.56
282.125	106.56
282.356	125.56
282.588	130.56
282.819	118.56
283.051	97.56
283.282	86.56
283.513	90.56
283.745	85.56
283.976	88.56
284.207	77.56
284.439	95.56
284.67	84.56
284.901	80.56
285.132	91.56
285.364	97.56
285.595	95.56
285.826	80.56
286.057	91.56
286.288	90.56
286.52	99.56
286.751	88.56
286.982	74.56
287.213	74.56
287.444	86.56
287.675	88.56
287.906	99.56
288.138	70.56
288.369	84.56
288.6	88.56
288.831	98.56
289.062	67.56
289.293	85.56
289.524	85.56
289.755	104.56
289.986	64.56
290.217	88.56
290.448	76.56
290.679	93.56
290.91	89.56
291.141	88.56
291.371	106.56
291.602	89.56
291.833	91.56
292.064	87.56
292.295	87.56
292.526	90.56
292.757	95.56
292.987	76.56
293.218	84.56
293.449	71.56
293.68	99.56
293.91	99.56
294.141	87.56
294.372	82.56
294.603	91.56
294.833	96.56
295.064	86.56
295.295	92.56
295.525	80.56
295.756	102.56
295.987	111.56
296.217	132.56
296.448	122.56
296.679	91.56
296.909	91.56
297.14	91.56
297.37	86.56
297.601	88.56
297.831	93.56
298.062	98.56
298.292	71.56
298.523	96.56
298.753	79.56
298.984	91.56
299.214	88.56
299.445	103.56
299.675	86.56
299.905	91.56
300.136	90.56
300.366	77.56
300.597	107.56
300.827	100.56
301.057	107.56
301.288	111.56
301.518	94.56
301.748	91.56
301.979	103.56
302.209	91.56
302.439	90.56
302.669	93.56
302.9	83.56
303.13	95.56
303.36	86.56
303.59	102.56
303.82	104.56
304.051	99.56
304.281	83.56
304.511	85.56
304.741	93.56
304.971	80.56
305.201	79.56
305.431	98.56
305.661	87.56
305.891	78.56
306.121	91.56
306.352	96.56
306.582	89.56
306.812	87.56
307.042	99.56
307.272	89.56
307.502	106.56
307.731	87.56
307.961	96.56
308.191	92.56
308.421	82.56
308.651	85.56
308.881	112.56
309.111	102.56
309.341	102.56
309.571	92.56
309.8	96.56
310.03	86.56
310.26	97.56
310.49	88.56
310.72	93.56
310.949	106.56
311.179	106.56
311.409	102.56
311.639	98.56
311.868	95.56
312.098	98.56
312.328	110.56
312.557	98.56
312.787	101.56
313.017	94.56
313.246	88.56
313.476	101.56
313.706	87.56
313.935	82.56
314.165	97.56
314.394	110.56
314.624	98.56
314.853	96.56
315.083	104.56
315.312	95.56
315.542	92.56
315.771	105.56
316.001	98.56
316.23	89.56
316.46	94.56
316.689	83.56
316.919	90.56
317.148	102.56
317.377	103.56
317.607	102.56
317.836	98.56
318.065	83.56
318.295	89.56
318.524	73.56
318.753	88.56
318.983	108.56
319.212	102.56
319.441	108.56
319.67	97.56
319.9	105.56
320.129	96.56
320.358	101.56
320.587	103.56
320.816	89.56
321.046	103.56
321.275	103.56
321.504	92.56
321.733	91.56
321.962	92.56
322.191	103.56
322.42	116.56
322.649	99.56
322.878	99.56
323.108	114.56
323.337	130.56
323.566	139.56
323.795	146.56
324.024	209.56
324.253	366.56
324.482	808.56
324.71	1664.56
324.939	2193.56
325.168	779.56
325.397	241.56
325.626	136.56
325.855	131.56
326.084	130.56
326.313	142.56
326.542	156.56
326.77	221.56
326.999	466.56
327.228	934.56
327.457	1728.56
327.686	1384.56
327.914	358.56
328.143	184.56
328.372	142.56
328.6	115.56
328.829	108.56
329.058	113.56
329.287	121.56
329.515	109.56
329.744	109.56
329.972	110.56
330.201	113.56
330.43	132.56
330.658	126.56
330.887	139.56
331.115	118.56
331.344	102.56
331.572	110.56
331.801	116.56
332.03	93.56
332.258	96.56
332.486	88.56
332.715	89.56
332.943	88.56
333.172	86.56
333.4	111.56
333.629	108.56
333.857	96.56
334.085	115.56
334.314	98.56
334.542	122.56
334.771	114.56
334.999	100.56
335.227	95.56
335.455	101.56
335.684	102.56
335.912	98.56
336.14	104.56
336.369	79.56
336.597	95.56
336.825	96.56
337.053	86.56
337.281	105.56
337.51	90.56
337.738	98.56
337.966	89.56
338.194	92.56
338.422	88.56
338.65	86.56
338.878	93.56
339.106	105.56
339.334	101.56
339.562	103.56
339.79	104.56
340.018	86.56
340.246	108.56
340.474	92.56
340.702	90.56
340.93	86.56
341.158	95.56
341.386	83.56
341.614	95.56
341.842	94.56
342.07	96.56
342.298	99.56
342.526	94.56
342.754	95.56
342.981	91.56
343.209	98.56
343.437	111.56
343.665	104.56
343.893	92.56
344.12	100.56
344.348	84.56
344.576	89.56
344.804	86.56
345.031	107.56
345.259	93.56
345.487	86.56
345.714	96.56
345.942	92.56
346.17	90.56
346.397	103.56
346.625	92.56
346.853	90.56
347.08	88.56
347.308	118.56
347.535	98.56
347.763	97.56
347.99	108.56
348.218	106.56
348.445	102.56
348.673	102.56
348.9	96.56
349.128	98.56
349.355	97.56
349.583	87.56
349.81	107.56
350.037	90.56
350.265	89.56
350.492	87.56
350.72	92.56
350.947	92.56
351.174	95.56
351.402	99.56
351.629	93.56
351.856	95.56
352.083	107.56
352.311	92.56
352.538	109.56
352.765	107.56
352.992	114.56
353.22	104.56
353.447	100.56
353.674	93.56
353.901	112.56
354.128	109.56
354.355	92.56
354.583	97.56
354.81	105.56
355.037	97.56
355.264	90.56
355.491	99.56
355.718	96.56
355.945	109.56
356.172	94.56
356.399	103.56
356.626	99.56
356.853	105.56
357.08	88.56
357.307	91.56
357.534	82.56
357.761	84.56
357.988	94.56
358.215	81.56
358.441	84.56
358.668	90.56
358.895	92.56
359.122	97.56
359.349	98.56
359.576	102.56
359.802	94.56
360.029	108.56
360.256	104.56
360.483	103.56
360.709	85.56
360.936	91.56
361.163	95.56
361.39	91.56
361.616	101.56
361.843	109.56
362.07	105.56
362.296	104.56
362.523	90.56
362.749	83.56
362.976	89.56
363.203	95.56
363.429	86.56
363.656	97.56
363.882	98.56
364.109	99.56
364.335	91.56
364.562	89.56
364.788	84.56
365.015	103.56
365.241	90.56
365.468	92.56
365.694	107.56
365.92	102.56
366.147	95.56
366.373	89.56
366.599	85.56
366.826	96.56
367.052	86.56
367.278	106.56
367.505	91.56
367.731	87.56
367.957	92.56
368.184	90.56
368.41	107.56
368.636	112.56
368.862	97.56
369.089	94.56
369.315	106.56
369.541	104.56
369.767	94.56
369.993	98.56
370.219	108.56
370.445	103.56
370.672	73.56
370.898	73.56
371.124	97.56
371.35	92.56
371.576	88.56
371.802	94.56
372.028	90.56
372.254	72.56
372.48	94.56
372.706	80.56
372.932	85.56
373.158	99.56
373.384	95.56
373.61	87.56
373.835	82.56
374.061	83.56
374.287	93.56
374.513	88.56
374.739	92.56
374.965	106.56
375.191	87.56
375.416	97.56
375.642	99.56
375.868	98.56
376.094	94.56
376.319	87.56
376.545	91.56
376.771	87.56
376.997	87.56
377.222	90.56
377.448	103.56
377.674	88.56
377.899	86.56
378.125	86.56
378.35	90.56
378.576	96.56
378.802	78.56
379.027	85.56
379.253	74.56
379.478	83.56
379.704	86.56
379.929	84.56
380.155	85.56
380.38	103.56
380.606	88.56
380.831	92.56
381.057	98.56
381.282	97.56
381.507	96.56
381.733	89.56
381.958	87.56
382.184	86.56
382.409	107.56
382.634	107.56
382.86	97.56
383.085	99.56
383.31	89.56
383.535	106.56
383.761	85.56
383.986	95.56
384.211	80.56
384.436	94.56
384.662	107.56
384.887	106.56
385.112	119.56
385.337	94.56
385.562	94.56
385.787	95.56
386.013	102.56
386.238	103.56
386.463	114.56
386.688	98.56
386.913	90.56
387.138	100.56
387.363	92.56
387.588	100.56
387.813	103.56
388.038	104.56
388.263	112.56
388.488	111.56
388.713	104.56
388.938	100.56
389.163	89.56
389.387	112.56
389.612	102.56
389.837	95.56
390.062	94.56
390.287	103.56
390.512	92.56
390.736	101.56
390.961	83.56
391.186	102.56
391.411	88.56
391.636	106.56
391.86	82.56
392.085	106.56
392.31	97.56
392.534	91.56
392.759	94.56
392.984	94.56
393.208	100.56
393.433	95.56
393.658	90.56
393.882	94.56
394.107	83.56
394.331	96.56
394.556	94.56
394.78	98.56
395.005	91.56
395.229	90.56
395.454	92.56
395.678	94.56
395.903	94.56
396.127	99.56
396.352	91.56
396.576	96.56
396.801	71.56
397.025	76.56
397.249	68.56
397.474	98.56
397.698	80.56
397.922	83.56
398.147	74.56
398.371	94.56
398.595	81.56
398.82	89.56
399.044	99.56
399.268	89.56
399.492	100.56
399.717	101.56
399.941	87.56
400.165	82.56
400.389	87.56
400.613	99.56
400.837	92.56
401.062	80.56
401.286	90.56
401.51	92.56
401.734	96.56
401.958	112.56
402.182	125.56
402.406	146.56
402.63	115.56
402.854	93.56
403.078	96.56
403.302	89.56
403.526	99.56
403.75	82.56
403.974	86.56
404.198	73.56
404.422	80.56
404.645	103.56
404.869	105.56
405.093	108.56
405.317	87.56
405.541	103.56
405.765	108.56
405.988	117.56
406.212	168.56
406.436	216.56
406.66	145.56
406.883	88.56
407.107	90.56
407.331	103.56
407.555	85.56
407.778	98.56
408.002	92.56
408.226	78.56
408.449	98.56
408.673	85.56
408.896	108.56
409.12	105.56
409.344	96.56
409.567	95.56
409.791	97.56
410.014	98.56
410.238	95.56
410.461	94.56
410.685	114.56
410.908	104.56
411.132	118.56
411.355	101.56
411.578	108.56
411.802	84.56
412.025	84.56
412.249	85.56
412.472	97.56
412.695	91.56
412.919	97.56
413.142	86.56
413.365	91.56
413.589	100.56
413.812	84.56
414.035	104.56
414.258	97.56
414.482	92.56
414.705	88.56
414.928	101.56
415.151	88.56
415.374	82.56
415.597	90.56
415.821	76.56
416.044	86.56
416.267	86.56
416.49	69.56
416.713	101.56
416.936	101.56
417.159	90.56
417.382	90.56
417.605	95.56
417.828	83.56
418.051	94.56
418.274	89.56
418.497	96.56
418.72	92.56
418.943	95.56
419.166	74.56
419.389	90.56
419.611	97.56
419.834	86.56
420.057	96.56
420.28	99.56
420.503	77.56
420.726	87.56
420.948	89.56
421.171	104.56
421.394	98.56
421.617	86.56
421.839	92.56
422.062	87.56
422.285	89.56
422.507	101.56
422.73	112.56
422.953	88.56
423.175	104.56
423.398	93.56
423.621	104.56
423.843	94.56
424.066	74.56
424.288	94.56
424.511	90.56
424.733	96.56
424.956	123.56
425.178	98.56
425.401	100.56
425.623	90.56
425.846	90.56
426.068	96.56
426.291	96.56
426.513	91.56
426.735	86.56
426.958	84.56
427.18	110.56
427.402	134.56
427.625	148.56
427.847	119.56
428.069	102.56
428.292	91.56
428.514	84.56
428.736	78.56
428.958	94.56
429.181	88.56
429.403	82.56
429.625	90.56
429.847	87.56
430.069	105.56
430.292	90.56
430.514	88.56
430.736	79.56
430.958	86.56
431.18	88.56
431.402	94.56
431.624	84.56
431.846	72.56
432.068	95.56
432.29	89.56
432.512	95.56
432.734	94.56
432.956	89.56
433.178	102.56
433.4	111.56
433.622	84.56
433.844	75.56
434.066	108.56
434.287	88.56
434.509	100.56
434.731	94.56
434.953	95.56
435.175	80.56
435.397	73.56
435.618	102.56
435.84	105.56
436.062	122.56
436.284	117.56
436.505	118.56
436.727	107.56
436.949	94.56
437.17	84.56
437.392	81.56
437.614	88.56
437.835	107.56
438.057	111.56
438.278	116.56
438.5	102.56
438.721	113.56
438.943	95.56
439.165	99.56
439.386	90.56
439.608	94.56
439.829	114.56
440.05	122.56
440.272	123.56
440.493	87.56
440.715	83.56
440.936	82.56
441.158	92.56
441.379	93.56
441.6	90.56
441.822	84.56
442.043	99.56
442.264	104.56
442.486	90.56
442.707	86.56
442.928	103.56
443.149	113.56
443.371	111.56
443.592	104.56
443.813	123.56
444.034	100.56
444.255	88.56
444.476	86.56
444.698	94.56
444.919	84.56
445.14	131.56
445.361	134.56
445.582	102.56
445.803	121.56
446.024	133.56
446.245	140.56
446.466	123.56
446.687	92.56
446.908	85.56
447.129	95.56
447.35	95.56
447.571	86.56
447.792	87.56
448.013	97.56
448.234	104.56
448.455	102.56
448.675	126.56
448.896	112.56
449.117	115.56
449.338	107.56
449.559	122.56
449.779	141.56
450	98.56
450.221	88.56
450.442	98.56
450.662	103.56
450.883	97.56
451.104	102.56
451.324	80.56
451.545	98.56
451.766	92.56
451.986	82.56
452.207	94.56
452.428	84.56
452.648	90.56
452.869	103.56
453.089	117.56
453.31	132.56
453.53	92.56
453.751	99.56
453.971	107.56
454.192	101.56
454.412	75.56
454.633	86.56
454.853	90.56
455.073	82.56
455.294	84.56
455.514	96.56
455.734	90.56
455.955	88.56
456.175	90.56
456.395	91.56
456.616	87.56
456.836	85.56
457.056	99.56
457.276	81.56
457.497	88.56
457.717	88.56
457.937	90.56
458.157	98.56
458.377	102.56
458.598	109.56
458.818	140.56
459.038	148.56
459.258	110.56
459.478	90.56
459.698	86.56
459.918	90.56
460.138	74.56
460.358	73.56
460.578	92.56
460.798	88.56
461.018	98.56
461.238	91.56
461.458	88.56
461.678	87.56
461.898	89.56
462.118	84.56
462.338	86.56
462.558	82.56
462.777	91.56
462.997	93.56
463.217	95.56
463.437	74.56
463.657	84.56
463.876	85.56
464.096	82.56
464.316	82.56
464.536	97.56
464.755	93.56
464.975	117.56
465.195	154.56
465.414	152.56
465.634	98.56
465.854	84.56
466.073	83.56
466.293	75.56
466.512	90.56
466.732	91.56
466.951	98.56
467.171	91.56
467.391	98.56
467.61	94.56
467.829	106.56
468.049	82.56
468.268	91.56
468.488	92.56
468.707	83.56
468.927	79.56
469.146	79.56
469.365	85.56
469.585	89.56
469.804	112.56
470.023	102.56
470.243	85.56
470.462	94.56
470.681	113.56
470.901	92.56
471.12	82.56
471.339	83.56
471.558	88.56
471.777	94.56
471.997	99.56
472.216	89.56
472.435	110.56
472.654	105.56
472.873	106.56
473.092	88.56
473.311	91.56
473.53	85.56
473.749	91.56
473.968	100.56
474.187	96.56
474.406	93.56
474.625	95.56
474.844	80.56
475.063	75.56
475.282	101.56
475.501	81.56
475.72	79.56
475.939	89.56
476.158	78.56
476.377	91.56
476.596	95.56
476.814	97.56
477.033	94.56
477.252	93.56
477.471	87.56
477.69	95.56
477.908	80.56
478.127	92.56
478.346	98.56
478.564	96.56
478.783	93.56
479.002	103.56
479.22	90.56
479.439	114.56
479.658	95.56
479.876	97.56
480.095	98.56
480.313	91.56
480.532	95.56
480.751	99.56
480.969	104.56
481.188	139.56
481.406	112.56
481.624	98.56
481.843	86.56
482.061	82.56
482.28	82.56
482.498	86.56
482.717	79.56
482.935	86.56
483.153	90.56
483.372	97.56
483.59	96.56
483.808	86.56
484.027	83.56
484.245	88.56
484.463	105.56
484.681	95.56
484.9	96.56
485.118	101.56
485.336	107.56
485.554	99.56
485.772	100.56
485.99	98.56
486.209	113.56
486.427	98.56
486.645	99.56
486.863	119.56
487.081	108.56
487.299	105.56
487.517	92.56
487.735	98.56
487.953	102.56
488.171	90.56
488.389	103.56
488.607	107.56
488.825	94.56
489.043	84.56
489.261	88.56
489.479	91.56
489.696	82.56
489.914	88.56
490.132	78.56
490.35	90.56
490.568	95.56
490.786	111.56
491.003	83.56
491.221	82.56
491.439	86.56
491.657	108.56
491.874	95.56
492.092	75.56
492.31	78.56
492.527	82.56
492.745	88.56
492.963	96.56
493.18	86.56
493.398	89.56
493.615	101.56
493.833	88.56
494.05	95.56
494.268	102.56
494.485	97.56
494.703	110.56
494.92	91.56
495.138	85.56
495.355	87.56
495.573	103.56
495.79	91.56
496.008	100.56
496.225	86.56
496.442	95.56
496.66	97.56
496.877	87.56
497.094	92.56
497.312	92.56
497.529	91.56
497.746	97.56
497.963	103.56
498.181	106.56
498.398	104.56
498.615	120.56
498.832	103.56
499.049	90.56
499.267	100.56
499.484	102.56
499.701	83.56
499.918	86.56
500.135	82.56
500.352	102.56
500.569	93.56
500.786	85.56
501.003	88.56
501.22	89.56
501.437	94.56
501.654	90.56
501.871	113.56
502.088	103.56
502.305	99.56
502.522	92.56
502.739	89.56
502.956	94.56
503.172	89.56
503.389	105.56
503.606	99.56
503.823	110.56
504.04	104.56
504.256	107.56
504.473	79.56
504.69	83.56
504.907	95.56
505.123	89.56
505.34	85.56
505.557	90.56
505.773	100.56
505.99	101.56
506.207	96.56
506.423	84.56
506.64	85.56
506.856	80.56
507.073	94.56
507.289	90.56
507.506	104.56
507.722	115.56
507.939	107.56
508.155	83.56
508.372	86.56
508.588	91.56
508.805	104.56
509.021	94.56
509.238	99.56
509.454	101.56
509.67	89.56
509.887	102.56
510.103	127.56
510.319	213.56
510.536	731.56
510.752	2246.56
510.968	615.56
511.184	148.56
511.401	111.56
511.617	104.56
511.833	103.56
512.049	93.56
512.265	89.56
512.481	80.56
512.698	99.56
512.914	78.56
513.13	92.56
513.346	82.56
513.562	97.56
513.778	107.56
513.994	101.56
514.21	97.56
514.426	96.56
514.642	138.56
514.858	125.56
515.074	155.56
515.29	462.56
515.506	1428.56
515.721	521.56
515.937	150.56
516.153	122.56
516.369	100.56
516.585	87.56
516.801	96.56
517.016	94.56
517.232	105.56
517.448	93.56
517.664	107.56
517.879	90.56
518.095	96.56
518.311	87.56
518.527	85.56
518.742	90.56
518.958	84.56
519.173	79.56
519.389	87.56
519.605	87.56
519.82	101.56
520.036	100.56
520.251	98.56
520.467	113.56
520.682	103.56
520.898	98.56
521.113	99.56
521.329	143.56
521.544	194.56
521.76	538.56
521.975	2323.56
522.19	1392.56
522.406	305.56
522.621	125.56
522.836	102.56
523.052	101.56
523.267	100.56
523.482	88.56
523.698	87.56
523.913	124.56
524.128	102.56
524.343	80.56
524.559	95.56
524.774	89.56
524.989	101.56
525.204	102.56
525.419	98.56
525.634	98.56
525.849	84.56
526.064	90.56
526.28	94.56
526.495	106.56
526.71	80.56
526.925	90.56
527.14	103.56
527.355	85.56
527.57	93.56
527.785	94.56
527.999	84.56
528.214	88.56
528.429	98.56
528.644	108.56
528.859	97.56
529.074	104.56
529.289	116.56
529.503	176.56
529.718	106.56
529.933	105.56
530.148	95.56
530.363	97.56
530.577	84.56
530.792	88.56
531.007	88.56
531.221	97.56
531.436	80.56
531.651	89.56
531.865	101.56
532.08	88.56
532.295	92.56
532.509	103.56
532.724	98.56
532.938	105.56
533.153	96.56
533.367	90.56
533.582	107.56
533.796	92.56
534.011	99.56
534.225	89.56
534.44	96.56
534.654	88.56
534.868	99.56
535.083	99.56
535.297	89.56
535.511	106.56
535.726	102.56
535.94	103.56
536.154	106.56
536.369	84.56
536.583	76.56
536.797	95.56
537.011	98.56
537.225	88.56
537.44	90.56
537.654	94.56
537.868	97.56
538.082	84.56
538.296	89.56
538.51	79.56
538.724	95.56
538.938	106.56
539.153	90.56
539.367	94.56
539.581	99.56
539.795	90.56
540.009	96.56
540.222	92.56
540.436	100.56
540.65	83.56
540.864	86.56
541.078	99.56
541.292	83.56
541.506	95.56
541.72	76.56
541.934	90.56
542.147	80.56
542.361	82.56
542.575	98.56
542.789	96.56
543.002	83.56
543.216	87.56
543.43	106.56
543.644	102.56
543.857	89.56
544.071	100.56
544.285	112.56
544.498	88.56
544.712	98.56
544.925	98.56
545.139	98.56
545.352	94.56
545.566	92.56
545.779	97.56
545.993	105.56
546.206	101.56
546.42	88.56
546.633	82.56
546.847	91.56
547.06	87.56
547.274	104.56
547.487	93.56
547.7	96.56
547.914	96.56
548.127	92.56
548.34	92.56
548.554	79.56
548.767	98.56
548.98	101.56
549.193	99.56
549.407	80.56
549.62	88.56
549.833	72.56
550.046	91.56
550.259	86.56
550.473	92.56
550.686	97.56
550.899	83.56
551.112	83.56
551.325	78.56
551.538	83.56
551.751	94.56
551.964	86.56
552.177	82.56
552.39	86.56
552.603	83.56
552.816	83.56
553.029	98.56
553.242	107.56
553.455	97.56
553.667	103.56
553.88	100.56
554.093	94.56
554.306	99.56
554.519	101.56
554.732	98.56
554.944	74.56
555.157	101.56
555.37	96.56
555.583	90.56
555.795	85.56
556.008	85.56
556.221	90.56
556.433	89.56
556.646	89.56
556.859	89.56
557.071	99.56
557.284	83.56
557.496	86.56
557.709	94.56
557.921	92.56
558.134	101.56
558.346	93.56
558.559	92.56
558.771	87.56
558.984	82.56
559.196	102.56
559.409	78.56
559.621	87.56
559.833	85.56
560.046	93.56
560.258	83.56
560.47	86.56
560.683	83.56
560.895	97.56
561.107	86.56
561.32	86.56
561.532	89.56
561.744	82.56
561.956	91.56
562.168	94.56
562.381	94.56
562.593	95.56
562.805	99.56
563.017	81.56
563.229	101.56
563.441	84.56
563.653	83.56
563.865	85.56
564.077	79.56
564.289	93.56
564.501	102.56
564.713	75.56
564.925	86.56
565.137	94.56
565.349	96.56
565.561	92.56
565.773	91.56
565.985	75.56
566.197	100.56
566.408	97.56
566.62	105.56
566.832	74.56
567.044	91.56
567.255	103.56
567.467	86.56
567.679	102.56
567.891	86.56
568.102	84.56
568.314	101.56
568.526	103.56
568.737	99.56
568.949	86.56
569.161	63.56
569.372	76.56
569.584	92.56
569.795	97.56
570.007	119.56
570.218	242.56
570.43	127.56
570.641	85.56
570.853	86.56
571.064	83.56
571.276	94.56
571.487	86.56
571.698	87.56
571.91	95.56
572.121	98.56
572.333	96.56
572.544	87.56
572.755	84.56
572.966	82.56
573.178	88.56
573.389	72.56
573.6	98.56
573.811	85.56
574.023	90.56
574.234	94.56
574.445	75.56
574.656	96.56
574.867	91.56
575.078	83.56
575.289	78.56
575.501	94.56
575.712	90.56
575.923	98.56
576.134	83.56
576.345	82.56
576.556	94.56
576.767	95.56
576.978	81.56
577.188	93.56
577.399	100.56
577.61	93.56
577.821	103.56
578.032	107.56
578.243	275.56
578.454	754.56
578.665	211.56
578.875	113.56
579.086	84.56
579.297	89.56
579.508	89.56
579.718	91.56
579.929	93.56
580.14	83.56
580.35	82.56
580.561	98.56
580.772	88.56
580.982	83.56
581.193	95.56
581.403	97.56
581.614	83.56
581.825	81.56
582.035	95.56
582.246	84.56
582.456	82.56
582.667	73.56
582.877	90.56
583.087	85.56
583.298	102.56
583.508	90.56
583.719	86.56
583.929	99.56
584.139	88.56
584.35	78.56
584.56	102.56
584.77	87.56
584.981	90.56
585.191	96.56
585.401	91.56
585.611	78.56
585.821	86.56
586.032	96.56
586.242	73.56
586.452	90.56
586.662	91.56
586.872	95.56
587.082	84.56
587.292	89.56
587.502	90.56
587.713	89.56
587.923	81.56
588.133	100.56
588.343	98.56
588.553	98.56
588.762	99.56
588.972	85.56
589.182	88.56
589.392	76.56
589.602	92.56
589.812	75.56
590.022	92.56
590.232	90.56
590.441	83.56
590.651	87.56
590.861	79.56
591.071	72.56
591.281	99.56
591.49	95.56
591.7	84.56
591.91	93.56
592.119	87.56
592.329	87.56
592.539	93.56
592.748	92.56
592.958	84.56
593.167	89.56
593.377	103.56
593.587	99.56
593.796	89.56
594.006	79.56
594.215	75.56
594.424	85.56
594.634	73.56
594.843	92.56
595.053	81.56
595.262	81.56
595.472	88.56
595.681	88.56
595.89	89.56
596.1	105.56
596.309	97.56
596.518	85.56
596.727	82.56
596.937	82.56
597.146	91.56
597.355	78.56
597.564	89.56
597.774	89.56
597.983	87.56
598.192	77.56
598.401	81.56
598.61	68.56
598.819	90.56
599.028	100.56
599.237	84.56
599.446	78.56
599.655	74.56
599.864	81.56
600.073	92.56
600.282	71.56
600.491	90.56
600.7	90.56
600.909	98.56
601.118	96.56
601.327	82.56
601.536	88.56
601.745	84.56
601.953	98.56
602.162	87.56
602.371	98.56
602.58	80.56
602.789	89.56
602.997	93.56
603.206	93.56
603.415	76.56
603.623	96.56
603.832	87.56
604.041	80.56
604.249	76.56
604.458	85.56
604.666	78.56
604.875	90.56
605.084	81.56
605.292	106.56
605.501	82.56
605.709	83.56
605.918	74.56
606.126	86.56
606.334	89.56
606.543	81.56
606.751	89.56
606.96	85.56
607.168	97.56
607.376	82.56
607.585	91.56
607.793	72.56
608.001	86.56
608.21	84.56
608.418	87.56
608.626	98.56
608.834	92.56
609.043	112.56
609.251	94.56
609.459	96.56
609.667	87.56
609.875	86.56
610.083	80.56
610.291	82.56
610.499	88.56
610.707	89.56
610.916	86.56
611.124	101.56
611.332	78.56
611.54	89.56
611.748	88.56
611.955	84.56
612.163	88.56
612.371	93.56
612.579	83.56
612.787	80.56
612.995	85.56
613.203	91.56
613.411	78.56
613.618	74.56
613.826	82.56
614.034	71.56
614.242	82.56
614.449	86.56
614.657	75.56
614.865	84.56
615.072	100.56
615.28	88.56
615.488	81.56
615.695	100.56
615.903	88.56
616.111	100.56
616.318	111.56
616.526	81.56
616.733	86.56
616.941	92.56
617.148	98.56
617.356	100.56
617.563	86.56
617.771	101.56
617.978	86.56
618.185	95.56
618.393	96.56
618.6	99.56
618.807	94.56
619.015	95.56
619.222	80.56
619.429	89.56
619.637	84.56
619.844	81.56
620.051	94.56
620.258	78.56
620.466	92.56
620.673	90.56
620.88	86.56
621.087	80.56
621.294	86.56
621.501	70.56
621.708	97.56
621.915	88.56
622.122	94.56
622.329	95.56
622.536	85.56
622.743	74.56
622.95	98.56
623.157	86.56
623.364	90.56
623.571	105.56
623.778	72.56
623.985	83.56
624.192	84.56
624.399	68.56
624.606	78.56
624.812	83.56
625.019	75.56
625.226	94.56
625.433	80.56
625.639	83.56
625.846	86.56
626.053	84.56
626.259	84.56
626.466	74.56
626.673	84.56
626.879	81.56
627.086	96.56
627.293	87.56
627.499	88.56
627.706	77.56
627.912	80.56
628.119	80.56
628.325	81.56
628.532	87.56
628.738	88.56
628.945	68.56
629.151	85.56
629.357	98.56
629.564	79.56
629.77	80.56
629.976	88.56
630.183	91.56
630.389	85.56
630.595	81.56
630.802	70.56
631.008	70.56
631.214	75.56
631.42	82.56
631.627	75.56
631.833	88.56
632.039	71.56
632.245	96.56
632.451	87.56
632.657	86.56
632.863	73.56
633.069	79.56
633.275	85.56
633.481	91.56
633.688	78.56
633.893	96.56
634.099	80.56
634.305	73.56
634.511	91.56
634.717	82.56
634.923	95.56
635.129	85.56
635.335	73.56
635.541	86.56
635.747	88.56
635.952	91.56
636.158	97.56
636.364	74.56
636.57	87.56
636.775	78.56
636.981	74.56
637.187	80.56
637.392	91.56
637.598	82.56
637.804	86.56
638.009	89.56
638.215	95.56
638.421	99.56
638.626	76.56
638.832	88.56
639.037	72.56
639.243	82.56
639.448	89.56
639.654	65.56
639.859	69.56
640.065	76.56
640.27	83.56
640.475	83.56
640.681	76.56
640.886	67.56
641.091	80.56
641.297	96.56
641.502	82.56
641.707	81.56
641.913	73.56
642.118	82.56
642.323	91.56
642.528	89.56
642.733	92.56
642.939	86.56
643.144	77.56
643.349	86.56
643.554	96.56
643.759	90.56
643.964	96.56
644.169	81.56
644.374	92.56
644.579	93.56
644.784	91.56
644.989	86.56
645.194	98.56
645.399	82.56
645.604	86.56
645.809	87.56
646.014	86.56
646.219	78.56
646.423	93.56
646.628	87.56
646.833	90.56
647.038	94.56
647.243	83.56
647.447	77.56
647.652	92.56
647.857	103.56
648.062	98.56
648.266	87.56
648.471	71.56
648.676	91.56
648.88	82.56
649.085	92.56
649.289	95.56
649.494	95.56
649.698	125.56
649.903	106.56
650.107	81.56
650.312	84.56
650.516	79.56
650.721	87.56
650.925	68.56
651.13	83.56
651.334	75.56
651.539	70.56
651.743	88.56
651.947	65.56
652.152	78.56
652.356	83.56
652.56	90.56
652.764	78.56
652.969	85.56
653.173	78.56
653.377	74.56
653.581	91.56
653.785	81.56
653.99	81.56
654.194	73.56
654.398	78.56
654.602	96.56
654.806	82.56
655.01	101.56
655.214	104.56
655.418	76.56
655.622	91.56
655.826	84.56
656.03	90.56
656.234	87.56
656.438	94.56
656.642	102.56
656.846	91.56
657.049	100.56
657.253	91.56
657.457	90.56
657.661	94.56
657.865	92.56
658.068	82.56
658.272	67.56
658.476	88.56
658.68	75.56
658.883	74.56
659.087	79.56
659.291	85.56
659.494	86.56
659.698	81.56
659.901	86.56
660.105	97.56
660.309	81.56
660.512	76.56
660.716	92.56
660.919	87.56
661.123	87.56
661.326	84.56
661.53	98.56
661.733	95.56
661.936	71.56
662.14	90.56
662.343	74.56
662.546	73.56
662.75	76.56
662.953	86.56
663.156	87.56
663.36	75.56
663.563	79.56
663.766	78.56
663.969	86.56
664.173	82.56
664.376	70.56
664.579	87.56
664.782	77.56
664.985	91.56
665.188	94.56
665.391	76.56
665.594	84.56
665.797	82.56
666	78.56
666.203	75.56
666.406	80.56
666.609	71.56
666.812	91.56
667.015	75.56
667.218	84.56
667.421	81.56
667.624	80.56
667.827	73.56
668.03	76.56
668.232	71.56
668.435	91.56
668.638	86.56
668.841	81.56
669.043	80.56
669.246	75.56
669.449	82.56
669.651	81.56
669.854	76.56
670.057	72.56
670.259	81.56
670.462	72.56
670.665	81.56
670.867	74.56
671.07	98.56
671.272	90.56
671.475	79.56
671.677	79.56
671.88	94.56
672.082	88.56
672.284	86.56
672.487	86.56
672.689	75.56
672.892	81.56
