Data from Uncirc_1986_H10_HRD10591_00021.txt Node
Date: Wed Jan 03 12:14:30 EST 2024
User: Yrep
Spectrometer: HR+D1059
Trigger mode: 1
Integration Time (sec): 1.000000E-1
Scans to average: 1
Electric dark correction enabled: true
Nonlinearity correction enabled: false
Boxcar width: 0
XAxis mode: Wavelengths
Number of Pixels in Spectrum: 2048
>>>>>Begin Spectral Data<<<<<
223.165	-13.31
223.4	-13.31
223.635	-13.31
223.869	-18.31
224.104	-24.31
224.338	-19.31
224.573	-15.31
224.808	-21.31
225.042	-2.31
225.277	-16.31
225.511	-1.31
225.746	4.69
225.98	18.69
226.215	16.69
226.449	19.69
226.683	20.69
226.918	33.69
227.152	17.69
227.387	35.69
227.621	53.69
227.856	43.69
228.09	51.69
228.324	37.69
228.559	50.69
228.793	47.69
229.027	46.69
229.262	70.69
229.496	82.69
229.73	71.69
229.964	71.69
230.199	70.69
230.433	81.69
230.667	83.69
230.901	70.69
231.136	80.69
231.37	73.69
231.604	77.69
231.838	84.69
232.072	80.69
232.306	78.69
232.541	87.69
232.775	84.69
233.009	62.69
233.243	87.69
233.477	83.69
233.711	96.69
233.945	74.69
234.179	89.69
234.413	72.69
234.647	73.69
234.881	81.69
235.115	77.69
235.349	77.69
235.583	66.69
235.817	70.69
236.051	84.69
236.285	71.69
236.519	75.69
236.753	66.69
236.987	80.69
237.221	72.69
237.455	66.69
237.689	69.69
237.922	61.69
238.156	78.69
238.39	77.69
238.624	72.69
238.858	83.69
239.091	64.69
239.325	70.69
239.559	79.69
239.793	69.69
240.027	78.69
240.26	84.69
240.494	78.69
240.728	66.69
240.961	65.69
241.195	74.69
241.429	72.69
241.662	69.69
241.896	68.69
242.13	75.69
242.363	73.69
242.597	71.69
242.83	78.69
243.064	75.69
243.298	68.69
243.531	74.69
243.765	71.69
243.998	88.69
244.232	75.69
244.465	75.69
244.699	73.69
244.932	81.69
245.166	70.69
245.399	77.69
245.633	71.69
245.866	81.69
246.099	69.69
246.333	83.69
246.566	91.69
246.8	82.69
247.033	82.69
247.266	72.69
247.5	69.69
247.733	87.69
247.966	77.69
248.2	82.69
248.433	87.69
248.666	81.69
248.899	82.69
249.133	69.69
249.366	102.69
249.599	96.69
249.832	79.69
250.066	83.69
250.299	80.69
250.532	74.69
250.765	74.69
250.998	88.69
251.231	79.69
251.465	79.69
251.698	77.69
251.931	77.69
252.164	84.69
252.397	97.69
252.63	85.69
252.863	69.69
253.096	87.69
253.329	68.69
253.562	80.69
253.795	80.69
254.028	72.69
254.261	95.69
254.494	71.69
254.727	91.69
254.96	93.69
255.193	72.69
255.426	67.69
255.659	73.69
255.892	87.69
256.124	79.69
256.357	81.69
256.59	73.69
256.823	89.69
257.056	76.69
257.289	81.69
257.521	78.69
257.754	86.69
257.987	79.69
258.22	78.69
258.452	72.69
258.685	81.69
258.918	75.69
259.151	78.69
259.383	73.69
259.616	81.69
259.849	74.69
260.081	84.69
260.314	86.69
260.547	82.69
260.779	70.69
261.012	77.69
261.244	85.69
261.477	99.69
261.71	89.69
261.942	107.69
262.175	104.69
262.407	77.69
262.64	85.69
262.872	89.69
263.105	84.69
263.337	71.69
263.57	91.69
263.802	87.69
264.035	77.69
264.267	84.69
264.499	86.69
264.732	83.69
264.964	87.69
265.197	93.69
265.429	87.69
265.661	87.69
265.894	82.69
266.126	88.69
266.358	84.69
266.591	80.69
266.823	67.69
267.055	90.69
267.287	75.69
267.52	82.69
267.752	85.69
267.984	75.69
268.216	76.69
268.448	100.69
268.681	74.69
268.913	77.69
269.145	83.69
269.377	83.69
269.609	67.69
269.841	81.69
270.073	81.69
270.306	93.69
270.538	84.69
270.77	98.69
271.002	85.69
271.234	84.69
271.466	79.69
271.698	83.69
271.93	73.69
272.162	88.69
272.394	85.69
272.626	82.69
272.858	83.69
273.09	91.69
273.322	92.69
273.553	96.69
273.785	80.69
274.017	64.69
274.249	91.69
274.481	69.69
274.713	80.69
274.945	101.69
275.176	81.69
275.408	80.69
275.64	86.69
275.872	75.69
276.104	81.69
276.335	94.69
276.567	97.69
276.799	94.69
277.031	86.69
277.262	85.69
277.494	82.69
277.726	98.69
277.957	77.69
278.189	82.69
278.421	90.69
278.652	82.69
278.884	85.69
279.115	83.69
279.347	77.69
279.579	91.69
279.81	82.69
280.042	80.69
280.273	89.69
280.505	89.69
280.736	91.69
280.968	80.69
281.199	88.69
281.431	86.69
281.662	93.69
281.894	103.69
282.125	91.69
282.356	99.69
282.588	118.69
282.819	113.69
283.051	91.69
283.282	82.69
283.513	86.69
283.745	93.69
283.976	95.69
284.207	80.69
284.439	82.69
284.67	77.69
284.901	80.69
285.132	89.69
285.364	90.69
285.595	86.69
285.826	80.69
286.057	77.69
286.288	86.69
286.52	85.69
286.751	70.69
286.982	74.69
287.213	100.69
287.444	68.69
287.675	92.69
287.906	97.69
288.138	84.69
288.369	79.69
288.6	89.69
288.831	92.69
289.062	95.69
289.293	93.69
289.524	86.69
289.755	82.69
289.986	81.69
290.217	90.69
290.448	99.69
290.679	88.69
290.91	107.69
291.141	86.69
291.371	80.69
291.602	87.69
291.833	79.69
292.064	83.69
292.295	93.69
292.526	68.69
292.757	83.69
292.987	87.69
293.218	80.69
293.449	85.69
293.68	85.69
293.91	81.69
294.141	87.69
294.372	87.69
294.603	93.69
294.833	92.69
295.064	83.69
295.295	85.69
295.525	97.69
295.756	83.69
295.987	105.69
296.217	94.69
296.448	109.69
296.679	88.69
296.909	71.69
297.14	85.69
297.37	83.69
297.601	77.69
297.831	79.69
298.062	82.69
298.292	75.69
298.523	93.69
298.753	78.69
298.984	95.69
299.214	90.69
299.445	81.69
299.675	89.69
299.905	86.69
300.136	88.69
300.366	89.69
300.597	93.69
300.827	87.69
301.057	104.69
301.288	104.69
301.518	100.69
301.748	96.69
301.979	102.69
302.209	93.69
302.439	85.69
302.669	87.69
302.9	84.69
303.13	84.69
303.36	104.69
303.59	100.69
303.82	91.69
304.051	106.69
304.281	93.69
304.511	88.69
304.741	81.69
304.971	105.69
305.201	96.69
305.431	110.69
305.661	104.69
305.891	92.69
306.121	93.69
306.352	92.69
306.582	94.69
306.812	94.69
307.042	90.69
307.272	95.69
307.502	103.69
307.731	86.69
307.961	94.69
308.191	87.69
308.421	89.69
308.651	81.69
308.881	86.69
309.111	107.69
309.341	90.69
309.571	98.69
309.8	84.69
310.03	87.69
310.26	82.69
310.49	88.69
310.72	91.69
310.949	104.69
311.179	87.69
311.409	104.69
311.639	99.69
311.868	93.69
312.098	87.69
312.328	95.69
312.557	93.69
312.787	94.69
313.017	80.69
313.246	96.69
313.476	85.69
313.706	82.69
313.935	90.69
314.165	103.69
314.394	90.69
314.624	90.69
314.853	96.69
315.083	87.69
315.312	82.69
315.542	87.69
315.771	103.69
316.001	97.69
316.23	87.69
316.46	83.69
316.689	71.69
316.919	93.69
317.148	98.69
317.377	85.69
317.607	89.69
317.836	102.69
318.065	90.69
318.295	94.69
318.524	82.69
318.753	87.69
318.983	93.69
319.212	101.69
319.441	111.69
319.67	105.69
319.9	77.69
320.129	93.69
320.358	92.69
320.587	89.69
320.816	103.69
321.046	95.69
321.275	107.69
321.504	93.69
321.733	97.69
321.962	105.69
322.191	104.69
322.42	100.69
322.649	118.69
322.878	99.69
323.108	111.69
323.337	111.69
323.566	119.69
323.795	149.69
324.024	165.69
324.253	325.69
324.482	684.69
324.71	1348.69
324.939	1825.69
325.168	691.69
325.397	215.69
325.626	137.69
325.855	122.69
326.084	123.69
326.313	107.69
326.542	134.69
326.77	199.69
326.999	389.69
327.228	813.69
327.457	1387.69
327.686	1127.69
327.914	319.69
328.143	166.69
328.372	134.69
328.6	121.69
328.829	101.69
329.058	123.69
329.287	115.69
329.515	89.69
329.744	105.69
329.972	111.69
330.201	103.69
330.43	114.69
330.658	101.69
330.887	125.69
331.115	105.69
331.344	99.69
331.572	93.69
331.801	110.69
332.03	108.69
332.258	95.69
332.486	89.69
332.715	90.69
332.943	98.69
333.172	94.69
333.4	99.69
333.629	92.69
333.857	89.69
334.085	103.69
334.314	93.69
334.542	100.69
334.771	95.69
334.999	95.69
335.227	93.69
335.455	97.69
335.684	88.69
335.912	96.69
336.14	101.69
336.369	87.69
336.597	95.69
336.825	86.69
337.053	95.69
337.281	90.69
337.51	91.69
337.738	85.69
337.966	104.69
338.194	100.69
338.422	97.69
338.65	97.69
338.878	102.69
339.106	86.69
339.334	75.69
339.562	91.69
339.79	77.69
340.018	91.69
340.246	87.69
340.474	93.69
340.702	104.69
340.93	75.69
341.158	81.69
341.386	87.69
341.614	91.69
341.842	84.69
342.07	70.69
342.298	101.69
342.526	86.69
342.754	78.69
342.981	67.69
343.209	102.69
343.437	99.69
343.665	75.69
343.893	82.69
344.12	83.69
344.348	96.69
344.576	103.69
344.804	79.69
345.031	101.69
345.259	81.69
345.487	93.69
345.714	96.69
345.942	97.69
346.17	106.69
346.397	81.69
346.625	89.69
346.853	94.69
347.08	93.69
347.308	97.69
347.535	94.69
347.763	101.69
347.99	107.69
348.218	112.69
348.445	91.69
348.673	93.69
348.9	87.69
349.128	100.69
349.355	102.69
349.583	99.69
349.81	102.69
350.037	103.69
350.265	110.69
350.492	95.69
350.72	83.69
350.947	100.69
351.174	92.69
351.402	110.69
351.629	104.69
351.856	100.69
352.083	90.69
352.311	99.69
352.538	100.69
352.765	104.69
352.992	110.69
353.22	88.69
353.447	104.69
353.674	104.69
353.901	98.69
354.128	89.69
354.355	99.69
354.583	105.69
354.81	99.69
355.037	94.69
355.264	98.69
355.491	92.69
355.718	92.69
355.945	91.69
356.172	90.69
356.399	89.69
356.626	95.69
356.853	103.69
357.08	102.69
357.307	91.69
357.534	86.69
357.761	103.69
357.988	104.69
358.215	85.69
358.441	91.69
358.668	81.69
358.895	88.69
359.122	82.69
359.349	89.69
359.576	85.69
359.802	105.69
360.029	94.69
360.256	96.69
360.483	111.69
360.709	96.69
360.936	77.69
361.163	99.69
361.39	82.69
361.616	90.69
361.843	98.69
362.07	89.69
362.296	81.69
362.523	83.69
362.749	95.69
362.976	98.69
363.203	83.69
363.429	95.69
363.656	84.69
363.882	91.69
364.109	82.69
364.335	98.69
364.562	73.69
364.788	96.69
365.015	118.69
365.241	93.69
365.468	112.69
365.694	97.69
365.92	112.69
366.147	100.69
366.373	97.69
366.599	89.69
366.826	88.69
367.052	84.69
367.278	95.69
367.505	77.69
367.731	98.69
367.957	84.69
368.184	90.69
368.41	77.69
368.636	107.69
368.862	105.69
369.089	90.69
369.315	92.69
369.541	89.69
369.767	90.69
369.993	82.69
370.219	72.69
370.445	79.69
370.672	90.69
370.898	94.69
371.124	94.69
371.35	102.69
371.576	81.69
371.802	84.69
372.028	93.69
372.254	97.69
372.48	73.69
372.706	79.69
372.932	81.69
373.158	93.69
373.384	101.69
373.61	77.69
373.835	74.69
374.061	89.69
374.287	77.69
374.513	85.69
374.739	86.69
374.965	93.69
375.191	85.69
375.416	82.69
375.642	94.69
375.868	105.69
376.094	77.69
376.319	95.69
376.545	69.69
376.771	97.69
376.997	91.69
377.222	81.69
377.448	85.69
377.674	90.69
377.899	85.69
378.125	104.69
378.35	101.69
378.576	99.69
378.802	102.69
379.027	101.69
379.253	90.69
379.478	100.69
379.704	86.69
379.929	90.69
380.155	97.69
380.38	96.69
380.606	82.69
380.831	103.69
381.057	95.69
381.282	90.69
381.507	93.69
381.733	103.69
381.958	85.69
382.184	99.69
382.409	109.69
382.634	101.69
382.86	104.69
383.085	104.69
383.31	88.69
383.535	88.69
383.761	114.69
383.986	113.69
384.211	97.69
384.436	107.69
384.662	89.69
384.887	106.69
385.112	106.69
385.337	96.69
385.562	102.69
385.787	109.69
386.013	111.69
386.238	96.69
386.463	95.69
386.688	113.69
386.913	91.69
387.138	89.69
387.363	101.69
387.588	94.69
387.813	105.69
388.038	99.69
388.263	102.69
388.488	103.69
388.713	102.69
388.938	95.69
389.163	85.69
389.387	100.69
389.612	100.69
389.837	95.69
390.062	93.69
390.287	88.69
390.512	100.69
390.736	94.69
390.961	89.69
391.186	97.69
391.411	91.69
391.636	88.69
391.86	89.69
392.085	93.69
392.31	91.69
392.534	93.69
392.759	79.69
392.984	85.69
393.208	110.69
393.433	104.69
393.658	92.69
393.882	91.69
394.107	95.69
394.331	79.69
394.556	84.69
394.78	92.69
395.005	62.69
395.229	77.69
395.454	90.69
395.678	81.69
395.903	96.69
396.127	86.69
396.352	74.69
396.576	92.69
396.801	100.69
397.025	111.69
397.249	93.69
397.474	98.69
397.698	87.69
397.922	97.69
398.147	98.69
398.371	86.69
398.595	74.69
398.82	84.69
399.044	99.69
399.268	81.69
399.492	79.69
399.717	78.69
399.941	87.69
400.165	98.69
400.389	82.69
400.613	88.69
400.837	77.69
401.062	86.69
401.286	84.69
401.51	86.69
401.734	80.69
401.958	93.69
402.182	113.69
402.406	145.69
402.63	115.69
402.854	81.69
403.078	97.69
403.302	89.69
403.526	95.69
403.75	81.69
403.974	64.69
404.198	88.69
404.422	89.69
404.645	83.69
404.869	89.69
405.093	84.69
405.317	109.69
405.541	91.69
405.765	99.69
405.988	106.69
406.212	157.69
406.436	185.69
406.66	143.69
406.883	90.69
407.107	80.69
407.331	87.69
407.555	105.69
407.778	94.69
408.002	92.69
408.226	93.69
408.449	91.69
408.673	82.69
408.896	77.69
409.12	99.69
409.344	85.69
409.567	70.69
409.791	96.69
410.014	96.69
410.238	86.69
410.461	103.69
410.685	79.69
410.908	113.69
411.132	102.69
411.355	99.69
411.578	83.69
411.802	88.69
412.025	85.69
412.249	83.69
412.472	73.69
412.695	88.69
412.919	97.69
413.142	74.69
413.365	79.69
413.589	87.69
413.812	104.69
414.035	89.69
414.258	98.69
414.482	95.69
414.705	97.69
414.928	88.69
415.151	93.69
415.374	102.69
415.597	85.69
415.821	98.69
416.044	71.69
416.267	85.69
416.49	79.69
416.713	85.69
416.936	89.69
417.159	91.69
417.382	74.69
417.605	72.69
417.828	94.69
418.051	97.69
418.274	81.69
418.497	74.69
418.72	83.69
418.943	97.69
419.166	96.69
419.389	77.69
419.611	85.69
419.834	95.69
420.057	81.69
420.28	85.69
420.503	73.69
420.726	82.69
420.948	81.69
421.171	86.69
421.394	91.69
421.617	86.69
421.839	86.69
422.062	83.69
422.285	107.69
422.507	91.69
422.73	111.69
422.953	94.69
423.175	87.69
423.398	95.69
423.621	92.69
423.843	84.69
424.066	87.69
424.288	87.69
424.511	93.69
424.733	77.69
424.956	98.69
425.178	101.69
425.401	88.69
425.623	93.69
425.846	100.69
426.068	89.69
426.291	96.69
426.513	89.69
426.735	82.69
426.958	93.69
427.18	106.69
427.402	133.69
427.625	138.69
427.847	119.69
428.069	85.69
428.292	93.69
428.514	98.69
428.736	106.69
428.958	86.69
429.181	86.69
429.403	97.69
429.625	83.69
429.847	90.69
430.069	101.69
430.292	86.69
430.514	92.69
430.736	85.69
430.958	84.69
431.18	95.69
431.402	92.69
431.624	83.69
431.846	75.69
432.068	89.69
432.29	94.69
432.512	86.69
432.734	96.69
432.956	86.69
433.178	100.69
433.4	90.69
433.622	93.69
433.844	84.69
434.066	94.69
434.287	89.69
434.509	85.69
434.731	83.69
434.953	91.69
435.175	86.69
435.397	87.69
435.618	83.69
435.84	101.69
436.062	113.69
436.284	95.69
436.505	90.69
436.727	102.69
436.949	85.69
437.17	101.69
437.392	81.69
437.614	92.69
437.835	99.69
438.057	105.69
438.278	102.69
438.5	93.69
438.721	107.69
438.943	107.69
439.165	88.69
439.386	77.69
439.608	79.69
439.829	106.69
440.05	114.69
440.272	109.69
440.493	91.69
440.715	103.69
440.936	88.69
441.158	89.69
441.379	83.69
441.6	94.69
441.822	96.69
442.043	93.69
442.264	101.69
442.486	96.69
442.707	96.69
442.928	82.69
443.149	105.69
443.371	112.69
443.592	106.69
443.813	100.69
444.034	121.69
444.255	109.69
444.476	88.69
444.698	86.69
444.919	93.69
445.14	135.69
445.361	118.69
445.582	101.69
445.803	120.69
446.024	132.69
446.245	120.69
446.466	83.69
446.687	97.69
446.908	86.69
447.129	82.69
447.35	93.69
447.571	81.69
447.792	79.69
448.013	88.69
448.234	99.69
448.455	78.69
448.675	126.69
448.896	107.69
449.117	95.69
449.338	99.69
449.559	116.69
449.779	119.69
450	87.69
450.221	87.69
450.442	74.69
450.662	93.69
450.883	85.69
451.104	96.69
451.324	95.69
451.545	90.69
451.766	95.69
451.986	89.69
452.207	88.69
452.428	71.69
452.648	101.69
452.869	110.69
453.089	105.69
453.31	115.69
453.53	100.69
453.751	74.69
453.971	104.69
454.192	98.69
454.412	72.69
454.633	98.69
454.853	86.69
455.073	93.69
455.294	79.69
455.514	91.69
455.734	89.69
455.955	80.69
456.175	81.69
456.395	79.69
456.616	87.69
456.836	89.69
457.056	89.69
457.276	65.69
457.497	74.69
457.717	88.69
457.937	78.69
458.157	86.69
458.377	93.69
458.598	98.69
458.818	134.69
459.038	139.69
459.258	100.69
459.478	89.69
459.698	66.69
459.918	84.69
460.138	99.69
460.358	82.69
460.578	91.69
460.798	89.69
461.018	73.69
461.238	89.69
461.458	88.69
461.678	94.69
461.898	94.69
462.118	86.69
462.338	77.69
462.558	90.69
462.777	79.69
462.997	70.69
463.217	90.69
463.437	95.69
463.657	95.69
463.876	89.69
464.096	90.69
464.316	86.69
464.536	94.69
464.755	95.69
464.975	102.69
465.195	129.69
465.414	133.69
465.634	95.69
465.854	79.69
466.073	89.69
466.293	103.69
466.512	100.69
466.732	74.69
466.951	103.69
467.171	94.69
467.391	112.69
467.61	101.69
467.829	95.69
468.049	88.69
468.268	68.69
468.488	70.69
468.707	91.69
468.927	74.69
469.146	87.69
469.365	92.69
469.585	85.69
469.804	93.69
470.023	94.69
470.243	81.69
470.462	107.69
470.681	93.69
470.901	87.69
471.12	83.69
471.339	95.69
471.558	88.69
471.777	102.69
471.997	89.69
472.216	81.69
472.435	71.69
472.654	97.69
472.873	92.69
473.092	85.69
473.311	61.69
473.53	69.69
473.749	100.69
473.968	90.69
474.187	99.69
474.406	99.69
474.625	84.69
474.844	86.69
475.063	102.69
475.282	91.69
475.501	87.69
475.72	82.69
475.939	87.69
476.158	100.69
476.377	78.69
476.596	89.69
476.814	96.69
477.033	98.69
477.252	109.69
477.471	81.69
477.69	77.69
477.908	88.69
478.127	92.69
478.346	91.69
478.564	86.69
478.783	94.69
479.002	98.69
479.22	81.69
479.439	97.69
479.658	102.69
479.876	97.69
480.095	86.69
480.313	85.69
480.532	78.69
480.751	75.69
480.969	90.69
481.188	82.69
481.406	91.69
481.624	83.69
481.843	79.69
482.061	91.69
482.28	94.69
482.498	91.69
482.717	94.69
482.935	80.69
483.153	83.69
483.372	74.69
483.59	83.69
483.808	101.69
484.027	80.69
484.245	86.69
484.463	90.69
484.681	84.69
484.9	88.69
485.118	95.69
485.336	94.69
485.554	92.69
485.772	100.69
485.99	99.69
486.209	93.69
486.427	102.69
486.645	101.69
486.863	102.69
487.081	107.69
487.299	109.69
487.517	98.69
487.735	90.69
487.953	103.69
488.171	91.69
488.389	99.69
488.607	89.69
488.825	101.69
489.043	101.69
489.261	100.69
489.479	89.69
489.696	78.69
489.914	77.69
490.132	90.69
490.35	79.69
490.568	93.69
490.786	93.69
491.003	84.69
491.221	93.69
491.439	92.69
491.657	80.69
491.874	91.69
492.092	90.69
492.31	102.69
492.527	93.69
492.745	90.69
492.963	91.69
493.18	78.69
493.398	86.69
493.615	90.69
493.833	87.69
494.05	92.69
494.268	81.69
494.485	76.69
494.703	92.69
494.92	98.69
495.138	75.69
495.355	86.69
495.573	90.69
495.79	84.69
496.008	91.69
496.225	100.69
496.442	90.69
496.66	97.69
496.877	78.69
497.094	86.69
497.312	79.69
497.529	76.69
497.746	83.69
497.963	100.69
498.181	85.69
498.398	103.69
498.615	116.69
498.832	96.69
499.049	82.69
499.267	96.69
499.484	81.69
499.701	80.69
499.918	90.69
500.135	82.69
500.352	77.69
500.569	90.69
500.786	96.69
501.003	106.69
501.22	101.69
501.437	80.69
501.654	85.69
501.871	83.69
502.088	93.69
502.305	97.69
502.522	93.69
502.739	87.69
502.956	91.69
503.172	82.69
503.389	90.69
503.606	115.69
503.823	101.69
504.04	81.69
504.256	99.69
504.473	95.69
504.69	93.69
504.907	85.69
505.123	103.69
505.34	86.69
505.557	78.69
505.773	86.69
505.99	95.69
506.207	91.69
506.423	90.69
506.64	82.69
506.856	94.69
507.073	86.69
507.289	89.69
507.506	97.69
507.722	110.69
507.939	109.69
508.155	97.69
508.372	91.69
508.588	91.69
508.805	91.69
509.021	98.69
509.238	106.69
509.454	99.69
509.67	115.69
509.887	123.69
510.103	123.69
510.319	190.69
510.536	680.69
510.752	1966.69
510.968	559.69
511.184	140.69
511.401	105.69
511.617	91.69
511.833	97.69
512.049	98.69
512.265	91.69
512.481	104.69
512.698	98.69
512.914	93.69
513.13	104.69
513.346	85.69
513.562	98.69
513.778	85.69
513.994	87.69
514.21	85.69
514.426	115.69
514.642	115.69
514.858	123.69
515.074	140.69
515.29	381.69
515.506	1204.69
515.721	456.69
515.937	126.69
516.153	117.69
516.369	94.69
516.585	81.69
516.801	87.69
517.016	95.69
517.232	89.69
517.448	104.69
517.664	88.69
517.879	96.69
518.095	94.69
518.311	98.69
518.527	79.69
518.742	81.69
518.958	90.69
519.173	91.69
519.389	104.69
519.605	99.69
519.82	86.69
520.036	105.69
520.251	105.69
520.467	106.69
520.682	102.69
520.898	87.69
521.113	122.69
521.329	131.69
521.544	190.69
521.76	478.69
521.975	1990.69
522.19	1186.69
522.406	263.69
522.621	112.69
522.836	98.69
523.052	89.69
523.267	83.69
523.482	87.69
523.698	85.69
523.913	109.69
524.128	94.69
524.343	83.69
524.559	98.69
524.774	100.69
524.989	91.69
525.204	97.69
525.419	91.69
525.634	99.69
525.849	94.69
526.064	81.69
526.28	96.69
526.495	89.69
526.71	94.69
526.925	84.69
527.14	81.69
527.355	102.69
527.57	99.69
527.785	100.69
527.999	99.69
528.214	88.69
528.429	93.69
528.644	89.69
528.859	92.69
529.074	99.69
529.289	105.69
529.503	141.69
529.718	93.69
529.933	90.69
530.148	74.69
530.363	87.69
530.577	85.69
530.792	86.69
531.007	85.69
531.221	98.69
531.436	87.69
531.651	84.69
531.865	98.69
532.08	89.69
532.295	91.69
532.509	90.69
532.724	80.69
532.938	82.69
533.153	108.69
533.367	91.69
533.582	93.69
533.796	87.69
534.011	85.69
534.225	90.69
534.44	83.69
534.654	82.69
534.868	88.69
535.083	69.69
535.297	88.69
535.511	89.69
535.726	97.69
535.94	102.69
536.154	101.69
536.369	93.69
536.583	98.69
536.797	86.69
537.011	89.69
537.225	74.69
537.44	77.69
537.654	87.69
537.868	97.69
538.082	90.69
538.296	82.69
538.51	99.69
538.724	90.69
538.938	82.69
539.153	86.69
539.367	106.69
539.581	97.69
539.795	83.69
540.009	90.69
540.222	95.69
540.436	94.69
540.65	84.69
540.864	84.69
541.078	95.69
541.292	97.69
541.506	86.69
541.72	91.69
541.934	100.69
542.147	91.69
542.361	86.69
542.575	101.69
542.789	91.69
543.002	84.69
543.216	95.69
543.43	98.69
543.644	91.69
543.857	105.69
544.071	89.69
544.285	108.69
544.498	92.69
544.712	80.69
544.925	93.69
545.139	91.69
545.352	82.69
545.566	95.69
545.779	95.69
545.993	91.69
546.206	98.69
546.42	93.69
546.633	83.69
546.847	96.69
547.06	78.69
547.274	81.69
547.487	93.69
547.7	81.69
547.914	83.69
548.127	81.69
548.34	72.69
548.554	84.69
548.767	91.69
548.98	85.69
549.193	99.69
549.407	93.69
549.62	102.69
549.833	78.69
550.046	101.69
550.259	92.69
550.473	75.69
550.686	83.69
550.899	82.69
551.112	86.69
551.325	90.69
551.538	83.69
551.751	82.69
551.964	107.69
552.177	93.69
552.39	101.69
552.603	94.69
552.816	82.69
553.029	72.69
553.242	79.69
553.455	100.69
553.667	92.69
553.88	89.69
554.093	99.69
554.306	101.69
554.519	92.69
554.732	87.69
554.944	92.69
555.157	84.69
555.37	88.69
555.583	81.69
555.795	87.69
556.008	89.69
556.221	83.69
556.433	85.69
556.646	88.69
556.859	81.69
557.071	92.69
557.284	95.69
557.496	88.69
557.709	91.69
557.921	87.69
558.134	102.69
558.346	85.69
558.559	94.69
558.771	92.69
558.984	81.69
559.196	87.69
559.409	91.69
559.621	75.69
559.833	72.69
560.046	85.69
560.258	86.69
560.47	83.69
560.683	77.69
560.895	109.69
561.107	78.69
561.32	96.69
561.532	90.69
561.744	97.69
561.956	100.69
562.168	99.69
562.381	94.69
562.593	83.69
562.805	91.69
563.017	81.69
563.229	102.69
563.441	103.69
563.653	93.69
563.865	89.69
564.077	74.69
564.289	87.69
564.501	81.69
564.713	89.69
564.925	104.69
565.137	101.69
565.349	65.69
565.561	93.69
565.773	93.69
565.985	81.69
566.197	89.69
566.408	88.69
566.62	77.69
566.832	72.69
567.044	91.69
567.255	83.69
567.467	89.69
567.679	84.69
567.891	89.69
568.102	94.69
568.314	93.69
568.526	83.69
568.737	103.69
568.949	82.69
569.161	81.69
569.372	87.69
569.584	88.69
569.795	95.69
570.007	115.69
570.218	229.69
570.43	129.69
570.641	91.69
570.853	95.69
571.064	78.69
571.276	87.69
571.487	80.69
571.698	98.69
571.91	89.69
572.121	93.69
572.333	96.69
572.544	82.69
572.755	94.69
572.966	80.69
573.178	96.69
573.389	68.69
573.6	95.69
573.811	87.69
574.023	88.69
574.234	79.69
574.445	88.69
574.656	83.69
574.867	77.69
575.078	85.69
575.289	90.69
575.501	82.69
575.712	84.69
575.923	93.69
576.134	95.69
576.345	94.69
576.556	91.69
576.767	99.69
576.978	97.69
577.188	101.69
577.399	95.69
577.61	98.69
577.821	94.69
578.032	108.69
578.243	245.69
578.454	682.69
578.665	203.69
578.875	101.69
579.086	93.69
579.297	101.69
579.508	96.69
579.718	94.69
579.929	91.69
580.14	75.69
580.35	84.69
580.561	76.69
580.772	96.69
580.982	86.69
581.193	94.69
581.403	89.69
581.614	82.69
581.825	90.69
582.035	89.69
582.246	88.69
582.456	81.69
582.667	79.69
582.877	84.69
583.087	93.69
583.298	79.69
583.508	85.69
583.719	75.69
583.929	97.69
584.139	85.69
584.35	73.69
584.56	81.69
584.77	110.69
584.981	82.69
585.191	87.69
585.401	93.69
585.611	97.69
585.821	78.69
586.032	61.69
586.242	92.69
586.452	84.69
586.662	90.69
586.872	78.69
587.082	80.69
587.292	88.69
587.502	89.69
587.713	77.69
587.923	102.69
588.133	97.69
588.343	84.69
588.553	98.69
588.762	105.69
588.972	90.69
589.182	94.69
589.392	102.69
589.602	87.69
589.812	91.69
590.022	90.69
590.232	96.69
590.441	94.69
590.651	92.69
590.861	78.69
591.071	71.69
591.281	81.69
591.49	64.69
591.7	90.69
591.91	96.69
592.119	85.69
592.329	92.69
592.539	90.69
592.748	94.69
592.958	95.69
593.167	84.69
593.377	91.69
593.587	88.69
593.796	86.69
594.006	79.69
594.215	79.69
594.424	81.69
594.634	76.69
594.843	83.69
595.053	95.69
595.262	89.69
595.472	88.69
595.681	86.69
595.89	69.69
596.1	86.69
596.309	92.69
596.518	95.69
596.727	90.69
596.937	85.69
597.146	91.69
597.355	71.69
597.564	102.69
597.774	84.69
597.983	80.69
598.192	90.69
598.401	82.69
598.61	86.69
598.819	75.69
599.028	86.69
599.237	86.69
599.446	85.69
599.655	75.69
599.864	95.69
600.073	83.69
600.282	98.69
600.491	91.69
600.7	94.69
600.909	90.69
601.118	95.69
601.327	86.69
601.536	96.69
601.745	77.69
601.953	75.69
602.162	75.69
602.371	71.69
602.58	86.69
602.789	80.69
602.997	102.69
603.206	90.69
603.415	90.69
603.623	86.69
603.832	86.69
604.041	81.69
604.249	70.69
604.458	76.69
604.666	61.69
604.875	85.69
605.084	77.69
605.292	83.69
605.501	82.69
605.709	78.69
605.918	83.69
606.126	86.69
606.334	88.69
606.543	82.69
606.751	93.69
606.96	91.69
607.168	85.69
607.376	91.69
607.585	77.69
607.793	95.69
608.001	84.69
608.21	87.69
608.418	95.69
608.626	87.69
608.834	78.69
609.043	73.69
609.251	91.69
609.459	77.69
609.667	81.69
609.875	75.69
610.083	106.69
610.291	87.69
610.499	95.69
610.707	99.69
610.916	83.69
611.124	74.69
611.332	98.69
611.54	87.69
611.748	74.69
611.955	78.69
612.163	92.69
612.371	96.69
612.579	88.69
612.787	94.69
612.995	95.69
613.203	99.69
613.411	100.69
613.618	67.69
613.826	85.69
614.034	83.69
614.242	90.69
614.449	81.69
614.657	85.69
614.865	90.69
615.072	85.69
615.28	99.69
615.488	89.69
615.695	102.69
615.903	90.69
616.111	102.69
616.318	110.69
616.526	95.69
616.733	96.69
616.941	98.69
617.148	93.69
617.356	92.69
617.563	88.69
617.771	93.69
617.978	97.69
618.185	102.69
618.393	83.69
618.6	83.69
618.807	88.69
619.015	88.69
619.222	86.69
619.429	85.69
619.637	90.69
619.844	84.69
620.051	82.69
620.258	83.69
620.466	86.69
620.673	93.69
620.88	93.69
621.087	80.69
621.294	80.69
621.501	82.69
621.708	77.69
621.915	84.69
622.122	82.69
622.329	93.69
622.536	82.69
622.743	88.69
622.95	99.69
623.157	81.69
623.364	97.69
623.571	95.69
623.778	84.69
623.985	82.69
624.192	83.69
624.399	87.69
624.606	81.69
624.812	80.69
625.019	97.69
625.226	81.69
625.433	98.69
625.639	93.69
625.846	77.69
626.053	85.69
626.259	65.69
626.466	93.69
626.673	87.69
626.879	87.69
627.086	82.69
627.293	67.69
627.499	92.69
627.706	86.69
627.912	84.69
628.119	81.69
628.325	92.69
628.532	88.69
628.738	98.69
628.945	83.69
629.151	78.69
629.357	90.69
629.564	75.69
629.77	83.69
629.976	88.69
630.183	98.69
630.389	84.69
630.595	81.69
630.802	78.69
631.008	80.69
631.214	74.69
631.42	73.69
631.627	75.69
631.833	87.69
632.039	72.69
632.245	79.69
632.451	85.69
632.657	77.69
632.863	87.69
633.069	83.69
633.275	86.69
633.481	86.69
633.688	85.69
633.893	79.69
634.099	92.69
634.305	88.69
634.511	94.69
634.717	86.69
634.923	61.69
635.129	74.69
635.335	85.69
635.541	67.69
635.747	89.69
635.952	86.69
636.158	69.69
636.364	77.69
636.57	78.69
636.775	83.69
636.981	85.69
637.187	73.69
637.392	77.69
637.598	83.69
637.804	86.69
638.009	75.69
638.215	79.69
638.421	84.69
638.626	83.69
638.832	69.69
639.037	93.69
639.243	82.69
639.448	71.69
639.654	91.69
639.859	78.69
640.065	81.69
640.27	82.69
640.475	72.69
640.681	90.69
640.886	90.69
641.091	79.69
641.297	67.69
641.502	93.69
641.707	80.69
641.913	75.69
642.118	73.69
642.323	89.69
642.528	84.69
642.733	94.69
642.939	87.69
643.144	83.69
643.349	77.69
643.554	96.69
643.759	77.69
643.964	106.69
644.169	87.69
644.374	89.69
644.579	85.69
644.784	94.69
644.989	77.69
645.194	83.69
645.399	90.69
645.604	88.69
645.809	97.69
646.014	86.69
646.219	77.69
646.423	79.69
646.628	78.69
646.833	105.69
647.038	77.69
647.243	88.69
647.447	71.69
647.652	82.69
647.857	89.69
648.062	100.69
648.266	94.69
648.471	89.69
648.676	95.69
648.88	78.69
649.085	100.69
649.289	97.69
649.494	84.69
649.698	122.69
649.903	100.69
650.107	84.69
650.312	91.69
650.516	83.69
650.721	82.69
650.925	83.69
651.13	78.69
651.334	89.69
651.539	89.69
651.743	79.69
651.947	88.69
652.152	75.69
652.356	79.69
652.56	80.69
652.764	85.69
652.969	87.69
653.173	69.69
653.377	79.69
653.581	85.69
653.785	83.69
653.99	84.69
654.194	60.69
654.398	65.69
654.602	69.69
654.806	84.69
655.01	84.69
655.214	91.69
655.418	80.69
655.622	77.69
655.826	82.69
656.03	95.69
656.234	82.69
656.438	104.69
656.642	99.69
656.846	92.69
657.049	93.69
657.253	63.69
657.457	90.69
657.661	80.69
657.865	78.69
658.068	80.69
658.272	86.69
658.476	73.69
658.68	86.69
658.883	81.69
659.087	79.69
659.291	84.69
659.494	91.69
659.698	77.69
659.901	74.69
660.105	82.69
660.309	94.69
660.512	79.69
660.716	81.69
660.919	81.69
661.123	80.69
661.326	82.69
661.53	77.69
661.733	98.69
661.936	82.69
662.14	91.69
662.343	64.69
662.546	78.69
662.75	77.69
662.953	74.69
663.156	83.69
663.36	99.69
663.563	85.69
663.766	71.69
663.969	82.69
664.173	94.69
664.376	84.69
664.579	70.69
664.782	81.69
664.985	94.69
665.188	86.69
665.391	84.69
665.594	76.69
665.797	68.69
666	67.69
666.203	90.69
666.406	70.69
666.609	75.69
666.812	81.69
667.015	77.69
667.218	72.69
667.421	82.69
667.624	77.69
667.827	68.69
668.03	79.69
668.232	97.69
668.435	80.69
668.638	82.69
668.841	77.69
669.043	74.69
669.246	81.69
669.449	86.69
669.651	80.69
669.854	77.69
670.057	99.69
670.259	84.69
670.462	85.69
670.665	87.69
670.867	95.69
671.07	65.69
671.272	85.69
671.475	93.69
671.677	93.69
671.88	77.69
672.082	71.69
672.284	83.69
672.487	92.69
672.689	78.69
672.892	82.69
