Data from Super_Dry_Prop_25_1_HRD10591_00016.txt Node
Date: Wed Dec 03 14:53:55 EST 2025
User: Yrep
Spectrometer: HR+D1059
Trigger mode: 1
Integration Time (sec): 1.000000E-1
Scans to average: 1
Electric dark correction enabled: true
Nonlinearity correction enabled: false
Boxcar width: 0
XAxis mode: Wavelengths
Number of Pixels in Spectrum: 2048
>>>>>Begin Spectral Data<<<<<
223.165	-15.62
223.4	-15.62
223.635	-15.62
223.869	-14.62
224.104	-11.62
224.338	-20.62
224.573	-13.62
224.808	-7.62
225.042	-16.62
225.277	-18.62
225.511	-3.62
225.746	5.38
225.98	5.38
226.215	16.38
226.449	26.38
226.683	12.38
226.918	28.38
227.152	28.38
227.387	26.38
227.621	38.38
227.856	40.38
228.09	44.38
228.324	37.38
228.559	58.38
228.793	49.38
229.027	54.38
229.262	61.38
229.496	80.38
229.73	66.38
229.964	55.38
230.199	67.38
230.433	71.38
230.667	76.38
230.901	74.38
231.136	76.38
231.37	69.38
231.604	80.38
231.838	85.38
232.072	82.38
232.306	72.38
232.541	82.38
232.775	76.38
233.009	66.38
233.243	70.38
233.477	67.38
233.711	83.38
233.945	82.38
234.179	84.38
234.413	68.38
234.647	83.38
234.881	73.38
235.115	71.38
235.349	65.38
235.583	65.38
235.817	86.38
236.051	70.38
236.285	78.38
236.519	75.38
236.753	75.38
236.987	71.38
237.221	75.38
237.455	86.38
237.689	73.38
237.922	70.38
238.156	76.38
238.39	79.38
238.624	69.38
238.858	63.38
239.091	77.38
239.325	72.38
239.559	62.38
239.793	76.38
240.027	76.38
240.26	84.38
240.494	91.38
240.728	64.38
240.961	76.38
241.195	56.38
241.429	82.38
241.662	71.38
241.896	61.38
242.13	75.38
242.363	66.38
242.597	68.38
242.83	65.38
243.064	74.38
243.298	73.38
243.531	76.38
243.765	74.38
243.998	73.38
244.232	80.38
244.465	72.38
244.699	79.38
244.932	79.38
245.166	77.38
245.399	75.38
245.633	83.38
245.866	58.38
246.099	73.38
246.333	79.38
246.566	77.38
246.8	84.38
247.033	66.38
247.266	80.38
247.5	69.38
247.733	81.38
247.966	74.38
248.2	72.38
248.433	68.38
248.666	84.38
248.899	80.38
249.133	91.38
249.366	76.38
249.599	76.38
249.832	64.38
250.066	75.38
250.299	72.38
250.532	77.38
250.765	84.38
250.998	72.38
251.231	75.38
251.465	67.38
251.698	85.38
251.931	77.38
252.164	72.38
252.397	60.38
252.63	69.38
252.863	78.38
253.096	75.38
253.329	76.38
253.562	76.38
253.795	80.38
254.028	91.38
254.261	80.38
254.494	72.38
254.727	67.38
254.96	77.38
255.193	81.38
255.426	80.38
255.659	69.38
255.892	69.38
256.124	86.38
256.357	81.38
256.59	66.38
256.823	66.38
257.056	77.38
257.289	84.38
257.521	82.38
257.754	71.38
257.987	70.38
258.22	58.38
258.452	86.38
258.685	67.38
258.918	85.38
259.151	81.38
259.383	68.38
259.616	72.38
259.849	74.38
260.081	71.38
260.314	78.38
260.547	92.38
260.779	85.38
261.012	64.38
261.244	68.38
261.477	81.38
261.71	72.38
261.942	68.38
262.175	82.38
262.407	79.38
262.64	72.38
262.872	90.38
263.105	85.38
263.337	86.38
263.57	71.38
263.802	96.38
264.035	82.38
264.267	72.38
264.499	72.38
264.732	64.38
264.964	77.38
265.197	88.38
265.429	72.38
265.661	81.38
265.894	69.38
266.126	80.38
266.358	66.38
266.591	78.38
266.823	75.38
267.055	75.38
267.287	75.38
267.52	78.38
267.752	72.38
267.984	88.38
268.216	83.38
268.448	86.38
268.681	86.38
268.913	96.38
269.145	94.38
269.377	74.38
269.609	76.38
269.841	78.38
270.073	74.38
270.306	77.38
270.538	76.38
270.77	86.38
271.002	78.38
271.234	68.38
271.466	72.38
271.698	75.38
271.93	86.38
272.162	86.38
272.394	95.38
272.626	80.38
272.858	76.38
273.09	95.38
273.322	78.38
273.553	63.38
273.785	84.38
274.017	86.38
274.249	81.38
274.481	71.38
274.713	75.38
274.945	92.38
275.176	65.38
275.408	76.38
275.64	77.38
275.872	80.38
276.104	85.38
276.335	68.38
276.567	85.38
276.799	81.38
277.031	70.38
277.262	74.38
277.494	76.38
277.726	76.38
277.957	75.38
278.189	84.38
278.421	85.38
278.652	82.38
278.884	86.38
279.115	86.38
279.347	82.38
279.579	62.38
279.81	74.38
280.042	67.38
280.273	68.38
280.505	89.38
280.736	97.38
280.968	73.38
281.199	89.38
281.431	62.38
281.662	76.38
281.894	83.38
282.125	70.38
282.356	68.38
282.588	75.38
282.819	79.38
283.051	84.38
283.282	69.38
283.513	81.38
283.745	81.38
283.976	79.38
284.207	85.38
284.439	81.38
284.67	86.38
284.901	71.38
285.132	77.38
285.364	79.38
285.595	86.38
285.826	63.38
286.057	70.38
286.288	89.38
286.52	82.38
286.751	72.38
286.982	81.38
287.213	79.38
287.444	84.38
287.675	84.38
287.906	80.38
288.138	81.38
288.369	66.38
288.6	92.38
288.831	73.38
289.062	81.38
289.293	86.38
289.524	92.38
289.755	83.38
289.986	80.38
290.217	80.38
290.448	89.38
290.679	78.38
290.91	77.38
291.141	84.38
291.371	69.38
291.602	73.38
291.833	79.38
292.064	75.38
292.295	79.38
292.526	92.38
292.757	84.38
292.987	86.38
293.218	79.38
293.449	80.38
293.68	72.38
293.91	73.38
294.141	73.38
294.372	71.38
294.603	86.38
294.833	92.38
295.064	74.38
295.295	67.38
295.525	70.38
295.756	86.38
295.987	72.38
296.217	62.38
296.448	76.38
296.679	86.38
296.909	83.38
297.14	74.38
297.37	86.38
297.601	73.38
297.831	81.38
298.062	74.38
298.292	89.38
298.523	79.38
298.753	82.38
298.984	88.38
299.214	77.38
299.445	77.38
299.675	74.38
299.905	69.38
300.136	90.38
300.366	78.38
300.597	81.38
300.827	82.38
301.057	84.38
301.288	82.38
301.518	88.38
301.748	84.38
301.979	80.38
302.209	71.38
302.439	84.38
302.669	78.38
302.9	83.38
303.13	85.38
303.36	70.38
303.59	96.38
303.82	93.38
304.051	72.38
304.281	69.38
304.511	82.38
304.741	81.38
304.971	86.38
305.201	83.38
305.431	68.38
305.661	81.38
305.891	70.38
306.121	82.38
306.352	83.38
306.582	80.38
306.812	88.38
307.042	82.38
307.272	81.38
307.502	76.38
307.731	73.38
307.961	66.38
308.191	87.38
308.421	69.38
308.651	81.38
308.881	70.38
309.111	105.38
309.341	84.38
309.571	73.38
309.8	88.38
310.03	84.38
310.26	74.38
310.49	82.38
310.72	90.38
310.949	76.38
311.179	78.38
311.409	84.38
311.639	90.38
311.868	78.38
312.098	93.38
312.328	75.38
312.557	81.38
312.787	76.38
313.017	73.38
313.246	72.38
313.476	84.38
313.706	77.38
313.935	84.38
314.165	91.38
314.394	81.38
314.624	84.38
314.853	86.38
315.083	84.38
315.312	81.38
315.542	74.38
315.771	84.38
316.001	69.38
316.23	80.38
316.46	73.38
316.689	80.38
316.919	81.38
317.148	92.38
317.377	82.38
317.607	94.38
317.836	97.38
318.065	90.38
318.295	80.38
318.524	77.38
318.753	74.38
318.983	71.38
319.212	84.38
319.441	74.38
319.67	81.38
319.9	83.38
320.129	79.38
320.358	82.38
320.587	85.38
320.816	78.38
321.046	82.38
321.275	81.38
321.504	88.38
321.733	81.38
321.962	68.38
322.191	79.38
322.42	82.38
322.649	78.38
322.878	76.38
323.108	86.38
323.337	73.38
323.566	83.38
323.795	70.38
324.024	81.38
324.253	66.38
324.482	74.38
324.71	83.38
324.939	80.38
325.168	88.38
325.397	96.38
325.626	68.38
325.855	98.38
326.084	73.38
326.313	90.38
326.542	90.38
326.77	75.38
326.999	72.38
327.228	74.38
327.457	95.38
327.686	102.38
327.914	76.38
328.143	80.38
328.372	66.38
328.6	84.38
328.829	78.38
329.058	74.38
329.287	79.38
329.515	80.38
329.744	79.38
329.972	95.38
330.201	72.38
330.43	79.38
330.658	89.38
330.887	93.38
331.115	90.38
331.344	92.38
331.572	87.38
331.801	84.38
332.03	90.38
332.258	76.38
332.486	69.38
332.715	89.38
332.943	95.38
333.172	90.38
333.4	80.38
333.629	84.38
333.857	68.38
334.085	68.38
334.314	88.38
334.542	93.38
334.771	85.38
334.999	94.38
335.227	91.38
335.455	84.38
335.684	100.38
335.912	84.38
336.14	82.38
336.369	87.38
336.597	84.38
336.825	93.38
337.053	85.38
337.281	88.38
337.51	86.38
337.738	78.38
337.966	66.38
338.194	77.38
338.422	70.38
338.65	84.38
338.878	81.38
339.106	77.38
339.334	82.38
339.562	82.38
339.79	81.38
340.018	73.38
340.246	68.38
340.474	72.38
340.702	68.38
340.93	72.38
341.158	98.38
341.386	77.38
341.614	76.38
341.842	90.38
342.07	83.38
342.298	60.38
342.526	77.38
342.754	80.38
342.981	70.38
343.209	82.38
343.437	95.38
343.665	84.38
343.893	89.38
344.12	84.38
344.348	74.38
344.576	75.38
344.804	81.38
345.031	74.38
345.259	73.38
345.487	85.38
345.714	78.38
345.942	83.38
346.17	80.38
346.397	78.38
346.625	79.38
346.853	75.38
347.08	91.38
347.308	82.38
347.535	69.38
347.763	64.38
347.99	80.38
348.218	72.38
348.445	72.38
348.673	80.38
348.9	76.38
349.128	76.38
349.355	65.38
349.583	72.38
349.81	78.38
350.037	69.38
350.265	81.38
350.492	81.38
350.72	84.38
350.947	75.38
351.174	91.38
351.402	90.38
351.629	95.38
351.856	80.38
352.083	90.38
352.311	85.38
352.538	84.38
352.765	75.38
352.992	81.38
353.22	76.38
353.447	88.38
353.674	78.38
353.901	82.38
354.128	96.38
354.355	66.38
354.583	69.38
354.81	78.38
355.037	93.38
355.264	82.38
355.491	82.38
355.718	91.38
355.945	72.38
356.172	73.38
356.399	65.38
356.626	90.38
356.853	85.38
357.08	78.38
357.307	77.38
357.534	82.38
357.761	80.38
357.988	83.38
358.215	88.38
358.441	64.38
358.668	80.38
358.895	89.38
359.122	74.38
359.349	74.38
359.576	85.38
359.802	76.38
360.029	95.38
360.256	85.38
360.483	78.38
360.709	83.38
360.936	80.38
361.163	82.38
361.39	74.38
361.616	79.38
361.843	94.38
362.07	74.38
362.296	62.38
362.523	101.38
362.749	81.38
362.976	78.38
363.203	93.38
363.429	84.38
363.656	80.38
363.882	73.38
364.109	89.38
364.335	93.38
364.562	77.38
364.788	75.38
365.015	96.38
365.241	80.38
365.468	88.38
365.694	67.38
365.92	74.38
366.147	74.38
366.373	70.38
366.599	92.38
366.826	76.38
367.052	77.38
367.278	92.38
367.505	78.38
367.731	89.38
367.957	81.38
368.184	84.38
368.41	73.38
368.636	74.38
368.862	72.38
369.089	85.38
369.315	77.38
369.541	91.38
369.767	72.38
369.993	83.38
370.219	91.38
370.445	77.38
370.672	81.38
370.898	85.38
371.124	77.38
371.35	65.38
371.576	80.38
371.802	88.38
372.028	74.38
372.254	75.38
372.48	69.38
372.706	70.38
372.932	78.38
373.158	86.38
373.384	104.38
373.61	83.38
373.835	80.38
374.061	73.38
374.287	81.38
374.513	73.38
374.739	70.38
374.965	90.38
375.191	76.38
375.416	89.38
375.642	77.38
375.868	81.38
376.094	78.38
376.319	77.38
376.545	79.38
376.771	77.38
376.997	66.38
377.222	74.38
377.448	96.38
377.674	80.38
377.899	78.38
378.125	74.38
378.35	84.38
378.576	89.38
378.802	80.38
379.027	99.38
379.253	82.38
379.478	80.38
379.704	72.38
379.929	83.38
380.155	81.38
380.38	88.38
380.606	71.38
380.831	69.38
381.057	76.38
381.282	82.38
381.507	77.38
381.733	78.38
381.958	71.38
382.184	80.38
382.409	67.38
382.634	72.38
382.86	93.38
383.085	71.38
383.31	89.38
383.535	81.38
383.761	75.38
383.986	85.38
384.211	68.38
384.436	85.38
384.662	81.38
384.887	67.38
385.112	80.38
385.337	81.38
385.562	81.38
385.787	79.38
386.013	78.38
386.238	93.38
386.463	70.38
386.688	92.38
386.913	69.38
387.138	91.38
387.363	80.38
387.588	71.38
387.813	78.38
388.038	75.38
388.263	77.38
388.488	66.38
388.713	89.38
388.938	80.38
389.163	81.38
389.387	95.38
389.612	88.38
389.837	80.38
390.062	80.38
390.287	55.38
390.512	75.38
390.736	62.38
390.961	75.38
391.186	78.38
391.411	67.38
391.636	80.38
391.86	79.38
392.085	80.38
392.31	79.38
392.534	75.38
392.759	82.38
392.984	97.38
393.208	77.38
393.433	80.38
393.658	77.38
393.882	75.38
394.107	63.38
394.331	70.38
394.556	75.38
394.78	67.38
395.005	88.38
395.229	65.38
395.454	92.38
395.678	70.38
395.903	69.38
396.127	81.38
396.352	83.38
396.576	77.38
396.801	80.38
397.025	97.38
397.249	100.38
397.474	91.38
397.698	83.38
397.922	73.38
398.147	68.38
398.371	74.38
398.595	68.38
398.82	84.38
399.044	77.38
399.268	75.38
399.492	65.38
399.717	69.38
399.941	81.38
400.165	63.38
400.389	80.38
400.613	80.38
400.837	74.38
401.062	69.38
401.286	67.38
401.51	82.38
401.734	77.38
401.958	77.38
402.182	92.38
402.406	73.38
402.63	85.38
402.854	76.38
403.078	79.38
403.302	79.38
403.526	74.38
403.75	74.38
403.974	69.38
404.198	85.38
404.422	83.38
404.645	94.38
404.869	80.38
405.093	86.38
405.317	91.38
405.541	83.38
405.765	74.38
405.988	76.38
406.212	77.38
406.436	64.38
406.66	81.38
406.883	93.38
407.107	76.38
407.331	72.38
407.555	88.38
407.778	85.38
408.002	77.38
408.226	86.38
408.449	76.38
408.673	86.38
408.896	77.38
409.12	71.38
409.344	70.38
409.567	85.38
409.791	65.38
410.014	78.38
410.238	66.38
410.461	74.38
410.685	68.38
410.908	70.38
411.132	64.38
411.355	73.38
411.578	81.38
411.802	73.38
412.025	68.38
412.249	77.38
412.472	69.38
412.695	77.38
412.919	74.38
413.142	86.38
413.365	71.38
413.589	88.38
413.812	64.38
414.035	79.38
414.258	81.38
414.482	82.38
414.705	74.38
414.928	79.38
415.151	70.38
415.374	92.38
415.597	93.38
415.821	88.38
416.044	88.38
416.267	83.38
416.49	70.38
416.713	62.38
416.936	91.38
417.159	79.38
417.382	79.38
417.605	79.38
417.828	64.38
418.051	80.38
418.274	82.38
418.497	80.38
418.72	77.38
418.943	83.38
419.166	80.38
419.389	66.38
419.611	80.38
419.834	80.38
420.057	77.38
420.28	84.38
420.503	76.38
420.726	81.38
420.948	77.38
421.171	64.38
421.394	73.38
421.617	86.38
421.839	64.38
422.062	67.38
422.285	76.38
422.507	80.38
422.73	92.38
422.953	80.38
423.175	96.38
423.398	89.38
423.621	92.38
423.843	83.38
424.066	68.38
424.288	74.38
424.511	70.38
424.733	80.38
424.956	70.38
425.178	88.38
425.401	76.38
425.623	78.38
425.846	76.38
426.068	71.38
426.291	73.38
426.513	76.38
426.735	81.38
426.958	60.38
427.18	69.38
427.402	83.38
427.625	77.38
427.847	88.38
428.069	75.38
428.292	76.38
428.514	91.38
428.736	82.38
428.958	78.38
429.181	100.38
429.403	84.38
429.625	73.38
429.847	65.38
430.069	72.38
430.292	85.38
430.514	92.38
430.736	85.38
430.958	80.38
431.18	84.38
431.402	84.38
431.624	80.38
431.846	81.38
432.068	86.38
432.29	78.38
432.512	84.38
432.734	73.38
432.956	81.38
433.178	92.38
433.4	80.38
433.622	62.38
433.844	92.38
434.066	88.38
434.287	72.38
434.509	75.38
434.731	70.38
434.953	71.38
435.175	63.38
435.397	80.38
435.618	84.38
435.84	77.38
436.062	89.38
436.284	72.38
436.505	86.38
436.727	83.38
436.949	88.38
437.17	74.38
437.392	81.38
437.614	73.38
437.835	78.38
438.057	81.38
438.278	84.38
438.5	81.38
438.721	79.38
438.943	71.38
439.165	68.38
439.386	76.38
439.608	88.38
439.829	67.38
440.05	78.38
440.272	80.38
440.493	76.38
440.715	83.38
440.936	62.38
441.158	81.38
441.379	84.38
441.6	74.38
441.822	73.38
442.043	84.38
442.264	78.38
442.486	93.38
442.707	104.38
442.928	81.38
443.149	79.38
443.371	91.38
443.592	80.38
443.813	78.38
444.034	93.38
444.255	74.38
444.476	78.38
444.698	87.38
444.919	83.38
445.14	149.38
445.361	110.38
445.582	66.38
445.803	78.38
446.024	75.38
446.245	91.38
446.466	90.38
446.687	94.38
446.908	76.38
447.129	68.38
447.35	83.38
447.571	93.38
447.792	88.38
448.013	81.38
448.234	77.38
448.455	79.38
448.675	88.38
448.896	79.38
449.117	74.38
449.338	76.38
449.559	80.38
449.779	78.38
450	81.38
450.221	78.38
450.442	86.38
450.662	75.38
450.883	75.38
451.104	73.38
451.324	65.38
451.545	73.38
451.766	75.38
451.986	90.38
452.207	93.38
452.428	79.38
452.648	82.38
452.869	83.38
453.089	70.38
453.31	81.38
453.53	88.38
453.751	69.38
453.971	86.38
454.192	65.38
454.412	78.38
454.633	74.38
454.853	80.38
455.073	80.38
455.294	72.38
455.514	86.38
455.734	72.38
455.955	76.38
456.175	79.38
456.395	83.38
456.616	88.38
456.836	74.38
457.056	72.38
457.276	84.38
457.497	77.38
457.717	75.38
457.937	77.38
458.157	77.38
458.377	91.38
458.598	85.38
458.818	76.38
459.038	62.38
459.258	77.38
459.478	83.38
459.698	69.38
459.918	83.38
460.138	76.38
460.358	84.38
460.578	85.38
460.798	81.38
461.018	80.38
461.238	85.38
461.458	83.38
461.678	78.38
461.898	69.38
462.118	81.38
462.338	77.38
462.558	91.38
462.777	76.38
462.997	71.38
463.217	77.38
463.437	68.38
463.657	72.38
463.876	74.38
464.096	74.38
464.316	65.38
464.536	75.38
464.755	80.38
464.975	80.38
465.195	88.38
465.414	89.38
465.634	78.38
465.854	88.38
466.073	85.38
466.293	86.38
466.512	69.38
466.732	92.38
466.951	68.38
467.171	66.38
467.391	69.38
467.61	82.38
467.829	80.38
468.049	79.38
468.268	74.38
468.488	74.38
468.707	75.38
468.927	86.38
469.146	76.38
469.365	72.38
469.585	88.38
469.804	74.38
470.023	85.38
470.243	67.38
470.462	61.38
470.681	82.38
470.901	73.38
471.12	74.38
471.339	79.38
471.558	83.38
471.777	82.38
471.997	80.38
472.216	76.38
472.435	86.38
472.654	76.38
472.873	73.38
473.092	94.38
473.311	80.38
473.53	79.38
473.749	83.38
473.968	82.38
474.187	74.38
474.406	84.38
474.625	89.38
474.844	79.38
475.063	66.38
475.282	59.38
475.501	84.38
475.72	81.38
475.939	81.38
476.158	77.38
476.377	80.38
476.596	73.38
476.814	70.38
477.033	86.38
477.252	71.38
477.471	90.38
477.69	72.38
477.908	78.38
478.127	73.38
478.346	73.38
478.564	81.38
478.783	75.38
479.002	65.38
479.22	76.38
479.439	74.38
479.658	88.38
479.876	75.38
480.095	68.38
480.313	66.38
480.532	67.38
480.751	81.38
480.969	73.38
481.188	77.38
481.406	79.38
481.624	79.38
481.843	83.38
482.061	90.38
482.28	76.38
482.498	78.38
482.717	82.38
482.935	80.38
483.153	79.38
483.372	75.38
483.59	80.38
483.808	82.38
484.027	88.38
484.245	77.38
484.463	77.38
484.681	84.38
484.9	80.38
485.118	89.38
485.336	86.38
485.554	72.38
485.772	67.38
485.99	92.38
486.209	85.38
486.427	84.38
486.645	67.38
486.863	70.38
487.081	100.38
487.299	81.38
487.517	90.38
487.735	85.38
487.953	82.38
488.171	90.38
488.389	72.38
488.607	72.38
488.825	77.38
489.043	90.38
489.261	80.38
489.479	81.38
489.696	90.38
489.914	84.38
490.132	83.38
490.35	77.38
490.568	92.38
490.786	75.38
491.003	90.38
491.221	88.38
491.439	79.38
491.657	77.38
491.874	86.38
492.092	80.38
492.31	90.38
492.527	87.38
492.745	82.38
492.963	86.38
493.18	76.38
493.398	88.38
493.615	74.38
493.833	74.38
494.05	57.38
494.268	88.38
494.485	85.38
494.703	72.38
494.92	76.38
495.138	93.38
495.355	83.38
495.573	74.38
495.79	84.38
496.008	85.38
496.225	79.38
496.442	83.38
496.66	84.38
496.877	73.38
497.094	80.38
497.312	76.38
497.529	76.38
497.746	79.38
497.963	78.38
498.181	91.38
498.398	88.38
498.615	77.38
498.832	76.38
499.049	78.38
499.267	80.38
499.484	83.38
499.701	74.38
499.918	78.38
500.135	90.38
500.352	98.38
500.569	89.38
500.786	68.38
501.003	74.38
501.22	81.38
501.437	73.38
501.654	67.38
501.871	69.38
502.088	72.38
502.305	78.38
502.522	78.38
502.739	75.38
502.956	82.38
503.172	80.38
503.389	78.38
503.606	82.38
503.823	65.38
504.04	76.38
504.256	77.38
504.473	69.38
504.69	85.38
504.907	78.38
505.123	88.38
505.34	80.38
505.557	68.38
505.773	76.38
505.99	96.38
506.207	96.38
506.423	71.38
506.64	68.38
506.856	72.38
507.073	68.38
507.289	74.38
507.506	73.38
507.722	78.38
507.939	63.38
508.155	81.38
508.372	82.38
508.588	82.38
508.805	69.38
509.021	75.38
509.238	78.38
509.454	75.38
509.67	90.38
509.887	75.38
510.103	86.38
510.319	70.38
510.536	94.38
510.752	80.38
510.968	70.38
511.184	77.38
511.401	87.38
511.617	81.38
511.833	71.38
512.049	76.38
512.265	74.38
512.481	94.38
512.698	81.38
512.914	95.38
513.13	75.38
513.346	75.38
513.562	96.38
513.778	86.38
513.994	79.38
514.21	67.38
514.426	83.38
514.642	81.38
514.858	86.38
515.074	81.38
515.29	78.38
515.506	90.38
515.721	83.38
515.937	79.38
516.153	78.38
516.369	80.38
516.585	80.38
516.801	78.38
517.016	93.38
517.232	72.38
517.448	71.38
517.664	72.38
517.879	80.38
518.095	71.38
518.311	75.38
518.527	80.38
518.742	88.38
518.958	84.38
519.173	74.38
519.389	72.38
519.605	74.38
519.82	80.38
520.036	89.38
520.251	87.38
520.467	66.38
520.682	79.38
520.898	81.38
521.113	73.38
521.329	83.38
521.544	98.38
521.76	80.38
521.975	77.38
522.19	90.38
522.406	76.38
522.621	97.38
522.836	75.38
523.052	81.38
523.267	79.38
523.482	74.38
523.698	68.38
523.913	81.38
524.128	81.38
524.343	79.38
524.559	72.38
524.774	88.38
524.989	73.38
525.204	85.38
525.419	90.38
525.634	98.38
525.849	81.38
526.064	76.38
526.28	78.38
526.495	85.38
526.71	85.38
526.925	86.38
527.14	72.38
527.355	72.38
527.57	72.38
527.785	97.38
527.999	71.38
528.214	68.38
528.429	85.38
528.644	78.38
528.859	82.38
529.074	82.38
529.289	83.38
529.503	67.38
529.718	80.38
529.933	79.38
530.148	78.38
530.363	88.38
530.577	76.38
530.792	86.38
531.007	68.38
531.221	78.38
531.436	78.38
531.651	79.38
531.865	80.38
532.08	84.38
532.295	76.38
532.509	81.38
532.724	79.38
532.938	88.38
533.153	70.38
533.367	82.38
533.582	81.38
533.796	90.38
534.011	84.38
534.225	90.38
534.44	90.38
534.654	79.38
534.868	76.38
535.083	76.38
535.297	87.38
535.511	77.38
535.726	81.38
535.94	79.38
536.154	82.38
536.369	89.38
536.583	76.38
536.797	80.38
537.011	86.38
537.225	86.38
537.44	83.38
537.654	78.38
537.868	81.38
538.082	78.38
538.296	75.38
538.51	93.38
538.724	85.38
538.938	88.38
539.153	75.38
539.367	74.38
539.581	88.38
539.795	87.38
540.009	90.38
540.222	75.38
540.436	88.38
540.65	77.38
540.864	74.38
541.078	80.38
541.292	77.38
541.506	73.38
541.72	79.38
541.934	81.38
542.147	78.38
542.361	71.38
542.575	80.38
542.789	81.38
543.002	76.38
543.216	72.38
543.43	80.38
543.644	85.38
543.857	83.38
544.071	62.38
544.285	88.38
544.498	77.38
544.712	68.38
544.925	66.38
545.139	81.38
545.352	75.38
545.566	83.38
545.779	83.38
545.993	75.38
546.206	77.38
546.42	81.38
546.633	79.38
546.847	82.38
547.06	78.38
547.274	84.38
547.487	84.38
547.7	85.38
547.914	77.38
548.127	74.38
548.34	80.38
548.554	80.38
548.767	82.38
548.98	87.38
549.193	86.38
549.407	77.38
549.62	74.38
549.833	74.38
550.046	92.38
550.259	80.38
550.473	82.38
550.686	73.38
550.899	95.38
551.112	79.38
551.325	72.38
551.538	67.38
551.751	81.38
551.964	78.38
552.177	90.38
552.39	85.38
552.603	91.38
552.816	73.38
553.029	77.38
553.242	75.38
553.455	91.38
553.667	81.38
553.88	73.38
554.093	82.38
554.306	77.38
554.519	80.38
554.732	78.38
554.944	60.38
555.157	91.38
555.37	77.38
555.583	86.38
555.795	83.38
556.008	76.38
556.221	83.38
556.433	74.38
556.646	88.38
556.859	62.38
557.071	81.38
557.284	71.38
557.496	84.38
557.709	77.38
557.921	65.38
558.134	67.38
558.346	94.38
558.559	78.38
558.771	77.38
558.984	88.38
559.196	82.38
559.409	85.38
559.621	72.38
559.833	82.38
560.046	76.38
560.258	82.38
560.47	75.38
560.683	80.38
560.895	90.38
561.107	85.38
561.32	83.38
561.532	83.38
561.744	86.38
561.956	86.38
562.168	79.38
562.381	85.38
562.593	97.38
562.805	90.38
563.017	85.38
563.229	76.38
563.441	79.38
563.653	76.38
563.865	79.38
564.077	86.38
564.289	92.38
564.501	97.38
564.713	90.38
564.925	89.38
565.137	77.38
565.349	75.38
565.561	84.38
565.773	93.38
565.985	81.38
566.197	80.38
566.408	67.38
566.62	86.38
566.832	85.38
567.044	81.38
567.255	90.38
567.467	74.38
567.679	80.38
567.891	88.38
568.102	78.38
568.314	86.38
568.526	83.38
568.737	99.38
568.949	67.38
569.161	70.38
569.372	94.38
569.584	80.38
569.795	79.38
570.007	80.38
570.218	93.38
570.43	70.38
570.641	88.38
570.853	73.38
571.064	77.38
571.276	81.38
571.487	80.38
571.698	94.38
571.91	72.38
572.121	64.38
572.333	85.38
572.544	78.38
572.755	83.38
572.966	62.38
573.178	75.38
573.389	76.38
573.6	81.38
573.811	88.38
574.023	74.38
574.234	78.38
574.445	82.38
574.656	81.38
574.867	80.38
575.078	90.38
575.289	85.38
575.501	72.38
575.712	66.38
575.923	77.38
576.134	88.38
576.345	90.38
576.556	79.38
576.767	64.38
576.978	86.38
577.188	78.38
577.399	81.38
577.61	84.38
577.821	76.38
578.032	82.38
578.243	80.38
578.454	86.38
578.665	72.38
578.875	73.38
579.086	92.38
579.297	80.38
579.508	79.38
579.718	84.38
579.929	81.38
580.14	78.38
580.35	85.38
580.561	86.38
580.772	89.38
580.982	83.38
581.193	96.38
581.403	81.38
581.614	80.38
581.825	80.38
582.035	80.38
582.246	89.38
582.456	77.38
582.667	77.38
582.877	82.38
583.087	80.38
583.298	83.38
583.508	73.38
583.719	89.38
583.929	84.38
584.139	84.38
584.35	85.38
584.56	90.38
584.77	88.38
584.981	80.38
585.191	82.38
585.401	74.38
585.611	74.38
585.821	83.38
586.032	91.38
586.242	66.38
586.452	91.38
586.662	76.38
586.872	78.38
587.082	74.38
587.292	92.38
587.502	72.38
587.713	76.38
587.923	90.38
588.133	96.38
588.343	79.38
588.553	95.38
588.762	107.38
588.972	129.38
589.182	176.38
589.392	149.38
589.602	120.38
589.812	165.38
590.022	102.38
590.232	97.38
590.441	85.38
590.651	76.38
590.861	70.38
591.071	79.38
591.281	87.38
591.49	88.38
591.7	74.38
591.91	67.38
592.119	84.38
592.329	85.38
592.539	90.38
592.748	82.38
592.958	75.38
593.167	97.38
593.377	94.38
593.587	78.38
593.796	78.38
594.006	89.38
594.215	74.38
594.424	85.38
594.634	72.38
594.843	84.38
595.053	72.38
595.262	81.38
595.472	89.38
595.681	78.38
595.89	77.38
596.1	81.38
596.309	100.38
596.518	82.38
596.727	96.38
596.937	88.38
597.146	79.38
597.355	80.38
597.564	84.38
597.774	86.38
597.983	84.38
598.192	81.38
598.401	77.38
598.61	78.38
598.819	81.38
599.028	73.38
599.237	84.38
599.446	87.38
599.655	77.38
599.864	76.38
600.073	76.38
600.282	88.38
600.491	81.38
600.7	78.38
600.909	69.38
601.118	76.38
601.327	76.38
601.536	81.38
601.745	75.38
601.953	84.38
602.162	74.38
602.371	95.38
602.58	66.38
602.789	78.38
602.997	88.38
603.206	79.38
603.415	74.38
603.623	79.38
603.832	84.38
604.041	63.38
604.249	94.38
604.458	79.38
604.666	78.38
604.875	81.38
605.084	93.38
605.292	79.38
605.501	76.38
605.709	92.38
605.918	94.38
606.126	77.38
606.334	85.38
606.543	77.38
606.751	72.38
606.96	90.38
607.168	77.38
607.376	98.38
607.585	93.38
607.793	92.38
608.001	76.38
608.21	77.38
608.418	72.38
608.626	83.38
608.834	91.38
609.043	86.38
609.251	80.38
609.459	78.38
609.667	82.38
609.875	74.38
610.083	77.38
610.291	89.38
610.499	79.38
610.707	79.38
610.916	75.38
611.124	78.38
611.332	82.38
611.54	93.38
611.748	81.38
611.955	75.38
612.163	81.38
612.371	88.38
612.579	75.38
612.787	75.38
612.995	90.38
613.203	86.38
613.411	88.38
613.618	69.38
613.826	70.38
614.034	76.38
614.242	85.38
614.449	81.38
614.657	74.38
614.865	80.38
615.072	96.38
615.28	94.38
615.488	65.38
615.695	74.38
615.903	88.38
616.111	88.38
616.318	82.38
616.526	72.38
616.733	83.38
616.941	75.38
617.148	79.38
617.356	79.38
617.563	68.38
617.771	63.38
617.978	77.38
618.185	84.38
618.393	69.38
618.6	79.38
618.807	92.38
619.015	84.38
619.222	74.38
619.429	72.38
619.637	92.38
619.844	70.38
620.051	86.38
620.258	73.38
620.466	72.38
620.673	91.38
620.88	84.38
621.087	72.38
621.294	80.38
621.501	97.38
621.708	85.38
621.915	72.38
622.122	84.38
622.329	78.38
622.536	84.38
622.743	77.38
622.95	76.38
623.157	77.38
623.364	75.38
623.571	90.38
623.778	88.38
623.985	81.38
624.192	73.38
624.399	81.38
624.606	74.38
624.812	83.38
625.019	78.38
625.226	83.38
625.433	79.38
625.639	76.38
625.846	97.38
626.053	84.38
626.259	75.38
626.466	69.38
626.673	88.38
626.879	69.38
627.086	96.38
627.293	72.38
627.499	83.38
627.706	85.38
627.912	84.38
628.119	70.38
628.325	79.38
628.532	92.38
628.738	92.38
628.945	72.38
629.151	81.38
629.357	80.38
629.564	74.38
629.77	72.38
629.976	69.38
630.183	76.38
630.389	75.38
630.595	79.38
630.802	78.38
631.008	73.38
631.214	77.38
631.42	93.38
631.627	85.38
631.833	83.38
632.039	77.38
632.245	79.38
632.451	66.38
632.657	78.38
632.863	85.38
633.069	81.38
633.275	80.38
633.481	76.38
633.688	76.38
633.893	85.38
634.099	97.38
634.305	84.38
634.511	84.38
634.717	62.38
634.923	79.38
635.129	87.38
635.335	91.38
635.541	81.38
635.747	89.38
635.952	73.38
636.158	74.38
636.364	90.38
636.57	68.38
636.775	86.38
636.981	84.38
637.187	72.38
637.392	92.38
637.598	80.38
637.804	83.38
638.009	76.38
638.215	77.38
638.421	77.38
638.626	75.38
638.832	82.38
639.037	77.38
639.243	74.38
639.448	80.38
639.654	76.38
639.859	80.38
640.065	81.38
640.27	96.38
640.475	91.38
640.681	89.38
640.886	80.38
641.091	58.38
641.297	85.38
641.502	74.38
641.707	90.38
641.913	93.38
642.118	67.38
642.323	65.38
642.528	86.38
642.733	75.38
642.939	83.38
643.144	70.38
643.349	75.38
643.554	94.38
643.759	80.38
643.964	83.38
644.169	84.38
644.374	83.38
644.579	68.38
644.784	83.38
644.989	84.38
645.194	67.38
645.399	77.38
645.604	98.38
645.809	83.38
646.014	67.38
646.219	82.38
646.423	62.38
646.628	82.38
646.833	83.38
647.038	88.38
647.243	88.38
647.447	89.38
647.652	91.38
647.857	82.38
648.062	80.38
648.266	80.38
648.471	82.38
648.676	76.38
648.88	85.38
649.085	79.38
649.289	69.38
649.494	92.38
649.698	68.38
649.903	75.38
650.107	92.38
650.312	72.38
650.516	88.38
650.721	81.38
650.925	80.38
651.13	75.38
651.334	74.38
651.539	73.38
651.743	73.38
651.947	97.38
652.152	82.38
652.356	81.38
652.56	76.38
652.764	76.38
652.969	78.38
653.173	85.38
653.377	65.38
653.581	82.38
653.785	80.38
653.99	80.38
654.194	85.38
654.398	76.38
654.602	80.38
654.806	78.38
655.01	93.38
655.214	85.38
655.418	84.38
655.622	66.38
655.826	79.38
656.03	82.38
656.234	71.38
656.438	76.38
656.642	71.38
656.846	84.38
657.049	85.38
657.253	84.38
657.457	82.38
657.661	80.38
657.865	80.38
658.068	77.38
658.272	82.38
658.476	83.38
658.68	82.38
658.883	72.38
659.087	72.38
659.291	79.38
659.494	73.38
659.698	84.38
659.901	90.38
660.105	79.38
660.309	72.38
660.512	81.38
660.716	78.38
660.919	56.38
661.123	78.38
661.326	84.38
661.53	78.38
661.733	80.38
661.936	89.38
662.14	91.38
662.343	85.38
662.546	96.38
662.75	88.38
662.953	72.38
663.156	94.38
663.36	79.38
663.563	80.38
663.766	80.38
663.969	93.38
664.173	78.38
664.376	76.38
664.579	60.38
664.782	85.38
664.985	64.38
665.188	88.38
665.391	81.38
665.594	96.38
665.797	78.38
666	82.38
666.203	79.38
666.406	69.38
666.609	85.38
666.812	73.38
667.015	76.38
667.218	68.38
667.421	67.38
667.624	79.38
667.827	81.38
668.03	84.38
668.232	73.38
668.435	76.38
668.638	70.38
668.841	82.38
669.043	78.38
669.246	80.38
669.449	82.38
669.651	90.38
669.854	90.38
670.057	76.38
670.259	75.38
670.462	77.38
670.665	75.38
670.867	71.38
671.07	88.38
671.272	73.38
671.475	93.38
671.677	83.38
671.88	80.38
672.082	73.38
672.284	77.38
672.487	72.38
672.689	85.38
672.892	80.38
