Data from Mixnoheat4_HRD10591_00005.txt Node
Date: Fri Dec 27 15:04:17 EST 2024
User: Yrep
Spectrometer: HR+D1059
Trigger mode: 1
Integration Time (sec): 1.000000E-1
Scans to average: 1
Electric dark correction enabled: true
Nonlinearity correction enabled: false
Boxcar width: 0
XAxis mode: Wavelengths
Number of Pixels in Spectrum: 2048
>>>>>Begin Spectral Data<<<<<
223.165	-15.5
223.4	-15.5
223.635	-15.5
223.869	-14.5
224.104	-24.5
224.338	-18.5
224.573	-16.5
224.808	-17.5
225.042	0.5
225.277	-1.5
225.511	6.5
225.746	-7.5
225.98	3.5
226.215	10.5
226.449	13.5
226.683	12.5
226.918	32.5
227.152	36.5
227.387	31.5
227.621	33.5
227.856	51.5
228.09	30.5
228.324	54.5
228.559	66.5
228.793	55.5
229.027	62.5
229.262	72.5
229.496	60.5
229.73	68.5
229.964	76.5
230.199	83.5
230.433	72.5
230.667	74.5
230.901	88.5
231.136	84.5
231.37	72.5
231.604	86.5
231.838	82.5
232.072	73.5
232.306	89.5
232.541	74.5
232.775	75.5
233.009	80.5
233.243	75.5
233.477	89.5
233.711	83.5
233.945	87.5
234.179	84.5
234.413	84.5
234.647	84.5
234.881	84.5
235.115	76.5
235.349	81.5
235.583	56.5
235.817	90.5
236.051	78.5
236.285	68.5
236.519	89.5
236.753	75.5
236.987	77.5
237.221	85.5
237.455	83.5
237.689	67.5
237.922	82.5
238.156	66.5
238.39	77.5
238.624	77.5
238.858	70.5
239.091	72.5
239.325	92.5
239.559	63.5
239.793	79.5
240.027	86.5
240.26	74.5
240.494	77.5
240.728	57.5
240.961	84.5
241.195	77.5
241.429	83.5
241.662	74.5
241.896	87.5
242.13	70.5
242.363	71.5
242.597	86.5
242.83	85.5
243.064	81.5
243.298	68.5
243.531	80.5
243.765	81.5
243.998	77.5
244.232	74.5
244.465	77.5
244.699	89.5
244.932	82.5
245.166	77.5
245.399	76.5
245.633	72.5
245.866	76.5
246.099	70.5
246.333	66.5
246.566	81.5
246.8	61.5
247.033	73.5
247.266	81.5
247.5	66.5
247.733	79.5
247.966	84.5
248.2	86.5
248.433	70.5
248.666	87.5
248.899	72.5
249.133	80.5
249.366	79.5
249.599	82.5
249.832	80.5
250.066	80.5
250.299	65.5
250.532	76.5
250.765	87.5
250.998	87.5
251.231	80.5
251.465	94.5
251.698	77.5
251.931	77.5
252.164	71.5
252.397	66.5
252.63	66.5
252.863	80.5
253.096	71.5
253.329	74.5
253.562	68.5
253.795	81.5
254.028	90.5
254.261	75.5
254.494	78.5
254.727	85.5
254.96	82.5
255.193	83.5
255.426	77.5
255.659	84.5
255.892	81.5
256.124	95.5
256.357	81.5
256.59	82.5
256.823	86.5
257.056	82.5
257.289	76.5
257.521	80.5
257.754	96.5
257.987	72.5
258.22	82.5
258.452	90.5
258.685	82.5
258.918	69.5
259.151	78.5
259.383	77.5
259.616	83.5
259.849	84.5
260.081	67.5
260.314	77.5
260.547	70.5
260.779	74.5
261.012	82.5
261.244	80.5
261.477	89.5
261.71	74.5
261.942	74.5
262.175	78.5
262.407	88.5
262.64	76.5
262.872	81.5
263.105	79.5
263.337	85.5
263.57	84.5
263.802	80.5
264.035	75.5
264.267	76.5
264.499	82.5
264.732	84.5
264.964	98.5
265.197	69.5
265.429	83.5
265.661	90.5
265.894	78.5
266.126	88.5
266.358	79.5
266.591	83.5
266.823	66.5
267.055	81.5
267.287	80.5
267.52	81.5
267.752	82.5
267.984	92.5
268.216	85.5
268.448	85.5
268.681	75.5
268.913	75.5
269.145	81.5
269.377	76.5
269.609	100.5
269.841	80.5
270.073	89.5
270.306	78.5
270.538	71.5
270.77	73.5
271.002	67.5
271.234	77.5
271.466	78.5
271.698	93.5
271.93	73.5
272.162	75.5
272.394	87.5
272.626	82.5
272.858	69.5
273.09	85.5
273.322	66.5
273.553	78.5
273.785	101.5
274.017	76.5
274.249	73.5
274.481	91.5
274.713	84.5
274.945	77.5
275.176	85.5
275.408	75.5
275.64	83.5
275.872	103.5
276.104	84.5
276.335	89.5
276.567	69.5
276.799	89.5
277.031	80.5
277.262	90.5
277.494	91.5
277.726	85.5
277.957	82.5
278.189	89.5
278.421	85.5
278.652	87.5
278.884	90.5
279.115	85.5
279.347	95.5
279.579	83.5
279.81	84.5
280.042	80.5
280.273	91.5
280.505	101.5
280.736	93.5
280.968	84.5
281.199	90.5
281.431	88.5
281.662	67.5
281.894	84.5
282.125	82.5
282.356	78.5
282.588	82.5
282.819	75.5
283.051	84.5
283.282	100.5
283.513	83.5
283.745	87.5
283.976	79.5
284.207	72.5
284.439	81.5
284.67	81.5
284.901	79.5
285.132	88.5
285.364	87.5
285.595	90.5
285.826	84.5
286.057	86.5
286.288	70.5
286.52	87.5
286.751	78.5
286.982	83.5
287.213	82.5
287.444	96.5
287.675	84.5
287.906	91.5
288.138	90.5
288.369	94.5
288.6	84.5
288.831	85.5
289.062	89.5
289.293	77.5
289.524	72.5
289.755	82.5
289.986	81.5
290.217	85.5
290.448	82.5
290.679	86.5
290.91	81.5
291.141	85.5
291.371	77.5
291.602	86.5
291.833	79.5
292.064	83.5
292.295	82.5
292.526	89.5
292.757	88.5
292.987	79.5
293.218	81.5
293.449	71.5
293.68	79.5
293.91	78.5
294.141	80.5
294.372	92.5
294.603	84.5
294.833	87.5
295.064	74.5
295.295	88.5
295.525	76.5
295.756	86.5
295.987	104.5
296.217	87.5
296.448	78.5
296.679	76.5
296.909	90.5
297.14	91.5
297.37	97.5
297.601	79.5
297.831	81.5
298.062	104.5
298.292	87.5
298.523	70.5
298.753	79.5
298.984	95.5
299.214	86.5
299.445	79.5
299.675	92.5
299.905	84.5
300.136	97.5
300.366	97.5
300.597	75.5
300.827	85.5
301.057	74.5
301.288	92.5
301.518	86.5
301.748	94.5
301.979	110.5
302.209	97.5
302.439	98.5
302.669	94.5
302.9	91.5
303.13	84.5
303.36	80.5
303.59	111.5
303.82	84.5
304.051	92.5
304.281	96.5
304.511	87.5
304.741	93.5
304.971	96.5
305.201	73.5
305.431	84.5
305.661	85.5
305.891	75.5
306.121	71.5
306.352	81.5
306.582	82.5
306.812	86.5
307.042	79.5
307.272	76.5
307.502	96.5
307.731	92.5
307.961	88.5
308.191	78.5
308.421	84.5
308.651	94.5
308.881	92.5
309.111	92.5
309.341	104.5
309.571	96.5
309.8	79.5
310.03	78.5
310.26	83.5
310.49	102.5
310.72	75.5
310.949	91.5
311.179	78.5
311.409	72.5
311.639	87.5
311.868	91.5
312.098	100.5
312.328	95.5
312.557	91.5
312.787	79.5
313.017	80.5
313.246	81.5
313.476	86.5
313.706	79.5
313.935	79.5
314.165	88.5
314.394	88.5
314.624	94.5
314.853	96.5
315.083	82.5
315.312	76.5
315.542	109.5
315.771	92.5
316.001	88.5
316.23	84.5
316.46	86.5
316.689	76.5
316.919	90.5
317.148	92.5
317.377	88.5
317.607	71.5
317.836	82.5
318.065	83.5
318.295	81.5
318.524	78.5
318.753	76.5
318.983	88.5
319.212	84.5
319.441	78.5
319.67	81.5
319.9	87.5
320.129	92.5
320.358	95.5
320.587	93.5
320.816	92.5
321.046	89.5
321.275	81.5
321.504	91.5
321.733	80.5
321.962	94.5
322.191	91.5
322.42	97.5
322.649	84.5
322.878	78.5
323.108	98.5
323.337	82.5
323.566	86.5
323.795	85.5
324.024	92.5
324.253	81.5
324.482	80.5
324.71	86.5
324.939	86.5
325.168	76.5
325.397	93.5
325.626	81.5
325.855	76.5
326.084	89.5
326.313	89.5
326.542	76.5
326.77	105.5
326.999	85.5
327.228	84.5
327.457	100.5
327.686	80.5
327.914	80.5
328.143	89.5
328.372	73.5
328.6	78.5
328.829	91.5
329.058	88.5
329.287	80.5
329.515	78.5
329.744	79.5
329.972	74.5
330.201	83.5
330.43	83.5
330.658	80.5
330.887	87.5
331.115	97.5
331.344	72.5
331.572	94.5
331.801	93.5
332.03	85.5
332.258	69.5
332.486	90.5
332.715	97.5
332.943	90.5
333.172	94.5
333.4	93.5
333.629	94.5
333.857	82.5
334.085	74.5
334.314	89.5
334.542	85.5
334.771	93.5
334.999	77.5
335.227	80.5
335.455	73.5
335.684	71.5
335.912	75.5
336.14	94.5
336.369	78.5
336.597	83.5
336.825	94.5
337.053	104.5
337.281	90.5
337.51	91.5
337.738	90.5
337.966	78.5
338.194	77.5
338.422	75.5
338.65	66.5
338.878	92.5
339.106	80.5
339.334	81.5
339.562	87.5
339.79	76.5
340.018	84.5
340.246	74.5
340.474	82.5
340.702	69.5
340.93	81.5
341.158	70.5
341.386	92.5
341.614	74.5
341.842	89.5
342.07	82.5
342.298	88.5
342.526	80.5
342.754	80.5
342.981	84.5
343.209	76.5
343.437	114.5
343.665	80.5
343.893	89.5
344.12	70.5
344.348	93.5
344.576	76.5
344.804	87.5
345.031	79.5
345.259	86.5
345.487	77.5
345.714	83.5
345.942	79.5
346.17	85.5
346.397	80.5
346.625	79.5
346.853	80.5
347.08	78.5
347.308	84.5
347.535	80.5
347.763	90.5
347.99	101.5
348.218	88.5
348.445	89.5
348.673	89.5
348.9	91.5
349.128	86.5
349.355	85.5
349.583	73.5
349.81	79.5
350.037	82.5
350.265	79.5
350.492	93.5
350.72	88.5
350.947	80.5
351.174	74.5
351.402	102.5
351.629	78.5
351.856	82.5
352.083	84.5
352.311	89.5
352.538	79.5
352.765	89.5
352.992	87.5
353.22	82.5
353.447	93.5
353.674	84.5
353.901	84.5
354.128	74.5
354.355	80.5
354.583	71.5
354.81	92.5
355.037	85.5
355.264	88.5
355.491	84.5
355.718	86.5
355.945	76.5
356.172	85.5
356.399	78.5
356.626	77.5
356.853	73.5
357.08	78.5
357.307	74.5
357.534	97.5
357.761	86.5
357.988	95.5
358.215	74.5
358.441	82.5
358.668	89.5
358.895	79.5
359.122	89.5
359.349	94.5
359.576	108.5
359.802	92.5
360.029	69.5
360.256	86.5
360.483	80.5
360.709	79.5
360.936	87.5
361.163	74.5
361.39	84.5
361.616	78.5
361.843	92.5
362.07	87.5
362.296	92.5
362.523	86.5
362.749	88.5
362.976	72.5
363.203	76.5
363.429	85.5
363.656	82.5
363.882	85.5
364.109	80.5
364.335	90.5
364.562	92.5
364.788	97.5
365.015	66.5
365.241	77.5
365.468	92.5
365.694	92.5
365.92	84.5
366.147	78.5
366.373	77.5
366.599	79.5
366.826	85.5
367.052	79.5
367.278	89.5
367.505	80.5
367.731	94.5
367.957	83.5
368.184	99.5
368.41	88.5
368.636	77.5
368.862	85.5
369.089	86.5
369.315	88.5
369.541	68.5
369.767	88.5
369.993	79.5
370.219	84.5
370.445	94.5
370.672	90.5
370.898	71.5
371.124	90.5
371.35	86.5
371.576	64.5
371.802	80.5
372.028	84.5
372.254	92.5
372.48	81.5
372.706	80.5
372.932	70.5
373.158	64.5
373.384	87.5
373.61	73.5
373.835	71.5
374.061	85.5
374.287	86.5
374.513	102.5
374.739	68.5
374.965	78.5
375.191	86.5
375.416	88.5
375.642	95.5
375.868	84.5
376.094	84.5
376.319	95.5
376.545	101.5
376.771	86.5
376.997	79.5
377.222	76.5
377.448	78.5
377.674	89.5
377.899	82.5
378.125	65.5
378.35	74.5
378.576	77.5
378.802	77.5
379.027	71.5
379.253	78.5
379.478	89.5
379.704	93.5
379.929	88.5
380.155	75.5
380.38	79.5
380.606	83.5
380.831	88.5
381.057	89.5
381.282	72.5
381.507	84.5
381.733	85.5
381.958	77.5
382.184	77.5
382.409	93.5
382.634	94.5
382.86	80.5
383.085	90.5
383.31	84.5
383.535	81.5
383.761	107.5
383.986	78.5
384.211	73.5
384.436	82.5
384.662	95.5
384.887	87.5
385.112	82.5
385.337	92.5
385.562	68.5
385.787	69.5
386.013	80.5
386.238	81.5
386.463	88.5
386.688	89.5
386.913	72.5
387.138	92.5
387.363	79.5
387.588	94.5
387.813	101.5
388.038	79.5
388.263	90.5
388.488	92.5
388.713	76.5
388.938	86.5
389.163	75.5
389.387	85.5
389.612	89.5
389.837	104.5
390.062	88.5
390.287	68.5
390.512	78.5
390.736	63.5
390.961	72.5
391.186	81.5
391.411	82.5
391.636	95.5
391.86	87.5
392.085	84.5
392.31	80.5
392.534	86.5
392.759	93.5
392.984	88.5
393.208	101.5
393.433	108.5
393.658	93.5
393.882	92.5
394.107	84.5
394.331	84.5
394.556	78.5
394.78	82.5
395.005	78.5
395.229	56.5
395.454	78.5
395.678	87.5
395.903	80.5
396.127	77.5
396.352	85.5
396.576	77.5
396.801	90.5
397.025	102.5
397.249	86.5
397.474	87.5
397.698	89.5
397.922	96.5
398.147	76.5
398.371	78.5
398.595	77.5
398.82	84.5
399.044	84.5
399.268	83.5
399.492	75.5
399.717	88.5
399.941	89.5
400.165	90.5
400.389	85.5
400.613	85.5
400.837	92.5
401.062	94.5
401.286	72.5
401.51	85.5
401.734	76.5
401.958	90.5
402.182	75.5
402.406	74.5
402.63	72.5
402.854	86.5
403.078	71.5
403.302	92.5
403.526	92.5
403.75	89.5
403.974	89.5
404.198	82.5
404.422	111.5
404.645	105.5
404.869	105.5
405.093	93.5
405.317	83.5
405.541	94.5
405.765	73.5
405.988	80.5
406.212	84.5
406.436	89.5
406.66	81.5
406.883	93.5
407.107	81.5
407.331	94.5
407.555	84.5
407.778	80.5
408.002	84.5
408.226	91.5
408.449	87.5
408.673	81.5
408.896	77.5
409.12	80.5
409.344	89.5
409.567	77.5
409.791	95.5
410.014	96.5
410.238	65.5
410.461	66.5
410.685	77.5
410.908	70.5
411.132	90.5
411.355	70.5
411.578	75.5
411.802	89.5
412.025	83.5
412.249	62.5
412.472	80.5
412.695	82.5
412.919	89.5
413.142	69.5
413.365	103.5
413.589	97.5
413.812	93.5
414.035	89.5
414.258	70.5
414.482	86.5
414.705	84.5
414.928	77.5
415.151	89.5
415.374	79.5
415.597	66.5
415.821	78.5
416.044	90.5
416.267	91.5
416.49	74.5
416.713	80.5
416.936	89.5
417.159	82.5
417.382	82.5
417.605	79.5
417.828	92.5
418.051	84.5
418.274	65.5
418.497	77.5
418.72	82.5
418.943	79.5
419.166	93.5
419.389	72.5
419.611	83.5
419.834	90.5
420.057	81.5
420.28	83.5
420.503	89.5
420.726	81.5
420.948	76.5
421.171	72.5
421.394	82.5
421.617	85.5
421.839	90.5
422.062	89.5
422.285	111.5
422.507	108.5
422.73	132.5
422.953	135.5
423.175	102.5
423.398	84.5
423.621	105.5
423.843	80.5
424.066	81.5
424.288	90.5
424.511	91.5
424.733	83.5
424.956	85.5
425.178	80.5
425.401	92.5
425.623	85.5
425.846	80.5
426.068	78.5
426.291	90.5
426.513	96.5
426.735	76.5
426.958	87.5
427.18	99.5
427.402	93.5
427.625	76.5
427.847	88.5
428.069	83.5
428.292	96.5
428.514	72.5
428.736	80.5
428.958	89.5
429.181	97.5
429.403	88.5
429.625	77.5
429.847	86.5
430.069	93.5
430.292	102.5
430.514	100.5
430.736	94.5
430.958	100.5
431.18	72.5
431.402	82.5
431.624	65.5
431.846	84.5
432.068	77.5
432.29	90.5
432.512	84.5
432.734	84.5
432.956	85.5
433.178	84.5
433.4	83.5
433.622	84.5
433.844	73.5
434.066	77.5
434.287	96.5
434.509	84.5
434.731	76.5
434.953	67.5
435.175	69.5
435.397	66.5
435.618	86.5
435.84	73.5
436.062	92.5
436.284	72.5
436.505	75.5
436.727	79.5
436.949	91.5
437.17	77.5
437.392	86.5
437.614	72.5
437.835	89.5
438.057	72.5
438.278	78.5
438.5	84.5
438.721	95.5
438.943	91.5
439.165	69.5
439.386	90.5
439.608	84.5
439.829	78.5
440.05	85.5
440.272	79.5
440.493	63.5
440.715	93.5
440.936	83.5
441.158	94.5
441.379	82.5
441.6	79.5
441.822	89.5
442.043	89.5
442.264	81.5
442.486	76.5
442.707	101.5
442.928	90.5
443.149	90.5
443.371	94.5
443.592	117.5
443.813	107.5
444.034	83.5
444.255	87.5
444.476	89.5
444.698	96.5
444.919	100.5
445.14	137.5
445.361	124.5
445.582	122.5
445.803	103.5
446.024	84.5
446.245	86.5
446.466	83.5
446.687	88.5
446.908	79.5
447.129	84.5
447.35	96.5
447.571	80.5
447.792	86.5
448.013	78.5
448.234	87.5
448.455	77.5
448.675	90.5
448.896	86.5
449.117	92.5
449.338	90.5
449.559	71.5
449.779	85.5
450	81.5
450.221	104.5
450.442	85.5
450.662	87.5
450.883	81.5
451.104	86.5
451.324	76.5
451.545	88.5
451.766	66.5
451.986	65.5
452.207	82.5
452.428	101.5
452.648	90.5
452.869	97.5
453.089	81.5
453.31	84.5
453.53	87.5
453.751	85.5
453.971	79.5
454.192	90.5
454.412	77.5
454.633	76.5
454.853	77.5
455.073	95.5
455.294	96.5
455.514	92.5
455.734	78.5
455.955	73.5
456.175	83.5
456.395	72.5
456.616	80.5
456.836	74.5
457.056	75.5
457.276	69.5
457.497	74.5
457.717	79.5
457.937	86.5
458.157	73.5
458.377	96.5
458.598	89.5
458.818	73.5
459.038	84.5
459.258	95.5
459.478	77.5
459.698	89.5
459.918	91.5
460.138	78.5
460.358	74.5
460.578	93.5
460.798	85.5
461.018	93.5
461.238	82.5
461.458	86.5
461.678	84.5
461.898	79.5
462.118	74.5
462.338	78.5
462.558	92.5
462.777	92.5
462.997	84.5
463.217	86.5
463.437	74.5
463.657	97.5
463.876	77.5
464.096	77.5
464.316	86.5
464.536	81.5
464.755	83.5
464.975	72.5
465.195	77.5
465.414	90.5
465.634	78.5
465.854	83.5
466.073	78.5
466.293	82.5
466.512	79.5
466.732	84.5
466.951	90.5
467.171	89.5
467.391	75.5
467.61	76.5
467.829	104.5
468.049	95.5
468.268	74.5
468.488	71.5
468.707	84.5
468.927	82.5
469.146	91.5
469.365	79.5
469.585	92.5
469.804	91.5
470.023	70.5
470.243	90.5
470.462	83.5
470.681	79.5
470.901	80.5
471.12	84.5
471.339	80.5
471.558	86.5
471.777	95.5
471.997	84.5
472.216	84.5
472.435	74.5
472.654	73.5
472.873	87.5
473.092	85.5
473.311	88.5
473.53	90.5
473.749	82.5
473.968	86.5
474.187	92.5
474.406	84.5
474.625	84.5
474.844	79.5
475.063	69.5
475.282	85.5
475.501	90.5
475.72	85.5
475.939	88.5
476.158	80.5
476.377	89.5
476.596	87.5
476.814	91.5
477.033	88.5
477.252	83.5
477.471	83.5
477.69	83.5
477.908	91.5
478.127	68.5
478.346	82.5
478.564	82.5
478.783	79.5
479.002	89.5
479.22	82.5
479.439	90.5
479.658	82.5
479.876	80.5
480.095	89.5
480.313	80.5
480.532	84.5
480.751	79.5
480.969	90.5
481.188	77.5
481.406	88.5
481.624	75.5
481.843	78.5
482.061	85.5
482.28	81.5
482.498	81.5
482.717	70.5
482.935	89.5
483.153	84.5
483.372	90.5
483.59	73.5
483.808	68.5
484.027	82.5
484.245	78.5
484.463	86.5
484.681	83.5
484.9	101.5
485.118	78.5
485.336	85.5
485.554	86.5
485.772	86.5
485.99	89.5
486.209	82.5
486.427	84.5
486.645	93.5
486.863	92.5
487.081	93.5
487.299	90.5
487.517	88.5
487.735	72.5
487.953	97.5
488.171	95.5
488.389	85.5
488.607	79.5
488.825	79.5
489.043	74.5
489.261	86.5
489.479	86.5
489.696	81.5
489.914	84.5
490.132	90.5
490.35	88.5
490.568	83.5
490.786	86.5
491.003	90.5
491.221	98.5
491.439	81.5
491.657	75.5
491.874	100.5
492.092	77.5
492.31	77.5
492.527	81.5
492.745	87.5
492.963	90.5
493.18	85.5
493.398	103.5
493.615	97.5
493.833	91.5
494.05	81.5
494.268	93.5
494.485	86.5
494.703	83.5
494.92	82.5
495.138	95.5
495.355	81.5
495.573	92.5
495.79	74.5
496.008	81.5
496.225	87.5
496.442	89.5
496.66	84.5
496.877	75.5
497.094	92.5
497.312	83.5
497.529	84.5
497.746	81.5
497.963	82.5
498.181	75.5
498.398	80.5
498.615	83.5
498.832	72.5
499.049	88.5
499.267	89.5
499.484	83.5
499.701	72.5
499.918	106.5
500.135	82.5
500.352	94.5
500.569	83.5
500.786	84.5
501.003	86.5
501.22	100.5
501.437	96.5
501.654	90.5
501.871	81.5
502.088	77.5
502.305	82.5
502.522	80.5
502.739	91.5
502.956	85.5
503.172	85.5
503.389	92.5
503.606	92.5
503.823	79.5
504.04	91.5
504.256	86.5
504.473	101.5
504.69	93.5
504.907	86.5
505.123	93.5
505.34	82.5
505.557	73.5
505.773	91.5
505.99	75.5
506.207	92.5
506.423	84.5
506.64	65.5
506.856	86.5
507.073	83.5
507.289	86.5
507.506	81.5
507.722	70.5
507.939	82.5
508.155	85.5
508.372	85.5
508.588	74.5
508.805	96.5
509.021	89.5
509.238	88.5
509.454	94.5
509.67	92.5
509.887	79.5
510.103	94.5
510.319	80.5
510.536	86.5
510.752	82.5
510.968	73.5
511.184	83.5
511.401	79.5
511.617	77.5
511.833	92.5
512.049	77.5
512.265	101.5
512.481	79.5
512.698	91.5
512.914	90.5
513.13	80.5
513.346	94.5
513.562	86.5
513.778	90.5
513.994	81.5
514.21	79.5
514.426	78.5
514.642	81.5
514.858	86.5
515.074	90.5
515.29	97.5
515.506	86.5
515.721	81.5
515.937	100.5
516.153	80.5
516.369	85.5
516.585	97.5
516.801	88.5
517.016	93.5
517.232	81.5
517.448	85.5
517.664	90.5
517.879	104.5
518.095	80.5
518.311	83.5
518.527	94.5
518.742	91.5
518.958	90.5
519.173	66.5
519.389	94.5
519.605	88.5
519.82	86.5
520.036	103.5
520.251	80.5
520.467	76.5
520.682	87.5
520.898	87.5
521.113	105.5
521.329	89.5
521.544	81.5
521.76	84.5
521.975	84.5
522.19	74.5
522.406	81.5
522.621	84.5
522.836	85.5
523.052	82.5
523.267	83.5
523.482	92.5
523.698	93.5
523.913	82.5
524.128	79.5
524.343	84.5
524.559	82.5
524.774	72.5
524.989	84.5
525.204	86.5
525.419	95.5
525.634	86.5
525.849	94.5
526.064	91.5
526.28	104.5
526.495	100.5
526.71	111.5
526.925	95.5
527.14	103.5
527.355	92.5
527.57	86.5
527.785	83.5
527.999	80.5
528.214	73.5
528.429	90.5
528.644	93.5
528.859	78.5
529.074	75.5
529.289	81.5
529.503	78.5
529.718	91.5
529.933	87.5
530.148	89.5
530.363	89.5
530.577	92.5
530.792	93.5
531.007	84.5
531.221	93.5
531.436	97.5
531.651	101.5
531.865	83.5
532.08	79.5
532.295	84.5
532.509	75.5
532.724	88.5
532.938	81.5
533.153	80.5
533.367	81.5
533.582	92.5
533.796	86.5
534.011	82.5
534.225	89.5
534.44	96.5
534.654	99.5
534.868	94.5
535.083	97.5
535.297	92.5
535.511	103.5
535.726	89.5
535.94	100.5
536.154	92.5
536.369	97.5
536.583	101.5
536.797	96.5
537.011	96.5
537.225	88.5
537.44	86.5
537.654	82.5
537.868	80.5
538.082	84.5
538.296	84.5
538.51	87.5
538.724	96.5
538.938	91.5
539.153	84.5
539.367	80.5
539.581	87.5
539.795	78.5
540.009	108.5
540.222	89.5
540.436	83.5
540.65	93.5
540.864	74.5
541.078	101.5
541.292	79.5
541.506	80.5
541.72	79.5
541.934	89.5
542.147	89.5
542.361	83.5
542.575	91.5
542.789	90.5
543.002	77.5
543.216	79.5
543.43	89.5
543.644	82.5
543.857	84.5
544.071	78.5
544.285	90.5
544.498	77.5
544.712	98.5
544.925	97.5
545.139	81.5
545.352	93.5
545.566	83.5
545.779	89.5
545.993	89.5
546.206	92.5
546.42	93.5
546.633	100.5
546.847	100.5
547.06	86.5
547.274	100.5
547.487	106.5
547.7	101.5
547.914	77.5
548.127	98.5
548.34	89.5
548.554	103.5
548.767	95.5
548.98	77.5
549.193	93.5
549.407	91.5
549.62	88.5
549.833	90.5
550.046	85.5
550.259	88.5
550.473	89.5
550.686	83.5
550.899	105.5
551.112	109.5
551.325	113.5
551.538	108.5
551.751	84.5
551.964	76.5
552.177	108.5
552.39	102.5
552.603	90.5
552.816	101.5
553.029	102.5
553.242	101.5
553.455	106.5
553.667	102.5
553.88	96.5
554.093	104.5
554.306	104.5
554.519	113.5
554.732	110.5
554.944	93.5
555.157	103.5
555.37	112.5
555.583	101.5
555.795	113.5
556.008	91.5
556.221	88.5
556.433	96.5
556.646	96.5
556.859	93.5
557.071	89.5
557.284	105.5
557.496	78.5
557.709	98.5
557.921	91.5
558.134	97.5
558.346	104.5
558.559	101.5
558.771	94.5
558.984	128.5
559.196	132.5
559.409	105.5
559.621	122.5
559.833	98.5
560.046	120.5
560.258	102.5
560.47	104.5
560.683	93.5
560.895	81.5
561.107	97.5
561.32	102.5
561.532	90.5
561.744	97.5
561.956	97.5
562.168	92.5
562.381	79.5
562.593	84.5
562.805	88.5
563.017	91.5
563.229	79.5
563.441	92.5
563.653	77.5
563.865	93.5
564.077	83.5
564.289	81.5
564.501	92.5
564.713	92.5
564.925	90.5
565.137	87.5
565.349	80.5
565.561	88.5
565.773	86.5
565.985	81.5
566.197	91.5
566.408	70.5
566.62	95.5
566.832	83.5
567.044	86.5
567.255	86.5
567.467	97.5
567.679	84.5
567.891	86.5
568.102	94.5
568.314	84.5
568.526	82.5
568.737	86.5
568.949	101.5
569.161	77.5
569.372	82.5
569.584	86.5
569.795	88.5
570.007	81.5
570.218	88.5
570.43	101.5
570.641	92.5
570.853	93.5
571.064	91.5
571.276	85.5
571.487	76.5
571.698	89.5
571.91	92.5
572.121	96.5
572.333	89.5
572.544	89.5
572.755	75.5
572.966	90.5
573.178	101.5
573.389	74.5
573.6	86.5
573.811	99.5
574.023	76.5
574.234	84.5
574.445	88.5
574.656	95.5
574.867	88.5
575.078	100.5
575.289	90.5
575.501	93.5
575.712	90.5
575.923	92.5
576.134	82.5
576.345	81.5
576.556	85.5
576.767	85.5
576.978	93.5
577.188	76.5
577.399	94.5
577.61	89.5
577.821	84.5
578.032	78.5
578.243	89.5
578.454	100.5
578.665	100.5
578.875	79.5
579.086	87.5
579.297	94.5
579.508	85.5
579.718	101.5
579.929	101.5
580.14	87.5
580.35	94.5
580.561	88.5
580.772	87.5
580.982	84.5
581.193	83.5
581.403	78.5
581.614	88.5
581.825	89.5
582.035	84.5
582.246	83.5
582.456	102.5
582.667	91.5
582.877	78.5
583.087	88.5
583.298	102.5
583.508	94.5
583.719	91.5
583.929	87.5
584.139	85.5
584.35	75.5
584.56	80.5
584.77	102.5
584.981	97.5
585.191	94.5
585.401	91.5
585.611	93.5
585.821	94.5
586.032	108.5
586.242	104.5
586.452	81.5
586.662	82.5
586.872	90.5
587.082	106.5
587.292	86.5
587.502	80.5
587.713	78.5
587.923	83.5
588.133	94.5
588.343	92.5
588.553	87.5
588.762	92.5
588.972	95.5
589.182	139.5
589.392	114.5
589.602	108.5
589.812	127.5
590.022	110.5
590.232	95.5
590.441	84.5
590.651	89.5
590.861	96.5
591.071	85.5
591.281	88.5
591.49	91.5
591.7	94.5
591.91	91.5
592.119	79.5
592.329	96.5
592.539	91.5
592.748	90.5
592.958	81.5
593.167	89.5
593.377	97.5
593.587	90.5
593.796	94.5
594.006	86.5
594.215	82.5
594.424	99.5
594.634	86.5
594.843	81.5
595.053	83.5
595.262	81.5
595.472	89.5
595.681	85.5
595.89	91.5
596.1	81.5
596.309	101.5
596.518	89.5
596.727	82.5
596.937	92.5
597.146	91.5
597.355	93.5
597.564	94.5
597.774	94.5
597.983	85.5
598.192	82.5
598.401	89.5
598.61	93.5
598.819	90.5
599.028	106.5
599.237	90.5
599.446	95.5
599.655	92.5
599.864	91.5
600.073	94.5
600.282	101.5
600.491	91.5
600.7	86.5
600.909	105.5
601.118	85.5
601.327	86.5
601.536	83.5
601.745	85.5
601.953	106.5
602.162	107.5
602.371	88.5
602.58	95.5
602.789	107.5
602.997	82.5
603.206	94.5
603.415	100.5
603.623	85.5
603.832	78.5
604.041	103.5
604.249	89.5
604.458	91.5
604.666	101.5
604.875	104.5
605.084	102.5
605.292	95.5
605.501	96.5
605.709	84.5
605.918	103.5
606.126	107.5
606.334	89.5
606.543	99.5
606.751	108.5
606.96	93.5
607.168	96.5
607.376	108.5
607.585	97.5
607.793	102.5
608.001	107.5
608.21	93.5
608.418	93.5
608.626	99.5
608.834	106.5
609.043	103.5
609.251	104.5
609.459	105.5
609.667	104.5
609.875	101.5
610.083	101.5
610.291	109.5
610.499	123.5
610.707	92.5
610.916	105.5
611.124	90.5
611.332	100.5
611.54	74.5
611.748	100.5
611.955	105.5
612.163	101.5
612.371	122.5
612.579	121.5
612.787	107.5
612.995	105.5
613.203	90.5
613.411	100.5
613.618	97.5
613.826	106.5
614.034	110.5
614.242	111.5
614.449	100.5
614.657	107.5
614.865	98.5
615.072	122.5
615.28	101.5
615.488	103.5
615.695	92.5
615.903	92.5
616.111	91.5
616.318	128.5
616.526	121.5
616.733	119.5
616.941	113.5
617.148	118.5
617.356	113.5
617.563	112.5
617.771	100.5
617.978	98.5
618.185	96.5
618.393	108.5
618.6	108.5
618.807	92.5
619.015	93.5
619.222	78.5
619.429	89.5
619.637	92.5
619.844	105.5
620.051	95.5
620.258	108.5
620.466	96.5
620.673	94.5
620.88	108.5
621.087	101.5
621.294	108.5
621.501	98.5
621.708	98.5
621.915	82.5
622.122	93.5
622.329	97.5
622.536	93.5
622.743	96.5
622.95	116.5
623.157	97.5
623.364	104.5
623.571	94.5
623.778	112.5
623.985	110.5
624.192	112.5
624.399	112.5
624.606	130.5
624.812	121.5
625.019	112.5
625.226	104.5
625.433	110.5
625.639	116.5
625.846	96.5
626.053	106.5
626.259	97.5
626.466	101.5
626.673	92.5
626.879	98.5
627.086	102.5
627.293	102.5
627.499	106.5
627.706	86.5
627.912	102.5
628.119	103.5
628.325	93.5
628.532	110.5
628.738	78.5
628.945	78.5
629.151	87.5
629.357	76.5
629.564	83.5
629.77	94.5
629.976	101.5
630.183	76.5
630.389	80.5
630.595	77.5
630.802	81.5
631.008	84.5
631.214	77.5
631.42	95.5
631.627	110.5
631.833	98.5
632.039	97.5
632.245	86.5
632.451	99.5
632.657	82.5
632.863	90.5
633.069	91.5
633.275	95.5
633.481	82.5
633.688	82.5
633.893	84.5
634.099	83.5
634.305	94.5
634.511	84.5
634.717	102.5
634.923	91.5
635.129	96.5
635.335	92.5
635.541	85.5
635.747	87.5
635.952	86.5
636.158	73.5
636.364	95.5
636.57	88.5
636.775	82.5
636.981	80.5
637.187	78.5
637.392	87.5
637.598	87.5
637.804	93.5
638.009	79.5
638.215	88.5
638.421	63.5
638.626	92.5
638.832	73.5
639.037	91.5
639.243	78.5
639.448	101.5
639.654	86.5
639.859	94.5
640.065	91.5
640.27	92.5
640.475	93.5
640.681	85.5
640.886	85.5
641.091	81.5
641.297	86.5
641.502	83.5
641.707	90.5
641.913	97.5
642.118	80.5
642.323	95.5
642.528	85.5
642.733	88.5
642.939	88.5
643.144	92.5
643.349	84.5
643.554	91.5
643.759	79.5
643.964	87.5
644.169	98.5
644.374	91.5
644.579	87.5
644.784	103.5
644.989	78.5
645.194	92.5
645.399	91.5
645.604	78.5
645.809	90.5
646.014	93.5
646.219	84.5
646.423	110.5
646.628	84.5
646.833	101.5
647.038	89.5
647.243	95.5
647.447	91.5
647.652	78.5
647.857	80.5
648.062	102.5
648.266	93.5
648.471	89.5
648.676	92.5
648.88	80.5
649.085	76.5
649.289	77.5
649.494	91.5
649.698	105.5
649.903	86.5
650.107	88.5
650.312	95.5
650.516	69.5
650.721	84.5
650.925	86.5
651.13	87.5
651.334	84.5
651.539	79.5
651.743	69.5
651.947	76.5
652.152	84.5
652.356	84.5
652.56	69.5
652.764	92.5
652.969	78.5
653.173	89.5
653.377	86.5
653.581	80.5
653.785	72.5
653.99	85.5
654.194	74.5
654.398	87.5
654.602	86.5
654.806	86.5
655.01	81.5
655.214	80.5
655.418	79.5
655.622	82.5
655.826	92.5
656.03	79.5
656.234	80.5
656.438	86.5
656.642	84.5
656.846	80.5
657.049	84.5
657.253	88.5
657.457	85.5
657.661	84.5
657.865	82.5
658.068	90.5
658.272	87.5
658.476	84.5
658.68	81.5
658.883	83.5
659.087	88.5
659.291	75.5
659.494	74.5
659.698	69.5
659.901	78.5
660.105	84.5
660.309	78.5
660.512	78.5
660.716	71.5
660.919	86.5
661.123	91.5
661.326	88.5
661.53	68.5
661.733	80.5
661.936	92.5
662.14	75.5
662.343	62.5
662.546	70.5
662.75	94.5
662.953	82.5
663.156	75.5
663.36	66.5
663.563	77.5
663.766	92.5
663.969	86.5
664.173	85.5
664.376	75.5
664.579	82.5
664.782	87.5
664.985	82.5
665.188	73.5
665.391	81.5
665.594	80.5
665.797	70.5
666	77.5
666.203	94.5
666.406	72.5
666.609	78.5
666.812	83.5
667.015	101.5
667.218	86.5
667.421	80.5
667.624	71.5
667.827	79.5
668.03	94.5
668.232	78.5
668.435	86.5
668.638	79.5
668.841	78.5
669.043	85.5
669.246	80.5
669.449	80.5
669.651	80.5
669.854	80.5
670.057	88.5
670.259	78.5
670.462	78.5
670.665	87.5
670.867	79.5
671.07	78.5
671.272	87.5
671.475	78.5
671.677	86.5
671.88	77.5
672.082	82.5
672.284	94.5
672.487	74.5
672.689	66.5
672.892	82.5
