Data from Uncirc_2002_H10_HRD10591_00095.txt Node
Date: Wed Jan 03 10:40:00 EST 2024
User: Yrep
Spectrometer: HR+D1059
Trigger mode: 1
Integration Time (sec): 1.000000E-1
Scans to average: 1
Electric dark correction enabled: true
Nonlinearity correction enabled: false
Boxcar width: 0
XAxis mode: Wavelengths
Number of Pixels in Spectrum: 2048
>>>>>Begin Spectral Data<<<<<
223.165	-3.31
223.4	-3.31
223.635	-3.31
223.869	-22.31
224.104	-13.31
224.338	-28.31
224.573	-11.31
224.808	-0.31
225.042	-13.31
225.277	-13.31
225.511	9.69
225.746	1.69
225.98	14.69
226.215	18.69
226.449	9.69
226.683	12.69
226.918	19.69
227.152	18.69
227.387	34.69
227.621	35.69
227.856	39.69
228.09	43.69
228.324	51.69
228.559	56.69
228.793	59.69
229.027	68.69
229.262	59.69
229.496	74.69
229.73	86.69
229.964	89.69
230.199	79.69
230.433	66.69
230.667	75.69
230.901	72.69
231.136	75.69
231.37	63.69
231.604	69.69
231.838	83.69
232.072	67.69
232.306	63.69
232.541	70.69
232.775	76.69
233.009	67.69
233.243	71.69
233.477	85.69
233.711	70.69
233.945	67.69
234.179	80.69
234.413	91.69
234.647	81.69
234.881	73.69
235.115	86.69
235.349	74.69
235.583	73.69
235.817	84.69
236.051	74.69
236.285	80.69
236.519	86.69
236.753	70.69
236.987	87.69
237.221	84.69
237.455	79.69
237.689	84.69
237.922	62.69
238.156	72.69
238.39	82.69
238.624	73.69
238.858	66.69
239.091	76.69
239.325	83.69
239.559	54.69
239.793	78.69
240.027	81.69
240.26	78.69
240.494	72.69
240.728	74.69
240.961	76.69
241.195	75.69
241.429	73.69
241.662	76.69
241.896	67.69
242.13	85.69
242.363	74.69
242.597	81.69
242.83	79.69
243.064	73.69
243.298	69.69
243.531	71.69
243.765	74.69
243.998	69.69
244.232	80.69
244.465	78.69
244.699	68.69
244.932	75.69
245.166	82.69
245.399	78.69
245.633	68.69
245.866	63.69
246.099	78.69
246.333	70.69
246.566	72.69
246.8	95.69
247.033	72.69
247.266	69.69
247.5	75.69
247.733	75.69
247.966	80.69
248.2	84.69
248.433	76.69
248.666	73.69
248.899	99.69
249.133	96.69
249.366	91.69
249.599	91.69
249.832	83.69
250.066	85.69
250.299	91.69
250.532	71.69
250.765	84.69
250.998	66.69
251.231	71.69
251.465	77.69
251.698	81.69
251.931	79.69
252.164	78.69
252.397	74.69
252.63	87.69
252.863	67.69
253.096	70.69
253.329	79.69
253.562	74.69
253.795	104.69
254.028	96.69
254.261	77.69
254.494	78.69
254.727	82.69
254.96	76.69
255.193	80.69
255.426	72.69
255.659	67.69
255.892	93.69
256.124	69.69
256.357	70.69
256.59	67.69
256.823	70.69
257.056	94.69
257.289	80.69
257.521	72.69
257.754	70.69
257.987	83.69
258.22	73.69
258.452	88.69
258.685	74.69
258.918	70.69
259.151	79.69
259.383	92.69
259.616	77.69
259.849	83.69
260.081	80.69
260.314	80.69
260.547	76.69
260.779	90.69
261.012	77.69
261.244	85.69
261.477	93.69
261.71	106.69
261.942	94.69
262.175	117.69
262.407	84.69
262.64	75.69
262.872	67.69
263.105	80.69
263.337	81.69
263.57	86.69
263.802	82.69
264.035	77.69
264.267	77.69
264.499	77.69
264.732	80.69
264.964	69.69
265.197	82.69
265.429	78.69
265.661	78.69
265.894	91.69
266.126	92.69
266.358	83.69
266.591	79.69
266.823	83.69
267.055	84.69
267.287	59.69
267.52	81.69
267.752	76.69
267.984	86.69
268.216	74.69
268.448	83.69
268.681	98.69
268.913	78.69
269.145	70.69
269.377	79.69
269.609	83.69
269.841	79.69
270.073	82.69
270.306	85.69
270.538	78.69
270.77	78.69
271.002	75.69
271.234	82.69
271.466	84.69
271.698	80.69
271.93	79.69
272.162	78.69
272.394	81.69
272.626	76.69
272.858	83.69
273.09	86.69
273.322	82.69
273.553	69.69
273.785	86.69
274.017	95.69
274.249	69.69
274.481	84.69
274.713	82.69
274.945	94.69
275.176	82.69
275.408	77.69
275.64	73.69
275.872	84.69
276.104	65.69
276.335	93.69
276.567	92.69
276.799	100.69
277.031	85.69
277.262	85.69
277.494	76.69
277.726	94.69
277.957	100.69
278.189	82.69
278.421	84.69
278.652	88.69
278.884	84.69
279.115	85.69
279.347	96.69
279.579	79.69
279.81	101.69
280.042	78.69
280.273	68.69
280.505	80.69
280.736	76.69
280.968	83.69
281.199	95.69
281.431	91.69
281.662	77.69
281.894	94.69
282.125	90.69
282.356	100.69
282.588	137.69
282.819	116.69
283.051	85.69
283.282	82.69
283.513	102.69
283.745	84.69
283.976	88.69
284.207	75.69
284.439	81.69
284.67	83.69
284.901	96.69
285.132	79.69
285.364	81.69
285.595	78.69
285.826	84.69
286.057	86.69
286.288	79.69
286.52	79.69
286.751	78.69
286.982	76.69
287.213	68.69
287.444	76.69
287.675	80.69
287.906	100.69
288.138	69.69
288.369	83.69
288.6	84.69
288.831	83.69
289.062	76.69
289.293	79.69
289.524	85.69
289.755	94.69
289.986	76.69
290.217	82.69
290.448	88.69
290.679	89.69
290.91	78.69
291.141	84.69
291.371	99.69
291.602	79.69
291.833	83.69
292.064	84.69
292.295	93.69
292.526	89.69
292.757	84.69
292.987	88.69
293.218	87.69
293.449	84.69
293.68	90.69
293.91	72.69
294.141	79.69
294.372	86.69
294.603	86.69
294.833	79.69
295.064	84.69
295.295	82.69
295.525	85.69
295.756	104.69
295.987	111.69
296.217	135.69
296.448	123.69
296.679	84.69
296.909	83.69
297.14	78.69
297.37	76.69
297.601	84.69
297.831	90.69
298.062	84.69
298.292	95.69
298.523	96.69
298.753	86.69
298.984	94.69
299.214	87.69
299.445	94.69
299.675	91.69
299.905	88.69
300.136	101.69
300.366	86.69
300.597	96.69
300.827	84.69
301.057	87.69
301.288	83.69
301.518	83.69
301.748	97.69
301.979	103.69
302.209	79.69
302.439	88.69
302.669	92.69
302.9	85.69
303.13	81.69
303.36	83.69
303.59	90.69
303.82	110.69
304.051	87.69
304.281	72.69
304.511	98.69
304.741	86.69
304.971	70.69
305.201	86.69
305.431	84.69
305.661	85.69
305.891	87.69
306.121	90.69
306.352	96.69
306.582	101.69
306.812	94.69
307.042	79.69
307.272	90.69
307.502	92.69
307.731	98.69
307.961	92.69
308.191	103.69
308.421	88.69
308.651	93.69
308.881	85.69
309.111	94.69
309.341	92.69
309.571	88.69
309.8	92.69
310.03	85.69
310.26	111.69
310.49	86.69
310.72	96.69
310.949	98.69
311.179	101.69
311.409	84.69
311.639	100.69
311.868	78.69
312.098	88.69
312.328	93.69
312.557	93.69
312.787	91.69
313.017	110.69
313.246	96.69
313.476	86.69
313.706	76.69
313.935	99.69
314.165	96.69
314.394	101.69
314.624	103.69
314.853	92.69
315.083	76.69
315.312	89.69
315.542	87.69
315.771	96.69
316.001	94.69
316.23	91.69
316.46	87.69
316.689	84.69
316.919	92.69
317.148	92.69
317.377	86.69
317.607	86.69
317.836	96.69
318.065	95.69
318.295	94.69
318.524	88.69
318.753	87.69
318.983	86.69
319.212	106.69
319.441	111.69
319.67	114.69
319.9	83.69
320.129	92.69
320.358	102.69
320.587	103.69
320.816	86.69
321.046	92.69
321.275	93.69
321.504	96.69
321.733	93.69
321.962	78.69
322.191	99.69
322.42	94.69
322.649	98.69
322.878	94.69
323.108	112.69
323.337	107.69
323.566	129.69
323.795	142.69
324.024	190.69
324.253	351.69
324.482	734.69
324.71	1468.69
324.939	1938.69
325.168	716.69
325.397	214.69
325.626	141.69
325.855	122.69
326.084	119.69
326.313	126.69
326.542	142.69
326.77	219.69
326.999	408.69
327.228	794.69
327.457	1496.69
327.686	1185.69
327.914	333.69
328.143	183.69
328.372	128.69
328.6	113.69
328.829	115.69
329.058	139.69
329.287	125.69
329.515	102.69
329.744	90.69
329.972	106.69
330.201	101.69
330.43	100.69
330.658	107.69
330.887	127.69
331.115	109.69
331.344	82.69
331.572	96.69
331.801	113.69
332.03	96.69
332.258	98.69
332.486	100.69
332.715	73.69
332.943	82.69
333.172	94.69
333.4	97.69
333.629	79.69
333.857	109.69
334.085	106.69
334.314	84.69
334.542	105.69
334.771	100.69
334.999	99.69
335.227	85.69
335.455	107.69
335.684	102.69
335.912	82.69
336.14	87.69
336.369	90.69
336.597	94.69
336.825	88.69
337.053	78.69
337.281	99.69
337.51	92.69
337.738	76.69
337.966	84.69
338.194	94.69
338.422	98.69
338.65	88.69
338.878	91.69
339.106	84.69
339.334	101.69
339.562	96.69
339.79	94.69
340.018	102.69
340.246	88.69
340.474	90.69
340.702	87.69
340.93	84.69
341.158	94.69
341.386	84.69
341.614	98.69
341.842	101.69
342.07	96.69
342.298	86.69
342.526	86.69
342.754	92.69
342.981	81.69
343.209	91.69
343.437	103.69
343.665	92.69
343.893	89.69
344.12	75.69
344.348	83.69
344.576	88.69
344.804	89.69
345.031	98.69
345.259	88.69
345.487	90.69
345.714	83.69
345.942	97.69
346.17	85.69
346.397	87.69
346.625	77.69
346.853	81.69
347.08	88.69
347.308	88.69
347.535	84.69
347.763	93.69
347.99	102.69
348.218	107.69
348.445	101.69
348.673	85.69
348.9	94.69
349.128	93.69
349.355	97.69
349.583	97.69
349.81	92.69
350.037	91.69
350.265	91.69
350.492	91.69
350.72	106.69
350.947	104.69
351.174	103.69
351.402	112.69
351.629	92.69
351.856	106.69
352.083	86.69
352.311	109.69
352.538	112.69
352.765	99.69
352.992	87.69
353.22	94.69
353.447	90.69
353.674	86.69
353.901	81.69
354.128	78.69
354.355	96.69
354.583	96.69
354.81	95.69
355.037	101.69
355.264	96.69
355.491	79.69
355.718	105.69
355.945	92.69
356.172	84.69
356.399	96.69
356.626	90.69
356.853	97.69
357.08	87.69
357.307	101.69
357.534	69.69
357.761	78.69
357.988	94.69
358.215	94.69
358.441	106.69
358.668	96.69
358.895	70.69
359.122	77.69
359.349	103.69
359.576	89.69
359.802	103.69
360.029	93.69
360.256	92.69
360.483	96.69
360.709	90.69
360.936	82.69
361.163	106.69
361.39	96.69
361.616	95.69
361.843	102.69
362.07	84.69
362.296	83.69
362.523	73.69
362.749	86.69
362.976	82.69
363.203	95.69
363.429	81.69
363.656	89.69
363.882	84.69
364.109	85.69
364.335	90.69
364.562	77.69
364.788	89.69
365.015	92.69
365.241	99.69
365.468	94.69
365.694	96.69
365.92	83.69
366.147	100.69
366.373	96.69
366.599	93.69
366.826	70.69
367.052	82.69
367.278	81.69
367.505	89.69
367.731	88.69
367.957	70.69
368.184	95.69
368.41	84.69
368.636	104.69
368.862	111.69
369.089	108.69
369.315	83.69
369.541	96.69
369.767	106.69
369.993	73.69
370.219	86.69
370.445	80.69
370.672	77.69
370.898	95.69
371.124	82.69
371.35	82.69
371.576	83.69
371.802	77.69
372.028	93.69
372.254	82.69
372.48	73.69
372.706	83.69
372.932	84.69
373.158	86.69
373.384	85.69
373.61	71.69
373.835	88.69
374.061	86.69
374.287	86.69
374.513	95.69
374.739	74.69
374.965	93.69
375.191	70.69
375.416	83.69
375.642	82.69
375.868	84.69
376.094	90.69
376.319	78.69
376.545	86.69
376.771	92.69
376.997	87.69
377.222	74.69
377.448	91.69
377.674	73.69
377.899	75.69
378.125	82.69
378.35	87.69
378.576	79.69
378.802	79.69
379.027	86.69
379.253	87.69
379.478	88.69
379.704	76.69
379.929	88.69
380.155	85.69
380.38	79.69
380.606	93.69
380.831	96.69
381.057	85.69
381.282	96.69
381.507	87.69
381.733	96.69
381.958	74.69
382.184	90.69
382.409	91.69
382.634	100.69
382.86	92.69
383.085	95.69
383.31	79.69
383.535	100.69
383.761	80.69
383.986	94.69
384.211	88.69
384.436	83.69
384.662	87.69
384.887	86.69
385.112	100.69
385.337	93.69
385.562	82.69
385.787	96.69
386.013	89.69
386.238	95.69
386.463	105.69
386.688	83.69
386.913	97.69
387.138	106.69
387.363	85.69
387.588	91.69
387.813	93.69
388.038	96.69
388.263	96.69
388.488	99.69
388.713	100.69
388.938	93.69
389.163	88.69
389.387	110.69
389.612	86.69
389.837	76.69
390.062	81.69
390.287	71.69
390.512	84.69
390.736	104.69
390.961	98.69
391.186	86.69
391.411	88.69
391.636	75.69
391.86	76.69
392.085	91.69
392.31	72.69
392.534	78.69
392.759	83.69
392.984	80.69
393.208	84.69
393.433	88.69
393.658	80.69
393.882	94.69
394.107	91.69
394.331	81.69
394.556	86.69
394.78	87.69
395.005	80.69
395.229	91.69
395.454	84.69
395.678	80.69
395.903	86.69
396.127	94.69
396.352	80.69
396.576	73.69
396.801	77.69
397.025	75.69
397.249	82.69
397.474	82.69
397.698	84.69
397.922	91.69
398.147	84.69
398.371	92.69
398.595	76.69
398.82	85.69
399.044	78.69
399.268	86.69
399.492	84.69
399.717	79.69
399.941	75.69
400.165	83.69
400.389	91.69
400.613	84.69
400.837	95.69
401.062	78.69
401.286	72.69
401.51	75.69
401.734	87.69
401.958	87.69
402.182	129.69
402.406	162.69
402.63	95.69
402.854	73.69
403.078	79.69
403.302	91.69
403.526	95.69
403.75	88.69
403.974	92.69
404.198	84.69
404.422	82.69
404.645	83.69
404.869	85.69
405.093	69.69
405.317	81.69
405.541	88.69
405.765	80.69
405.988	97.69
406.212	177.69
406.436	220.69
406.66	134.69
406.883	110.69
407.107	82.69
407.331	93.69
407.555	85.69
407.778	84.69
408.002	72.69
408.226	86.69
408.449	83.69
408.673	103.69
408.896	88.69
409.12	90.69
409.344	70.69
409.567	85.69
409.791	85.69
410.014	82.69
410.238	92.69
410.461	72.69
410.685	89.69
410.908	85.69
411.132	91.69
411.355	89.69
411.578	84.69
411.802	74.69
412.025	92.69
412.249	94.69
412.472	95.69
412.695	88.69
412.919	64.69
413.142	94.69
413.365	91.69
413.589	65.69
413.812	74.69
414.035	74.69
414.258	95.69
414.482	99.69
414.705	86.69
414.928	90.69
415.151	84.69
415.374	84.69
415.597	90.69
415.821	82.69
416.044	74.69
416.267	88.69
416.49	96.69
416.713	82.69
416.936	79.69
417.159	74.69
417.382	91.69
417.605	77.69
417.828	83.69
418.051	102.69
418.274	75.69
418.497	90.69
418.72	77.69
418.943	93.69
419.166	95.69
419.389	97.69
419.611	92.69
419.834	92.69
420.057	87.69
420.28	94.69
420.503	80.69
420.726	82.69
420.948	83.69
421.171	101.69
421.394	95.69
421.617	88.69
421.839	90.69
422.062	92.69
422.285	88.69
422.507	87.69
422.73	83.69
422.953	71.69
423.175	88.69
423.398	85.69
423.621	79.69
423.843	76.69
424.066	81.69
424.288	87.69
424.511	85.69
424.733	90.69
424.956	94.69
425.178	91.69
425.401	96.69
425.623	99.69
425.846	90.69
426.068	99.69
426.291	91.69
426.513	87.69
426.735	83.69
426.958	82.69
427.18	100.69
427.402	126.69
427.625	147.69
427.847	115.69
428.069	110.69
428.292	96.69
428.514	83.69
428.736	83.69
428.958	80.69
429.181	76.69
429.403	77.69
429.625	79.69
429.847	84.69
430.069	92.69
430.292	96.69
430.514	81.69
430.736	68.69
430.958	86.69
431.18	85.69
431.402	77.69
431.624	80.69
431.846	83.69
432.068	75.69
432.29	71.69
432.512	70.69
432.734	85.69
432.956	89.69
433.178	80.69
433.4	87.69
433.622	92.69
433.844	89.69
434.066	92.69
434.287	79.69
434.509	71.69
434.731	77.69
434.953	75.69
435.175	62.69
435.397	85.69
435.618	91.69
435.84	103.69
436.062	101.69
436.284	89.69
436.505	82.69
436.727	93.69
436.949	86.69
437.17	87.69
437.392	83.69
437.614	100.69
437.835	96.69
438.057	108.69
438.278	92.69
438.5	90.69
438.721	98.69
438.943	84.69
439.165	85.69
439.386	94.69
439.608	98.69
439.829	107.69
440.05	113.69
440.272	112.69
440.493	88.69
440.715	93.69
440.936	98.69
441.158	87.69
441.379	86.69
441.6	86.69
441.822	86.69
442.043	81.69
442.264	86.69
442.486	108.69
442.707	88.69
442.928	109.69
443.149	115.69
443.371	122.69
443.592	96.69
443.813	114.69
444.034	97.69
444.255	86.69
444.476	84.69
444.698	80.69
444.919	94.69
445.14	111.69
445.361	112.69
445.582	102.69
445.803	132.69
446.024	123.69
446.245	112.69
446.466	99.69
446.687	88.69
446.908	74.69
447.129	78.69
447.35	82.69
447.571	90.69
447.792	78.69
448.013	92.69
448.234	102.69
448.455	96.69
448.675	100.69
448.896	96.69
449.117	107.69
449.338	97.69
449.559	135.69
449.779	118.69
450	87.69
450.221	86.69
450.442	77.69
450.662	81.69
450.883	92.69
451.104	100.69
451.324	84.69
451.545	69.69
451.766	77.69
451.986	75.69
452.207	79.69
452.428	78.69
452.648	95.69
452.869	118.69
453.089	118.69
453.31	96.69
453.53	88.69
453.751	90.69
453.971	98.69
454.192	96.69
454.412	94.69
454.633	74.69
454.853	95.69
455.073	78.69
455.294	73.69
455.514	71.69
455.734	84.69
455.955	75.69
456.175	83.69
456.395	86.69
456.616	84.69
456.836	86.69
457.056	86.69
457.276	86.69
457.497	88.69
457.717	85.69
457.937	99.69
458.157	78.69
458.377	82.69
458.598	103.69
458.818	130.69
459.038	143.69
459.258	125.69
459.478	83.69
459.698	83.69
459.918	79.69
460.138	79.69
460.358	84.69
460.578	82.69
460.798	99.69
461.018	95.69
461.238	80.69
461.458	84.69
461.678	69.69
461.898	71.69
462.118	77.69
462.338	92.69
462.558	81.69
462.777	87.69
462.997	86.69
463.217	85.69
463.437	83.69
463.657	87.69
463.876	85.69
464.096	78.69
464.316	90.69
464.536	93.69
464.755	96.69
464.975	88.69
465.195	150.69
465.414	144.69
465.634	92.69
465.854	88.69
466.073	78.69
466.293	71.69
466.512	82.69
466.732	84.69
466.951	68.69
467.171	85.69
467.391	96.69
467.61	104.69
467.829	116.69
468.049	89.69
468.268	87.69
468.488	83.69
468.707	91.69
468.927	80.69
469.146	78.69
469.365	82.69
469.585	98.69
469.804	104.69
470.023	101.69
470.243	100.69
470.462	92.69
470.681	102.69
470.901	73.69
471.12	84.69
471.339	83.69
471.558	75.69
471.777	88.69
471.997	85.69
472.216	77.69
472.435	97.69
472.654	81.69
472.873	78.69
473.092	88.69
473.311	92.69
473.53	82.69
473.749	89.69
473.968	93.69
474.187	106.69
474.406	94.69
474.625	73.69
474.844	70.69
475.063	98.69
475.282	68.69
475.501	78.69
475.72	86.69
475.939	78.69
476.158	73.69
476.377	71.69
476.596	78.69
476.814	71.69
477.033	87.69
477.252	86.69
477.471	79.69
477.69	86.69
477.908	90.69
478.127	87.69
478.346	79.69
478.564	85.69
478.783	90.69
479.002	95.69
479.22	87.69
479.439	94.69
479.658	84.69
479.876	94.69
480.095	84.69
480.313	89.69
480.532	74.69
480.751	88.69
480.969	86.69
481.188	94.69
481.406	93.69
481.624	94.69
481.843	77.69
482.061	79.69
482.28	72.69
482.498	78.69
482.717	84.69
482.935	86.69
483.153	93.69
483.372	100.69
483.59	79.69
483.808	87.69
484.027	75.69
484.245	86.69
484.463	92.69
484.681	91.69
484.9	66.69
485.118	88.69
485.336	90.69
485.554	83.69
485.772	90.69
485.99	103.69
486.209	113.69
486.427	93.69
486.645	101.69
486.863	110.69
487.081	97.69
487.299	87.69
487.517	97.69
487.735	94.69
487.953	84.69
488.171	90.69
488.389	106.69
488.607	97.69
488.825	87.69
489.043	86.69
489.261	102.69
489.479	91.69
489.696	77.69
489.914	77.69
490.132	83.69
490.35	80.69
490.568	95.69
490.786	93.69
491.003	70.69
491.221	85.69
491.439	86.69
491.657	88.69
491.874	88.69
492.092	74.69
492.31	80.69
492.527	72.69
492.745	79.69
492.963	90.69
493.18	75.69
493.398	93.69
493.615	92.69
493.833	78.69
494.05	86.69
494.268	104.69
494.485	97.69
494.703	81.69
494.92	98.69
495.138	75.69
495.355	106.69
495.573	94.69
495.79	91.69
496.008	87.69
496.225	70.69
496.442	87.69
496.66	94.69
496.877	98.69
497.094	90.69
497.312	78.69
497.529	83.69
497.746	83.69
497.963	90.69
498.181	90.69
498.398	69.69
498.615	97.69
498.832	87.69
499.049	94.69
499.267	86.69
499.484	88.69
499.701	88.69
499.918	81.69
500.135	88.69
500.352	85.69
500.569	71.69
500.786	91.69
501.003	82.69
501.22	76.69
501.437	81.69
501.654	87.69
501.871	86.69
502.088	91.69
502.305	71.69
502.522	98.69
502.739	99.69
502.956	95.69
503.172	78.69
503.389	88.69
503.606	102.69
503.823	87.69
504.04	83.69
504.256	91.69
504.473	72.69
504.69	102.69
504.907	74.69
505.123	86.69
505.34	80.69
505.557	81.69
505.773	86.69
505.99	88.69
506.207	80.69
506.423	84.69
506.64	91.69
506.856	84.69
507.073	83.69
507.289	82.69
507.506	88.69
507.722	105.69
507.939	114.69
508.155	101.69
508.372	92.69
508.588	83.69
508.805	77.69
509.021	102.69
509.238	93.69
509.454	98.69
509.67	78.69
509.887	96.69
510.103	119.69
510.319	189.69
510.536	702.69
510.752	2226.69
510.968	628.69
511.184	157.69
511.401	108.69
511.617	87.69
511.833	92.69
512.049	90.69
512.265	83.69
512.481	100.69
512.698	67.69
512.914	76.69
513.13	90.69
513.346	84.69
513.562	80.69
513.778	92.69
513.994	75.69
514.21	103.69
514.426	126.69
514.642	130.69
514.858	111.69
515.074	158.69
515.29	407.69
515.506	1357.69
515.721	489.69
515.937	143.69
516.153	102.69
516.369	82.69
516.585	86.69
516.801	82.69
517.016	79.69
517.232	88.69
517.448	89.69
517.664	94.69
517.879	94.69
518.095	91.69
518.311	89.69
518.527	85.69
518.742	96.69
518.958	82.69
519.173	94.69
519.389	88.69
519.605	90.69
519.82	90.69
520.036	85.69
520.251	116.69
520.467	95.69
520.682	95.69
520.898	94.69
521.113	114.69
521.329	113.69
521.544	179.69
521.76	524.69
521.975	2226.69
522.19	1373.69
522.406	292.69
522.621	113.69
522.836	96.69
523.052	98.69
523.267	82.69
523.482	96.69
523.698	94.69
523.913	100.69
524.128	104.69
524.343	87.69
524.559	87.69
524.774	92.69
524.989	83.69
525.204	96.69
525.419	91.69
525.634	87.69
525.849	78.69
526.064	82.69
526.28	75.69
526.495	78.69
526.71	87.69
526.925	94.69
527.14	78.69
527.355	76.69
527.57	90.69
527.785	104.69
527.999	97.69
528.214	98.69
528.429	99.69
528.644	96.69
528.859	92.69
529.074	75.69
529.289	109.69
529.503	157.69
529.718	98.69
529.933	93.69
530.148	94.69
530.363	93.69
530.577	75.69
530.792	80.69
531.007	76.69
531.221	94.69
531.436	95.69
531.651	94.69
531.865	81.69
532.08	96.69
532.295	82.69
532.509	86.69
532.724	90.69
532.938	94.69
533.153	89.69
533.367	80.69
533.582	86.69
533.796	83.69
534.011	86.69
534.225	91.69
534.44	83.69
534.654	86.69
534.868	86.69
535.083	88.69
535.297	90.69
535.511	104.69
535.726	97.69
535.94	97.69
536.154	91.69
536.369	88.69
536.583	77.69
536.797	87.69
537.011	94.69
537.225	90.69
537.44	91.69
537.654	77.69
537.868	77.69
538.082	74.69
538.296	86.69
538.51	83.69
538.724	96.69
538.938	100.69
539.153	95.69
539.367	105.69
539.581	92.69
539.795	98.69
540.009	85.69
540.222	80.69
540.436	73.69
540.65	90.69
540.864	80.69
541.078	96.69
541.292	81.69
541.506	102.69
541.72	88.69
541.934	100.69
542.147	95.69
542.361	91.69
542.575	85.69
542.789	100.69
543.002	71.69
543.216	71.69
543.43	90.69
543.644	84.69
543.857	86.69
544.071	94.69
544.285	76.69
544.498	82.69
544.712	93.69
544.925	84.69
545.139	88.69
545.352	78.69
545.566	85.69
545.779	82.69
545.993	85.69
546.206	78.69
546.42	79.69
546.633	99.69
546.847	86.69
547.06	89.69
547.274	98.69
547.487	85.69
547.7	75.69
547.914	83.69
548.127	75.69
548.34	88.69
548.554	84.69
548.767	94.69
548.98	79.69
549.193	84.69
549.407	83.69
549.62	83.69
549.833	77.69
550.046	78.69
550.259	91.69
550.473	92.69
550.686	71.69
550.899	86.69
551.112	80.69
551.325	81.69
551.538	73.69
551.751	90.69
551.964	95.69
552.177	95.69
552.39	93.69
552.603	76.69
552.816	96.69
553.029	88.69
553.242	85.69
553.455	83.69
553.667	113.69
553.88	98.69
554.093	88.69
554.306	74.69
554.519	80.69
554.732	83.69
554.944	78.69
555.157	83.69
555.37	72.69
555.583	95.69
555.795	79.69
556.008	87.69
556.221	100.69
556.433	83.69
556.646	95.69
556.859	78.69
557.071	87.69
557.284	95.69
557.496	85.69
557.709	85.69
557.921	82.69
558.134	74.69
558.346	83.69
558.559	90.69
558.771	81.69
558.984	86.69
559.196	86.69
559.409	75.69
559.621	94.69
559.833	80.69
560.046	82.69
560.258	86.69
560.47	79.69
560.683	93.69
560.895	76.69
561.107	87.69
561.32	93.69
561.532	90.69
561.744	80.69
561.956	84.69
562.168	86.69
562.381	74.69
562.593	72.69
562.805	91.69
563.017	92.69
563.229	86.69
563.441	80.69
563.653	89.69
563.865	80.69
564.077	78.69
564.289	90.69
564.501	82.69
564.713	86.69
564.925	98.69
565.137	84.69
565.349	90.69
565.561	90.69
565.773	78.69
565.985	67.69
566.197	78.69
566.408	84.69
566.62	88.69
566.832	78.69
567.044	72.69
567.255	87.69
567.467	83.69
567.679	78.69
567.891	82.69
568.102	85.69
568.314	83.69
568.526	77.69
568.737	86.69
568.949	72.69
569.161	93.69
569.372	89.69
569.584	92.69
569.795	83.69
570.007	98.69
570.218	228.69
570.43	130.69
570.641	94.69
570.853	87.69
571.064	87.69
571.276	79.69
571.487	98.69
571.698	66.69
571.91	81.69
572.121	101.69
572.333	86.69
572.544	82.69
572.755	91.69
572.966	88.69
573.178	84.69
573.389	84.69
573.6	84.69
573.811	83.69
574.023	83.69
574.234	82.69
574.445	73.69
574.656	83.69
574.867	87.69
575.078	88.69
575.289	85.69
575.501	72.69
575.712	82.69
575.923	83.69
576.134	82.69
576.345	87.69
576.556	85.69
576.767	90.69
576.978	73.69
577.188	91.69
577.399	84.69
577.61	98.69
577.821	94.69
578.032	108.69
578.243	261.69
578.454	732.69
578.665	213.69
578.875	106.69
579.086	80.69
579.297	72.69
579.508	77.69
579.718	77.69
579.929	73.69
580.14	108.69
580.35	78.69
580.561	85.69
580.772	95.69
580.982	80.69
581.193	75.69
581.403	82.69
581.614	89.69
581.825	77.69
582.035	75.69
582.246	82.69
582.456	84.69
582.667	69.69
582.877	75.69
583.087	94.69
583.298	90.69
583.508	88.69
583.719	79.69
583.929	84.69
584.139	70.69
584.35	86.69
584.56	77.69
584.77	74.69
584.981	106.69
585.191	91.69
585.401	90.69
585.611	94.69
585.821	83.69
586.032	92.69
586.242	92.69
586.452	85.69
586.662	91.69
586.872	86.69
587.082	66.69
587.292	84.69
587.502	85.69
587.713	82.69
587.923	82.69
588.133	75.69
588.343	93.69
588.553	79.69
588.762	77.69
588.972	82.69
589.182	86.69
589.392	85.69
589.602	81.69
589.812	67.69
590.022	88.69
590.232	96.69
590.441	76.69
590.651	85.69
590.861	87.69
591.071	102.69
591.281	95.69
591.49	87.69
591.7	78.69
591.91	87.69
592.119	87.69
592.329	82.69
592.539	93.69
592.748	83.69
592.958	95.69
593.167	94.69
593.377	89.69
593.587	95.69
593.796	82.69
594.006	91.69
594.215	75.69
594.424	77.69
594.634	80.69
594.843	82.69
595.053	90.69
595.262	90.69
595.472	80.69
595.681	92.69
595.89	80.69
596.1	97.69
596.309	87.69
596.518	99.69
596.727	85.69
596.937	86.69
597.146	82.69
597.355	72.69
597.564	74.69
597.774	72.69
597.983	77.69
598.192	83.69
598.401	76.69
598.61	88.69
598.819	74.69
599.028	85.69
599.237	73.69
599.446	84.69
599.655	88.69
599.864	92.69
600.073	84.69
600.282	81.69
600.491	70.69
600.7	76.69
600.909	87.69
601.118	85.69
601.327	88.69
601.536	85.69
601.745	71.69
601.953	70.69
602.162	93.69
602.371	79.69
602.58	86.69
602.789	83.69
602.997	79.69
603.206	96.69
603.415	86.69
603.623	76.69
603.832	85.69
604.041	77.69
604.249	86.69
604.458	76.69
604.666	78.69
604.875	75.69
605.084	75.69
605.292	85.69
605.501	76.69
605.709	75.69
605.918	80.69
606.126	66.69
606.334	79.69
606.543	73.69
606.751	77.69
606.96	82.69
607.168	81.69
607.376	59.69
607.585	93.69
607.793	80.69
608.001	86.69
608.21	68.69
608.418	90.69
608.626	84.69
608.834	84.69
609.043	70.69
609.251	94.69
609.459	68.69
609.667	88.69
609.875	87.69
610.083	90.69
610.291	85.69
610.499	77.69
610.707	78.69
610.916	84.69
611.124	86.69
611.332	84.69
611.54	74.69
611.748	83.69
611.955	89.69
612.163	80.69
612.371	83.69
612.579	68.69
612.787	82.69
612.995	90.69
613.203	85.69
613.411	84.69
613.618	94.69
613.826	86.69
614.034	67.69
614.242	84.69
614.449	82.69
614.657	93.69
614.865	94.69
615.072	75.69
615.28	79.69
615.488	93.69
615.695	84.69
615.903	103.69
616.111	96.69
616.318	95.69
616.526	94.69
616.733	85.69
616.941	84.69
617.148	76.69
617.356	86.69
617.563	77.69
617.771	82.69
617.978	67.69
618.185	85.69
618.393	89.69
618.6	84.69
618.807	88.69
619.015	67.69
619.222	88.69
619.429	85.69
619.637	86.69
619.844	77.69
620.051	71.69
620.258	79.69
620.466	84.69
620.673	87.69
620.88	81.69
621.087	76.69
621.294	86.69
621.501	80.69
621.708	86.69
621.915	93.69
622.122	84.69
622.329	84.69
622.536	80.69
622.743	80.69
622.95	77.69
623.157	77.69
623.364	76.69
623.571	92.69
623.778	83.69
623.985	85.69
624.192	68.69
624.399	77.69
624.606	90.69
624.812	85.69
625.019	83.69
625.226	84.69
625.433	80.69
625.639	79.69
625.846	76.69
626.053	82.69
626.259	83.69
626.466	75.69
626.673	88.69
626.879	94.69
627.086	91.69
627.293	74.69
627.499	92.69
627.706	81.69
627.912	69.69
628.119	82.69
628.325	81.69
628.532	79.69
628.738	80.69
628.945	77.69
629.151	80.69
629.357	81.69
629.564	91.69
629.77	91.69
629.976	91.69
630.183	82.69
630.389	95.69
630.595	82.69
630.802	81.69
631.008	82.69
631.214	66.69
631.42	83.69
631.627	75.69
631.833	77.69
632.039	73.69
632.245	78.69
632.451	88.69
632.657	84.69
632.863	92.69
633.069	77.69
633.275	71.69
633.481	75.69
633.688	78.69
633.893	93.69
634.099	80.69
634.305	76.69
634.511	83.69
634.717	75.69
634.923	86.69
635.129	81.69
635.335	69.69
635.541	72.69
635.747	69.69
635.952	86.69
636.158	72.69
636.364	84.69
636.57	76.69
636.775	82.69
636.981	76.69
637.187	81.69
637.392	77.69
637.598	82.69
637.804	83.69
638.009	81.69
638.215	95.69
638.421	77.69
638.626	93.69
638.832	91.69
639.037	81.69
639.243	86.69
639.448	80.69
639.654	87.69
639.859	79.69
640.065	92.69
640.27	81.69
640.475	72.69
640.681	81.69
640.886	86.69
641.091	68.69
641.297	101.69
641.502	100.69
641.707	68.69
641.913	71.69
642.118	83.69
642.323	80.69
642.528	87.69
642.733	89.69
642.939	76.69
643.144	75.69
643.349	75.69
643.554	80.69
643.759	71.69
643.964	76.69
644.169	91.69
644.374	83.69
644.579	95.69
644.784	86.69
644.989	72.69
645.194	71.69
645.399	81.69
645.604	76.69
645.809	88.69
646.014	95.69
646.219	74.69
646.423	74.69
646.628	90.69
646.833	77.69
647.038	87.69
647.243	87.69
647.447	63.69
647.652	74.69
647.857	83.69
648.062	82.69
648.266	77.69
648.471	99.69
648.676	93.69
648.88	92.69
649.085	85.69
649.289	78.69
649.494	86.69
649.698	118.69
649.903	103.69
650.107	83.69
650.312	89.69
650.516	62.69
650.721	85.69
650.925	73.69
651.13	72.69
651.334	67.69
651.539	66.69
651.743	80.69
651.947	74.69
652.152	82.69
652.356	81.69
652.56	70.69
652.764	84.69
652.969	78.69
653.173	78.69
653.377	85.69
653.581	74.69
653.785	88.69
653.99	83.69
654.194	79.69
654.398	87.69
654.602	71.69
654.806	86.69
655.01	89.69
655.214	79.69
655.418	77.69
655.622	75.69
655.826	75.69
656.03	90.69
656.234	59.69
656.438	91.69
656.642	93.69
656.846	81.69
657.049	85.69
657.253	84.69
657.457	64.69
657.661	81.69
657.865	86.69
658.068	82.69
658.272	91.69
658.476	84.69
658.68	80.69
658.883	85.69
659.087	68.69
659.291	75.69
659.494	79.69
659.698	79.69
659.901	87.69
660.105	81.69
660.309	76.69
660.512	68.69
660.716	90.69
660.919	91.69
661.123	84.69
661.326	74.69
661.53	81.69
661.733	71.69
661.936	78.69
662.14	83.69
662.343	64.69
662.546	74.69
662.75	70.69
662.953	95.69
663.156	80.69
663.36	97.69
663.563	79.69
663.766	86.69
663.969	85.69
664.173	72.69
664.376	74.69
664.579	81.69
664.782	73.69
664.985	71.69
665.188	65.69
665.391	81.69
665.594	82.69
665.797	70.69
666	86.69
666.203	83.69
666.406	79.69
666.609	88.69
666.812	81.69
667.015	65.69
667.218	68.69
667.421	91.69
667.624	77.69
667.827	80.69
668.03	76.69
668.232	71.69
668.435	68.69
668.638	55.69
668.841	78.69
669.043	65.69
669.246	55.69
669.449	83.69
669.651	77.69
669.854	87.69
670.057	89.69
670.259	74.69
670.462	67.69
670.665	84.69
670.867	69.69
671.07	92.69
671.272	89.69
671.475	80.69
671.677	70.69
671.88	63.69
672.082	65.69
672.284	68.69
672.487	76.69
672.689	94.69
672.892	71.69
