Data from Lead_HRD10591_00065.txt Node
Date: Tue Feb 17 14:14:13 EST 2026
User: Yrep
Spectrometer: HR+D1059
Trigger mode: 1
Integration Time (sec): 1.000000E-1
Scans to average: 1
Electric dark correction enabled: true
Nonlinearity correction enabled: false
Boxcar width: 0
XAxis mode: Wavelengths
Number of Pixels in Spectrum: 2048
>>>>>Begin Spectral Data<<<<<
223.165	-24.19
223.4	-24.19
223.635	-24.19
223.869	-21.19
224.104	-11.19
224.338	-16.19
224.573	-15.19
224.808	-9.19
225.042	-7.19
225.277	-1.19
225.511	1.81
225.746	0.81
225.98	3.81
226.215	14.81
226.449	9.81
226.683	22.81
226.918	19.81
227.152	31.81
227.387	29.81
227.621	44.81
227.856	42.81
228.09	31.81
228.324	53.81
228.559	65.81
228.793	59.81
229.027	62.81
229.262	68.81
229.496	65.81
229.73	73.81
229.964	71.81
230.199	58.81
230.433	87.81
230.667	67.81
230.901	78.81
231.136	91.81
231.37	92.81
231.604	69.81
231.838	66.81
232.072	68.81
232.306	80.81
232.541	84.81
232.775	68.81
233.009	79.81
233.243	76.81
233.477	84.81
233.711	81.81
233.945	78.81
234.179	77.81
234.413	77.81
234.647	78.81
234.881	71.81
235.115	74.81
235.349	81.81
235.583	78.81
235.817	60.81
236.051	83.81
236.285	89.81
236.519	77.81
236.753	74.81
236.987	70.81
237.221	73.81
237.455	80.81
237.689	89.81
237.922	81.81
238.156	71.81
238.39	66.81
238.624	70.81
238.858	84.81
239.091	64.81
239.325	66.81
239.559	67.81
239.793	76.81
240.027	72.81
240.26	68.81
240.494	70.81
240.728	69.81
240.961	80.81
241.195	70.81
241.429	70.81
241.662	79.81
241.896	66.81
242.13	79.81
242.363	72.81
242.597	74.81
242.83	67.81
243.064	78.81
243.298	81.81
243.531	72.81
243.765	76.81
243.998	80.81
244.232	65.81
244.465	68.81
244.699	80.81
244.932	72.81
245.166	86.81
245.399	75.81
245.633	73.81
245.866	84.81
246.099	74.81
246.333	76.81
246.566	72.81
246.8	67.81
247.033	73.81
247.266	82.81
247.5	78.81
247.733	73.81
247.966	71.81
248.2	84.81
248.433	70.81
248.666	90.81
248.899	78.81
249.133	62.81
249.366	72.81
249.599	76.81
249.832	65.81
250.066	76.81
250.299	76.81
250.532	81.81
250.765	69.81
250.998	96.81
251.231	72.81
251.465	70.81
251.698	79.81
251.931	83.81
252.164	87.81
252.397	81.81
252.63	70.81
252.863	80.81
253.096	101.81
253.329	73.81
253.562	82.81
253.795	76.81
254.028	90.81
254.261	70.81
254.494	77.81
254.727	82.81
254.96	84.81
255.193	87.81
255.426	76.81
255.659	74.81
255.892	84.81
256.124	72.81
256.357	74.81
256.59	94.81
256.823	85.81
257.056	82.81
257.289	80.81
257.521	82.81
257.754	78.81
257.987	89.81
258.22	88.81
258.452	77.81
258.685	82.81
258.918	87.81
259.151	74.81
259.383	84.81
259.616	85.81
259.849	85.81
260.081	89.81
260.314	77.81
260.547	92.81
260.779	95.81
261.012	92.81
261.244	98.81
261.477	109.81
261.71	128.81
261.942	89.81
262.175	82.81
262.407	78.81
262.64	76.81
262.872	92.81
263.105	69.81
263.337	85.81
263.57	88.81
263.802	77.81
264.035	80.81
264.267	71.81
264.499	78.81
264.732	84.81
264.964	73.81
265.197	90.81
265.429	98.81
265.661	81.81
265.894	92.81
266.126	82.81
266.358	91.81
266.591	96.81
266.823	71.81
267.055	93.81
267.287	80.81
267.52	69.81
267.752	68.81
267.984	71.81
268.216	78.81
268.448	75.81
268.681	73.81
268.913	74.81
269.145	82.81
269.377	82.81
269.609	80.81
269.841	86.81
270.073	70.81
270.306	73.81
270.538	85.81
270.77	81.81
271.002	76.81
271.234	70.81
271.466	75.81
271.698	74.81
271.93	96.81
272.162	90.81
272.394	64.81
272.626	72.81
272.858	94.81
273.09	92.81
273.322	81.81
273.553	73.81
273.785	85.81
274.017	72.81
274.249	68.81
274.481	67.81
274.713	61.81
274.945	80.81
275.176	82.81
275.408	87.81
275.64	88.81
275.872	93.81
276.104	78.81
276.335	75.81
276.567	80.81
276.799	75.81
277.031	73.81
277.262	74.81
277.494	81.81
277.726	75.81
277.957	72.81
278.189	74.81
278.421	78.81
278.652	68.81
278.884	87.81
279.115	78.81
279.347	82.81
279.579	82.81
279.81	112.81
280.042	130.81
280.273	149.81
280.505	135.81
280.736	94.81
280.968	79.81
281.199	77.81
281.431	100.81
281.662	85.81
281.894	84.81
282.125	87.81
282.356	82.81
282.588	114.81
282.819	86.81
283.051	101.81
283.282	126.81
283.513	128.81
283.745	100.81
283.976	90.81
284.207	86.81
284.439	88.81
284.67	84.81
284.901	77.81
285.132	82.81
285.364	80.81
285.595	83.81
285.826	96.81
286.057	87.81
286.288	82.81
286.52	86.81
286.751	84.81
286.982	86.81
287.213	120.81
287.444	120.81
287.675	104.81
287.906	96.81
288.138	75.81
288.369	87.81
288.6	80.81
288.831	81.81
289.062	80.81
289.293	75.81
289.524	80.81
289.755	77.81
289.986	87.81
290.217	81.81
290.448	92.81
290.679	80.81
290.91	93.81
291.141	84.81
291.371	75.81
291.602	89.81
291.833	82.81
292.064	93.81
292.295	77.81
292.526	85.81
292.757	92.81
292.987	80.81
293.218	81.81
293.449	77.81
293.68	83.81
293.91	81.81
294.141	79.81
294.372	79.81
294.603	83.81
294.833	72.81
295.064	83.81
295.295	89.81
295.525	94.81
295.756	92.81
295.987	76.81
296.217	80.81
296.448	76.81
296.679	85.81
296.909	76.81
297.14	79.81
297.37	75.81
297.601	81.81
297.831	96.81
298.062	81.81
298.292	72.81
298.523	74.81
298.753	86.81
298.984	76.81
299.214	91.81
299.445	90.81
299.675	73.81
299.905	93.81
300.136	80.81
300.366	86.81
300.597	91.81
300.827	98.81
301.057	83.81
301.288	80.81
301.518	86.81
301.748	72.81
301.979	98.81
302.209	78.81
302.439	72.81
302.669	79.81
302.9	88.81
303.13	91.81
303.36	102.81
303.59	86.81
303.82	81.81
304.051	88.81
304.281	81.81
304.511	81.81
304.741	82.81
304.971	80.81
305.201	87.81
305.431	72.81
305.661	68.81
305.891	80.81
306.121	80.81
306.352	85.81
306.582	94.81
306.812	81.81
307.042	92.81
307.272	80.81
307.502	87.81
307.731	82.81
307.961	93.81
308.191	80.81
308.421	90.81
308.651	79.81
308.881	90.81
309.111	98.81
309.341	106.81
309.571	103.81
309.8	73.81
310.03	70.81
310.26	82.81
310.49	79.81
310.72	93.81
310.949	78.81
311.179	84.81
311.409	72.81
311.639	85.81
311.868	82.81
312.098	89.81
312.328	79.81
312.557	68.81
312.787	85.81
313.017	89.81
313.246	84.81
313.476	85.81
313.706	100.81
313.935	75.81
314.165	81.81
314.394	73.81
314.624	86.81
314.853	74.81
315.083	86.81
315.312	89.81
315.542	77.81
315.771	95.81
316.001	79.81
316.23	88.81
316.46	86.81
316.689	81.81
316.919	82.81
317.148	104.81
317.377	107.81
317.607	110.81
317.836	94.81
318.065	78.81
318.295	82.81
318.524	68.81
318.753	80.81
318.983	80.81
319.212	88.81
319.441	80.81
319.67	86.81
319.9	83.81
320.129	71.81
320.358	90.81
320.587	80.81
320.816	80.81
321.046	83.81
321.275	79.81
321.504	82.81
321.733	92.81
321.962	92.81
322.191	83.81
322.42	81.81
322.649	92.81
322.878	83.81
323.108	74.81
323.337	80.81
323.566	87.81
323.795	81.81
324.024	85.81
324.253	104.81
324.482	96.81
324.71	98.81
324.939	100.81
325.168	85.81
325.397	79.81
325.626	79.81
325.855	82.81
326.084	96.81
326.313	99.81
326.542	96.81
326.77	78.81
326.999	97.81
327.228	98.81
327.457	96.81
327.686	99.81
327.914	87.81
328.143	91.81
328.372	71.81
328.6	83.81
328.829	81.81
329.058	73.81
329.287	73.81
329.515	74.81
329.744	80.81
329.972	88.81
330.201	89.81
330.43	87.81
330.658	79.81
330.887	84.81
331.115	64.81
331.344	80.81
331.572	85.81
331.801	90.81
332.03	82.81
332.258	73.81
332.486	82.81
332.715	65.81
332.943	82.81
333.172	95.81
333.4	80.81
333.629	72.81
333.857	78.81
334.085	82.81
334.314	81.81
334.542	86.81
334.771	78.81
334.999	89.81
335.227	81.81
335.455	83.81
335.684	92.81
335.912	79.81
336.14	69.81
336.369	88.81
336.597	86.81
336.825	81.81
337.053	79.81
337.281	68.81
337.51	84.81
337.738	79.81
337.966	74.81
338.194	85.81
338.422	80.81
338.65	71.81
338.878	74.81
339.106	76.81
339.334	82.81
339.562	79.81
339.79	86.81
340.018	80.81
340.246	73.81
340.474	84.81
340.702	80.81
340.93	77.81
341.158	85.81
341.386	77.81
341.614	82.81
341.842	76.81
342.07	79.81
342.298	74.81
342.526	86.81
342.754	77.81
342.981	86.81
343.209	91.81
343.437	80.81
343.665	82.81
343.893	85.81
344.12	104.81
344.348	71.81
344.576	96.81
344.804	92.81
345.031	87.81
345.259	86.81
345.487	71.81
345.714	82.81
345.942	81.81
346.17	85.81
346.397	82.81
346.625	84.81
346.853	88.81
347.08	84.81
347.308	87.81
347.535	90.81
347.763	89.81
347.99	93.81
348.218	74.81
348.445	78.81
348.673	72.81
348.9	82.81
349.128	80.81
349.355	77.81
349.583	86.81
349.81	79.81
350.037	71.81
350.265	76.81
350.492	78.81
350.72	83.81
350.947	66.81
351.174	72.81
351.402	82.81
351.629	83.81
351.856	88.81
352.083	84.81
352.311	71.81
352.538	66.81
352.765	83.81
352.992	87.81
353.22	78.81
353.447	77.81
353.674	65.81
353.901	83.81
354.128	94.81
354.355	71.81
354.583	82.81
354.81	74.81
355.037	95.81
355.264	92.81
355.491	77.81
355.718	79.81
355.945	85.81
356.172	88.81
356.399	90.81
356.626	96.81
356.853	118.81
357.08	166.81
357.307	238.81
357.534	182.81
357.761	86.81
357.988	90.81
358.215	83.81
358.441	90.81
358.668	78.81
358.895	83.81
359.122	76.81
359.349	73.81
359.576	70.81
359.802	84.81
360.029	82.81
360.256	87.81
360.483	86.81
360.709	88.81
360.936	88.81
361.163	83.81
361.39	84.81
361.616	83.81
361.843	68.81
362.07	104.81
362.296	87.81
362.523	74.81
362.749	88.81
362.976	92.81
363.203	96.81
363.429	125.81
363.656	172.81
363.882	302.81
364.109	341.81
364.335	165.81
364.562	108.81
364.788	86.81
365.015	84.81
365.241	83.81
365.468	88.81
365.694	69.81
365.92	82.81
366.147	86.81
366.373	72.81
366.599	96.81
366.826	84.81
367.052	124.81
367.278	124.81
367.505	104.81
367.731	119.81
367.957	165.81
368.184	301.81
368.41	438.81
368.636	295.81
368.862	137.81
369.089	90.81
369.315	88.81
369.541	89.81
369.767	80.81
369.993	88.81
370.219	88.81
370.445	80.81
370.672	83.81
370.898	80.81
371.124	82.81
371.35	86.81
371.576	80.81
371.802	87.81
372.028	72.81
372.254	83.81
372.48	81.81
372.706	80.81
372.932	89.81
373.158	92.81
373.384	100.81
373.61	106.81
373.835	178.81
374.061	209.81
374.287	149.81
374.513	90.81
374.739	82.81
374.965	93.81
375.191	83.81
375.416	81.81
375.642	86.81
375.868	75.81
376.094	69.81
376.319	76.81
376.545	80.81
376.771	69.81
376.997	76.81
377.222	82.81
377.448	67.81
377.674	73.81
377.899	77.81
378.125	80.81
378.35	85.81
378.576	86.81
378.802	71.81
379.027	78.81
379.253	76.81
379.478	82.81
379.704	91.81
379.929	63.81
380.155	98.81
380.38	91.81
380.606	96.81
380.831	65.81
381.057	100.81
381.282	86.81
381.507	72.81
381.733	73.81
381.958	78.81
382.184	72.81
382.409	88.81
382.634	98.81
382.86	85.81
383.085	94.81
383.31	86.81
383.535	70.81
383.761	61.81
383.986	76.81
384.211	80.81
384.436	74.81
384.662	87.81
384.887	84.81
385.112	78.81
385.337	60.81
385.562	87.81
385.787	73.81
386.013	67.81
386.238	91.81
386.463	72.81
386.688	82.81
386.913	88.81
387.138	87.81
387.363	88.81
387.588	82.81
387.813	85.81
388.038	96.81
388.263	86.81
388.488	83.81
388.713	80.81
388.938	76.81
389.163	94.81
389.387	67.81
389.612	95.81
389.837	92.81
390.062	85.81
390.287	71.81
390.512	91.81
390.736	74.81
390.961	80.81
391.186	80.81
391.411	104.81
391.636	93.81
391.86	78.81
392.085	92.81
392.31	78.81
392.534	97.81
392.759	88.81
392.984	85.81
393.208	96.81
393.433	112.81
393.658	112.81
393.882	92.81
394.107	93.81
394.331	116.81
394.556	149.81
394.78	98.81
395.005	79.81
395.229	77.81
395.454	78.81
395.678	84.81
395.903	109.81
396.127	161.81
396.352	163.81
396.576	106.81
396.801	103.81
397.025	113.81
397.249	94.81
397.474	70.81
397.698	81.81
397.922	90.81
398.147	62.81
398.371	73.81
398.595	89.81
398.82	68.81
399.044	81.81
399.268	78.81
399.492	68.81
399.717	84.81
399.941	79.81
400.165	82.81
400.389	85.81
400.613	78.81
400.837	69.81
401.062	74.81
401.286	79.81
401.51	78.81
401.734	103.81
401.958	103.81
402.182	103.81
402.406	84.81
402.63	83.81
402.854	97.81
403.078	94.81
403.302	74.81
403.526	88.81
403.75	85.81
403.974	77.81
404.198	121.81
404.422	153.81
404.645	173.81
404.869	144.81
405.093	133.81
405.317	165.81
405.541	318.81
405.765	653.81
405.988	704.81
406.212	284.81
406.436	185.81
406.66	109.81
406.883	78.81
407.107	93.81
407.331	89.81
407.555	71.81
407.778	88.81
408.002	80.81
408.226	81.81
408.449	77.81
408.673	84.81
408.896	69.81
409.12	70.81
409.344	83.81
409.567	85.81
409.791	84.81
410.014	78.81
410.238	80.81
410.461	71.81
410.685	80.81
410.908	72.81
411.132	75.81
411.355	69.81
411.578	83.81
411.802	74.81
412.025	76.81
412.249	78.81
412.472	78.81
412.695	71.81
412.919	72.81
413.142	87.81
413.365	84.81
413.589	95.81
413.812	86.81
414.035	101.81
414.258	74.81
414.482	84.81
414.705	76.81
414.928	73.81
415.151	91.81
415.374	85.81
415.597	75.81
415.821	80.81
416.044	76.81
416.267	90.81
416.49	80.81
416.713	86.81
416.936	96.81
417.159	93.81
417.382	85.81
417.605	75.81
417.828	81.81
418.051	87.81
418.274	81.81
418.497	71.81
418.72	81.81
418.943	78.81
419.166	72.81
419.389	78.81
419.611	84.81
419.834	84.81
420.057	84.81
420.28	66.81
420.503	88.81
420.726	66.81
420.948	80.81
421.171	76.81
421.394	74.81
421.617	78.81
421.839	69.81
422.062	73.81
422.285	81.81
422.507	108.81
422.73	120.81
422.953	110.81
423.175	88.81
423.398	87.81
423.621	84.81
423.843	92.81
424.066	75.81
424.288	88.81
424.511	89.81
424.733	89.81
424.956	77.81
425.178	70.81
425.401	80.81
425.623	75.81
425.846	76.81
426.068	92.81
426.291	84.81
426.513	89.81
426.735	83.81
426.958	92.81
427.18	96.81
427.402	78.81
427.625	89.81
427.847	94.81
428.069	97.81
428.292	98.81
428.514	74.81
428.736	77.81
428.958	80.81
429.181	88.81
429.403	75.81
429.625	80.81
429.847	92.81
430.069	81.81
430.292	82.81
430.514	66.81
430.736	78.81
430.958	71.81
431.18	92.81
431.402	89.81
431.624	86.81
431.846	73.81
432.068	80.81
432.29	72.81
432.512	77.81
432.734	74.81
432.956	77.81
433.178	84.81
433.4	83.81
433.622	73.81
433.844	85.81
434.066	101.81
434.287	98.81
434.509	84.81
434.731	90.81
434.953	76.81
435.175	73.81
435.397	74.81
435.618	81.81
435.84	83.81
436.062	80.81
436.284	82.81
436.505	80.81
436.727	70.81
436.949	88.81
437.17	72.81
437.392	74.81
437.614	67.81
437.835	75.81
438.057	67.81
438.278	78.81
438.5	82.81
438.721	78.81
438.943	81.81
439.165	78.81
439.386	78.81
439.608	86.81
439.829	86.81
440.05	94.81
440.272	86.81
440.493	82.81
440.715	64.81
440.936	103.81
441.158	86.81
441.379	76.81
441.6	80.81
441.822	88.81
442.043	76.81
442.264	70.81
442.486	94.81
442.707	89.81
442.928	75.81
443.149	88.81
443.371	82.81
443.592	87.81
443.813	83.81
444.034	85.81
444.255	86.81
444.476	82.81
444.698	78.81
444.919	83.81
445.14	162.81
445.361	116.81
445.582	85.81
445.803	80.81
446.024	84.81
446.245	73.81
446.466	79.81
446.687	74.81
446.908	81.81
447.129	74.81
447.35	80.81
447.571	89.81
447.792	102.81
448.013	82.81
448.234	78.81
448.455	85.81
448.675	70.81
448.896	74.81
449.117	81.81
449.338	75.81
449.559	90.81
449.779	94.81
450	89.81
450.221	75.81
450.442	82.81
450.662	77.81
450.883	77.81
451.104	86.81
451.324	89.81
451.545	87.81
451.766	76.81
451.986	82.81
452.207	80.81
452.428	88.81
452.648	81.81
452.869	85.81
453.089	60.81
453.31	79.81
453.53	78.81
453.751	85.81
453.971	84.81
454.192	67.81
454.412	78.81
454.633	80.81
454.853	80.81
455.073	80.81
455.294	82.81
455.514	78.81
455.734	82.81
455.955	80.81
456.175	73.81
456.395	89.81
456.616	84.81
456.836	91.81
457.056	79.81
457.276	66.81
457.497	94.81
457.717	87.81
457.937	72.81
458.157	82.81
458.377	68.81
458.598	78.81
458.818	80.81
459.038	75.81
459.258	64.81
459.478	72.81
459.698	81.81
459.918	84.81
460.138	71.81
460.358	66.81
460.578	74.81
460.798	94.81
461.018	85.81
461.238	77.81
461.458	81.81
461.678	98.81
461.898	77.81
462.118	81.81
462.338	67.81
462.558	89.81
462.777	84.81
462.997	74.81
463.217	80.81
463.437	84.81
463.657	70.81
463.876	72.81
464.096	82.81
464.316	75.81
464.536	86.81
464.755	73.81
464.975	85.81
465.195	79.81
465.414	74.81
465.634	82.81
465.854	72.81
466.073	78.81
466.293	66.81
466.512	84.81
466.732	91.81
466.951	74.81
467.171	74.81
467.391	67.81
467.61	70.81
467.829	76.81
468.049	89.81
468.268	85.81
468.488	90.81
468.707	88.81
468.927	70.81
469.146	80.81
469.365	85.81
469.585	81.81
469.804	70.81
470.023	78.81
470.243	88.81
470.462	88.81
470.681	86.81
470.901	93.81
471.12	64.81
471.339	83.81
471.558	78.81
471.777	87.81
471.997	84.81
472.216	88.81
472.435	85.81
472.654	83.81
472.873	80.81
473.092	82.81
473.311	75.81
473.53	83.81
473.749	81.81
473.968	101.81
474.187	88.81
474.406	78.81
474.625	84.81
474.844	80.81
475.063	75.81
475.282	92.81
475.501	78.81
475.72	71.81
475.939	82.81
476.158	83.81
476.377	92.81
476.596	96.81
476.814	80.81
477.033	76.81
477.252	89.81
477.471	97.81
477.69	88.81
477.908	96.81
478.127	80.81
478.346	80.81
478.564	90.81
478.783	98.81
479.002	86.81
479.22	85.81
479.439	66.81
479.658	83.81
479.876	88.81
480.095	75.81
480.313	79.81
480.532	87.81
480.751	74.81
480.969	80.81
481.188	92.81
481.406	82.81
481.624	80.81
481.843	96.81
482.061	90.81
482.28	83.81
482.498	84.81
482.717	82.81
482.935	82.81
483.153	87.81
483.372	88.81
483.59	90.81
483.808	79.81
484.027	90.81
484.245	83.81
484.463	89.81
484.681	86.81
484.9	84.81
485.118	88.81
485.336	89.81
485.554	75.81
485.772	89.81
485.99	71.81
486.209	92.81
486.427	95.81
486.645	88.81
486.863	81.81
487.081	87.81
487.299	101.81
487.517	92.81
487.735	86.81
487.953	83.81
488.171	104.81
488.389	81.81
488.607	87.81
488.825	77.81
489.043	100.81
489.261	88.81
489.479	90.81
489.696	88.81
489.914	95.81
490.132	72.81
490.35	86.81
490.568	88.81
490.786	81.81
491.003	87.81
491.221	80.81
491.439	84.81
491.657	89.81
491.874	84.81
492.092	75.81
492.31	99.81
492.527	89.81
492.745	70.81
492.963	91.81
493.18	79.81
493.398	81.81
493.615	100.81
493.833	98.81
494.05	86.81
494.268	75.81
494.485	87.81
494.703	84.81
494.92	77.81
495.138	69.81
495.355	87.81
495.573	87.81
495.79	93.81
496.008	94.81
496.225	75.81
496.442	92.81
496.66	81.81
496.877	88.81
497.094	86.81
497.312	86.81
497.529	82.81
497.746	77.81
497.963	65.81
498.181	82.81
498.398	94.81
498.615	71.81
498.832	89.81
499.049	80.81
499.267	84.81
499.484	94.81
499.701	90.81
499.918	93.81
500.135	84.81
500.352	92.81
500.569	115.81
500.786	124.81
501.003	98.81
501.22	89.81
501.437	78.81
501.654	76.81
501.871	78.81
502.088	71.81
502.305	76.81
502.522	83.81
502.739	80.81
502.956	89.81
503.172	90.81
503.389	104.81
503.606	79.81
503.823	80.81
504.04	81.81
504.256	96.81
504.473	70.81
504.69	80.81
504.907	70.81
505.123	73.81
505.34	88.81
505.557	87.81
505.773	86.81
505.99	82.81
506.207	93.81
506.423	98.81
506.64	91.81
506.856	83.81
507.073	103.81
507.289	101.81
507.506	84.81
507.722	68.81
507.939	77.81
508.155	92.81
508.372	75.81
508.588	90.81
508.805	94.81
509.021	93.81
509.238	78.81
509.454	88.81
509.67	86.81
509.887	88.81
510.103	87.81
510.319	86.81
510.536	83.81
510.752	82.81
510.968	84.81
511.184	81.81
511.401	79.81
511.617	96.81
511.833	87.81
512.049	110.81
512.265	84.81
512.481	83.81
512.698	59.81
512.914	82.81
513.13	81.81
513.346	84.81
513.562	84.81
513.778	93.81
513.994	78.81
514.21	84.81
514.426	84.81
514.642	89.81
514.858	92.81
515.074	85.81
515.29	78.81
515.506	84.81
515.721	104.81
515.937	89.81
516.153	84.81
516.369	72.81
516.585	75.81
516.801	72.81
517.016	87.81
517.232	78.81
517.448	78.81
517.664	79.81
517.879	58.81
518.095	92.81
518.311	78.81
518.527	88.81
518.742	91.81
518.958	86.81
519.173	82.81
519.389	80.81
519.605	70.81
519.82	86.81
520.036	83.81
520.251	88.81
520.467	67.81
520.682	92.81
520.898	81.81
521.113	94.81
521.329	86.81
521.544	83.81
521.76	85.81
521.975	79.81
522.19	83.81
522.406	77.81
522.621	76.81
522.836	102.81
523.052	101.81
523.267	100.81
523.482	86.81
523.698	86.81
523.913	77.81
524.128	79.81
524.343	73.81
524.559	84.81
524.774	96.81
524.989	102.81
525.204	89.81
525.419	81.81
525.634	79.81
525.849	87.81
526.064	81.81
526.28	87.81
526.495	80.81
526.71	95.81
526.925	101.81
527.14	92.81
527.355	83.81
527.57	82.81
527.785	97.81
527.999	76.81
528.214	69.81
528.429	85.81
528.644	80.81
528.859	83.81
529.074	83.81
529.289	87.81
529.503	70.81
529.718	69.81
529.933	93.81
530.148	90.81
530.363	87.81
530.577	81.81
530.792	82.81
531.007	87.81
531.221	97.81
531.436	83.81
531.651	83.81
531.865	69.81
532.08	87.81
532.295	104.81
532.509	81.81
532.724	83.81
532.938	102.81
533.153	81.81
533.367	80.81
533.582	92.81
533.796	76.81
534.011	95.81
534.225	88.81
534.44	96.81
534.654	90.81
534.868	83.81
535.083	71.81
535.297	93.81
535.511	84.81
535.726	94.81
535.94	83.81
536.154	95.81
536.369	92.81
536.583	94.81
536.797	90.81
537.011	99.81
537.225	87.81
537.44	88.81
537.654	99.81
537.868	87.81
538.082	71.81
538.296	88.81
538.51	80.81
538.724	72.81
538.938	94.81
539.153	70.81
539.367	96.81
539.581	91.81
539.795	84.81
540.009	85.81
540.222	84.81
540.436	97.81
540.65	71.81
540.864	72.81
541.078	82.81
541.292	78.81
541.506	91.81
541.72	78.81
541.934	85.81
542.147	68.81
542.361	84.81
542.575	85.81
542.789	88.81
543.002	92.81
543.216	90.81
543.43	81.81
543.644	86.81
543.857	110.81
544.071	83.81
544.285	74.81
544.498	92.81
544.712	82.81
544.925	91.81
545.139	84.81
545.352	97.81
545.566	94.81
545.779	88.81
545.993	96.81
546.206	83.81
546.42	69.81
546.633	91.81
546.847	86.81
547.06	93.81
547.274	97.81
547.487	77.81
547.7	89.81
547.914	80.81
548.127	88.81
548.34	74.81
548.554	98.81
548.767	105.81
548.98	93.81
549.193	86.81
549.407	77.81
549.62	89.81
549.833	72.81
550.046	74.81
550.259	81.81
550.473	88.81
550.686	88.81
550.899	85.81
551.112	82.81
551.325	89.81
551.538	77.81
551.751	72.81
551.964	68.81
552.177	72.81
552.39	92.81
552.603	84.81
552.816	90.81
553.029	95.81
553.242	81.81
553.455	96.81
553.667	97.81
553.88	85.81
554.093	92.81
554.306	98.81
554.519	95.81
554.732	73.81
554.944	79.81
555.157	94.81
555.37	90.81
555.583	82.81
555.795	79.81
556.008	79.81
556.221	83.81
556.433	76.81
556.646	81.81
556.859	88.81
557.071	80.81
557.284	79.81
557.496	86.81
557.709	64.81
557.921	68.81
558.134	88.81
558.346	87.81
558.559	84.81
558.771	72.81
558.984	77.81
559.196	72.81
559.409	94.81
559.621	83.81
559.833	89.81
560.046	81.81
560.258	77.81
560.47	84.81
560.683	96.81
560.895	79.81
561.107	100.81
561.32	78.81
561.532	80.81
561.744	92.81
561.956	86.81
562.168	88.81
562.381	85.81
562.593	90.81
562.805	93.81
563.017	82.81
563.229	72.81
563.441	76.81
563.653	88.81
563.865	87.81
564.077	75.81
564.289	87.81
564.501	85.81
564.713	88.81
564.925	85.81
565.137	82.81
565.349	92.81
565.561	83.81
565.773	84.81
565.985	80.81
566.197	90.81
566.408	86.81
566.62	97.81
566.832	94.81
567.044	100.81
567.255	77.81
567.467	90.81
567.679	86.81
567.891	93.81
568.102	77.81
568.314	80.81
568.526	75.81
568.737	94.81
568.949	65.81
569.161	84.81
569.372	88.81
569.584	85.81
569.795	83.81
570.007	81.81
570.218	84.81
570.43	86.81
570.641	94.81
570.853	81.81
571.064	80.81
571.276	75.81
571.487	90.81
571.698	95.81
571.91	91.81
572.121	83.81
572.333	83.81
572.544	88.81
572.755	76.81
572.966	75.81
573.178	85.81
573.389	94.81
573.6	80.81
573.811	78.81
574.023	84.81
574.234	85.81
574.445	87.81
574.656	80.81
574.867	81.81
575.078	91.81
575.289	84.81
575.501	103.81
575.712	90.81
575.923	92.81
576.134	82.81
576.345	77.81
576.556	70.81
576.767	82.81
576.978	70.81
577.188	61.81
577.399	75.81
577.61	84.81
577.821	84.81
578.032	88.81
578.243	92.81
578.454	86.81
578.665	89.81
578.875	92.81
579.086	80.81
579.297	84.81
579.508	100.81
579.718	85.81
579.929	78.81
580.14	99.81
580.35	90.81
580.561	91.81
580.772	85.81
580.982	73.81
581.193	82.81
581.403	84.81
581.614	92.81
581.825	83.81
582.035	89.81
582.246	89.81
582.456	72.81
582.667	73.81
582.877	72.81
583.087	88.81
583.298	89.81
583.508	97.81
583.719	72.81
583.929	91.81
584.139	76.81
584.35	74.81
584.56	78.81
584.77	73.81
584.981	85.81
585.191	86.81
585.401	76.81
585.611	81.81
585.821	89.81
586.032	87.81
586.242	83.81
586.452	74.81
586.662	69.81
586.872	98.81
587.082	95.81
587.292	70.81
587.502	92.81
587.713	88.81
587.923	88.81
588.133	93.81
588.343	80.81
588.553	99.81
588.762	120.81
588.972	238.81
589.182	648.81
589.392	329.81
589.602	252.81
589.812	520.81
590.022	223.81
590.232	104.81
590.441	85.81
590.651	96.81
590.861	80.81
591.071	80.81
591.281	82.81
591.49	89.81
591.7	92.81
591.91	95.81
592.119	80.81
592.329	78.81
592.539	87.81
592.748	82.81
592.958	89.81
593.167	84.81
593.377	82.81
593.587	80.81
593.796	78.81
594.006	90.81
594.215	85.81
594.424	72.81
594.634	78.81
594.843	81.81
595.053	96.81
595.262	74.81
595.472	88.81
595.681	86.81
595.89	82.81
596.1	91.81
596.309	94.81
596.518	90.81
596.727	74.81
596.937	68.81
597.146	88.81
597.355	90.81
597.564	82.81
597.774	89.81
597.983	78.81
598.192	69.81
598.401	82.81
598.61	87.81
598.819	82.81
599.028	78.81
599.237	85.81
599.446	81.81
599.655	87.81
599.864	91.81
600.073	77.81
600.282	79.81
600.491	80.81
600.7	77.81
600.909	81.81
601.118	72.81
601.327	87.81
601.536	64.81
601.745	80.81
601.953	74.81
602.162	95.81
602.371	96.81
602.58	74.81
602.789	88.81
602.997	83.81
603.206	90.81
603.415	68.81
603.623	83.81
603.832	78.81
604.041	90.81
604.249	74.81
604.458	81.81
604.666	88.81
604.875	88.81
605.084	87.81
605.292	65.81
605.501	80.81
605.709	78.81
605.918	79.81
606.126	71.81
606.334	90.81
606.543	74.81
606.751	92.81
606.96	89.81
607.168	80.81
607.376	80.81
607.585	84.81
607.793	80.81
608.001	74.81
608.21	83.81
608.418	86.81
608.626	72.81
608.834	72.81
609.043	73.81
609.251	97.81
609.459	82.81
609.667	81.81
609.875	80.81
610.083	74.81
610.291	78.81
610.499	88.81
610.707	80.81
610.916	78.81
611.124	85.81
611.332	101.81
611.54	82.81
611.748	80.81
611.955	88.81
612.163	88.81
612.371	80.81
612.579	85.81
612.787	67.81
612.995	88.81
613.203	91.81
613.411	89.81
613.618	81.81
613.826	86.81
614.034	82.81
614.242	75.81
614.449	90.81
614.657	76.81
614.865	75.81
615.072	80.81
615.28	90.81
615.488	87.81
615.695	88.81
615.903	74.81
616.111	78.81
616.318	78.81
616.526	78.81
616.733	68.81
616.941	78.81
617.148	74.81
617.356	84.81
617.563	90.81
617.771	78.81
617.978	89.81
618.185	87.81
618.393	85.81
618.6	74.81
618.807	84.81
619.015	85.81
619.222	78.81
619.429	84.81
619.637	74.81
619.844	97.81
620.051	83.81
620.258	93.81
620.466	55.81
620.673	72.81
620.88	84.81
621.087	97.81
621.294	84.81
621.501	78.81
621.708	67.81
621.915	82.81
622.122	80.81
622.329	87.81
622.536	77.81
622.743	86.81
622.95	85.81
623.157	90.81
623.364	83.81
623.571	78.81
623.778	72.81
623.985	69.81
624.192	85.81
624.399	75.81
624.606	88.81
624.812	80.81
625.019	89.81
625.226	75.81
625.433	69.81
625.639	85.81
625.846	92.81
626.053	84.81
626.259	68.81
626.466	76.81
626.673	85.81
626.879	83.81
627.086	96.81
627.293	78.81
627.499	85.81
627.706	92.81
627.912	91.81
628.119	80.81
628.325	85.81
628.532	84.81
628.738	84.81
628.945	83.81
629.151	79.81
629.357	87.81
629.564	68.81
629.77	82.81
629.976	83.81
630.183	71.81
630.389	79.81
630.595	83.81
630.802	94.81
631.008	83.81
631.214	71.81
631.42	61.81
631.627	82.81
631.833	69.81
632.039	80.81
632.245	83.81
632.451	89.81
632.657	82.81
632.863	74.81
633.069	70.81
633.275	70.81
633.481	84.81
633.688	83.81
633.893	80.81
634.099	73.81
634.305	93.81
634.511	72.81
634.717	81.81
634.923	89.81
635.129	77.81
635.335	89.81
635.541	87.81
635.747	84.81
635.952	65.81
636.158	81.81
636.364	90.81
636.57	78.81
636.775	74.81
636.981	95.81
637.187	75.81
637.392	88.81
637.598	89.81
637.804	80.81
638.009	71.81
638.215	66.81
638.421	75.81
638.626	77.81
638.832	93.81
639.037	86.81
639.243	80.81
639.448	84.81
639.654	83.81
639.859	92.81
640.065	83.81
640.27	88.81
640.475	69.81
640.681	74.81
640.886	92.81
641.091	76.81
641.297	88.81
641.502	86.81
641.707	82.81
641.913	80.81
642.118	84.81
642.323	88.81
642.528	80.81
642.733	79.81
642.939	80.81
643.144	63.81
643.349	88.81
643.554	92.81
643.759	83.81
643.964	80.81
644.169	80.81
644.374	83.81
644.579	86.81
644.784	78.81
644.989	70.81
645.194	94.81
645.399	80.81
645.604	86.81
645.809	82.81
646.014	85.81
646.219	86.81
646.423	80.81
646.628	74.81
646.833	86.81
647.038	75.81
647.243	64.81
647.447	90.81
647.652	96.81
647.857	87.81
648.062	82.81
648.266	80.81
648.471	81.81
648.676	74.81
648.88	89.81
649.085	81.81
649.289	74.81
649.494	81.81
649.698	85.81
649.903	74.81
650.107	84.81
650.312	94.81
650.516	75.81
650.721	73.81
650.925	95.81
651.13	75.81
651.334	90.81
651.539	100.81
651.743	70.81
651.947	94.81
652.152	92.81
652.356	80.81
652.56	77.81
652.764	80.81
652.969	77.81
653.173	85.81
653.377	74.81
653.581	66.81
653.785	81.81
653.99	93.81
654.194	78.81
654.398	86.81
654.602	87.81
654.806	66.81
655.01	80.81
655.214	78.81
655.418	81.81
655.622	74.81
655.826	83.81
656.03	80.81
656.234	85.81
656.438	88.81
656.642	77.81
656.846	83.81
657.049	74.81
657.253	64.81
657.457	88.81
657.661	66.81
657.865	81.81
658.068	83.81
658.272	89.81
658.476	92.81
658.68	81.81
658.883	89.81
659.087	81.81
659.291	74.81
659.494	85.81
659.698	79.81
659.901	89.81
660.105	84.81
660.309	79.81
660.512	80.81
660.716	83.81
660.919	104.81
661.123	94.81
661.326	65.81
661.53	82.81
661.733	93.81
661.936	80.81
662.14	69.81
662.343	78.81
662.546	96.81
662.75	93.81
662.953	74.81
663.156	78.81
663.36	72.81
663.563	76.81
663.766	76.81
663.969	79.81
664.173	72.81
664.376	71.81
664.579	78.81
664.782	72.81
664.985	84.81
665.188	72.81
665.391	85.81
665.594	84.81
665.797	73.81
666	67.81
666.203	80.81
666.406	76.81
666.609	75.81
666.812	73.81
667.015	65.81
667.218	85.81
667.421	80.81
667.624	66.81
667.827	79.81
668.03	66.81
668.232	75.81
668.435	75.81
668.638	76.81
668.841	83.81
669.043	77.81
669.246	82.81
669.449	68.81
669.651	79.81
669.854	84.81
670.057	53.81
670.259	87.81
670.462	72.81
670.665	77.81
670.867	80.81
671.07	85.81
671.272	86.81
671.475	90.81
671.677	72.81
671.88	89.81
672.082	67.81
672.284	76.81
672.487	85.81
672.689	75.81
672.892	83.81
