Data from Lead_HRD10591_00051.txt Node
Date: Tue Feb 17 14:14:09 EST 2026
User: Yrep
Spectrometer: HR+D1059
Trigger mode: 1
Integration Time (sec): 1.000000E-1
Scans to average: 1
Electric dark correction enabled: true
Nonlinearity correction enabled: false
Boxcar width: 0
XAxis mode: Wavelengths
Number of Pixels in Spectrum: 2048
>>>>>Begin Spectral Data<<<<<
223.165	-23.94
223.4	-23.94
223.635	-23.94
223.869	-29.94
224.104	-20.94
224.338	3.06
224.573	-14.94
224.808	-5.94
225.042	-11.94
225.277	1.06
225.511	0.06
225.746	1.06
225.98	7.06
226.215	7.06
226.449	19.06
226.683	25.06
226.918	21.06
227.152	23.06
227.387	46.06
227.621	50.06
227.856	46.06
228.09	40.06
228.324	53.06
228.559	71.06
228.793	64.06
229.027	61.06
229.262	71.06
229.496	62.06
229.73	73.06
229.964	79.06
230.199	68.06
230.433	65.06
230.667	85.06
230.901	81.06
231.136	69.06
231.37	89.06
231.604	85.06
231.838	78.06
232.072	79.06
232.306	82.06
232.541	83.06
232.775	77.06
233.009	83.06
233.243	91.06
233.477	69.06
233.711	88.06
233.945	69.06
234.179	87.06
234.413	104.06
234.647	76.06
234.881	80.06
235.115	76.06
235.349	64.06
235.583	75.06
235.817	75.06
236.051	66.06
236.285	62.06
236.519	76.06
236.753	61.06
236.987	68.06
237.221	73.06
237.455	79.06
237.689	88.06
237.922	79.06
238.156	69.06
238.39	74.06
238.624	81.06
238.858	69.06
239.091	83.06
239.325	72.06
239.559	79.06
239.793	73.06
240.027	71.06
240.26	73.06
240.494	77.06
240.728	68.06
240.961	68.06
241.195	84.06
241.429	85.06
241.662	80.06
241.896	69.06
242.13	81.06
242.363	75.06
242.597	63.06
242.83	85.06
243.064	72.06
243.298	74.06
243.531	62.06
243.765	83.06
243.998	81.06
244.232	83.06
244.465	81.06
244.699	78.06
244.932	76.06
245.166	74.06
245.399	83.06
245.633	78.06
245.866	70.06
246.099	66.06
246.333	82.06
246.566	72.06
246.8	79.06
247.033	89.06
247.266	65.06
247.5	63.06
247.733	82.06
247.966	71.06
248.2	81.06
248.433	85.06
248.666	85.06
248.899	62.06
249.133	72.06
249.366	83.06
249.599	79.06
249.832	71.06
250.066	71.06
250.299	62.06
250.532	85.06
250.765	92.06
250.998	73.06
251.231	87.06
251.465	83.06
251.698	82.06
251.931	71.06
252.164	83.06
252.397	77.06
252.63	76.06
252.863	70.06
253.096	79.06
253.329	79.06
253.562	82.06
253.795	84.06
254.028	81.06
254.261	80.06
254.494	81.06
254.727	84.06
254.96	70.06
255.193	96.06
255.426	85.06
255.659	67.06
255.892	63.06
256.124	80.06
256.357	79.06
256.59	67.06
256.823	91.06
257.056	79.06
257.289	94.06
257.521	86.06
257.754	79.06
257.987	82.06
258.22	81.06
258.452	82.06
258.685	77.06
258.918	81.06
259.151	83.06
259.383	80.06
259.616	84.06
259.849	71.06
260.081	87.06
260.314	85.06
260.547	74.06
260.779	67.06
261.012	78.06
261.244	99.06
261.477	117.06
261.71	97.06
261.942	79.06
262.175	83.06
262.407	70.06
262.64	73.06
262.872	74.06
263.105	91.06
263.337	72.06
263.57	79.06
263.802	70.06
264.035	79.06
264.267	72.06
264.499	78.06
264.732	79.06
264.964	86.06
265.197	82.06
265.429	102.06
265.661	65.06
265.894	83.06
266.126	93.06
266.358	74.06
266.591	82.06
266.823	76.06
267.055	93.06
267.287	80.06
267.52	80.06
267.752	85.06
267.984	88.06
268.216	70.06
268.448	72.06
268.681	78.06
268.913	73.06
269.145	82.06
269.377	85.06
269.609	83.06
269.841	77.06
270.073	75.06
270.306	76.06
270.538	85.06
270.77	71.06
271.002	75.06
271.234	96.06
271.466	59.06
271.698	75.06
271.93	81.06
272.162	76.06
272.394	74.06
272.626	72.06
272.858	81.06
273.09	82.06
273.322	76.06
273.553	78.06
273.785	81.06
274.017	78.06
274.249	83.06
274.481	76.06
274.713	88.06
274.945	88.06
275.176	82.06
275.408	89.06
275.64	74.06
275.872	82.06
276.104	79.06
276.335	74.06
276.567	73.06
276.799	84.06
277.031	81.06
277.262	78.06
277.494	83.06
277.726	77.06
277.957	89.06
278.189	78.06
278.421	84.06
278.652	81.06
278.884	84.06
279.115	78.06
279.347	83.06
279.579	101.06
279.81	71.06
280.042	107.06
280.273	131.06
280.505	117.06
280.736	89.06
280.968	87.06
281.199	84.06
281.431	73.06
281.662	90.06
281.894	83.06
282.125	93.06
282.356	111.06
282.588	101.06
282.819	94.06
283.051	89.06
283.282	118.06
283.513	117.06
283.745	82.06
283.976	88.06
284.207	84.06
284.439	92.06
284.67	83.06
284.901	82.06
285.132	81.06
285.364	87.06
285.595	80.06
285.826	73.06
286.057	89.06
286.288	91.06
286.52	79.06
286.751	97.06
286.982	79.06
287.213	97.06
287.444	109.06
287.675	91.06
287.906	75.06
288.138	92.06
288.369	102.06
288.6	86.06
288.831	75.06
289.062	83.06
289.293	89.06
289.524	83.06
289.755	81.06
289.986	95.06
290.217	101.06
290.448	88.06
290.679	78.06
290.91	81.06
291.141	85.06
291.371	86.06
291.602	74.06
291.833	79.06
292.064	82.06
292.295	88.06
292.526	83.06
292.757	79.06
292.987	92.06
293.218	89.06
293.449	83.06
293.68	72.06
293.91	77.06
294.141	95.06
294.372	74.06
294.603	74.06
294.833	73.06
295.064	83.06
295.295	83.06
295.525	75.06
295.756	90.06
295.987	86.06
296.217	86.06
296.448	72.06
296.679	80.06
296.909	81.06
297.14	73.06
297.37	81.06
297.601	85.06
297.831	85.06
298.062	81.06
298.292	95.06
298.523	95.06
298.753	87.06
298.984	95.06
299.214	76.06
299.445	83.06
299.675	79.06
299.905	96.06
300.136	87.06
300.366	88.06
300.597	109.06
300.827	96.06
301.057	88.06
301.288	91.06
301.518	82.06
301.748	78.06
301.979	92.06
302.209	77.06
302.439	81.06
302.669	74.06
302.9	72.06
303.13	93.06
303.36	97.06
303.59	85.06
303.82	81.06
304.051	80.06
304.281	88.06
304.511	88.06
304.741	74.06
304.971	81.06
305.201	81.06
305.431	94.06
305.661	88.06
305.891	82.06
306.121	90.06
306.352	87.06
306.582	87.06
306.812	85.06
307.042	83.06
307.272	83.06
307.502	79.06
307.731	91.06
307.961	85.06
308.191	89.06
308.421	92.06
308.651	81.06
308.881	101.06
309.111	98.06
309.341	97.06
309.571	100.06
309.8	71.06
310.03	79.06
310.26	82.06
310.49	83.06
310.72	104.06
310.949	95.06
311.179	83.06
311.409	78.06
311.639	89.06
311.868	81.06
312.098	85.06
312.328	78.06
312.557	82.06
312.787	80.06
313.017	83.06
313.246	84.06
313.476	77.06
313.706	75.06
313.935	82.06
314.165	67.06
314.394	81.06
314.624	102.06
314.853	99.06
315.083	78.06
315.312	80.06
315.542	81.06
315.771	94.06
316.001	76.06
316.23	82.06
316.46	75.06
316.689	101.06
316.919	72.06
317.148	72.06
317.377	93.06
317.607	103.06
317.836	85.06
318.065	83.06
318.295	93.06
318.524	70.06
318.753	99.06
318.983	93.06
319.212	88.06
319.441	88.06
319.67	72.06
319.9	76.06
320.129	85.06
320.358	78.06
320.587	68.06
320.816	82.06
321.046	82.06
321.275	85.06
321.504	75.06
321.733	73.06
321.962	80.06
322.191	98.06
322.42	89.06
322.649	73.06
322.878	80.06
323.108	68.06
323.337	91.06
323.566	103.06
323.795	80.06
324.024	93.06
324.253	92.06
324.482	74.06
324.71	102.06
324.939	97.06
325.168	70.06
325.397	83.06
325.626	70.06
325.855	73.06
326.084	94.06
326.313	89.06
326.542	93.06
326.77	92.06
326.999	90.06
327.228	82.06
327.457	83.06
327.686	100.06
327.914	82.06
328.143	88.06
328.372	75.06
328.6	76.06
328.829	75.06
329.058	71.06
329.287	87.06
329.515	67.06
329.744	78.06
329.972	73.06
330.201	96.06
330.43	85.06
330.658	91.06
330.887	73.06
331.115	95.06
331.344	91.06
331.572	84.06
331.801	83.06
332.03	81.06
332.258	94.06
332.486	94.06
332.715	79.06
332.943	90.06
333.172	74.06
333.4	85.06
333.629	75.06
333.857	73.06
334.085	79.06
334.314	83.06
334.542	85.06
334.771	89.06
334.999	80.06
335.227	84.06
335.455	94.06
335.684	86.06
335.912	71.06
336.14	92.06
336.369	81.06
336.597	81.06
336.825	89.06
337.053	75.06
337.281	77.06
337.51	89.06
337.738	97.06
337.966	78.06
338.194	89.06
338.422	73.06
338.65	87.06
338.878	78.06
339.106	86.06
339.334	98.06
339.562	83.06
339.79	75.06
340.018	91.06
340.246	79.06
340.474	96.06
340.702	93.06
340.93	94.06
341.158	77.06
341.386	81.06
341.614	93.06
341.842	81.06
342.07	88.06
342.298	73.06
342.526	82.06
342.754	86.06
342.981	88.06
343.209	77.06
343.437	83.06
343.665	91.06
343.893	98.06
344.12	93.06
344.348	72.06
344.576	82.06
344.804	86.06
345.031	83.06
345.259	90.06
345.487	79.06
345.714	73.06
345.942	80.06
346.17	91.06
346.397	91.06
346.625	94.06
346.853	86.06
347.08	82.06
347.308	88.06
347.535	79.06
347.763	81.06
347.99	88.06
348.218	77.06
348.445	75.06
348.673	77.06
348.9	72.06
349.128	92.06
349.355	89.06
349.583	93.06
349.81	74.06
350.037	83.06
350.265	87.06
350.492	93.06
350.72	85.06
350.947	80.06
351.174	81.06
351.402	81.06
351.629	83.06
351.856	100.06
352.083	88.06
352.311	90.06
352.538	80.06
352.765	84.06
352.992	73.06
353.22	75.06
353.447	79.06
353.674	85.06
353.901	88.06
354.128	90.06
354.355	79.06
354.583	83.06
354.81	84.06
355.037	95.06
355.264	82.06
355.491	76.06
355.718	80.06
355.945	76.06
356.172	85.06
356.399	97.06
356.626	97.06
356.853	106.06
357.08	116.06
357.307	155.06
357.534	132.06
357.761	89.06
357.988	74.06
358.215	79.06
358.441	77.06
358.668	79.06
358.895	82.06
359.122	69.06
359.349	84.06
359.576	86.06
359.802	81.06
360.029	74.06
360.256	97.06
360.483	103.06
360.709	76.06
360.936	83.06
361.163	80.06
361.39	63.06
361.616	90.06
361.843	81.06
362.07	85.06
362.296	74.06
362.523	73.06
362.749	69.06
362.976	81.06
363.203	87.06
363.429	117.06
363.656	143.06
363.882	200.06
364.109	213.06
364.335	130.06
364.562	90.06
364.788	83.06
365.015	86.06
365.241	74.06
365.468	79.06
365.694	76.06
365.92	75.06
366.147	74.06
366.373	86.06
366.599	94.06
366.826	98.06
367.052	106.06
367.278	103.06
367.505	111.06
367.731	109.06
367.957	147.06
368.184	203.06
368.41	269.06
368.636	218.06
368.862	109.06
369.089	89.06
369.315	86.06
369.541	89.06
369.767	81.06
369.993	90.06
370.219	79.06
370.445	82.06
370.672	86.06
370.898	70.06
371.124	80.06
371.35	81.06
371.576	79.06
371.802	75.06
372.028	87.06
372.254	72.06
372.48	94.06
372.706	65.06
372.932	75.06
373.158	85.06
373.384	87.06
373.61	101.06
373.835	130.06
374.061	151.06
374.287	134.06
374.513	91.06
374.739	79.06
374.965	89.06
375.191	80.06
375.416	83.06
375.642	77.06
375.868	96.06
376.094	79.06
376.319	81.06
376.545	92.06
376.771	71.06
376.997	78.06
377.222	74.06
377.448	75.06
377.674	72.06
377.899	88.06
378.125	75.06
378.35	86.06
378.576	80.06
378.802	74.06
379.027	82.06
379.253	88.06
379.478	82.06
379.704	85.06
379.929	89.06
380.155	91.06
380.38	87.06
380.606	73.06
380.831	82.06
381.057	88.06
381.282	77.06
381.507	81.06
381.733	82.06
381.958	80.06
382.184	73.06
382.409	88.06
382.634	82.06
382.86	82.06
383.085	88.06
383.31	90.06
383.535	83.06
383.761	70.06
383.986	81.06
384.211	81.06
384.436	69.06
384.662	79.06
384.887	86.06
385.112	89.06
385.337	86.06
385.562	79.06
385.787	74.06
386.013	85.06
386.238	85.06
386.463	74.06
386.688	89.06
386.913	85.06
387.138	84.06
387.363	70.06
387.588	82.06
387.813	89.06
388.038	90.06
388.263	84.06
388.488	76.06
388.713	87.06
388.938	61.06
389.163	94.06
389.387	90.06
389.612	75.06
389.837	91.06
390.062	78.06
390.287	89.06
390.512	85.06
390.736	74.06
390.961	85.06
391.186	89.06
391.411	77.06
391.636	95.06
391.86	93.06
392.085	87.06
392.31	89.06
392.534	76.06
392.759	74.06
392.984	74.06
393.208	101.06
393.433	113.06
393.658	94.06
393.882	81.06
394.107	91.06
394.331	123.06
394.556	125.06
394.78	106.06
395.005	81.06
395.229	88.06
395.454	93.06
395.678	89.06
395.903	103.06
396.127	127.06
396.352	127.06
396.576	81.06
396.801	90.06
397.025	81.06
397.249	89.06
397.474	105.06
397.698	73.06
397.922	69.06
398.147	83.06
398.371	102.06
398.595	77.06
398.82	65.06
399.044	74.06
399.268	79.06
399.492	71.06
399.717	86.06
399.941	81.06
400.165	94.06
400.389	93.06
400.613	73.06
400.837	84.06
401.062	90.06
401.286	90.06
401.51	93.06
401.734	91.06
401.958	101.06
402.182	84.06
402.406	85.06
402.63	68.06
402.854	69.06
403.078	71.06
403.302	85.06
403.526	83.06
403.75	90.06
403.974	83.06
404.198	96.06
404.422	106.06
404.645	114.06
404.869	97.06
405.093	99.06
405.317	114.06
405.541	207.06
405.765	392.06
405.988	402.06
406.212	202.06
406.436	123.06
406.66	98.06
406.883	81.06
407.107	70.06
407.331	77.06
407.555	88.06
407.778	84.06
408.002	72.06
408.226	69.06
408.449	89.06
408.673	69.06
408.896	64.06
409.12	81.06
409.344	81.06
409.567	73.06
409.791	79.06
410.014	59.06
410.238	73.06
410.461	82.06
410.685	83.06
410.908	62.06
411.132	76.06
411.355	85.06
411.578	72.06
411.802	85.06
412.025	86.06
412.249	87.06
412.472	87.06
412.695	89.06
412.919	77.06
413.142	81.06
413.365	75.06
413.589	78.06
413.812	90.06
414.035	83.06
414.258	77.06
414.482	79.06
414.705	80.06
414.928	82.06
415.151	82.06
415.374	75.06
415.597	91.06
415.821	66.06
416.044	100.06
416.267	102.06
416.49	69.06
416.713	83.06
416.936	93.06
417.159	86.06
417.382	80.06
417.605	74.06
417.828	75.06
418.051	83.06
418.274	77.06
418.497	74.06
418.72	61.06
418.943	75.06
419.166	57.06
419.389	90.06
419.611	70.06
419.834	73.06
420.057	90.06
420.28	89.06
420.503	73.06
420.726	82.06
420.948	82.06
421.171	78.06
421.394	77.06
421.617	83.06
421.839	81.06
422.062	71.06
422.285	83.06
422.507	85.06
422.73	105.06
422.953	89.06
423.175	68.06
423.398	75.06
423.621	80.06
423.843	74.06
424.066	88.06
424.288	88.06
424.511	80.06
424.733	85.06
424.956	98.06
425.178	71.06
425.401	81.06
425.623	96.06
425.846	85.06
426.068	73.06
426.291	83.06
426.513	90.06
426.735	89.06
426.958	83.06
427.18	80.06
427.402	95.06
427.625	89.06
427.847	77.06
428.069	82.06
428.292	87.06
428.514	86.06
428.736	70.06
428.958	72.06
429.181	74.06
429.403	89.06
429.625	95.06
429.847	85.06
430.069	79.06
430.292	82.06
430.514	77.06
430.736	83.06
430.958	82.06
431.18	78.06
431.402	89.06
431.624	71.06
431.846	66.06
432.068	79.06
432.29	73.06
432.512	67.06
432.734	82.06
432.956	98.06
433.178	98.06
433.4	89.06
433.622	90.06
433.844	85.06
434.066	71.06
434.287	80.06
434.509	87.06
434.731	82.06
434.953	84.06
435.175	67.06
435.397	71.06
435.618	86.06
435.84	73.06
436.062	95.06
436.284	80.06
436.505	83.06
436.727	95.06
436.949	79.06
437.17	75.06
437.392	95.06
437.614	75.06
437.835	82.06
438.057	73.06
438.278	96.06
438.5	81.06
438.721	105.06
438.943	87.06
439.165	79.06
439.386	86.06
439.608	72.06
439.829	86.06
440.05	86.06
440.272	85.06
440.493	66.06
440.715	80.06
440.936	106.06
441.158	72.06
441.379	83.06
441.6	82.06
441.822	92.06
442.043	81.06
442.264	81.06
442.486	77.06
442.707	76.06
442.928	78.06
443.149	93.06
443.371	79.06
443.592	78.06
443.813	82.06
444.034	87.06
444.255	94.06
444.476	99.06
444.698	73.06
444.919	91.06
445.14	156.06
445.361	119.06
445.582	94.06
445.803	95.06
446.024	79.06
446.245	61.06
446.466	91.06
446.687	73.06
446.908	75.06
447.129	82.06
447.35	87.06
447.571	89.06
447.792	98.06
448.013	82.06
448.234	81.06
448.455	76.06
448.675	65.06
448.896	77.06
449.117	83.06
449.338	76.06
449.559	85.06
449.779	76.06
450	58.06
450.221	86.06
450.442	94.06
450.662	83.06
450.883	84.06
451.104	63.06
451.324	89.06
451.545	75.06
451.766	82.06
451.986	84.06
452.207	97.06
452.428	54.06
452.648	77.06
452.869	83.06
453.089	65.06
453.31	82.06
453.53	75.06
453.751	84.06
453.971	81.06
454.192	81.06
454.412	90.06
454.633	93.06
454.853	89.06
455.073	83.06
455.294	65.06
455.514	90.06
455.734	81.06
455.955	73.06
456.175	73.06
456.395	82.06
456.616	80.06
456.836	82.06
457.056	95.06
457.276	61.06
457.497	77.06
457.717	70.06
457.937	79.06
458.157	69.06
458.377	72.06
458.598	77.06
458.818	81.06
459.038	78.06
459.258	75.06
459.478	80.06
459.698	81.06
459.918	85.06
460.138	69.06
460.358	70.06
460.578	92.06
460.798	90.06
461.018	61.06
461.238	76.06
461.458	90.06
461.678	73.06
461.898	84.06
462.118	76.06
462.338	85.06
462.558	73.06
462.777	62.06
462.997	72.06
463.217	77.06
463.437	75.06
463.657	76.06
463.876	86.06
464.096	73.06
464.316	80.06
464.536	81.06
464.755	82.06
464.975	85.06
465.195	75.06
465.414	86.06
465.634	101.06
465.854	78.06
466.073	89.06
466.293	96.06
466.512	85.06
466.732	79.06
466.951	76.06
467.171	83.06
467.391	85.06
467.61	75.06
467.829	81.06
468.049	84.06
468.268	85.06
468.488	88.06
468.707	68.06
468.927	85.06
469.146	72.06
469.365	70.06
469.585	84.06
469.804	78.06
470.023	86.06
470.243	89.06
470.462	82.06
470.681	76.06
470.901	93.06
471.12	71.06
471.339	78.06
471.558	71.06
471.777	81.06
471.997	86.06
472.216	69.06
472.435	81.06
472.654	96.06
472.873	90.06
473.092	89.06
473.311	71.06
473.53	82.06
473.749	90.06
473.968	104.06
474.187	88.06
474.406	72.06
474.625	74.06
474.844	92.06
475.063	76.06
475.282	70.06
475.501	79.06
475.72	93.06
475.939	77.06
476.158	80.06
476.377	66.06
476.596	71.06
476.814	75.06
477.033	87.06
477.252	76.06
477.471	88.06
477.69	79.06
477.908	85.06
478.127	98.06
478.346	78.06
478.564	87.06
478.783	87.06
479.002	84.06
479.22	74.06
479.439	83.06
479.658	70.06
479.876	89.06
480.095	77.06
480.313	73.06
480.532	86.06
480.751	68.06
480.969	73.06
481.188	71.06
481.406	93.06
481.624	73.06
481.843	76.06
482.061	77.06
482.28	78.06
482.498	78.06
482.717	69.06
482.935	83.06
483.153	74.06
483.372	73.06
483.59	74.06
483.808	90.06
484.027	85.06
484.245	86.06
484.463	69.06
484.681	70.06
484.9	65.06
485.118	85.06
485.336	73.06
485.554	83.06
485.772	85.06
485.99	83.06
486.209	91.06
486.427	83.06
486.645	78.06
486.863	84.06
487.081	79.06
487.299	78.06
487.517	71.06
487.735	76.06
487.953	97.06
488.171	88.06
488.389	106.06
488.607	73.06
488.825	79.06
489.043	71.06
489.261	84.06
489.479	76.06
489.696	78.06
489.914	84.06
490.132	80.06
490.35	83.06
490.568	81.06
490.786	71.06
491.003	85.06
491.221	76.06
491.439	81.06
491.657	74.06
491.874	81.06
492.092	90.06
492.31	81.06
492.527	81.06
492.745	92.06
492.963	89.06
493.18	83.06
493.398	80.06
493.615	85.06
493.833	85.06
494.05	93.06
494.268	74.06
494.485	76.06
494.703	95.06
494.92	87.06
495.138	81.06
495.355	80.06
495.573	89.06
495.79	87.06
496.008	87.06
496.225	80.06
496.442	93.06
496.66	94.06
496.877	75.06
497.094	91.06
497.312	73.06
497.529	78.06
497.746	79.06
497.963	82.06
498.181	75.06
498.398	65.06
498.615	86.06
498.832	82.06
499.049	81.06
499.267	75.06
499.484	71.06
499.701	89.06
499.918	88.06
500.135	84.06
500.352	104.06
500.569	92.06
500.786	106.06
501.003	79.06
501.22	88.06
501.437	84.06
501.654	80.06
501.871	83.06
502.088	66.06
502.305	87.06
502.522	73.06
502.739	83.06
502.956	99.06
503.172	79.06
503.389	79.06
503.606	80.06
503.823	99.06
504.04	97.06
504.256	86.06
504.473	82.06
504.69	96.06
504.907	92.06
505.123	87.06
505.34	94.06
505.557	95.06
505.773	87.06
505.99	73.06
506.207	79.06
506.423	88.06
506.64	81.06
506.856	92.06
507.073	83.06
507.289	78.06
507.506	67.06
507.722	84.06
507.939	91.06
508.155	95.06
508.372	85.06
508.588	79.06
508.805	78.06
509.021	86.06
509.238	96.06
509.454	81.06
509.67	78.06
509.887	88.06
510.103	93.06
510.319	79.06
510.536	77.06
510.752	86.06
510.968	86.06
511.184	78.06
511.401	76.06
511.617	69.06
511.833	96.06
512.049	75.06
512.265	84.06
512.481	87.06
512.698	81.06
512.914	80.06
513.13	85.06
513.346	78.06
513.562	70.06
513.778	82.06
513.994	95.06
514.21	76.06
514.426	76.06
514.642	91.06
514.858	81.06
515.074	75.06
515.29	81.06
515.506	69.06
515.721	86.06
515.937	77.06
516.153	79.06
516.369	87.06
516.585	71.06
516.801	90.06
517.016	78.06
517.232	78.06
517.448	78.06
517.664	86.06
517.879	74.06
518.095	89.06
518.311	70.06
518.527	97.06
518.742	88.06
518.958	84.06
519.173	76.06
519.389	87.06
519.605	90.06
519.82	70.06
520.036	79.06
520.251	81.06
520.467	82.06
520.682	73.06
520.898	74.06
521.113	82.06
521.329	74.06
521.544	85.06
521.76	75.06
521.975	87.06
522.19	65.06
522.406	81.06
522.621	73.06
522.836	69.06
523.052	91.06
523.267	90.06
523.482	83.06
523.698	90.06
523.913	87.06
524.128	80.06
524.343	83.06
524.559	94.06
524.774	89.06
524.989	85.06
525.204	76.06
525.419	75.06
525.634	87.06
525.849	86.06
526.064	90.06
526.28	77.06
526.495	65.06
526.71	88.06
526.925	82.06
527.14	83.06
527.355	73.06
527.57	86.06
527.785	79.06
527.999	82.06
528.214	85.06
528.429	77.06
528.644	85.06
528.859	83.06
529.074	93.06
529.289	74.06
529.503	95.06
529.718	71.06
529.933	81.06
530.148	78.06
530.363	64.06
530.577	79.06
530.792	73.06
531.007	83.06
531.221	79.06
531.436	90.06
531.651	83.06
531.865	78.06
532.08	71.06
532.295	68.06
532.509	78.06
532.724	87.06
532.938	87.06
533.153	71.06
533.367	75.06
533.582	77.06
533.796	77.06
534.011	81.06
534.225	64.06
534.44	80.06
534.654	90.06
534.868	85.06
535.083	79.06
535.297	72.06
535.511	75.06
535.726	79.06
535.94	84.06
536.154	83.06
536.369	77.06
536.583	86.06
536.797	71.06
537.011	83.06
537.225	90.06
537.44	85.06
537.654	93.06
537.868	88.06
538.082	73.06
538.296	75.06
538.51	89.06
538.724	93.06
538.938	85.06
539.153	85.06
539.367	79.06
539.581	92.06
539.795	72.06
540.009	87.06
540.222	71.06
540.436	80.06
540.65	74.06
540.864	82.06
541.078	74.06
541.292	100.06
541.506	85.06
541.72	94.06
541.934	75.06
542.147	87.06
542.361	89.06
542.575	84.06
542.789	87.06
543.002	76.06
543.216	84.06
543.43	81.06
543.644	83.06
543.857	86.06
544.071	88.06
544.285	81.06
544.498	71.06
544.712	87.06
544.925	78.06
545.139	76.06
545.352	90.06
545.566	92.06
545.779	73.06
545.993	71.06
546.206	83.06
546.42	77.06
546.633	79.06
546.847	97.06
547.06	73.06
547.274	92.06
547.487	103.06
547.7	85.06
547.914	89.06
548.127	76.06
548.34	87.06
548.554	91.06
548.767	81.06
548.98	96.06
549.193	90.06
549.407	86.06
549.62	69.06
549.833	73.06
550.046	92.06
550.259	76.06
550.473	73.06
550.686	82.06
550.899	83.06
551.112	85.06
551.325	85.06
551.538	74.06
551.751	76.06
551.964	79.06
552.177	91.06
552.39	85.06
552.603	79.06
552.816	79.06
553.029	88.06
553.242	89.06
553.455	94.06
553.667	79.06
553.88	77.06
554.093	87.06
554.306	89.06
554.519	71.06
554.732	68.06
554.944	83.06
555.157	81.06
555.37	84.06
555.583	70.06
555.795	103.06
556.008	76.06
556.221	85.06
556.433	77.06
556.646	78.06
556.859	81.06
557.071	86.06
557.284	75.06
557.496	86.06
557.709	79.06
557.921	88.06
558.134	97.06
558.346	83.06
558.559	85.06
558.771	89.06
558.984	78.06
559.196	87.06
559.409	75.06
559.621	104.06
559.833	83.06
560.046	100.06
560.258	105.06
560.47	85.06
560.683	97.06
560.895	85.06
561.107	80.06
561.32	75.06
561.532	81.06
561.744	72.06
561.956	76.06
562.168	83.06
562.381	74.06
562.593	93.06
562.805	100.06
563.017	85.06
563.229	81.06
563.441	78.06
563.653	81.06
563.865	67.06
564.077	73.06
564.289	78.06
564.501	93.06
564.713	81.06
564.925	93.06
565.137	79.06
565.349	81.06
565.561	79.06
565.773	83.06
565.985	77.06
566.197	82.06
566.408	80.06
566.62	84.06
566.832	85.06
567.044	82.06
567.255	79.06
567.467	86.06
567.679	98.06
567.891	83.06
568.102	88.06
568.314	79.06
568.526	75.06
568.737	89.06
568.949	88.06
569.161	79.06
569.372	85.06
569.584	79.06
569.795	73.06
570.007	84.06
570.218	73.06
570.43	96.06
570.641	99.06
570.853	90.06
571.064	79.06
571.276	89.06
571.487	89.06
571.698	82.06
571.91	70.06
572.121	91.06
572.333	79.06
572.544	82.06
572.755	78.06
572.966	81.06
573.178	66.06
573.389	79.06
573.6	74.06
573.811	84.06
574.023	85.06
574.234	81.06
574.445	98.06
574.656	89.06
574.867	93.06
575.078	81.06
575.289	81.06
575.501	95.06
575.712	85.06
575.923	82.06
576.134	80.06
576.345	85.06
576.556	90.06
576.767	88.06
576.978	78.06
577.188	79.06
577.399	69.06
577.61	84.06
577.821	81.06
578.032	77.06
578.243	94.06
578.454	90.06
578.665	70.06
578.875	91.06
579.086	93.06
579.297	84.06
579.508	85.06
579.718	97.06
579.929	85.06
580.14	76.06
580.35	86.06
580.561	93.06
580.772	86.06
580.982	79.06
581.193	96.06
581.403	90.06
581.614	87.06
581.825	88.06
582.035	85.06
582.246	84.06
582.456	85.06
582.667	75.06
582.877	77.06
583.087	77.06
583.298	78.06
583.508	91.06
583.719	89.06
583.929	86.06
584.139	81.06
584.35	82.06
584.56	88.06
584.77	81.06
584.981	80.06
585.191	82.06
585.401	78.06
585.611	85.06
585.821	90.06
586.032	84.06
586.242	72.06
586.452	95.06
586.662	89.06
586.872	76.06
587.082	93.06
587.292	86.06
587.502	91.06
587.713	99.06
587.923	98.06
588.133	86.06
588.343	84.06
588.553	75.06
588.762	111.06
588.972	159.06
589.182	405.06
589.392	223.06
589.602	183.06
589.812	334.06
590.022	162.06
590.232	101.06
590.441	96.06
590.651	87.06
590.861	85.06
591.071	75.06
591.281	63.06
591.49	81.06
591.7	85.06
591.91	85.06
592.119	84.06
592.329	94.06
592.539	86.06
592.748	78.06
592.958	96.06
593.167	83.06
593.377	75.06
593.587	92.06
593.796	69.06
594.006	93.06
594.215	90.06
594.424	98.06
594.634	87.06
594.843	94.06
595.053	86.06
595.262	76.06
595.472	78.06
595.681	87.06
595.89	89.06
596.1	82.06
596.309	89.06
596.518	82.06
596.727	83.06
596.937	79.06
597.146	81.06
597.355	86.06
597.564	73.06
597.774	58.06
597.983	84.06
598.192	84.06
598.401	77.06
598.61	85.06
598.819	67.06
599.028	77.06
599.237	96.06
599.446	74.06
599.655	87.06
599.864	88.06
600.073	80.06
600.282	82.06
600.491	97.06
600.7	82.06
600.909	88.06
601.118	98.06
601.327	77.06
601.536	85.06
601.745	73.06
601.953	71.06
602.162	79.06
602.371	77.06
602.58	84.06
602.789	75.06
602.997	86.06
603.206	87.06
603.415	74.06
603.623	83.06
603.832	90.06
604.041	65.06
604.249	89.06
604.458	82.06
604.666	80.06
604.875	88.06
605.084	89.06
605.292	82.06
605.501	72.06
605.709	76.06
605.918	90.06
606.126	76.06
606.334	85.06
606.543	84.06
606.751	73.06
606.96	89.06
607.168	88.06
607.376	73.06
607.585	90.06
607.793	94.06
608.001	81.06
608.21	85.06
608.418	83.06
608.626	64.06
608.834	75.06
609.043	89.06
609.251	80.06
609.459	79.06
609.667	96.06
609.875	87.06
610.083	97.06
610.291	77.06
610.499	84.06
610.707	71.06
610.916	87.06
611.124	89.06
611.332	81.06
611.54	85.06
611.748	79.06
611.955	86.06
612.163	83.06
612.371	86.06
612.579	96.06
612.787	79.06
612.995	73.06
613.203	74.06
613.411	80.06
613.618	91.06
613.826	84.06
614.034	77.06
614.242	87.06
614.449	85.06
614.657	83.06
614.865	81.06
615.072	91.06
615.28	79.06
615.488	95.06
615.695	85.06
615.903	80.06
616.111	79.06
616.318	78.06
616.526	95.06
616.733	95.06
616.941	85.06
617.148	82.06
617.356	78.06
617.563	83.06
617.771	81.06
617.978	75.06
618.185	85.06
618.393	81.06
618.6	88.06
618.807	72.06
619.015	87.06
619.222	97.06
619.429	81.06
619.637	87.06
619.844	79.06
620.051	70.06
620.258	85.06
620.466	90.06
620.673	93.06
620.88	99.06
621.087	83.06
621.294	85.06
621.501	79.06
621.708	94.06
621.915	83.06
622.122	79.06
622.329	84.06
622.536	77.06
622.743	88.06
622.95	100.06
623.157	85.06
623.364	91.06
623.571	75.06
623.778	68.06
623.985	73.06
624.192	88.06
624.399	61.06
624.606	81.06
624.812	79.06
625.019	74.06
625.226	83.06
625.433	86.06
625.639	85.06
625.846	86.06
626.053	79.06
626.259	82.06
626.466	93.06
626.673	71.06
626.879	81.06
627.086	81.06
627.293	90.06
627.499	90.06
627.706	95.06
627.912	95.06
628.119	87.06
628.325	86.06
628.532	90.06
628.738	68.06
628.945	76.06
629.151	83.06
629.357	75.06
629.564	95.06
629.77	65.06
629.976	59.06
630.183	85.06
630.389	76.06
630.595	79.06
630.802	85.06
631.008	92.06
631.214	78.06
631.42	78.06
631.627	78.06
631.833	86.06
632.039	91.06
632.245	85.06
632.451	90.06
632.657	84.06
632.863	74.06
633.069	89.06
633.275	73.06
633.481	86.06
633.688	93.06
633.893	81.06
634.099	82.06
634.305	86.06
634.511	87.06
634.717	80.06
634.923	67.06
635.129	74.06
635.335	83.06
635.541	91.06
635.747	82.06
635.952	86.06
636.158	75.06
636.364	90.06
636.57	97.06
636.775	88.06
636.981	88.06
637.187	73.06
637.392	64.06
637.598	75.06
637.804	85.06
638.009	85.06
638.215	94.06
638.421	75.06
638.626	82.06
638.832	87.06
639.037	70.06
639.243	85.06
639.448	79.06
639.654	76.06
639.859	67.06
640.065	86.06
640.27	81.06
640.475	77.06
640.681	78.06
640.886	72.06
641.091	87.06
641.297	81.06
641.502	80.06
641.707	80.06
641.913	87.06
642.118	83.06
642.323	88.06
642.528	87.06
642.733	75.06
642.939	92.06
643.144	87.06
643.349	80.06
643.554	73.06
643.759	86.06
643.964	85.06
644.169	74.06
644.374	67.06
644.579	81.06
644.784	77.06
644.989	79.06
645.194	81.06
645.399	85.06
645.604	85.06
645.809	74.06
646.014	76.06
646.219	71.06
646.423	89.06
646.628	86.06
646.833	71.06
647.038	90.06
647.243	85.06
647.447	87.06
647.652	68.06
647.857	64.06
648.062	89.06
648.266	85.06
648.471	89.06
648.676	85.06
648.88	81.06
649.085	95.06
649.289	80.06
649.494	70.06
649.698	65.06
649.903	89.06
650.107	72.06
650.312	91.06
650.516	79.06
650.721	98.06
650.925	100.06
651.13	82.06
651.334	65.06
651.539	80.06
651.743	88.06
651.947	74.06
652.152	90.06
652.356	92.06
652.56	87.06
652.764	78.06
652.969	75.06
653.173	81.06
653.377	87.06
653.581	86.06
653.785	81.06
653.99	83.06
654.194	78.06
654.398	67.06
654.602	94.06
654.806	84.06
655.01	79.06
655.214	81.06
655.418	83.06
655.622	84.06
655.826	90.06
656.03	77.06
656.234	87.06
656.438	83.06
656.642	84.06
656.846	87.06
657.049	85.06
657.253	82.06
657.457	69.06
657.661	80.06
657.865	75.06
658.068	71.06
658.272	76.06
658.476	70.06
658.68	67.06
658.883	92.06
659.087	91.06
659.291	84.06
659.494	88.06
659.698	78.06
659.901	81.06
660.105	65.06
660.309	76.06
660.512	81.06
660.716	82.06
660.919	80.06
661.123	90.06
661.326	81.06
661.53	83.06
661.733	77.06
661.936	85.06
662.14	86.06
662.343	88.06
662.546	80.06
662.75	68.06
662.953	90.06
663.156	77.06
663.36	81.06
663.563	87.06
663.766	85.06
663.969	78.06
664.173	69.06
664.376	77.06
664.579	75.06
664.782	71.06
664.985	81.06
665.188	82.06
665.391	79.06
665.594	64.06
665.797	63.06
666	70.06
666.203	89.06
666.406	58.06
666.609	82.06
666.812	90.06
667.015	75.06
667.218	81.06
667.421	83.06
667.624	81.06
667.827	82.06
668.03	80.06
668.232	82.06
668.435	84.06
668.638	81.06
668.841	78.06
669.043	86.06
669.246	83.06
669.449	87.06
669.651	78.06
669.854	75.06
670.057	63.06
670.259	83.06
670.462	81.06
670.665	75.06
670.867	88.06
671.07	88.06
671.272	75.06
671.475	86.06
671.677	94.06
671.88	64.06
672.082	84.06
672.284	96.06
672.487	70.06
672.689	76.06
672.892	69.06
