Data from Lead_HRD10591_00067.txt Node
Date: Tue Feb 17 14:14:14 EST 2026
User: Yrep
Spectrometer: HR+D1059
Trigger mode: 1
Integration Time (sec): 1.000000E-1
Scans to average: 1
Electric dark correction enabled: true
Nonlinearity correction enabled: false
Boxcar width: 0
XAxis mode: Wavelengths
Number of Pixels in Spectrum: 2048
>>>>>Begin Spectral Data<<<<<
223.165	-20.69
223.4	-20.69
223.635	-20.69
223.869	-22.69
224.104	-2.69
224.338	-8.69
224.573	-1.69
224.808	-8.69
225.042	-23.69
225.277	2.31
225.511	0.31
225.746	2.31
225.98	-5.69
226.215	0.31
226.449	10.31
226.683	30.31
226.918	24.31
227.152	24.31
227.387	36.31
227.621	34.31
227.856	43.31
228.09	48.31
228.324	53.31
228.559	57.31
228.793	57.31
229.027	60.31
229.262	67.31
229.496	60.31
229.73	75.31
229.964	92.31
230.199	74.31
230.433	77.31
230.667	70.31
230.901	82.31
231.136	90.31
231.37	76.31
231.604	87.31
231.838	90.31
232.072	85.31
232.306	76.31
232.541	84.31
232.775	91.31
233.009	90.31
233.243	84.31
233.477	71.31
233.711	87.31
233.945	70.31
234.179	82.31
234.413	76.31
234.647	86.31
234.881	83.31
235.115	69.31
235.349	78.31
235.583	73.31
235.817	81.31
236.051	75.31
236.285	78.31
236.519	69.31
236.753	71.31
236.987	85.31
237.221	82.31
237.455	71.31
237.689	81.31
237.922	87.31
238.156	67.31
238.39	84.31
238.624	64.31
238.858	74.31
239.091	70.31
239.325	81.31
239.559	67.31
239.793	83.31
240.027	81.31
240.26	69.31
240.494	86.31
240.728	69.31
240.961	68.31
241.195	73.31
241.429	73.31
241.662	71.31
241.896	77.31
242.13	75.31
242.363	78.31
242.597	71.31
242.83	89.31
243.064	75.31
243.298	65.31
243.531	85.31
243.765	77.31
243.998	76.31
244.232	64.31
244.465	70.31
244.699	78.31
244.932	84.31
245.166	82.31
245.399	82.31
245.633	77.31
245.866	81.31
246.099	84.31
246.333	86.31
246.566	74.31
246.8	88.31
247.033	75.31
247.266	81.31
247.5	76.31
247.733	72.31
247.966	77.31
248.2	77.31
248.433	78.31
248.666	79.31
248.899	77.31
249.133	69.31
249.366	82.31
249.599	80.31
249.832	78.31
250.066	75.31
250.299	91.31
250.532	77.31
250.765	80.31
250.998	93.31
251.231	84.31
251.465	83.31
251.698	72.31
251.931	73.31
252.164	74.31
252.397	79.31
252.63	65.31
252.863	87.31
253.096	81.31
253.329	85.31
253.562	84.31
253.795	74.31
254.028	83.31
254.261	70.31
254.494	92.31
254.727	78.31
254.96	76.31
255.193	75.31
255.426	86.31
255.659	68.31
255.892	86.31
256.124	64.31
256.357	82.31
256.59	79.31
256.823	80.31
257.056	73.31
257.289	88.31
257.521	75.31
257.754	86.31
257.987	97.31
258.22	75.31
258.452	68.31
258.685	76.31
258.918	83.31
259.151	75.31
259.383	61.31
259.616	87.31
259.849	67.31
260.081	95.31
260.314	83.31
260.547	90.31
260.779	101.31
261.012	80.31
261.244	88.31
261.477	98.31
261.71	87.31
261.942	90.31
262.175	82.31
262.407	88.31
262.64	84.31
262.872	90.31
263.105	66.31
263.337	83.31
263.57	81.31
263.802	82.31
264.035	81.31
264.267	79.31
264.499	91.31
264.732	87.31
264.964	88.31
265.197	85.31
265.429	72.31
265.661	85.31
265.894	76.31
266.126	79.31
266.358	79.31
266.591	79.31
266.823	70.31
267.055	87.31
267.287	85.31
267.52	77.31
267.752	76.31
267.984	80.31
268.216	83.31
268.448	94.31
268.681	91.31
268.913	97.31
269.145	69.31
269.377	77.31
269.609	74.31
269.841	69.31
270.073	77.31
270.306	84.31
270.538	75.31
270.77	92.31
271.002	84.31
271.234	79.31
271.466	77.31
271.698	65.31
271.93	83.31
272.162	68.31
272.394	81.31
272.626	83.31
272.858	101.31
273.09	76.31
273.322	88.31
273.553	78.31
273.785	86.31
274.017	78.31
274.249	88.31
274.481	92.31
274.713	95.31
274.945	68.31
275.176	78.31
275.408	97.31
275.64	89.31
275.872	78.31
276.104	73.31
276.335	72.31
276.567	83.31
276.799	79.31
277.031	67.31
277.262	98.31
277.494	81.31
277.726	84.31
277.957	81.31
278.189	66.31
278.421	77.31
278.652	81.31
278.884	81.31
279.115	70.31
279.347	71.31
279.579	82.31
279.81	85.31
280.042	103.31
280.273	108.31
280.505	96.31
280.736	97.31
280.968	91.31
281.199	81.31
281.431	89.31
281.662	87.31
281.894	95.31
282.125	92.31
282.356	102.31
282.588	93.31
282.819	78.31
283.051	103.31
283.282	106.31
283.513	103.31
283.745	92.31
283.976	95.31
284.207	99.31
284.439	84.31
284.67	84.31
284.901	87.31
285.132	81.31
285.364	74.31
285.595	89.31
285.826	90.31
286.057	75.31
286.288	92.31
286.52	84.31
286.751	85.31
286.982	96.31
287.213	101.31
287.444	115.31
287.675	86.31
287.906	80.31
288.138	80.31
288.369	76.31
288.6	87.31
288.831	85.31
289.062	84.31
289.293	93.31
289.524	91.31
289.755	68.31
289.986	83.31
290.217	86.31
290.448	93.31
290.679	88.31
290.91	83.31
291.141	87.31
291.371	80.31
291.602	95.31
291.833	87.31
292.064	76.31
292.295	86.31
292.526	86.31
292.757	86.31
292.987	68.31
293.218	87.31
293.449	89.31
293.68	89.31
293.91	74.31
294.141	73.31
294.372	81.31
294.603	97.31
294.833	92.31
295.064	81.31
295.295	77.31
295.525	87.31
295.756	90.31
295.987	101.31
296.217	89.31
296.448	86.31
296.679	88.31
296.909	96.31
297.14	78.31
297.37	84.31
297.601	84.31
297.831	71.31
298.062	84.31
298.292	75.31
298.523	83.31
298.753	73.31
298.984	65.31
299.214	81.31
299.445	86.31
299.675	100.31
299.905	96.31
300.136	83.31
300.366	96.31
300.597	79.31
300.827	88.31
301.057	75.31
301.288	88.31
301.518	95.31
301.748	73.31
301.979	92.31
302.209	83.31
302.439	82.31
302.669	78.31
302.9	81.31
303.13	98.31
303.36	90.31
303.59	97.31
303.82	73.31
304.051	82.31
304.281	94.31
304.511	81.31
304.741	85.31
304.971	76.31
305.201	80.31
305.431	88.31
305.661	93.31
305.891	81.31
306.121	65.31
306.352	73.31
306.582	91.31
306.812	88.31
307.042	88.31
307.272	90.31
307.502	91.31
307.731	92.31
307.961	84.31
308.191	87.31
308.421	81.31
308.651	90.31
308.881	83.31
309.111	87.31
309.341	95.31
309.571	93.31
309.8	85.31
310.03	89.31
310.26	82.31
310.49	85.31
310.72	71.31
310.949	79.31
311.179	93.31
311.409	81.31
311.639	77.31
311.868	91.31
312.098	83.31
312.328	88.31
312.557	76.31
312.787	90.31
313.017	81.31
313.246	85.31
313.476	87.31
313.706	81.31
313.935	81.31
314.165	99.31
314.394	96.31
314.624	90.31
314.853	95.31
315.083	80.31
315.312	88.31
315.542	81.31
315.771	89.31
316.001	84.31
316.23	71.31
316.46	91.31
316.689	76.31
316.919	96.31
317.148	94.31
317.377	86.31
317.607	109.31
317.836	86.31
318.065	83.31
318.295	86.31
318.524	84.31
318.753	82.31
318.983	87.31
319.212	74.31
319.441	85.31
319.67	77.31
319.9	94.31
320.129	81.31
320.358	68.31
320.587	82.31
320.816	80.31
321.046	87.31
321.275	77.31
321.504	82.31
321.733	88.31
321.962	87.31
322.191	72.31
322.42	80.31
322.649	91.31
322.878	95.31
323.108	89.31
323.337	75.31
323.566	81.31
323.795	95.31
324.024	87.31
324.253	87.31
324.482	83.31
324.71	103.31
324.939	91.31
325.168	84.31
325.397	87.31
325.626	92.31
325.855	96.31
326.084	90.31
326.313	99.31
326.542	91.31
326.77	99.31
326.999	92.31
327.228	83.31
327.457	89.31
327.686	101.31
327.914	95.31
328.143	87.31
328.372	79.31
328.6	72.31
328.829	90.31
329.058	83.31
329.287	82.31
329.515	87.31
329.744	81.31
329.972	83.31
330.201	81.31
330.43	75.31
330.658	76.31
330.887	90.31
331.115	88.31
331.344	93.31
331.572	99.31
331.801	95.31
332.03	92.31
332.258	82.31
332.486	87.31
332.715	90.31
332.943	89.31
333.172	89.31
333.4	91.31
333.629	95.31
333.857	83.31
334.085	79.31
334.314	78.31
334.542	82.31
334.771	82.31
334.999	76.31
335.227	85.31
335.455	94.31
335.684	85.31
335.912	92.31
336.14	75.31
336.369	89.31
336.597	82.31
336.825	77.31
337.053	87.31
337.281	84.31
337.51	81.31
337.738	85.31
337.966	75.31
338.194	69.31
338.422	78.31
338.65	91.31
338.878	89.31
339.106	70.31
339.334	65.31
339.562	83.31
339.79	96.31
340.018	88.31
340.246	82.31
340.474	83.31
340.702	81.31
340.93	83.31
341.158	83.31
341.386	73.31
341.614	65.31
341.842	87.31
342.07	74.31
342.298	89.31
342.526	84.31
342.754	89.31
342.981	83.31
343.209	84.31
343.437	90.31
343.665	86.31
343.893	96.31
344.12	87.31
344.348	73.31
344.576	77.31
344.804	97.31
345.031	76.31
345.259	76.31
345.487	68.31
345.714	89.31
345.942	99.31
346.17	70.31
346.397	79.31
346.625	86.31
346.853	77.31
347.08	75.31
347.308	90.31
347.535	97.31
347.763	111.31
347.99	92.31
348.218	109.31
348.445	91.31
348.673	86.31
348.9	73.31
349.128	82.31
349.355	79.31
349.583	89.31
349.81	87.31
350.037	86.31
350.265	103.31
350.492	91.31
350.72	89.31
350.947	90.31
351.174	80.31
351.402	81.31
351.629	86.31
351.856	91.31
352.083	93.31
352.311	89.31
352.538	83.31
352.765	84.31
352.992	85.31
353.22	81.31
353.447	90.31
353.674	85.31
353.901	89.31
354.128	84.31
354.355	92.31
354.583	88.31
354.81	87.31
355.037	77.31
355.264	90.31
355.491	87.31
355.718	87.31
355.945	78.31
356.172	103.31
356.399	72.31
356.626	91.31
356.853	97.31
357.08	125.31
357.307	146.31
357.534	114.31
357.761	95.31
357.988	81.31
358.215	84.31
358.441	74.31
358.668	88.31
358.895	81.31
359.122	84.31
359.349	94.31
359.576	82.31
359.802	78.31
360.029	81.31
360.256	92.31
360.483	76.31
360.709	79.31
360.936	93.31
361.163	82.31
361.39	84.31
361.616	87.31
361.843	83.31
362.07	92.31
362.296	83.31
362.523	76.31
362.749	85.31
362.976	73.31
363.203	87.31
363.429	89.31
363.656	134.31
363.882	177.31
364.109	191.31
364.335	114.31
364.562	91.31
364.788	86.31
365.015	100.31
365.241	93.31
365.468	77.31
365.694	82.31
365.92	81.31
366.147	87.31
366.373	82.31
366.599	84.31
366.826	76.31
367.052	98.31
367.278	108.31
367.505	103.31
367.731	111.31
367.957	111.31
368.184	170.31
368.41	237.31
368.636	168.31
368.862	113.31
369.089	97.31
369.315	99.31
369.541	82.31
369.767	82.31
369.993	76.31
370.219	85.31
370.445	77.31
370.672	98.31
370.898	79.31
371.124	87.31
371.35	83.31
371.576	86.31
371.802	89.31
372.028	85.31
372.254	89.31
372.48	88.31
372.706	85.31
372.932	91.31
373.158	89.31
373.384	92.31
373.61	103.31
373.835	115.31
374.061	140.31
374.287	119.31
374.513	101.31
374.739	87.31
374.965	83.31
375.191	77.31
375.416	93.31
375.642	82.31
375.868	86.31
376.094	67.31
376.319	65.31
376.545	75.31
376.771	81.31
376.997	91.31
377.222	83.31
377.448	78.31
377.674	75.31
377.899	75.31
378.125	87.31
378.35	93.31
378.576	76.31
378.802	90.31
379.027	77.31
379.253	80.31
379.478	85.31
379.704	87.31
379.929	77.31
380.155	91.31
380.38	87.31
380.606	89.31
380.831	86.31
381.057	101.31
381.282	90.31
381.507	78.31
381.733	85.31
381.958	78.31
382.184	80.31
382.409	76.31
382.634	91.31
382.86	97.31
383.085	89.31
383.31	91.31
383.535	81.31
383.761	81.31
383.986	80.31
384.211	68.31
384.436	81.31
384.662	85.31
384.887	87.31
385.112	98.31
385.337	94.31
385.562	101.31
385.787	87.31
386.013	87.31
386.238	72.31
386.463	71.31
386.688	91.31
386.913	91.31
387.138	71.31
387.363	81.31
387.588	87.31
387.813	93.31
388.038	85.31
388.263	81.31
388.488	82.31
388.713	74.31
388.938	84.31
389.163	100.31
389.387	75.31
389.612	79.31
389.837	84.31
390.062	94.31
390.287	81.31
390.512	91.31
390.736	83.31
390.961	76.31
391.186	69.31
391.411	73.31
391.636	82.31
391.86	97.31
392.085	95.31
392.31	81.31
392.534	93.31
392.759	87.31
392.984	97.31
393.208	115.31
393.433	111.31
393.658	91.31
393.882	101.31
394.107	99.31
394.331	107.31
394.556	130.31
394.78	93.31
395.005	92.31
395.229	88.31
395.454	85.31
395.678	91.31
395.903	111.31
396.127	140.31
396.352	132.31
396.576	98.31
396.801	96.31
397.025	95.31
397.249	88.31
397.474	86.31
397.698	86.31
397.922	81.31
398.147	88.31
398.371	79.31
398.595	97.31
398.82	73.31
399.044	84.31
399.268	83.31
399.492	92.31
399.717	82.31
399.941	92.31
400.165	83.31
400.389	81.31
400.613	83.31
400.837	83.31
401.062	82.31
401.286	78.31
401.51	91.31
401.734	87.31
401.958	89.31
402.182	87.31
402.406	92.31
402.63	81.31
402.854	76.31
403.078	81.31
403.302	93.31
403.526	93.31
403.75	75.31
403.974	105.31
404.198	97.31
404.422	94.31
404.645	91.31
404.869	108.31
405.093	95.31
405.317	109.31
405.541	181.31
405.765	355.31
405.988	349.31
406.212	154.31
406.436	115.31
406.66	88.31
406.883	59.31
407.107	73.31
407.331	84.31
407.555	89.31
407.778	74.31
408.002	95.31
408.226	83.31
408.449	83.31
408.673	92.31
408.896	81.31
409.12	82.31
409.344	78.31
409.567	98.31
409.791	83.31
410.014	77.31
410.238	79.31
410.461	77.31
410.685	89.31
410.908	83.31
411.132	84.31
411.355	88.31
411.578	98.31
411.802	87.31
412.025	93.31
412.249	75.31
412.472	85.31
412.695	85.31
412.919	84.31
413.142	83.31
413.365	86.31
413.589	80.31
413.812	77.31
414.035	90.31
414.258	85.31
414.482	88.31
414.705	84.31
414.928	88.31
415.151	83.31
415.374	64.31
415.597	93.31
415.821	77.31
416.044	91.31
416.267	95.31
416.49	80.31
416.713	92.31
416.936	91.31
417.159	87.31
417.382	82.31
417.605	73.31
417.828	78.31
418.051	74.31
418.274	83.31
418.497	76.31
418.72	77.31
418.943	83.31
419.166	69.31
419.389	80.31
419.611	95.31
419.834	91.31
420.057	92.31
420.28	68.31
420.503	80.31
420.726	80.31
420.948	81.31
421.171	77.31
421.394	68.31
421.617	76.31
421.839	82.31
422.062	81.31
422.285	67.31
422.507	93.31
422.73	111.31
422.953	100.31
423.175	92.31
423.398	85.31
423.621	86.31
423.843	83.31
424.066	81.31
424.288	79.31
424.511	85.31
424.733	77.31
424.956	83.31
425.178	67.31
425.401	71.31
425.623	82.31
425.846	73.31
426.068	76.31
426.291	85.31
426.513	74.31
426.735	82.31
426.958	76.31
427.18	96.31
427.402	98.31
427.625	81.31
427.847	79.31
428.069	95.31
428.292	85.31
428.514	87.31
428.736	70.31
428.958	71.31
429.181	84.31
429.403	85.31
429.625	91.31
429.847	76.31
430.069	89.31
430.292	68.31
430.514	89.31
430.736	99.31
430.958	98.31
431.18	88.31
431.402	89.31
431.624	87.31
431.846	81.31
432.068	91.31
432.29	77.31
432.512	83.31
432.734	74.31
432.956	81.31
433.178	101.31
433.4	88.31
433.622	89.31
433.844	78.31
434.066	77.31
434.287	93.31
434.509	78.31
434.731	78.31
434.953	72.31
435.175	77.31
435.397	84.31
435.618	78.31
435.84	91.31
436.062	89.31
436.284	73.31
436.505	84.31
436.727	75.31
436.949	79.31
437.17	77.31
437.392	94.31
437.614	61.31
437.835	76.31
438.057	75.31
438.278	94.31
438.5	75.31
438.721	92.31
438.943	82.31
439.165	67.31
439.386	80.31
439.608	79.31
439.829	73.31
440.05	85.31
440.272	88.31
440.493	77.31
440.715	88.31
440.936	93.31
441.158	78.31
441.379	77.31
441.6	73.31
441.822	99.31
442.043	89.31
442.264	81.31
442.486	76.31
442.707	88.31
442.928	84.31
443.149	70.31
443.371	88.31
443.592	90.31
443.813	89.31
444.034	82.31
444.255	94.31
444.476	68.31
444.698	77.31
444.919	75.31
445.14	152.31
445.361	118.31
445.582	80.31
445.803	78.31
446.024	76.31
446.245	78.31
446.466	85.31
446.687	65.31
446.908	77.31
447.129	97.31
447.35	82.31
447.571	90.31
447.792	101.31
448.013	81.31
448.234	98.31
448.455	79.31
448.675	76.31
448.896	81.31
449.117	76.31
449.338	81.31
449.559	75.31
449.779	94.31
450	77.31
450.221	78.31
450.442	76.31
450.662	91.31
450.883	71.31
451.104	95.31
451.324	65.31
451.545	83.31
451.766	88.31
451.986	74.31
452.207	85.31
452.428	77.31
452.648	81.31
452.869	72.31
453.089	83.31
453.31	78.31
453.53	81.31
453.751	68.31
453.971	81.31
454.192	78.31
454.412	96.31
454.633	63.31
454.853	76.31
455.073	82.31
455.294	71.31
455.514	87.31
455.734	89.31
455.955	79.31
456.175	93.31
456.395	88.31
456.616	75.31
456.836	87.31
457.056	87.31
457.276	79.31
457.497	86.31
457.717	71.31
457.937	87.31
458.157	81.31
458.377	95.31
458.598	80.31
458.818	77.31
459.038	84.31
459.258	83.31
459.478	79.31
459.698	66.31
459.918	77.31
460.138	80.31
460.358	91.31
460.578	86.31
460.798	85.31
461.018	89.31
461.238	81.31
461.458	65.31
461.678	95.31
461.898	77.31
462.118	105.31
462.338	75.31
462.558	90.31
462.777	88.31
462.997	75.31
463.217	79.31
463.437	82.31
463.657	76.31
463.876	69.31
464.096	85.31
464.316	83.31
464.536	93.31
464.755	88.31
464.975	90.31
465.195	83.31
465.414	84.31
465.634	81.31
465.854	84.31
466.073	82.31
466.293	85.31
466.512	77.31
466.732	82.31
466.951	88.31
467.171	87.31
467.391	87.31
467.61	82.31
467.829	72.31
468.049	79.31
468.268	84.31
468.488	83.31
468.707	80.31
468.927	95.31
469.146	86.31
469.365	90.31
469.585	92.31
469.804	93.31
470.023	98.31
470.243	86.31
470.462	80.31
470.681	82.31
470.901	83.31
471.12	87.31
471.339	77.31
471.558	71.31
471.777	79.31
471.997	75.31
472.216	77.31
472.435	80.31
472.654	79.31
472.873	88.31
473.092	73.31
473.311	70.31
473.53	76.31
473.749	83.31
473.968	92.31
474.187	92.31
474.406	81.31
474.625	69.31
474.844	90.31
475.063	73.31
475.282	82.31
475.501	97.31
475.72	90.31
475.939	95.31
476.158	80.31
476.377	71.31
476.596	88.31
476.814	83.31
477.033	83.31
477.252	82.31
477.471	80.31
477.69	80.31
477.908	80.31
478.127	77.31
478.346	74.31
478.564	81.31
478.783	84.31
479.002	84.31
479.22	89.31
479.439	89.31
479.658	96.31
479.876	83.31
480.095	101.31
480.313	75.31
480.532	81.31
480.751	96.31
480.969	91.31
481.188	76.31
481.406	73.31
481.624	78.31
481.843	73.31
482.061	81.31
482.28	80.31
482.498	87.31
482.717	84.31
482.935	81.31
483.153	78.31
483.372	91.31
483.59	68.31
483.808	90.31
484.027	79.31
484.245	80.31
484.463	74.31
484.681	87.31
484.9	89.31
485.118	67.31
485.336	82.31
485.554	95.31
485.772	87.31
485.99	94.31
486.209	83.31
486.427	80.31
486.645	94.31
486.863	75.31
487.081	99.31
487.299	84.31
487.517	95.31
487.735	84.31
487.953	93.31
488.171	83.31
488.389	89.31
488.607	81.31
488.825	81.31
489.043	87.31
489.261	74.31
489.479	91.31
489.696	93.31
489.914	91.31
490.132	84.31
490.35	79.31
490.568	90.31
490.786	73.31
491.003	86.31
491.221	84.31
491.439	93.31
491.657	76.31
491.874	75.31
492.092	72.31
492.31	89.31
492.527	89.31
492.745	88.31
492.963	107.31
493.18	91.31
493.398	78.31
493.615	86.31
493.833	91.31
494.05	74.31
494.268	78.31
494.485	73.31
494.703	84.31
494.92	83.31
495.138	99.31
495.355	88.31
495.573	84.31
495.79	74.31
496.008	97.31
496.225	85.31
496.442	92.31
496.66	83.31
496.877	81.31
497.094	81.31
497.312	86.31
497.529	76.31
497.746	90.31
497.963	87.31
498.181	84.31
498.398	96.31
498.615	75.31
498.832	70.31
499.049	91.31
499.267	87.31
499.484	80.31
499.701	97.31
499.918	98.31
500.135	85.31
500.352	93.31
500.569	102.31
500.786	111.31
501.003	88.31
501.22	98.31
501.437	87.31
501.654	79.31
501.871	85.31
502.088	63.31
502.305	84.31
502.522	88.31
502.739	69.31
502.956	87.31
503.172	78.31
503.389	87.31
503.606	83.31
503.823	96.31
504.04	87.31
504.256	78.31
504.473	72.31
504.69	89.31
504.907	90.31
505.123	87.31
505.34	105.31
505.557	92.31
505.773	81.31
505.99	81.31
506.207	89.31
506.423	83.31
506.64	85.31
506.856	85.31
507.073	69.31
507.289	80.31
507.506	91.31
507.722	90.31
507.939	96.31
508.155	78.31
508.372	88.31
508.588	71.31
508.805	89.31
509.021	91.31
509.238	90.31
509.454	91.31
509.67	97.31
509.887	88.31
510.103	88.31
510.319	89.31
510.536	84.31
510.752	92.31
510.968	88.31
511.184	84.31
511.401	75.31
511.617	92.31
511.833	92.31
512.049	85.31
512.265	82.31
512.481	78.31
512.698	72.31
512.914	80.31
513.13	89.31
513.346	90.31
513.562	80.31
513.778	84.31
513.994	87.31
514.21	87.31
514.426	84.31
514.642	90.31
514.858	86.31
515.074	80.31
515.29	89.31
515.506	95.31
515.721	80.31
515.937	78.31
516.153	88.31
516.369	75.31
516.585	88.31
516.801	92.31
517.016	80.31
517.232	79.31
517.448	96.31
517.664	78.31
517.879	82.31
518.095	82.31
518.311	75.31
518.527	69.31
518.742	93.31
518.958	84.31
519.173	91.31
519.389	94.31
519.605	96.31
519.82	97.31
520.036	77.31
520.251	95.31
520.467	78.31
520.682	89.31
520.898	85.31
521.113	77.31
521.329	77.31
521.544	95.31
521.76	82.31
521.975	77.31
522.19	97.31
522.406	92.31
522.621	88.31
522.836	97.31
523.052	98.31
523.267	87.31
523.482	88.31
523.698	97.31
523.913	83.31
524.128	75.31
524.343	85.31
524.559	84.31
524.774	84.31
524.989	87.31
525.204	84.31
525.419	76.31
525.634	86.31
525.849	88.31
526.064	77.31
526.28	90.31
526.495	87.31
526.71	78.31
526.925	90.31
527.14	95.31
527.355	92.31
527.57	83.31
527.785	97.31
527.999	82.31
528.214	79.31
528.429	78.31
528.644	65.31
528.859	77.31
529.074	83.31
529.289	108.31
529.503	87.31
529.718	90.31
529.933	81.31
530.148	80.31
530.363	83.31
530.577	79.31
530.792	75.31
531.007	73.31
531.221	92.31
531.436	85.31
531.651	84.31
531.865	86.31
532.08	85.31
532.295	97.31
532.509	98.31
532.724	90.31
532.938	81.31
533.153	90.31
533.367	90.31
533.582	89.31
533.796	92.31
534.011	73.31
534.225	89.31
534.44	95.31
534.654	82.31
534.868	76.31
535.083	100.31
535.297	88.31
535.511	85.31
535.726	81.31
535.94	79.31
536.154	79.31
536.369	88.31
536.583	84.31
536.797	80.31
537.011	94.31
537.225	90.31
537.44	78.31
537.654	104.31
537.868	72.31
538.082	87.31
538.296	83.31
538.51	84.31
538.724	88.31
538.938	86.31
539.153	76.31
539.367	88.31
539.581	96.31
539.795	72.31
540.009	78.31
540.222	81.31
540.436	80.31
540.65	77.31
540.864	75.31
541.078	92.31
541.292	83.31
541.506	73.31
541.72	89.31
541.934	95.31
542.147	75.31
542.361	85.31
542.575	80.31
542.789	87.31
543.002	77.31
543.216	82.31
543.43	92.31
543.644	73.31
543.857	75.31
544.071	91.31
544.285	97.31
544.498	93.31
544.712	85.31
544.925	81.31
545.139	79.31
545.352	81.31
545.566	89.31
545.779	79.31
545.993	87.31
546.206	83.31
546.42	70.31
546.633	92.31
546.847	99.31
547.06	93.31
547.274	79.31
547.487	88.31
547.7	81.31
547.914	76.31
548.127	87.31
548.34	86.31
548.554	83.31
548.767	95.31
548.98	74.31
549.193	96.31
549.407	77.31
549.62	88.31
549.833	79.31
550.046	74.31
550.259	85.31
550.473	86.31
550.686	83.31
550.899	99.31
551.112	77.31
551.325	88.31
551.538	81.31
551.751	90.31
551.964	80.31
552.177	96.31
552.39	80.31
552.603	87.31
552.816	97.31
553.029	94.31
553.242	68.31
553.455	85.31
553.667	100.31
553.88	88.31
554.093	93.31
554.306	86.31
554.519	88.31
554.732	62.31
554.944	107.31
555.157	91.31
555.37	88.31
555.583	89.31
555.795	86.31
556.008	78.31
556.221	92.31
556.433	87.31
556.646	97.31
556.859	93.31
557.071	68.31
557.284	86.31
557.496	95.31
557.709	83.31
557.921	94.31
558.134	88.31
558.346	66.31
558.559	114.31
558.771	84.31
558.984	82.31
559.196	81.31
559.409	86.31
559.621	75.31
559.833	88.31
560.046	81.31
560.258	69.31
560.47	97.31
560.683	90.31
560.895	89.31
561.107	86.31
561.32	65.31
561.532	85.31
561.744	85.31
561.956	101.31
562.168	87.31
562.381	92.31
562.593	85.31
562.805	88.31
563.017	85.31
563.229	86.31
563.441	81.31
563.653	98.31
563.865	81.31
564.077	103.31
564.289	84.31
564.501	78.31
564.713	79.31
564.925	94.31
565.137	72.31
565.349	88.31
565.561	87.31
565.773	76.31
565.985	81.31
566.197	93.31
566.408	83.31
566.62	76.31
566.832	92.31
567.044	85.31
567.255	85.31
567.467	91.31
567.679	85.31
567.891	89.31
568.102	88.31
568.314	85.31
568.526	76.31
568.737	89.31
568.949	74.31
569.161	95.31
569.372	93.31
569.584	73.31
569.795	91.31
570.007	75.31
570.218	81.31
570.43	83.31
570.641	77.31
570.853	72.31
571.064	73.31
571.276	84.31
571.487	87.31
571.698	76.31
571.91	85.31
572.121	91.31
572.333	84.31
572.544	81.31
572.755	70.31
572.966	82.31
573.178	95.31
573.389	94.31
573.6	88.31
573.811	82.31
574.023	96.31
574.234	83.31
574.445	91.31
574.656	89.31
574.867	77.31
575.078	83.31
575.289	77.31
575.501	102.31
575.712	81.31
575.923	87.31
576.134	75.31
576.345	84.31
576.556	83.31
576.767	86.31
576.978	84.31
577.188	82.31
577.399	81.31
577.61	90.31
577.821	90.31
578.032	93.31
578.243	94.31
578.454	91.31
578.665	88.31
578.875	83.31
579.086	77.31
579.297	91.31
579.508	89.31
579.718	92.31
579.929	84.31
580.14	77.31
580.35	89.31
580.561	82.31
580.772	85.31
580.982	82.31
581.193	84.31
581.403	81.31
581.614	85.31
581.825	96.31
582.035	88.31
582.246	90.31
582.456	84.31
582.667	84.31
582.877	90.31
583.087	99.31
583.298	75.31
583.508	90.31
583.719	83.31
583.929	84.31
584.139	79.31
584.35	83.31
584.56	94.31
584.77	91.31
584.981	95.31
585.191	84.31
585.401	85.31
585.611	81.31
585.821	75.31
586.032	82.31
586.242	77.31
586.452	81.31
586.662	86.31
586.872	83.31
587.082	84.31
587.292	91.31
587.502	79.31
587.713	87.31
587.923	89.31
588.133	106.31
588.343	83.31
588.553	89.31
588.762	95.31
588.972	148.31
589.182	353.31
589.392	189.31
589.602	166.31
589.812	312.31
590.022	141.31
590.232	89.31
590.441	94.31
590.651	89.31
590.861	83.31
591.071	87.31
591.281	83.31
591.49	75.31
591.7	97.31
591.91	85.31
592.119	85.31
592.329	82.31
592.539	81.31
592.748	81.31
592.958	94.31
593.167	85.31
593.377	83.31
593.587	81.31
593.796	83.31
594.006	79.31
594.215	78.31
594.424	70.31
594.634	83.31
594.843	82.31
595.053	97.31
595.262	65.31
595.472	85.31
595.681	92.31
595.89	81.31
596.1	83.31
596.309	77.31
596.518	76.31
596.727	88.31
596.937	95.31
597.146	84.31
597.355	90.31
597.564	81.31
597.774	75.31
597.983	69.31
598.192	97.31
598.401	79.31
598.61	96.31
598.819	69.31
599.028	81.31
599.237	75.31
599.446	79.31
599.655	100.31
599.864	86.31
600.073	81.31
600.282	97.31
600.491	91.31
600.7	77.31
600.909	87.31
601.118	78.31
601.327	87.31
601.536	95.31
601.745	94.31
601.953	101.31
602.162	75.31
602.371	83.31
602.58	78.31
602.789	97.31
602.997	80.31
603.206	84.31
603.415	71.31
603.623	75.31
603.832	88.31
604.041	95.31
604.249	77.31
604.458	77.31
604.666	83.31
604.875	79.31
605.084	94.31
605.292	71.31
605.501	84.31
605.709	81.31
605.918	73.31
606.126	76.31
606.334	83.31
606.543	75.31
606.751	91.31
606.96	93.31
607.168	83.31
607.376	95.31
607.585	77.31
607.793	76.31
608.001	76.31
608.21	78.31
608.418	79.31
608.626	87.31
608.834	80.31
609.043	82.31
609.251	89.31
609.459	83.31
609.667	88.31
609.875	81.31
610.083	83.31
610.291	81.31
610.499	75.31
610.707	88.31
610.916	95.31
611.124	100.31
611.332	90.31
611.54	99.31
611.748	76.31
611.955	83.31
612.163	88.31
612.371	64.31
612.579	78.31
612.787	77.31
612.995	91.31
613.203	84.31
613.411	88.31
613.618	84.31
613.826	86.31
614.034	93.31
614.242	84.31
614.449	88.31
614.657	91.31
614.865	99.31
615.072	81.31
615.28	68.31
615.488	86.31
615.695	80.31
615.903	80.31
616.111	84.31
616.318	82.31
616.526	102.31
616.733	91.31
616.941	80.31
617.148	88.31
617.356	91.31
617.563	70.31
617.771	97.31
617.978	75.31
618.185	85.31
618.393	80.31
618.6	82.31
618.807	90.31
619.015	76.31
619.222	91.31
619.429	90.31
619.637	90.31
619.844	89.31
620.051	78.31
620.258	79.31
620.466	89.31
620.673	71.31
620.88	88.31
621.087	88.31
621.294	87.31
621.501	81.31
621.708	90.31
621.915	82.31
622.122	76.31
622.329	92.31
622.536	83.31
622.743	75.31
622.95	94.31
623.157	81.31
623.364	106.31
623.571	89.31
623.778	83.31
623.985	89.31
624.192	81.31
624.399	77.31
624.606	93.31
624.812	84.31
625.019	92.31
625.226	82.31
625.433	98.31
625.639	75.31
625.846	83.31
626.053	75.31
626.259	91.31
626.466	91.31
626.673	74.31
626.879	98.31
627.086	75.31
627.293	75.31
627.499	95.31
627.706	72.31
627.912	99.31
628.119	80.31
628.325	84.31
628.532	75.31
628.738	88.31
628.945	88.31
629.151	77.31
629.357	68.31
629.564	77.31
629.77	86.31
629.976	79.31
630.183	69.31
630.389	85.31
630.595	90.31
630.802	84.31
631.008	80.31
631.214	92.31
631.42	84.31
631.627	87.31
631.833	93.31
632.039	77.31
632.245	83.31
632.451	91.31
632.657	91.31
632.863	91.31
633.069	74.31
633.275	80.31
633.481	80.31
633.688	78.31
633.893	83.31
634.099	87.31
634.305	89.31
634.511	102.31
634.717	93.31
634.923	81.31
635.129	87.31
635.335	84.31
635.541	89.31
635.747	86.31
635.952	85.31
636.158	92.31
636.364	87.31
636.57	87.31
636.775	83.31
636.981	73.31
637.187	92.31
637.392	95.31
637.598	79.31
637.804	85.31
638.009	85.31
638.215	72.31
638.421	85.31
638.626	88.31
638.832	83.31
639.037	82.31
639.243	81.31
639.448	98.31
639.654	99.31
639.859	82.31
640.065	87.31
640.27	91.31
640.475	80.31
640.681	71.31
640.886	74.31
641.091	84.31
641.297	73.31
641.502	88.31
641.707	67.31
641.913	75.31
642.118	73.31
642.323	78.31
642.528	91.31
642.733	87.31
642.939	78.31
643.144	91.31
643.349	79.31
643.554	89.31
643.759	81.31
643.964	76.31
644.169	87.31
644.374	71.31
644.579	80.31
644.784	70.31
644.989	85.31
645.194	83.31
645.399	85.31
645.604	89.31
645.809	77.31
646.014	88.31
646.219	70.31
646.423	86.31
646.628	83.31
646.833	95.31
647.038	85.31
647.243	89.31
647.447	98.31
647.652	81.31
647.857	93.31
648.062	87.31
648.266	91.31
648.471	67.31
648.676	72.31
648.88	68.31
649.085	91.31
649.289	81.31
649.494	83.31
649.698	81.31
649.903	91.31
650.107	94.31
650.312	89.31
650.516	74.31
650.721	75.31
650.925	83.31
651.13	99.31
651.334	78.31
651.539	88.31
651.743	75.31
651.947	87.31
652.152	82.31
652.356	89.31
652.56	87.31
652.764	82.31
652.969	85.31
653.173	71.31
653.377	83.31
653.581	66.31
653.785	83.31
653.99	89.31
654.194	97.31
654.398	82.31
654.602	82.31
654.806	84.31
655.01	84.31
655.214	90.31
655.418	83.31
655.622	83.31
655.826	88.31
656.03	111.31
656.234	89.31
656.438	73.31
656.642	81.31
656.846	70.31
657.049	80.31
657.253	93.31
657.457	84.31
657.661	89.31
657.865	74.31
658.068	77.31
658.272	90.31
658.476	85.31
658.68	81.31
658.883	71.31
659.087	69.31
659.291	94.31
659.494	82.31
659.698	76.31
659.901	72.31
660.105	78.31
660.309	92.31
660.512	79.31
660.716	87.31
660.919	88.31
661.123	89.31
661.326	90.31
661.53	67.31
661.733	84.31
661.936	92.31
662.14	85.31
662.343	105.31
662.546	80.31
662.75	87.31
662.953	73.31
663.156	71.31
663.36	71.31
663.563	81.31
663.766	81.31
663.969	85.31
664.173	88.31
664.376	88.31
664.579	87.31
664.782	75.31
664.985	82.31
665.188	75.31
665.391	95.31
665.594	85.31
665.797	83.31
666	77.31
666.203	76.31
666.406	81.31
666.609	69.31
666.812	81.31
667.015	90.31
667.218	86.31
667.421	92.31
667.624	77.31
667.827	106.31
668.03	71.31
668.232	92.31
668.435	78.31
668.638	85.31
668.841	85.31
669.043	88.31
669.246	90.31
669.449	93.31
669.651	74.31
669.854	74.31
670.057	81.31
670.259	87.31
670.462	70.31
670.665	81.31
670.867	74.31
671.07	78.31
671.272	88.31
671.475	76.31
671.677	76.31
671.88	84.31
672.082	80.31
672.284	96.31
672.487	89.31
672.689	69.31
672.892	71.31
