Data from Lead_HRD10591_00042.txt Node
Date: Tue Feb 17 14:14:06 EST 2026
User: Yrep
Spectrometer: HR+D1059
Trigger mode: 1
Integration Time (sec): 1.000000E-1
Scans to average: 1
Electric dark correction enabled: true
Nonlinearity correction enabled: false
Boxcar width: 0
XAxis mode: Wavelengths
Number of Pixels in Spectrum: 2048
>>>>>Begin Spectral Data<<<<<
223.165	-28.12
223.4	-28.12
223.635	-28.12
223.869	-20.12
224.104	-7.12
224.338	-27.12
224.573	-9.12
224.808	-9.12
225.042	-8.12
225.277	-12.12
225.511	1.88
225.746	12.88
225.98	-6.12
226.215	12.88
226.449	29.88
226.683	24.88
226.918	16.88
227.152	27.88
227.387	36.88
227.621	39.88
227.856	47.88
228.09	33.88
228.324	49.88
228.559	59.88
228.793	49.88
229.027	52.88
229.262	55.88
229.496	63.88
229.73	72.88
229.964	70.88
230.199	70.88
230.433	68.88
230.667	82.88
230.901	66.88
231.136	84.88
231.37	76.88
231.604	73.88
231.838	80.88
232.072	83.88
232.306	83.88
232.541	79.88
232.775	82.88
233.009	87.88
233.243	98.88
233.477	81.88
233.711	88.88
233.945	91.88
234.179	83.88
234.413	82.88
234.647	78.88
234.881	81.88
235.115	70.88
235.349	84.88
235.583	70.88
235.817	65.88
236.051	78.88
236.285	77.88
236.519	76.88
236.753	73.88
236.987	77.88
237.221	84.88
237.455	78.88
237.689	85.88
237.922	73.88
238.156	81.88
238.39	76.88
238.624	88.88
238.858	81.88
239.091	69.88
239.325	76.88
239.559	85.88
239.793	78.88
240.027	74.88
240.26	83.88
240.494	71.88
240.728	68.88
240.961	92.88
241.195	65.88
241.429	69.88
241.662	83.88
241.896	74.88
242.13	58.88
242.363	70.88
242.597	85.88
242.83	64.88
243.064	61.88
243.298	73.88
243.531	78.88
243.765	76.88
243.998	87.88
244.232	91.88
244.465	73.88
244.699	81.88
244.932	75.88
245.166	67.88
245.399	82.88
245.633	77.88
245.866	74.88
246.099	94.88
246.333	86.88
246.566	73.88
246.8	75.88
247.033	81.88
247.266	83.88
247.5	84.88
247.733	79.88
247.966	80.88
248.2	75.88
248.433	80.88
248.666	81.88
248.899	79.88
249.133	88.88
249.366	92.88
249.599	82.88
249.832	84.88
250.066	90.88
250.299	73.88
250.532	74.88
250.765	85.88
250.998	83.88
251.231	71.88
251.465	78.88
251.698	91.88
251.931	91.88
252.164	101.88
252.397	83.88
252.63	76.88
252.863	87.88
253.096	67.88
253.329	68.88
253.562	86.88
253.795	69.88
254.028	83.88
254.261	89.88
254.494	73.88
254.727	81.88
254.96	87.88
255.193	79.88
255.426	78.88
255.659	74.88
255.892	84.88
256.124	90.88
256.357	66.88
256.59	87.88
256.823	84.88
257.056	81.88
257.289	84.88
257.521	93.88
257.754	96.88
257.987	100.88
258.22	93.88
258.452	86.88
258.685	92.88
258.918	71.88
259.151	96.88
259.383	96.88
259.616	87.88
259.849	93.88
260.081	76.88
260.314	76.88
260.547	86.88
260.779	88.88
261.012	82.88
261.244	93.88
261.477	119.88
261.71	90.88
261.942	85.88
262.175	84.88
262.407	99.88
262.64	71.88
262.872	84.88
263.105	82.88
263.337	92.88
263.57	84.88
263.802	92.88
264.035	65.88
264.267	79.88
264.499	91.88
264.732	85.88
264.964	82.88
265.197	81.88
265.429	87.88
265.661	90.88
265.894	79.88
266.126	85.88
266.358	89.88
266.591	86.88
266.823	94.88
267.055	81.88
267.287	72.88
267.52	92.88
267.752	93.88
267.984	74.88
268.216	83.88
268.448	82.88
268.681	75.88
268.913	93.88
269.145	75.88
269.377	76.88
269.609	76.88
269.841	79.88
270.073	90.88
270.306	81.88
270.538	74.88
270.77	71.88
271.002	91.88
271.234	75.88
271.466	77.88
271.698	94.88
271.93	78.88
272.162	97.88
272.394	82.88
272.626	82.88
272.858	77.88
273.09	89.88
273.322	72.88
273.553	73.88
273.785	83.88
274.017	87.88
274.249	90.88
274.481	81.88
274.713	88.88
274.945	77.88
275.176	80.88
275.408	80.88
275.64	72.88
275.872	74.88
276.104	74.88
276.335	80.88
276.567	85.88
276.799	86.88
277.031	76.88
277.262	81.88
277.494	87.88
277.726	82.88
277.957	80.88
278.189	76.88
278.421	73.88
278.652	97.88
278.884	91.88
279.115	75.88
279.347	77.88
279.579	91.88
279.81	98.88
280.042	103.88
280.273	133.88
280.505	123.88
280.736	95.88
280.968	90.88
281.199	86.88
281.431	86.88
281.662	82.88
281.894	88.88
282.125	98.88
282.356	95.88
282.588	112.88
282.819	100.88
283.051	107.88
283.282	120.88
283.513	131.88
283.745	102.88
283.976	83.88
284.207	96.88
284.439	78.88
284.67	80.88
284.901	93.88
285.132	83.88
285.364	83.88
285.595	90.88
285.826	99.88
286.057	66.88
286.288	92.88
286.52	86.88
286.751	85.88
286.982	95.88
287.213	114.88
287.444	119.88
287.675	97.88
287.906	96.88
288.138	100.88
288.369	105.88
288.6	85.88
288.831	98.88
289.062	96.88
289.293	90.88
289.524	72.88
289.755	93.88
289.986	65.88
290.217	93.88
290.448	88.88
290.679	89.88
290.91	80.88
291.141	93.88
291.371	90.88
291.602	74.88
291.833	88.88
292.064	97.88
292.295	91.88
292.526	74.88
292.757	73.88
292.987	87.88
293.218	80.88
293.449	74.88
293.68	88.88
293.91	95.88
294.141	91.88
294.372	79.88
294.603	80.88
294.833	92.88
295.064	79.88
295.295	85.88
295.525	89.88
295.756	72.88
295.987	85.88
296.217	93.88
296.448	84.88
296.679	75.88
296.909	84.88
297.14	83.88
297.37	88.88
297.601	70.88
297.831	81.88
298.062	86.88
298.292	81.88
298.523	95.88
298.753	70.88
298.984	85.88
299.214	77.88
299.445	81.88
299.675	87.88
299.905	87.88
300.136	78.88
300.366	76.88
300.597	85.88
300.827	96.88
301.057	94.88
301.288	80.88
301.518	85.88
301.748	87.88
301.979	105.88
302.209	84.88
302.439	95.88
302.669	83.88
302.9	74.88
303.13	78.88
303.36	97.88
303.59	101.88
303.82	90.88
304.051	91.88
304.281	85.88
304.511	84.88
304.741	92.88
304.971	85.88
305.201	80.88
305.431	91.88
305.661	83.88
305.891	84.88
306.121	91.88
306.352	75.88
306.582	76.88
306.812	102.88
307.042	83.88
307.272	82.88
307.502	63.88
307.731	83.88
307.961	97.88
308.191	104.88
308.421	111.88
308.651	99.88
308.881	92.88
309.111	127.88
309.341	141.88
309.571	115.88
309.8	84.88
310.03	81.88
310.26	83.88
310.49	82.88
310.72	96.88
310.949	80.88
311.179	80.88
311.409	89.88
311.639	79.88
311.868	89.88
312.098	98.88
312.328	68.88
312.557	84.88
312.787	77.88
313.017	84.88
313.246	74.88
313.476	84.88
313.706	82.88
313.935	86.88
314.165	76.88
314.394	92.88
314.624	87.88
314.853	75.88
315.083	91.88
315.312	91.88
315.542	88.88
315.771	92.88
316.001	88.88
316.23	93.88
316.46	76.88
316.689	83.88
316.919	89.88
317.148	97.88
317.377	99.88
317.607	82.88
317.836	86.88
318.065	95.88
318.295	71.88
318.524	85.88
318.753	82.88
318.983	76.88
319.212	91.88
319.441	85.88
319.67	84.88
319.9	83.88
320.129	87.88
320.358	82.88
320.587	85.88
320.816	85.88
321.046	74.88
321.275	78.88
321.504	87.88
321.733	81.88
321.962	91.88
322.191	83.88
322.42	82.88
322.649	81.88
322.878	94.88
323.108	80.88
323.337	82.88
323.566	65.88
323.795	88.88
324.024	83.88
324.253	87.88
324.482	93.88
324.71	99.88
324.939	107.88
325.168	93.88
325.397	85.88
325.626	96.88
325.855	84.88
326.084	94.88
326.313	94.88
326.542	104.88
326.77	90.88
326.999	84.88
327.228	93.88
327.457	99.88
327.686	94.88
327.914	80.88
328.143	81.88
328.372	76.88
328.6	88.88
328.829	67.88
329.058	76.88
329.287	74.88
329.515	94.88
329.744	86.88
329.972	93.88
330.201	83.88
330.43	94.88
330.658	81.88
330.887	91.88
331.115	84.88
331.344	89.88
331.572	88.88
331.801	81.88
332.03	81.88
332.258	84.88
332.486	88.88
332.715	89.88
332.943	85.88
333.172	94.88
333.4	83.88
333.629	83.88
333.857	83.88
334.085	91.88
334.314	81.88
334.542	80.88
334.771	84.88
334.999	83.88
335.227	81.88
335.455	97.88
335.684	87.88
335.912	90.88
336.14	80.88
336.369	90.88
336.597	80.88
336.825	87.88
337.053	76.88
337.281	73.88
337.51	89.88
337.738	79.88
337.966	75.88
338.194	81.88
338.422	91.88
338.65	90.88
338.878	90.88
339.106	88.88
339.334	92.88
339.562	85.88
339.79	84.88
340.018	79.88
340.246	93.88
340.474	79.88
340.702	74.88
340.93	78.88
341.158	93.88
341.386	81.88
341.614	81.88
341.842	89.88
342.07	76.88
342.298	88.88
342.526	96.88
342.754	80.88
342.981	88.88
343.209	68.88
343.437	105.88
343.665	85.88
343.893	87.88
344.12	88.88
344.348	84.88
344.576	84.88
344.804	81.88
345.031	92.88
345.259	103.88
345.487	89.88
345.714	76.88
345.942	92.88
346.17	82.88
346.397	79.88
346.625	70.88
346.853	80.88
347.08	88.88
347.308	72.88
347.535	84.88
347.763	78.88
347.99	80.88
348.218	87.88
348.445	75.88
348.673	91.88
348.9	94.88
349.128	82.88
349.355	79.88
349.583	80.88
349.81	69.88
350.037	83.88
350.265	82.88
350.492	70.88
350.72	75.88
350.947	88.88
351.174	79.88
351.402	77.88
351.629	78.88
351.856	76.88
352.083	74.88
352.311	91.88
352.538	96.88
352.765	87.88
352.992	79.88
353.22	76.88
353.447	92.88
353.674	94.88
353.901	88.88
354.128	91.88
354.355	74.88
354.583	90.88
354.81	99.88
355.037	85.88
355.264	86.88
355.491	107.88
355.718	86.88
355.945	75.88
356.172	83.88
356.399	86.88
356.626	96.88
356.853	113.88
357.08	164.88
357.307	197.88
357.534	170.88
357.761	117.88
357.988	99.88
358.215	79.88
358.441	87.88
358.668	84.88
358.895	84.88
359.122	84.88
359.349	75.88
359.576	83.88
359.802	76.88
360.029	78.88
360.256	95.88
360.483	71.88
360.709	94.88
360.936	86.88
361.163	77.88
361.39	79.88
361.616	84.88
361.843	89.88
362.07	74.88
362.296	100.88
362.523	90.88
362.749	89.88
362.976	97.88
363.203	104.88
363.429	116.88
363.656	143.88
363.882	231.88
364.109	280.88
364.335	139.88
364.562	92.88
364.788	81.88
365.015	78.88
365.241	81.88
365.468	86.88
365.694	75.88
365.92	85.88
366.147	74.88
366.373	84.88
366.599	93.88
366.826	105.88
367.052	129.88
367.278	117.88
367.505	101.88
367.731	123.88
367.957	160.88
368.184	265.88
368.41	356.88
368.636	247.88
368.862	113.88
369.089	95.88
369.315	87.88
369.541	81.88
369.767	93.88
369.993	82.88
370.219	95.88
370.445	85.88
370.672	61.88
370.898	70.88
371.124	81.88
371.35	76.88
371.576	79.88
371.802	81.88
372.028	91.88
372.254	77.88
372.48	77.88
372.706	88.88
372.932	104.88
373.158	82.88
373.384	81.88
373.61	115.88
373.835	151.88
374.061	188.88
374.287	140.88
374.513	90.88
374.739	89.88
374.965	89.88
375.191	81.88
375.416	97.88
375.642	72.88
375.868	87.88
376.094	80.88
376.319	71.88
376.545	84.88
376.771	71.88
376.997	75.88
377.222	84.88
377.448	83.88
377.674	91.88
377.899	91.88
378.125	88.88
378.35	89.88
378.576	80.88
378.802	84.88
379.027	99.88
379.253	85.88
379.478	88.88
379.704	94.88
379.929	83.88
380.155	91.88
380.38	85.88
380.606	95.88
380.831	76.88
381.057	88.88
381.282	84.88
381.507	70.88
381.733	87.88
381.958	75.88
382.184	86.88
382.409	95.88
382.634	93.88
382.86	85.88
383.085	72.88
383.31	81.88
383.535	76.88
383.761	77.88
383.986	76.88
384.211	95.88
384.436	93.88
384.662	87.88
384.887	84.88
385.112	84.88
385.337	89.88
385.562	74.88
385.787	75.88
386.013	82.88
386.238	90.88
386.463	91.88
386.688	104.88
386.913	82.88
387.138	84.88
387.363	96.88
387.588	104.88
387.813	92.88
388.038	81.88
388.263	97.88
388.488	94.88
388.713	81.88
388.938	85.88
389.163	82.88
389.387	88.88
389.612	89.88
389.837	78.88
390.062	87.88
390.287	77.88
390.512	86.88
390.736	85.88
390.961	76.88
391.186	84.88
391.411	88.88
391.636	78.88
391.86	85.88
392.085	91.88
392.31	87.88
392.534	99.88
392.759	88.88
392.984	83.88
393.208	120.88
393.433	131.88
393.658	123.88
393.882	80.88
394.107	101.88
394.331	182.88
394.556	207.88
394.78	119.88
395.005	85.88
395.229	89.88
395.454	91.88
395.678	105.88
395.903	148.88
396.127	209.88
396.352	228.88
396.576	128.88
396.801	123.88
397.025	117.88
397.249	87.88
397.474	86.88
397.698	81.88
397.922	84.88
398.147	84.88
398.371	78.88
398.595	77.88
398.82	91.88
399.044	88.88
399.268	83.88
399.492	71.88
399.717	93.88
399.941	94.88
400.165	88.88
400.389	72.88
400.613	94.88
400.837	76.88
401.062	77.88
401.286	88.88
401.51	70.88
401.734	85.88
401.958	112.88
402.182	91.88
402.406	85.88
402.63	85.88
402.854	83.88
403.078	97.88
403.302	85.88
403.526	84.88
403.75	89.88
403.974	87.88
404.198	98.88
404.422	98.88
404.645	95.88
404.869	105.88
405.093	107.88
405.317	138.88
405.541	284.88
405.765	543.88
405.988	573.88
406.212	247.88
406.436	156.88
406.66	107.88
406.883	106.88
407.107	76.88
407.331	83.88
407.555	76.88
407.778	78.88
408.002	85.88
408.226	85.88
408.449	82.88
408.673	69.88
408.896	92.88
409.12	71.88
409.344	90.88
409.567	87.88
409.791	89.88
410.014	75.88
410.238	84.88
410.461	71.88
410.685	98.88
410.908	74.88
411.132	89.88
411.355	81.88
411.578	89.88
411.802	86.88
412.025	73.88
412.249	87.88
412.472	95.88
412.695	80.88
412.919	97.88
413.142	99.88
413.365	89.88
413.589	80.88
413.812	88.88
414.035	89.88
414.258	81.88
414.482	77.88
414.705	86.88
414.928	82.88
415.151	86.88
415.374	85.88
415.597	81.88
415.821	80.88
416.044	88.88
416.267	75.88
416.49	98.88
416.713	91.88
416.936	77.88
417.159	91.88
417.382	77.88
417.605	79.88
417.828	105.88
418.051	86.88
418.274	87.88
418.497	78.88
418.72	86.88
418.943	88.88
419.166	77.88
419.389	87.88
419.611	88.88
419.834	87.88
420.057	77.88
420.28	83.88
420.503	93.88
420.726	75.88
420.948	90.88
421.171	92.88
421.394	86.88
421.617	84.88
421.839	81.88
422.062	91.88
422.285	100.88
422.507	108.88
422.73	133.88
422.953	101.88
423.175	81.88
423.398	82.88
423.621	83.88
423.843	86.88
424.066	97.88
424.288	73.88
424.511	78.88
424.733	89.88
424.956	85.88
425.178	81.88
425.401	85.88
425.623	74.88
425.846	78.88
426.068	81.88
426.291	80.88
426.513	70.88
426.735	95.88
426.958	82.88
427.18	75.88
427.402	75.88
427.625	81.88
427.847	85.88
428.069	77.88
428.292	91.88
428.514	78.88
428.736	80.88
428.958	88.88
429.181	101.88
429.403	97.88
429.625	77.88
429.847	84.88
430.069	88.88
430.292	89.88
430.514	85.88
430.736	83.88
430.958	94.88
431.18	79.88
431.402	95.88
431.624	84.88
431.846	63.88
432.068	83.88
432.29	75.88
432.512	80.88
432.734	85.88
432.956	94.88
433.178	88.88
433.4	80.88
433.622	81.88
433.844	79.88
434.066	97.88
434.287	85.88
434.509	74.88
434.731	96.88
434.953	76.88
435.175	84.88
435.397	72.88
435.618	87.88
435.84	79.88
436.062	72.88
436.284	83.88
436.505	76.88
436.727	80.88
436.949	83.88
437.17	77.88
437.392	77.88
437.614	79.88
437.835	88.88
438.057	85.88
438.278	84.88
438.5	72.88
438.721	98.88
438.943	86.88
439.165	87.88
439.386	89.88
439.608	73.88
439.829	83.88
440.05	93.88
440.272	82.88
440.493	81.88
440.715	73.88
440.936	78.88
441.158	69.88
441.379	83.88
441.6	82.88
441.822	101.88
442.043	95.88
442.264	77.88
442.486	93.88
442.707	74.88
442.928	81.88
443.149	81.88
443.371	85.88
443.592	83.88
443.813	82.88
444.034	64.88
444.255	83.88
444.476	83.88
444.698	75.88
444.919	69.88
445.14	154.88
445.361	124.88
445.582	82.88
445.803	88.88
446.024	85.88
446.245	82.88
446.466	75.88
446.687	76.88
446.908	78.88
447.129	69.88
447.35	86.88
447.571	76.88
447.792	79.88
448.013	83.88
448.234	74.88
448.455	89.88
448.675	83.88
448.896	71.88
449.117	83.88
449.338	91.88
449.559	85.88
449.779	92.88
450	84.88
450.221	67.88
450.442	85.88
450.662	91.88
450.883	75.88
451.104	74.88
451.324	86.88
451.545	72.88
451.766	89.88
451.986	78.88
452.207	84.88
452.428	81.88
452.648	73.88
452.869	91.88
453.089	81.88
453.31	72.88
453.53	75.88
453.751	81.88
453.971	87.88
454.192	75.88
454.412	96.88
454.633	98.88
454.853	89.88
455.073	76.88
455.294	67.88
455.514	90.88
455.734	61.88
455.955	81.88
456.175	63.88
456.395	77.88
456.616	103.88
456.836	90.88
457.056	95.88
457.276	81.88
457.497	65.88
457.717	95.88
457.937	77.88
458.157	83.88
458.377	77.88
458.598	69.88
458.818	88.88
459.038	78.88
459.258	83.88
459.478	72.88
459.698	70.88
459.918	90.88
460.138	81.88
460.358	93.88
460.578	81.88
460.798	83.88
461.018	96.88
461.238	93.88
461.458	78.88
461.678	76.88
461.898	89.88
462.118	89.88
462.338	69.88
462.558	91.88
462.777	70.88
462.997	83.88
463.217	89.88
463.437	95.88
463.657	77.88
463.876	80.88
464.096	86.88
464.316	88.88
464.536	91.88
464.755	87.88
464.975	91.88
465.195	87.88
465.414	76.88
465.634	72.88
465.854	84.88
466.073	90.88
466.293	79.88
466.512	80.88
466.732	87.88
466.951	91.88
467.171	85.88
467.391	73.88
467.61	80.88
467.829	92.88
468.049	67.88
468.268	92.88
468.488	93.88
468.707	87.88
468.927	82.88
469.146	82.88
469.365	86.88
469.585	87.88
469.804	83.88
470.023	65.88
470.243	77.88
470.462	89.88
470.681	88.88
470.901	87.88
471.12	64.88
471.339	74.88
471.558	82.88
471.777	82.88
471.997	96.88
472.216	79.88
472.435	76.88
472.654	87.88
472.873	90.88
473.092	90.88
473.311	77.88
473.53	87.88
473.749	98.88
473.968	75.88
474.187	72.88
474.406	81.88
474.625	81.88
474.844	82.88
475.063	85.88
475.282	85.88
475.501	74.88
475.72	83.88
475.939	89.88
476.158	82.88
476.377	75.88
476.596	80.88
476.814	93.88
477.033	84.88
477.252	83.88
477.471	80.88
477.69	97.88
477.908	86.88
478.127	81.88
478.346	79.88
478.564	95.88
478.783	95.88
479.002	95.88
479.22	87.88
479.439	78.88
479.658	65.88
479.876	93.88
480.095	97.88
480.313	70.88
480.532	88.88
480.751	83.88
480.969	89.88
481.188	80.88
481.406	84.88
481.624	90.88
481.843	78.88
482.061	91.88
482.28	87.88
482.498	84.88
482.717	91.88
482.935	87.88
483.153	83.88
483.372	75.88
483.59	76.88
483.808	83.88
484.027	84.88
484.245	94.88
484.463	79.88
484.681	88.88
484.9	93.88
485.118	79.88
485.336	94.88
485.554	83.88
485.772	95.88
485.99	66.88
486.209	71.88
486.427	84.88
486.645	79.88
486.863	86.88
487.081	81.88
487.299	85.88
487.517	71.88
487.735	89.88
487.953	88.88
488.171	92.88
488.389	87.88
488.607	76.88
488.825	72.88
489.043	95.88
489.261	97.88
489.479	84.88
489.696	85.88
489.914	76.88
490.132	75.88
490.35	86.88
490.568	81.88
490.786	81.88
491.003	92.88
491.221	83.88
491.439	82.88
491.657	78.88
491.874	97.88
492.092	84.88
492.31	98.88
492.527	82.88
492.745	86.88
492.963	83.88
493.18	91.88
493.398	73.88
493.615	87.88
493.833	84.88
494.05	85.88
494.268	83.88
494.485	103.88
494.703	90.88
494.92	82.88
495.138	84.88
495.355	105.88
495.573	96.88
495.79	79.88
496.008	81.88
496.225	83.88
496.442	92.88
496.66	100.88
496.877	85.88
497.094	96.88
497.312	89.88
497.529	81.88
497.746	83.88
497.963	94.88
498.181	90.88
498.398	86.88
498.615	88.88
498.832	88.88
499.049	86.88
499.267	86.88
499.484	76.88
499.701	76.88
499.918	91.88
500.135	85.88
500.352	91.88
500.569	116.88
500.786	134.88
501.003	88.88
501.22	105.88
501.437	75.88
501.654	89.88
501.871	83.88
502.088	90.88
502.305	74.88
502.522	100.88
502.739	104.88
502.956	94.88
503.172	98.88
503.389	97.88
503.606	93.88
503.823	88.88
504.04	93.88
504.256	89.88
504.473	77.88
504.69	86.88
504.907	82.88
505.123	84.88
505.34	75.88
505.557	89.88
505.773	103.88
505.99	92.88
506.207	91.88
506.423	83.88
506.64	101.88
506.856	93.88
507.073	85.88
507.289	88.88
507.506	83.88
507.722	92.88
507.939	84.88
508.155	84.88
508.372	88.88
508.588	94.88
508.805	86.88
509.021	90.88
509.238	88.88
509.454	92.88
509.67	92.88
509.887	82.88
510.103	85.88
510.319	80.88
510.536	74.88
510.752	94.88
510.968	84.88
511.184	88.88
511.401	87.88
511.617	80.88
511.833	81.88
512.049	81.88
512.265	84.88
512.481	86.88
512.698	86.88
512.914	73.88
513.13	75.88
513.346	89.88
513.562	77.88
513.778	87.88
513.994	87.88
514.21	75.88
514.426	93.88
514.642	91.88
514.858	88.88
515.074	82.88
515.29	86.88
515.506	78.88
515.721	97.88
515.937	77.88
516.153	86.88
516.369	83.88
516.585	81.88
516.801	78.88
517.016	83.88
517.232	71.88
517.448	87.88
517.664	85.88
517.879	76.88
518.095	100.88
518.311	92.88
518.527	106.88
518.742	87.88
518.958	91.88
519.173	72.88
519.389	92.88
519.605	93.88
519.82	85.88
520.036	96.88
520.251	86.88
520.467	85.88
520.682	87.88
520.898	72.88
521.113	86.88
521.329	84.88
521.544	86.88
521.76	73.88
521.975	98.88
522.19	84.88
522.406	91.88
522.621	92.88
522.836	89.88
523.052	101.88
523.267	88.88
523.482	74.88
523.698	86.88
523.913	86.88
524.128	69.88
524.343	74.88
524.559	93.88
524.774	80.88
524.989	83.88
525.204	79.88
525.419	86.88
525.634	73.88
525.849	93.88
526.064	79.88
526.28	80.88
526.495	90.88
526.71	100.88
526.925	95.88
527.14	93.88
527.355	76.88
527.57	82.88
527.785	91.88
527.999	80.88
528.214	89.88
528.429	84.88
528.644	85.88
528.859	82.88
529.074	77.88
529.289	79.88
529.503	84.88
529.718	90.88
529.933	91.88
530.148	75.88
530.363	95.88
530.577	85.88
530.792	85.88
531.007	85.88
531.221	86.88
531.436	75.88
531.651	87.88
531.865	84.88
532.08	79.88
532.295	82.88
532.509	86.88
532.724	88.88
532.938	82.88
533.153	89.88
533.367	81.88
533.582	81.88
533.796	72.88
534.011	85.88
534.225	85.88
534.44	97.88
534.654	75.88
534.868	69.88
535.083	74.88
535.297	90.88
535.511	73.88
535.726	77.88
535.94	89.88
536.154	87.88
536.369	89.88
536.583	82.88
536.797	77.88
537.011	95.88
537.225	69.88
537.44	68.88
537.654	80.88
537.868	93.88
538.082	72.88
538.296	89.88
538.51	68.88
538.724	81.88
538.938	73.88
539.153	86.88
539.367	81.88
539.581	87.88
539.795	93.88
540.009	75.88
540.222	90.88
540.436	91.88
540.65	72.88
540.864	74.88
541.078	78.88
541.292	77.88
541.506	89.88
541.72	84.88
541.934	92.88
542.147	85.88
542.361	93.88
542.575	76.88
542.789	87.88
543.002	87.88
543.216	85.88
543.43	57.88
543.644	93.88
543.857	85.88
544.071	84.88
544.285	70.88
544.498	91.88
544.712	91.88
544.925	85.88
545.139	93.88
545.352	77.88
545.566	98.88
545.779	103.88
545.993	81.88
546.206	68.88
546.42	82.88
546.633	89.88
546.847	91.88
547.06	88.88
547.274	82.88
547.487	87.88
547.7	79.88
547.914	87.88
548.127	89.88
548.34	91.88
548.554	93.88
548.767	88.88
548.98	102.88
549.193	86.88
549.407	88.88
549.62	99.88
549.833	79.88
550.046	77.88
550.259	91.88
550.473	81.88
550.686	92.88
550.899	82.88
551.112	84.88
551.325	95.88
551.538	96.88
551.751	75.88
551.964	90.88
552.177	89.88
552.39	95.88
552.603	79.88
552.816	95.88
553.029	82.88
553.242	90.88
553.455	76.88
553.667	91.88
553.88	86.88
554.093	84.88
554.306	74.88
554.519	86.88
554.732	96.88
554.944	84.88
555.157	66.88
555.37	74.88
555.583	75.88
555.795	77.88
556.008	90.88
556.221	96.88
556.433	68.88
556.646	93.88
556.859	77.88
557.071	98.88
557.284	88.88
557.496	89.88
557.709	82.88
557.921	81.88
558.134	85.88
558.346	87.88
558.559	81.88
558.771	86.88
558.984	92.88
559.196	89.88
559.409	91.88
559.621	75.88
559.833	88.88
560.046	81.88
560.258	87.88
560.47	97.88
560.683	85.88
560.895	85.88
561.107	102.88
561.32	87.88
561.532	89.88
561.744	82.88
561.956	87.88
562.168	79.88
562.381	99.88
562.593	103.88
562.805	86.88
563.017	101.88
563.229	75.88
563.441	84.88
563.653	82.88
563.865	92.88
564.077	86.88
564.289	87.88
564.501	93.88
564.713	90.88
564.925	92.88
565.137	94.88
565.349	79.88
565.561	93.88
565.773	78.88
565.985	83.88
566.197	83.88
566.408	81.88
566.62	81.88
566.832	89.88
567.044	103.88
567.255	93.88
567.467	93.88
567.679	77.88
567.891	93.88
568.102	89.88
568.314	97.88
568.526	91.88
568.737	91.88
568.949	95.88
569.161	96.88
569.372	88.88
569.584	88.88
569.795	85.88
570.007	77.88
570.218	79.88
570.43	84.88
570.641	97.88
570.853	95.88
571.064	91.88
571.276	84.88
571.487	80.88
571.698	76.88
571.91	75.88
572.121	88.88
572.333	85.88
572.544	80.88
572.755	81.88
572.966	82.88
573.178	85.88
573.389	79.88
573.6	77.88
573.811	95.88
574.023	94.88
574.234	85.88
574.445	83.88
574.656	85.88
574.867	84.88
575.078	91.88
575.289	81.88
575.501	93.88
575.712	73.88
575.923	83.88
576.134	87.88
576.345	85.88
576.556	91.88
576.767	77.88
576.978	91.88
577.188	85.88
577.399	89.88
577.61	82.88
577.821	82.88
578.032	78.88
578.243	76.88
578.454	81.88
578.665	92.88
578.875	69.88
579.086	87.88
579.297	77.88
579.508	75.88
579.718	85.88
579.929	93.88
580.14	97.88
580.35	84.88
580.561	76.88
580.772	73.88
580.982	91.88
581.193	91.88
581.403	86.88
581.614	81.88
581.825	84.88
582.035	74.88
582.246	87.88
582.456	77.88
582.667	87.88
582.877	77.88
583.087	81.88
583.298	87.88
583.508	73.88
583.719	84.88
583.929	89.88
584.139	87.88
584.35	86.88
584.56	92.88
584.77	80.88
584.981	93.88
585.191	86.88
585.401	78.88
585.611	86.88
585.821	86.88
586.032	84.88
586.242	83.88
586.452	70.88
586.662	85.88
586.872	87.88
587.082	84.88
587.292	97.88
587.502	93.88
587.713	85.88
587.923	92.88
588.133	97.88
588.343	104.88
588.553	98.88
588.762	108.88
588.972	228.88
589.182	579.88
589.392	324.88
589.602	233.88
589.812	475.88
590.022	225.88
590.232	98.88
590.441	75.88
590.651	88.88
590.861	92.88
591.071	83.88
591.281	89.88
591.49	86.88
591.7	70.88
591.91	83.88
592.119	91.88
592.329	78.88
592.539	84.88
592.748	85.88
592.958	87.88
593.167	84.88
593.377	95.88
593.587	87.88
593.796	75.88
594.006	85.88
594.215	76.88
594.424	86.88
594.634	84.88
594.843	91.88
595.053	91.88
595.262	80.88
595.472	75.88
595.681	87.88
595.89	82.88
596.1	87.88
596.309	83.88
596.518	89.88
596.727	88.88
596.937	72.88
597.146	84.88
597.355	97.88
597.564	86.88
597.774	83.88
597.983	80.88
598.192	77.88
598.401	83.88
598.61	89.88
598.819	87.88
599.028	92.88
599.237	72.88
599.446	80.88
599.655	96.88
599.864	95.88
600.073	89.88
600.282	98.88
600.491	85.88
600.7	83.88
600.909	100.88
601.118	98.88
601.327	87.88
601.536	90.88
601.745	86.88
601.953	75.88
602.162	78.88
602.371	67.88
602.58	99.88
602.789	81.88
602.997	85.88
603.206	83.88
603.415	89.88
603.623	85.88
603.832	98.88
604.041	85.88
604.249	77.88
604.458	89.88
604.666	85.88
604.875	81.88
605.084	85.88
605.292	73.88
605.501	91.88
605.709	85.88
605.918	86.88
606.126	88.88
606.334	89.88
606.543	87.88
606.751	95.88
606.96	98.88
607.168	87.88
607.376	69.88
607.585	97.88
607.793	90.88
608.001	83.88
608.21	102.88
608.418	79.88
608.626	90.88
608.834	81.88
609.043	84.88
609.251	81.88
609.459	83.88
609.667	85.88
609.875	92.88
610.083	88.88
610.291	98.88
610.499	74.88
610.707	78.88
610.916	73.88
611.124	75.88
611.332	91.88
611.54	68.88
611.748	90.88
611.955	85.88
612.163	82.88
612.371	83.88
612.579	79.88
612.787	93.88
612.995	84.88
613.203	71.88
613.411	82.88
613.618	79.88
613.826	88.88
614.034	102.88
614.242	85.88
614.449	91.88
614.657	73.88
614.865	76.88
615.072	82.88
615.28	81.88
615.488	87.88
615.695	89.88
615.903	82.88
616.111	95.88
616.318	81.88
616.526	88.88
616.733	86.88
616.941	69.88
617.148	96.88
617.356	84.88
617.563	88.88
617.771	77.88
617.978	76.88
618.185	91.88
618.393	81.88
618.6	84.88
618.807	92.88
619.015	70.88
619.222	73.88
619.429	80.88
619.637	91.88
619.844	84.88
620.051	85.88
620.258	86.88
620.466	75.88
620.673	94.88
620.88	75.88
621.087	77.88
621.294	85.88
621.501	76.88
621.708	76.88
621.915	87.88
622.122	83.88
622.329	90.88
622.536	99.88
622.743	75.88
622.95	80.88
623.157	91.88
623.364	83.88
623.571	74.88
623.778	101.88
623.985	81.88
624.192	95.88
624.399	87.88
624.606	106.88
624.812	91.88
625.019	96.88
625.226	93.88
625.433	92.88
625.639	85.88
625.846	92.88
626.053	78.88
626.259	89.88
626.466	75.88
626.673	77.88
626.879	92.88
627.086	93.88
627.293	85.88
627.499	80.88
627.706	79.88
627.912	78.88
628.119	82.88
628.325	93.88
628.532	77.88
628.738	91.88
628.945	83.88
629.151	69.88
629.357	92.88
629.564	74.88
629.77	86.88
629.976	88.88
630.183	96.88
630.389	76.88
630.595	78.88
630.802	95.88
631.008	89.88
631.214	91.88
631.42	76.88
631.627	78.88
631.833	85.88
632.039	71.88
632.245	88.88
632.451	69.88
632.657	80.88
632.863	93.88
633.069	85.88
633.275	85.88
633.481	82.88
633.688	84.88
633.893	74.88
634.099	85.88
634.305	83.88
634.511	88.88
634.717	81.88
634.923	84.88
635.129	84.88
635.335	94.88
635.541	82.88
635.747	86.88
635.952	80.88
636.158	96.88
636.364	72.88
636.57	96.88
636.775	78.88
636.981	91.88
637.187	88.88
637.392	84.88
637.598	69.88
637.804	76.88
638.009	71.88
638.215	71.88
638.421	88.88
638.626	85.88
638.832	86.88
639.037	93.88
639.243	89.88
639.448	92.88
639.654	78.88
639.859	64.88
640.065	83.88
640.27	92.88
640.475	81.88
640.681	80.88
640.886	69.88
641.091	79.88
641.297	81.88
641.502	83.88
641.707	88.88
641.913	92.88
642.118	86.88
642.323	82.88
642.528	83.88
642.733	91.88
642.939	84.88
643.144	83.88
643.349	75.88
643.554	77.88
643.759	83.88
643.964	80.88
644.169	84.88
644.374	76.88
644.579	82.88
644.784	81.88
644.989	77.88
645.194	57.88
645.399	87.88
645.604	87.88
645.809	85.88
646.014	78.88
646.219	76.88
646.423	95.88
646.628	97.88
646.833	90.88
647.038	104.88
647.243	88.88
647.447	79.88
647.652	86.88
647.857	84.88
648.062	86.88
648.266	93.88
648.471	77.88
648.676	76.88
648.88	78.88
649.085	94.88
649.289	81.88
649.494	81.88
649.698	90.88
649.903	91.88
650.107	89.88
650.312	81.88
650.516	81.88
650.721	71.88
650.925	79.88
651.13	85.88
651.334	102.88
651.539	93.88
651.743	78.88
651.947	82.88
652.152	87.88
652.356	96.88
652.56	89.88
652.764	81.88
652.969	87.88
653.173	87.88
653.377	82.88
653.581	94.88
653.785	86.88
653.99	82.88
654.194	80.88
654.398	85.88
654.602	87.88
654.806	73.88
655.01	87.88
655.214	89.88
655.418	83.88
655.622	91.88
655.826	84.88
656.03	75.88
656.234	77.88
656.438	83.88
656.642	88.88
656.846	82.88
657.049	89.88
657.253	75.88
657.457	85.88
657.661	99.88
657.865	85.88
658.068	85.88
658.272	75.88
658.476	83.88
658.68	71.88
658.883	76.88
659.087	86.88
659.291	92.88
659.494	78.88
659.698	93.88
659.901	91.88
660.105	79.88
660.309	86.88
660.512	88.88
660.716	80.88
660.919	68.88
661.123	82.88
661.326	87.88
661.53	90.88
661.733	85.88
661.936	75.88
662.14	70.88
662.343	83.88
662.546	92.88
662.75	103.88
662.953	82.88
663.156	82.88
663.36	77.88
663.563	77.88
663.766	82.88
663.969	104.88
664.173	76.88
664.376	80.88
664.579	83.88
664.782	76.88
664.985	83.88
665.188	96.88
665.391	98.88
665.594	81.88
665.797	81.88
666	77.88
666.203	91.88
666.406	85.88
666.609	83.88
666.812	81.88
667.015	88.88
667.218	73.88
667.421	87.88
667.624	78.88
667.827	76.88
668.03	87.88
668.232	75.88
668.435	86.88
668.638	90.88
668.841	79.88
669.043	88.88
669.246	73.88
669.449	83.88
669.651	75.88
669.854	73.88
670.057	97.88
670.259	84.88
670.462	95.88
670.665	82.88
670.867	88.88
671.07	81.88
671.272	67.88
671.475	95.88
671.677	70.88
671.88	84.88
672.082	83.88
672.284	77.88
672.487	81.88
672.689	83.88
672.892	79.88
