Data from Lead_HRD10591_00096.txt Node
Date: Tue Feb 17 14:14:23 EST 2026
User: Yrep
Spectrometer: HR+D1059
Trigger mode: 1
Integration Time (sec): 1.000000E-1
Scans to average: 1
Electric dark correction enabled: true
Nonlinearity correction enabled: false
Boxcar width: 0
XAxis mode: Wavelengths
Number of Pixels in Spectrum: 2048
>>>>>Begin Spectral Data<<<<<
223.165	-6.56
223.4	-6.56
223.635	-6.56
223.869	-18.56
224.104	-19.56
224.338	-20.56
224.573	-11.56
224.808	-21.56
225.042	-19.56
225.277	-14.56
225.511	3.44
225.746	4.44
225.98	17.44
226.215	27.44
226.449	15.44
226.683	16.44
226.918	21.44
227.152	26.44
227.387	37.44
227.621	51.44
227.856	44.44
228.09	48.44
228.324	48.44
228.559	54.44
228.793	56.44
229.027	65.44
229.262	77.44
229.496	82.44
229.73	71.44
229.964	80.44
230.199	72.44
230.433	85.44
230.667	82.44
230.901	82.44
231.136	82.44
231.37	84.44
231.604	74.44
231.838	72.44
232.072	79.44
232.306	88.44
232.541	70.44
232.775	80.44
233.009	81.44
233.243	85.44
233.477	86.44
233.711	85.44
233.945	83.44
234.179	83.44
234.413	76.44
234.647	83.44
234.881	74.44
235.115	66.44
235.349	97.44
235.583	66.44
235.817	75.44
236.051	75.44
236.285	91.44
236.519	71.44
236.753	88.44
236.987	72.44
237.221	70.44
237.455	91.44
237.689	86.44
237.922	74.44
238.156	75.44
238.39	68.44
238.624	80.44
238.858	71.44
239.091	68.44
239.325	62.44
239.559	73.44
239.793	84.44
240.027	86.44
240.26	88.44
240.494	75.44
240.728	68.44
240.961	81.44
241.195	71.44
241.429	68.44
241.662	75.44
241.896	78.44
242.13	80.44
242.363	75.44
242.597	81.44
242.83	74.44
243.064	58.44
243.298	68.44
243.531	79.44
243.765	102.44
243.998	86.44
244.232	78.44
244.465	80.44
244.699	87.44
244.932	92.44
245.166	88.44
245.399	75.44
245.633	72.44
245.866	85.44
246.099	86.44
246.333	73.44
246.566	69.44
246.8	76.44
247.033	77.44
247.266	84.44
247.5	74.44
247.733	82.44
247.966	88.44
248.2	74.44
248.433	76.44
248.666	71.44
248.899	85.44
249.133	74.44
249.366	85.44
249.599	81.44
249.832	74.44
250.066	71.44
250.299	72.44
250.532	82.44
250.765	74.44
250.998	74.44
251.231	70.44
251.465	71.44
251.698	86.44
251.931	70.44
252.164	67.44
252.397	81.44
252.63	87.44
252.863	84.44
253.096	86.44
253.329	97.44
253.562	82.44
253.795	84.44
254.028	70.44
254.261	79.44
254.494	76.44
254.727	91.44
254.96	100.44
255.193	81.44
255.426	89.44
255.659	77.44
255.892	82.44
256.124	72.44
256.357	76.44
256.59	85.44
256.823	84.44
257.056	72.44
257.289	81.44
257.521	76.44
257.754	84.44
257.987	68.44
258.22	78.44
258.452	64.44
258.685	84.44
258.918	60.44
259.151	77.44
259.383	83.44
259.616	92.44
259.849	89.44
260.081	92.44
260.314	80.44
260.547	77.44
260.779	79.44
261.012	90.44
261.244	72.44
261.477	82.44
261.71	90.44
261.942	77.44
262.175	76.44
262.407	87.44
262.64	82.44
262.872	96.44
263.105	87.44
263.337	82.44
263.57	73.44
263.802	92.44
264.035	87.44
264.267	81.44
264.499	70.44
264.732	82.44
264.964	85.44
265.197	91.44
265.429	86.44
265.661	87.44
265.894	79.44
266.126	86.44
266.358	72.44
266.591	88.44
266.823	93.44
267.055	77.44
267.287	69.44
267.52	69.44
267.752	85.44
267.984	91.44
268.216	95.44
268.448	92.44
268.681	90.44
268.913	76.44
269.145	97.44
269.377	77.44
269.609	73.44
269.841	89.44
270.073	86.44
270.306	84.44
270.538	84.44
270.77	73.44
271.002	86.44
271.234	68.44
271.466	75.44
271.698	76.44
271.93	68.44
272.162	92.44
272.394	75.44
272.626	96.44
272.858	104.44
273.09	81.44
273.322	98.44
273.553	88.44
273.785	88.44
274.017	70.44
274.249	75.44
274.481	70.44
274.713	81.44
274.945	85.44
275.176	82.44
275.408	82.44
275.64	81.44
275.872	83.44
276.104	78.44
276.335	84.44
276.567	95.44
276.799	66.44
277.031	69.44
277.262	84.44
277.494	78.44
277.726	95.44
277.957	80.44
278.189	66.44
278.421	81.44
278.652	78.44
278.884	70.44
279.115	79.44
279.347	85.44
279.579	84.44
279.81	89.44
280.042	89.44
280.273	90.44
280.505	81.44
280.736	90.44
280.968	85.44
281.199	89.44
281.431	88.44
281.662	79.44
281.894	91.44
282.125	75.44
282.356	80.44
282.588	76.44
282.819	82.44
283.051	74.44
283.282	77.44
283.513	86.44
283.745	74.44
283.976	97.44
284.207	87.44
284.439	88.44
284.67	84.44
284.901	98.44
285.132	84.44
285.364	90.44
285.595	83.44
285.826	72.44
286.057	99.44
286.288	86.44
286.52	101.44
286.751	78.44
286.982	92.44
287.213	85.44
287.444	78.44
287.675	95.44
287.906	76.44
288.138	70.44
288.369	84.44
288.6	91.44
288.831	70.44
289.062	78.44
289.293	84.44
289.524	83.44
289.755	72.44
289.986	87.44
290.217	82.44
290.448	87.44
290.679	91.44
290.91	86.44
291.141	81.44
291.371	93.44
291.602	84.44
291.833	96.44
292.064	74.44
292.295	80.44
292.526	77.44
292.757	92.44
292.987	104.44
293.218	85.44
293.449	82.44
293.68	78.44
293.91	92.44
294.141	79.44
294.372	83.44
294.603	71.44
294.833	78.44
295.064	79.44
295.295	77.44
295.525	91.44
295.756	79.44
295.987	79.44
296.217	70.44
296.448	90.44
296.679	84.44
296.909	88.44
297.14	88.44
297.37	89.44
297.601	84.44
297.831	91.44
298.062	85.44
298.292	78.44
298.523	94.44
298.753	76.44
298.984	83.44
299.214	83.44
299.445	83.44
299.675	78.44
299.905	83.44
300.136	90.44
300.366	87.44
300.597	72.44
300.827	79.44
301.057	84.44
301.288	92.44
301.518	93.44
301.748	85.44
301.979	99.44
302.209	85.44
302.439	69.44
302.669	81.44
302.9	99.44
303.13	67.44
303.36	96.44
303.59	89.44
303.82	84.44
304.051	77.44
304.281	79.44
304.511	80.44
304.741	83.44
304.971	86.44
305.201	79.44
305.431	93.44
305.661	97.44
305.891	82.44
306.121	82.44
306.352	70.44
306.582	98.44
306.812	74.44
307.042	72.44
307.272	80.44
307.502	78.44
307.731	79.44
307.961	82.44
308.191	84.44
308.421	94.44
308.651	92.44
308.881	80.44
309.111	100.44
309.341	76.44
309.571	66.44
309.8	88.44
310.03	76.44
310.26	92.44
310.49	78.44
310.72	75.44
310.949	82.44
311.179	77.44
311.409	77.44
311.639	86.44
311.868	89.44
312.098	103.44
312.328	82.44
312.557	68.44
312.787	78.44
313.017	92.44
313.246	88.44
313.476	85.44
313.706	88.44
313.935	84.44
314.165	79.44
314.394	98.44
314.624	86.44
314.853	76.44
315.083	92.44
315.312	87.44
315.542	84.44
315.771	79.44
316.001	81.44
316.23	91.44
316.46	85.44
316.689	97.44
316.919	102.44
317.148	93.44
317.377	78.44
317.607	80.44
317.836	91.44
318.065	82.44
318.295	74.44
318.524	85.44
318.753	79.44
318.983	93.44
319.212	105.44
319.441	98.44
319.67	88.44
319.9	77.44
320.129	84.44
320.358	89.44
320.587	82.44
320.816	84.44
321.046	85.44
321.275	86.44
321.504	78.44
321.733	82.44
321.962	89.44
322.191	85.44
322.42	86.44
322.649	77.44
322.878	85.44
323.108	90.44
323.337	94.44
323.566	88.44
323.795	90.44
324.024	93.44
324.253	73.44
324.482	76.44
324.71	87.44
324.939	76.44
325.168	75.44
325.397	75.44
325.626	84.44
325.855	88.44
326.084	89.44
326.313	88.44
326.542	88.44
326.77	86.44
326.999	97.44
327.228	69.44
327.457	94.44
327.686	95.44
327.914	82.44
328.143	98.44
328.372	88.44
328.6	88.44
328.829	100.44
329.058	79.44
329.287	72.44
329.515	84.44
329.744	73.44
329.972	64.44
330.201	90.44
330.43	77.44
330.658	97.44
330.887	81.44
331.115	89.44
331.344	91.44
331.572	84.44
331.801	91.44
332.03	82.44
332.258	81.44
332.486	77.44
332.715	76.44
332.943	91.44
333.172	71.44
333.4	101.44
333.629	84.44
333.857	73.44
334.085	105.44
334.314	87.44
334.542	87.44
334.771	78.44
334.999	87.44
335.227	76.44
335.455	74.44
335.684	81.44
335.912	88.44
336.14	85.44
336.369	82.44
336.597	102.44
336.825	89.44
337.053	79.44
337.281	85.44
337.51	83.44
337.738	93.44
337.966	84.44
338.194	81.44
338.422	82.44
338.65	91.44
338.878	82.44
339.106	87.44
339.334	90.44
339.562	86.44
339.79	91.44
340.018	84.44
340.246	83.44
340.474	92.44
340.702	90.44
340.93	80.44
341.158	76.44
341.386	86.44
341.614	84.44
341.842	91.44
342.07	85.44
342.298	94.44
342.526	75.44
342.754	81.44
342.981	80.44
343.209	88.44
343.437	104.44
343.665	74.44
343.893	92.44
344.12	104.44
344.348	77.44
344.576	75.44
344.804	76.44
345.031	90.44
345.259	91.44
345.487	77.44
345.714	76.44
345.942	71.44
346.17	89.44
346.397	84.44
346.625	86.44
346.853	96.44
347.08	74.44
347.308	88.44
347.535	95.44
347.763	84.44
347.99	77.44
348.218	69.44
348.445	80.44
348.673	91.44
348.9	88.44
349.128	74.44
349.355	78.44
349.583	76.44
349.81	85.44
350.037	82.44
350.265	71.44
350.492	87.44
350.72	86.44
350.947	76.44
351.174	84.44
351.402	87.44
351.629	82.44
351.856	78.44
352.083	82.44
352.311	87.44
352.538	100.44
352.765	94.44
352.992	96.44
353.22	92.44
353.447	89.44
353.674	81.44
353.901	87.44
354.128	83.44
354.355	86.44
354.583	75.44
354.81	78.44
355.037	80.44
355.264	79.44
355.491	80.44
355.718	82.44
355.945	86.44
356.172	85.44
356.399	72.44
356.626	65.44
356.853	84.44
357.08	97.44
357.307	101.44
357.534	100.44
357.761	89.44
357.988	104.44
358.215	90.44
358.441	71.44
358.668	84.44
358.895	87.44
359.122	71.44
359.349	98.44
359.576	85.44
359.802	98.44
360.029	77.44
360.256	64.44
360.483	73.44
360.709	77.44
360.936	84.44
361.163	86.44
361.39	68.44
361.616	86.44
361.843	91.44
362.07	83.44
362.296	96.44
362.523	88.44
362.749	99.44
362.976	85.44
363.203	93.44
363.429	77.44
363.656	98.44
363.882	113.44
364.109	107.44
364.335	97.44
364.562	62.44
364.788	76.44
365.015	92.44
365.241	76.44
365.468	82.44
365.694	75.44
365.92	80.44
366.147	85.44
366.373	89.44
366.599	81.44
366.826	90.44
367.052	98.44
367.278	81.44
367.505	88.44
367.731	86.44
367.957	88.44
368.184	99.44
368.41	122.44
368.636	115.44
368.862	84.44
369.089	87.44
369.315	75.44
369.541	78.44
369.767	96.44
369.993	74.44
370.219	76.44
370.445	88.44
370.672	76.44
370.898	78.44
371.124	90.44
371.35	86.44
371.576	89.44
371.802	72.44
372.028	85.44
372.254	92.44
372.48	80.44
372.706	83.44
372.932	82.44
373.158	86.44
373.384	79.44
373.61	88.44
373.835	91.44
374.061	98.44
374.287	91.44
374.513	96.44
374.739	87.44
374.965	67.44
375.191	85.44
375.416	86.44
375.642	80.44
375.868	84.44
376.094	74.44
376.319	81.44
376.545	83.44
376.771	91.44
376.997	72.44
377.222	73.44
377.448	88.44
377.674	84.44
377.899	84.44
378.125	72.44
378.35	80.44
378.576	83.44
378.802	84.44
379.027	76.44
379.253	76.44
379.478	90.44
379.704	86.44
379.929	91.44
380.155	70.44
380.38	78.44
380.606	77.44
380.831	75.44
381.057	86.44
381.282	80.44
381.507	79.44
381.733	90.44
381.958	81.44
382.184	77.44
382.409	83.44
382.634	95.44
382.86	85.44
383.085	74.44
383.31	78.44
383.535	92.44
383.761	77.44
383.986	99.44
384.211	82.44
384.436	74.44
384.662	81.44
384.887	78.44
385.112	98.44
385.337	81.44
385.562	87.44
385.787	98.44
386.013	81.44
386.238	84.44
386.463	84.44
386.688	91.44
386.913	79.44
387.138	77.44
387.363	70.44
387.588	86.44
387.813	82.44
388.038	82.44
388.263	82.44
388.488	86.44
388.713	76.44
388.938	79.44
389.163	92.44
389.387	86.44
389.612	85.44
389.837	81.44
390.062	76.44
390.287	85.44
390.512	84.44
390.736	85.44
390.961	84.44
391.186	88.44
391.411	95.44
391.636	73.44
391.86	84.44
392.085	79.44
392.31	84.44
392.534	86.44
392.759	64.44
392.984	84.44
393.208	89.44
393.433	96.44
393.658	92.44
393.882	86.44
394.107	85.44
394.331	92.44
394.556	83.44
394.78	90.44
395.005	86.44
395.229	96.44
395.454	84.44
395.678	78.44
395.903	86.44
396.127	100.44
396.352	93.44
396.576	91.44
396.801	90.44
397.025	73.44
397.249	98.44
397.474	80.44
397.698	84.44
397.922	87.44
398.147	76.44
398.371	77.44
398.595	88.44
398.82	89.44
399.044	95.44
399.268	83.44
399.492	77.44
399.717	82.44
399.941	79.44
400.165	72.44
400.389	73.44
400.613	72.44
400.837	82.44
401.062	81.44
401.286	85.44
401.51	89.44
401.734	97.44
401.958	82.44
402.182	90.44
402.406	92.44
402.63	86.44
402.854	102.44
403.078	71.44
403.302	75.44
403.526	84.44
403.75	86.44
403.974	85.44
404.198	93.44
404.422	97.44
404.645	103.44
404.869	82.44
405.093	84.44
405.317	92.44
405.541	120.44
405.765	143.44
405.988	149.44
406.212	107.44
406.436	97.44
406.66	68.44
406.883	82.44
407.107	82.44
407.331	90.44
407.555	94.44
407.778	88.44
408.002	86.44
408.226	62.44
408.449	75.44
408.673	74.44
408.896	64.44
409.12	81.44
409.344	91.44
409.567	82.44
409.791	94.44
410.014	78.44
410.238	67.44
410.461	88.44
410.685	93.44
410.908	100.44
411.132	77.44
411.355	57.44
411.578	77.44
411.802	98.44
412.025	92.44
412.249	90.44
412.472	80.44
412.695	87.44
412.919	77.44
413.142	79.44
413.365	84.44
413.589	80.44
413.812	79.44
414.035	88.44
414.258	77.44
414.482	81.44
414.705	92.44
414.928	94.44
415.151	71.44
415.374	93.44
415.597	76.44
415.821	79.44
416.044	64.44
416.267	88.44
416.49	88.44
416.713	78.44
416.936	90.44
417.159	90.44
417.382	99.44
417.605	86.44
417.828	88.44
418.051	71.44
418.274	86.44
418.497	66.44
418.72	78.44
418.943	80.44
419.166	78.44
419.389	84.44
419.611	86.44
419.834	78.44
420.057	78.44
420.28	83.44
420.503	92.44
420.726	77.44
420.948	71.44
421.171	75.44
421.394	85.44
421.617	84.44
421.839	81.44
422.062	76.44
422.285	74.44
422.507	70.44
422.73	87.44
422.953	92.44
423.175	99.44
423.398	91.44
423.621	81.44
423.843	83.44
424.066	85.44
424.288	87.44
424.511	87.44
424.733	92.44
424.956	85.44
425.178	77.44
425.401	86.44
425.623	82.44
425.846	69.44
426.068	91.44
426.291	87.44
426.513	82.44
426.735	73.44
426.958	82.44
427.18	94.44
427.402	97.44
427.625	74.44
427.847	78.44
428.069	89.44
428.292	85.44
428.514	77.44
428.736	97.44
428.958	90.44
429.181	89.44
429.403	96.44
429.625	77.44
429.847	88.44
430.069	80.44
430.292	84.44
430.514	91.44
430.736	82.44
430.958	78.44
431.18	74.44
431.402	75.44
431.624	77.44
431.846	86.44
432.068	78.44
432.29	89.44
432.512	85.44
432.734	72.44
432.956	96.44
433.178	90.44
433.4	94.44
433.622	89.44
433.844	90.44
434.066	77.44
434.287	77.44
434.509	79.44
434.731	72.44
434.953	94.44
435.175	86.44
435.397	85.44
435.618	80.44
435.84	81.44
436.062	78.44
436.284	74.44
436.505	91.44
436.727	83.44
436.949	77.44
437.17	86.44
437.392	66.44
437.614	77.44
437.835	88.44
438.057	75.44
438.278	72.44
438.5	96.44
438.721	93.44
438.943	88.44
439.165	87.44
439.386	83.44
439.608	78.44
439.829	78.44
440.05	90.44
440.272	90.44
440.493	84.44
440.715	92.44
440.936	99.44
441.158	100.44
441.379	100.44
441.6	76.44
441.822	89.44
442.043	92.44
442.264	69.44
442.486	83.44
442.707	84.44
442.928	84.44
443.149	82.44
443.371	93.44
443.592	72.44
443.813	87.44
444.034	84.44
444.255	87.44
444.476	83.44
444.698	78.44
444.919	68.44
445.14	151.44
445.361	123.44
445.582	78.44
445.803	72.44
446.024	78.44
446.245	77.44
446.466	68.44
446.687	82.44
446.908	88.44
447.129	82.44
447.35	71.44
447.571	84.44
447.792	84.44
448.013	78.44
448.234	78.44
448.455	89.44
448.675	84.44
448.896	69.44
449.117	88.44
449.338	76.44
449.559	96.44
449.779	82.44
450	68.44
450.221	84.44
450.442	82.44
450.662	77.44
450.883	86.44
451.104	74.44
451.324	92.44
451.545	81.44
451.766	84.44
451.986	83.44
452.207	94.44
452.428	92.44
452.648	82.44
452.869	73.44
453.089	88.44
453.31	81.44
453.53	83.44
453.751	88.44
453.971	93.44
454.192	82.44
454.412	91.44
454.633	80.44
454.853	85.44
455.073	88.44
455.294	84.44
455.514	73.44
455.734	86.44
455.955	82.44
456.175	66.44
456.395	85.44
456.616	88.44
456.836	77.44
457.056	80.44
457.276	74.44
457.497	71.44
457.717	85.44
457.937	77.44
458.157	81.44
458.377	78.44
458.598	79.44
458.818	93.44
459.038	80.44
459.258	79.44
459.478	78.44
459.698	84.44
459.918	75.44
460.138	81.44
460.358	66.44
460.578	81.44
460.798	79.44
461.018	78.44
461.238	79.44
461.458	94.44
461.678	86.44
461.898	86.44
462.118	85.44
462.338	88.44
462.558	100.44
462.777	97.44
462.997	94.44
463.217	72.44
463.437	82.44
463.657	77.44
463.876	85.44
464.096	86.44
464.316	101.44
464.536	73.44
464.755	93.44
464.975	82.44
465.195	90.44
465.414	86.44
465.634	88.44
465.854	77.44
466.073	96.44
466.293	80.44
466.512	83.44
466.732	93.44
466.951	92.44
467.171	76.44
467.391	76.44
467.61	89.44
467.829	92.44
468.049	82.44
468.268	87.44
468.488	98.44
468.707	85.44
468.927	70.44
469.146	85.44
469.365	80.44
469.585	91.44
469.804	81.44
470.023	82.44
470.243	83.44
470.462	74.44
470.681	92.44
470.901	91.44
471.12	86.44
471.339	93.44
471.558	91.44
471.777	92.44
471.997	90.44
472.216	92.44
472.435	96.44
472.654	90.44
472.873	93.44
473.092	77.44
473.311	85.44
473.53	82.44
473.749	69.44
473.968	77.44
474.187	68.44
474.406	90.44
474.625	88.44
474.844	85.44
475.063	86.44
475.282	80.44
475.501	93.44
475.72	78.44
475.939	84.44
476.158	88.44
476.377	81.44
476.596	75.44
476.814	84.44
477.033	88.44
477.252	76.44
477.471	83.44
477.69	74.44
477.908	84.44
478.127	80.44
478.346	80.44
478.564	102.44
478.783	73.44
479.002	91.44
479.22	93.44
479.439	83.44
479.658	81.44
479.876	93.44
480.095	80.44
480.313	70.44
480.532	77.44
480.751	90.44
480.969	83.44
481.188	93.44
481.406	88.44
481.624	70.44
481.843	84.44
482.061	85.44
482.28	80.44
482.498	88.44
482.717	75.44
482.935	74.44
483.153	75.44
483.372	89.44
483.59	74.44
483.808	84.44
484.027	71.44
484.245	77.44
484.463	108.44
484.681	89.44
484.9	82.44
485.118	99.44
485.336	96.44
485.554	91.44
485.772	88.44
485.99	81.44
486.209	84.44
486.427	68.44
486.645	75.44
486.863	92.44
487.081	86.44
487.299	71.44
487.517	95.44
487.735	89.44
487.953	90.44
488.171	84.44
488.389	91.44
488.607	93.44
488.825	87.44
489.043	100.44
489.261	79.44
489.479	76.44
489.696	73.44
489.914	88.44
490.132	82.44
490.35	80.44
490.568	78.44
490.786	80.44
491.003	74.44
491.221	78.44
491.439	92.44
491.657	80.44
491.874	90.44
492.092	94.44
492.31	92.44
492.527	71.44
492.745	100.44
492.963	90.44
493.18	87.44
493.398	74.44
493.615	72.44
493.833	94.44
494.05	74.44
494.268	72.44
494.485	96.44
494.703	87.44
494.92	84.44
495.138	76.44
495.355	83.44
495.573	76.44
495.79	91.44
496.008	84.44
496.225	93.44
496.442	95.44
496.66	87.44
496.877	94.44
497.094	89.44
497.312	86.44
497.529	95.44
497.746	81.44
497.963	90.44
498.181	82.44
498.398	70.44
498.615	85.44
498.832	88.44
499.049	79.44
499.267	81.44
499.484	91.44
499.701	83.44
499.918	86.44
500.135	92.44
500.352	92.44
500.569	84.44
500.786	91.44
501.003	80.44
501.22	79.44
501.437	76.44
501.654	88.44
501.871	89.44
502.088	90.44
502.305	83.44
502.522	84.44
502.739	98.44
502.956	91.44
503.172	64.44
503.389	82.44
503.606	78.44
503.823	73.44
504.04	93.44
504.256	71.44
504.473	74.44
504.69	94.44
504.907	93.44
505.123	69.44
505.34	68.44
505.557	89.44
505.773	90.44
505.99	88.44
506.207	76.44
506.423	79.44
506.64	94.44
506.856	84.44
507.073	96.44
507.289	92.44
507.506	87.44
507.722	86.44
507.939	92.44
508.155	75.44
508.372	86.44
508.588	92.44
508.805	80.44
509.021	90.44
509.238	98.44
509.454	85.44
509.67	82.44
509.887	81.44
510.103	90.44
510.319	89.44
510.536	71.44
510.752	95.44
510.968	83.44
511.184	85.44
511.401	85.44
511.617	86.44
511.833	86.44
512.049	79.44
512.265	89.44
512.481	83.44
512.698	89.44
512.914	94.44
513.13	92.44
513.346	72.44
513.562	79.44
513.778	79.44
513.994	88.44
514.21	91.44
514.426	77.44
514.642	70.44
514.858	94.44
515.074	78.44
515.29	73.44
515.506	60.44
515.721	82.44
515.937	93.44
516.153	84.44
516.369	60.44
516.585	74.44
516.801	84.44
517.016	88.44
517.232	88.44
517.448	77.44
517.664	76.44
517.879	82.44
518.095	90.44
518.311	88.44
518.527	79.44
518.742	75.44
518.958	73.44
519.173	63.44
519.389	84.44
519.605	88.44
519.82	83.44
520.036	91.44
520.251	96.44
520.467	83.44
520.682	83.44
520.898	85.44
521.113	93.44
521.329	100.44
521.544	97.44
521.76	70.44
521.975	88.44
522.19	90.44
522.406	97.44
522.621	84.44
522.836	96.44
523.052	93.44
523.267	96.44
523.482	91.44
523.698	76.44
523.913	90.44
524.128	94.44
524.343	74.44
524.559	95.44
524.774	92.44
524.989	79.44
525.204	93.44
525.419	84.44
525.634	72.44
525.849	84.44
526.064	76.44
526.28	84.44
526.495	79.44
526.71	78.44
526.925	78.44
527.14	104.44
527.355	89.44
527.57	77.44
527.785	89.44
527.999	82.44
528.214	83.44
528.429	76.44
528.644	91.44
528.859	89.44
529.074	94.44
529.289	91.44
529.503	84.44
529.718	77.44
529.933	80.44
530.148	82.44
530.363	82.44
530.577	95.44
530.792	76.44
531.007	82.44
531.221	86.44
531.436	79.44
531.651	96.44
531.865	70.44
532.08	71.44
532.295	84.44
532.509	75.44
532.724	86.44
532.938	94.44
533.153	84.44
533.367	97.44
533.582	103.44
533.796	85.44
534.011	94.44
534.225	76.44
534.44	88.44
534.654	73.44
534.868	72.44
535.083	78.44
535.297	87.44
535.511	77.44
535.726	81.44
535.94	82.44
536.154	72.44
536.369	85.44
536.583	92.44
536.797	99.44
537.011	83.44
537.225	91.44
537.44	89.44
537.654	91.44
537.868	72.44
538.082	82.44
538.296	90.44
538.51	85.44
538.724	87.44
538.938	78.44
539.153	88.44
539.367	86.44
539.581	74.44
539.795	86.44
540.009	72.44
540.222	91.44
540.436	91.44
540.65	94.44
540.864	62.44
541.078	96.44
541.292	98.44
541.506	91.44
541.72	100.44
541.934	91.44
542.147	84.44
542.361	84.44
542.575	79.44
542.789	84.44
543.002	68.44
543.216	88.44
543.43	78.44
543.644	70.44
543.857	87.44
544.071	93.44
544.285	87.44
544.498	86.44
544.712	87.44
544.925	78.44
545.139	84.44
545.352	86.44
545.566	74.44
545.779	93.44
545.993	85.44
546.206	77.44
546.42	89.44
546.633	94.44
546.847	93.44
547.06	89.44
547.274	82.44
547.487	81.44
547.7	87.44
547.914	72.44
548.127	75.44
548.34	84.44
548.554	91.44
548.767	90.44
548.98	82.44
549.193	96.44
549.407	76.44
549.62	96.44
549.833	87.44
550.046	76.44
550.259	64.44
550.473	89.44
550.686	88.44
550.899	89.44
551.112	73.44
551.325	69.44
551.538	88.44
551.751	109.44
551.964	89.44
552.177	93.44
552.39	82.44
552.603	79.44
552.816	89.44
553.029	75.44
553.242	79.44
553.455	84.44
553.667	80.44
553.88	71.44
554.093	69.44
554.306	80.44
554.519	81.44
554.732	89.44
554.944	78.44
555.157	78.44
555.37	72.44
555.583	77.44
555.795	90.44
556.008	86.44
556.221	87.44
556.433	83.44
556.646	91.44
556.859	90.44
557.071	88.44
557.284	84.44
557.496	90.44
557.709	68.44
557.921	93.44
558.134	81.44
558.346	94.44
558.559	94.44
558.771	83.44
558.984	79.44
559.196	89.44
559.409	94.44
559.621	79.44
559.833	82.44
560.046	83.44
560.258	84.44
560.47	89.44
560.683	90.44
560.895	72.44
561.107	93.44
561.32	86.44
561.532	84.44
561.744	81.44
561.956	74.44
562.168	73.44
562.381	82.44
562.593	88.44
562.805	78.44
563.017	80.44
563.229	94.44
563.441	75.44
563.653	77.44
563.865	86.44
564.077	89.44
564.289	90.44
564.501	91.44
564.713	100.44
564.925	96.44
565.137	69.44
565.349	70.44
565.561	77.44
565.773	80.44
565.985	80.44
566.197	92.44
566.408	82.44
566.62	78.44
566.832	80.44
567.044	90.44
567.255	79.44
567.467	88.44
567.679	71.44
567.891	81.44
568.102	92.44
568.314	81.44
568.526	94.44
568.737	89.44
568.949	70.44
569.161	92.44
569.372	68.44
569.584	77.44
569.795	84.44
570.007	82.44
570.218	94.44
570.43	81.44
570.641	84.44
570.853	83.44
571.064	101.44
571.276	90.44
571.487	81.44
571.698	84.44
571.91	89.44
572.121	88.44
572.333	92.44
572.544	92.44
572.755	85.44
572.966	92.44
573.178	82.44
573.389	93.44
573.6	103.44
573.811	103.44
574.023	77.44
574.234	94.44
574.445	93.44
574.656	73.44
574.867	72.44
575.078	81.44
575.289	79.44
575.501	88.44
575.712	66.44
575.923	84.44
576.134	83.44
576.345	95.44
576.556	89.44
576.767	82.44
576.978	74.44
577.188	80.44
577.399	85.44
577.61	91.44
577.821	86.44
578.032	80.44
578.243	81.44
578.454	91.44
578.665	113.44
578.875	78.44
579.086	76.44
579.297	77.44
579.508	80.44
579.718	92.44
579.929	91.44
580.14	85.44
580.35	89.44
580.561	91.44
580.772	74.44
580.982	89.44
581.193	78.44
581.403	87.44
581.614	68.44
581.825	95.44
582.035	84.44
582.246	102.44
582.456	81.44
582.667	84.44
582.877	78.44
583.087	77.44
583.298	95.44
583.508	82.44
583.719	76.44
583.929	89.44
584.139	77.44
584.35	79.44
584.56	85.44
584.77	81.44
584.981	93.44
585.191	97.44
585.401	89.44
585.611	106.44
585.821	91.44
586.032	83.44
586.242	89.44
586.452	88.44
586.662	87.44
586.872	91.44
587.082	88.44
587.292	84.44
587.502	94.44
587.713	89.44
587.923	85.44
588.133	96.44
588.343	72.44
588.553	82.44
588.762	107.44
588.972	109.44
589.182	183.44
589.392	133.44
589.602	108.44
589.812	154.44
590.022	105.44
590.232	94.44
590.441	93.44
590.651	86.44
590.861	98.44
591.071	84.44
591.281	95.44
591.49	98.44
591.7	84.44
591.91	94.44
592.119	97.44
592.329	80.44
592.539	80.44
592.748	75.44
592.958	70.44
593.167	80.44
593.377	71.44
593.587	84.44
593.796	80.44
594.006	81.44
594.215	74.44
594.424	76.44
594.634	77.44
594.843	77.44
595.053	85.44
595.262	78.44
595.472	75.44
595.681	87.44
595.89	73.44
596.1	87.44
596.309	97.44
596.518	72.44
596.727	84.44
596.937	87.44
597.146	90.44
597.355	85.44
597.564	96.44
597.774	78.44
597.983	84.44
598.192	68.44
598.401	70.44
598.61	83.44
598.819	81.44
599.028	85.44
599.237	75.44
599.446	78.44
599.655	83.44
599.864	84.44
600.073	83.44
600.282	84.44
600.491	73.44
600.7	76.44
600.909	74.44
601.118	83.44
601.327	80.44
601.536	71.44
601.745	83.44
601.953	84.44
602.162	77.44
602.371	82.44
602.58	88.44
602.789	71.44
602.997	73.44
603.206	87.44
603.415	76.44
603.623	94.44
603.832	83.44
604.041	77.44
604.249	84.44
604.458	85.44
604.666	81.44
604.875	87.44
605.084	88.44
605.292	84.44
605.501	84.44
605.709	83.44
605.918	66.44
606.126	84.44
606.334	87.44
606.543	81.44
606.751	89.44
606.96	81.44
607.168	91.44
607.376	78.44
607.585	93.44
607.793	86.44
608.001	75.44
608.21	91.44
608.418	80.44
608.626	91.44
608.834	92.44
609.043	91.44
609.251	96.44
609.459	78.44
609.667	81.44
609.875	88.44
610.083	96.44
610.291	85.44
610.499	91.44
610.707	95.44
610.916	85.44
611.124	91.44
611.332	84.44
611.54	75.44
611.748	72.44
611.955	84.44
612.163	89.44
612.371	104.44
612.579	93.44
612.787	89.44
612.995	90.44
613.203	100.44
613.411	82.44
613.618	101.44
613.826	92.44
614.034	70.44
614.242	94.44
614.449	81.44
614.657	82.44
614.865	86.44
615.072	85.44
615.28	86.44
615.488	77.44
615.695	81.44
615.903	92.44
616.111	92.44
616.318	83.44
616.526	75.44
616.733	92.44
616.941	82.44
617.148	84.44
617.356	89.44
617.563	77.44
617.771	82.44
617.978	87.44
618.185	80.44
618.393	78.44
618.6	83.44
618.807	78.44
619.015	76.44
619.222	87.44
619.429	87.44
619.637	101.44
619.844	83.44
620.051	91.44
620.258	62.44
620.466	83.44
620.673	73.44
620.88	77.44
621.087	78.44
621.294	82.44
621.501	92.44
621.708	70.44
621.915	89.44
622.122	82.44
622.329	88.44
622.536	91.44
622.743	67.44
622.95	84.44
623.157	88.44
623.364	82.44
623.571	94.44
623.778	84.44
623.985	104.44
624.192	93.44
624.399	84.44
624.606	89.44
624.812	94.44
625.019	94.44
625.226	92.44
625.433	81.44
625.639	93.44
625.846	81.44
626.053	60.44
626.259	76.44
626.466	69.44
626.673	73.44
626.879	85.44
627.086	86.44
627.293	80.44
627.499	86.44
627.706	72.44
627.912	99.44
628.119	91.44
628.325	76.44
628.532	96.44
628.738	89.44
628.945	87.44
629.151	76.44
629.357	69.44
629.564	68.44
629.77	77.44
629.976	82.44
630.183	74.44
630.389	95.44
630.595	70.44
630.802	91.44
631.008	82.44
631.214	84.44
631.42	66.44
631.627	92.44
631.833	96.44
632.039	86.44
632.245	79.44
632.451	72.44
632.657	94.44
632.863	77.44
633.069	77.44
633.275	89.44
633.481	90.44
633.688	82.44
633.893	85.44
634.099	75.44
634.305	96.44
634.511	94.44
634.717	94.44
634.923	90.44
635.129	78.44
635.335	72.44
635.541	90.44
635.747	88.44
635.952	92.44
636.158	84.44
636.364	84.44
636.57	83.44
636.775	86.44
636.981	80.44
637.187	80.44
637.392	77.44
637.598	77.44
637.804	80.44
638.009	81.44
638.215	77.44
638.421	79.44
638.626	96.44
638.832	69.44
639.037	80.44
639.243	80.44
639.448	77.44
639.654	94.44
639.859	88.44
640.065	81.44
640.27	83.44
640.475	89.44
640.681	100.44
640.886	91.44
641.091	84.44
641.297	84.44
641.502	91.44
641.707	86.44
641.913	80.44
642.118	78.44
642.323	77.44
642.528	88.44
642.733	81.44
642.939	87.44
643.144	75.44
643.349	84.44
643.554	78.44
643.759	75.44
643.964	71.44
644.169	86.44
644.374	89.44
644.579	109.44
644.784	85.44
644.989	77.44
645.194	90.44
645.399	74.44
645.604	71.44
645.809	73.44
646.014	82.44
646.219	78.44
646.423	85.44
646.628	90.44
646.833	104.44
647.038	94.44
647.243	83.44
647.447	78.44
647.652	65.44
647.857	88.44
648.062	81.44
648.266	76.44
648.471	80.44
648.676	77.44
648.88	79.44
649.085	93.44
649.289	84.44
649.494	94.44
649.698	90.44
649.903	68.44
650.107	81.44
650.312	83.44
650.516	81.44
650.721	83.44
650.925	74.44
651.13	80.44
651.334	97.44
651.539	89.44
651.743	85.44
651.947	85.44
652.152	93.44
652.356	88.44
652.56	90.44
652.764	85.44
652.969	92.44
653.173	85.44
653.377	70.44
653.581	84.44
653.785	98.44
653.99	72.44
654.194	75.44
654.398	88.44
654.602	79.44
654.806	86.44
655.01	77.44
655.214	82.44
655.418	78.44
655.622	103.44
655.826	98.44
656.03	90.44
656.234	80.44
656.438	72.44
656.642	79.44
656.846	80.44
657.049	87.44
657.253	89.44
657.457	93.44
657.661	69.44
657.865	89.44
658.068	86.44
658.272	79.44
658.476	92.44
658.68	80.44
658.883	75.44
659.087	89.44
659.291	88.44
659.494	91.44
659.698	74.44
659.901	88.44
660.105	71.44
660.309	75.44
660.512	81.44
660.716	92.44
660.919	93.44
661.123	84.44
661.326	83.44
661.53	72.44
661.733	77.44
661.936	90.44
662.14	79.44
662.343	90.44
662.546	79.44
662.75	92.44
662.953	86.44
663.156	86.44
663.36	72.44
663.563	79.44
663.766	92.44
663.969	84.44
664.173	84.44
664.376	70.44
664.579	81.44
664.782	82.44
664.985	86.44
665.188	67.44
665.391	75.44
665.594	78.44
665.797	96.44
666	85.44
666.203	75.44
666.406	75.44
666.609	84.44
666.812	77.44
667.015	100.44
667.218	91.44
667.421	69.44
667.624	91.44
667.827	78.44
668.03	78.44
668.232	77.44
668.435	84.44
668.638	89.44
668.841	76.44
669.043	76.44
669.246	74.44
669.449	81.44
669.651	73.44
669.854	73.44
670.057	78.44
670.259	89.44
670.462	85.44
670.665	76.44
670.867	84.44
671.07	65.44
671.272	80.44
671.475	64.44
671.677	71.44
671.88	72.44
672.082	92.44
672.284	89.44
672.487	75.44
672.689	83.44
672.892	73.44
