Data from Lead_HRD10591_00035.txt Node
Date: Tue Feb 17 14:14:03 EST 2026
User: Yrep
Spectrometer: HR+D1059
Trigger mode: 1
Integration Time (sec): 1.000000E-1
Scans to average: 1
Electric dark correction enabled: true
Nonlinearity correction enabled: false
Boxcar width: 0
XAxis mode: Wavelengths
Number of Pixels in Spectrum: 2048
>>>>>Begin Spectral Data<<<<<
223.165	-10.5
223.4	-10.5
223.635	-10.5
223.869	-12.5
224.104	-15.5
224.338	-14.5
224.573	-25.5
224.808	-23.5
225.042	-19.5
225.277	15.5
225.511	-1.5
225.746	-11.5
225.98	3.5
226.215	18.5
226.449	12.5
226.683	22.5
226.918	24.5
227.152	37.5
227.387	34.5
227.621	38.5
227.856	51.5
228.09	58.5
228.324	61.5
228.559	54.5
228.793	49.5
229.027	63.5
229.262	65.5
229.496	56.5
229.73	58.5
229.964	69.5
230.199	66.5
230.433	73.5
230.667	77.5
230.901	68.5
231.136	73.5
231.37	77.5
231.604	91.5
231.838	98.5
232.072	92.5
232.306	88.5
232.541	78.5
232.775	86.5
233.009	83.5
233.243	97.5
233.477	81.5
233.711	92.5
233.945	77.5
234.179	72.5
234.413	82.5
234.647	71.5
234.881	78.5
235.115	86.5
235.349	63.5
235.583	84.5
235.817	84.5
236.051	96.5
236.285	69.5
236.519	72.5
236.753	68.5
236.987	70.5
237.221	84.5
237.455	66.5
237.689	71.5
237.922	75.5
238.156	79.5
238.39	74.5
238.624	70.5
238.858	75.5
239.091	72.5
239.325	75.5
239.559	79.5
239.793	67.5
240.027	77.5
240.26	72.5
240.494	84.5
240.728	70.5
240.961	75.5
241.195	76.5
241.429	84.5
241.662	86.5
241.896	64.5
242.13	61.5
242.363	75.5
242.597	65.5
242.83	78.5
243.064	83.5
243.298	75.5
243.531	63.5
243.765	78.5
243.998	70.5
244.232	79.5
244.465	74.5
244.699	71.5
244.932	86.5
245.166	77.5
245.399	88.5
245.633	70.5
245.866	68.5
246.099	66.5
246.333	81.5
246.566	83.5
246.8	82.5
247.033	73.5
247.266	66.5
247.5	88.5
247.733	84.5
247.966	75.5
248.2	74.5
248.433	77.5
248.666	80.5
248.899	85.5
249.133	85.5
249.366	83.5
249.599	85.5
249.832	68.5
250.066	84.5
250.299	68.5
250.532	67.5
250.765	76.5
250.998	91.5
251.231	88.5
251.465	73.5
251.698	77.5
251.931	82.5
252.164	93.5
252.397	70.5
252.63	75.5
252.863	76.5
253.096	70.5
253.329	84.5
253.562	81.5
253.795	75.5
254.028	84.5
254.261	75.5
254.494	52.5
254.727	78.5
254.96	81.5
255.193	80.5
255.426	71.5
255.659	78.5
255.892	83.5
256.124	85.5
256.357	82.5
256.59	98.5
256.823	76.5
257.056	82.5
257.289	80.5
257.521	82.5
257.754	80.5
257.987	75.5
258.22	83.5
258.452	80.5
258.685	70.5
258.918	64.5
259.151	99.5
259.383	76.5
259.616	69.5
259.849	77.5
260.081	76.5
260.314	86.5
260.547	76.5
260.779	74.5
261.012	92.5
261.244	79.5
261.477	82.5
261.71	100.5
261.942	82.5
262.175	81.5
262.407	77.5
262.64	94.5
262.872	87.5
263.105	80.5
263.337	82.5
263.57	90.5
263.802	78.5
264.035	88.5
264.267	67.5
264.499	82.5
264.732	79.5
264.964	84.5
265.197	88.5
265.429	88.5
265.661	73.5
265.894	82.5
266.126	79.5
266.358	88.5
266.591	77.5
266.823	82.5
267.055	69.5
267.287	77.5
267.52	72.5
267.752	63.5
267.984	85.5
268.216	82.5
268.448	83.5
268.681	102.5
268.913	68.5
269.145	86.5
269.377	88.5
269.609	79.5
269.841	72.5
270.073	83.5
270.306	85.5
270.538	83.5
270.77	78.5
271.002	74.5
271.234	74.5
271.466	90.5
271.698	58.5
271.93	81.5
272.162	62.5
272.394	91.5
272.626	82.5
272.858	82.5
273.09	81.5
273.322	91.5
273.553	87.5
273.785	85.5
274.017	79.5
274.249	93.5
274.481	78.5
274.713	86.5
274.945	86.5
275.176	79.5
275.408	81.5
275.64	80.5
275.872	70.5
276.104	78.5
276.335	77.5
276.567	89.5
276.799	83.5
277.031	85.5
277.262	69.5
277.494	79.5
277.726	76.5
277.957	89.5
278.189	70.5
278.421	86.5
278.652	90.5
278.884	96.5
279.115	84.5
279.347	78.5
279.579	76.5
279.81	76.5
280.042	81.5
280.273	95.5
280.505	82.5
280.736	83.5
280.968	84.5
281.199	83.5
281.431	78.5
281.662	81.5
281.894	76.5
282.125	82.5
282.356	86.5
282.588	96.5
282.819	84.5
283.051	76.5
283.282	97.5
283.513	94.5
283.745	104.5
283.976	73.5
284.207	94.5
284.439	80.5
284.67	84.5
284.901	71.5
285.132	82.5
285.364	96.5
285.595	86.5
285.826	76.5
286.057	88.5
286.288	84.5
286.52	90.5
286.751	74.5
286.982	80.5
287.213	70.5
287.444	86.5
287.675	82.5
287.906	85.5
288.138	91.5
288.369	79.5
288.6	76.5
288.831	81.5
289.062	84.5
289.293	80.5
289.524	98.5
289.755	87.5
289.986	86.5
290.217	76.5
290.448	83.5
290.679	83.5
290.91	94.5
291.141	78.5
291.371	83.5
291.602	74.5
291.833	82.5
292.064	72.5
292.295	87.5
292.526	81.5
292.757	99.5
292.987	80.5
293.218	90.5
293.449	78.5
293.68	88.5
293.91	81.5
294.141	83.5
294.372	72.5
294.603	84.5
294.833	80.5
295.064	94.5
295.295	89.5
295.525	82.5
295.756	96.5
295.987	84.5
296.217	87.5
296.448	76.5
296.679	88.5
296.909	85.5
297.14	102.5
297.37	94.5
297.601	79.5
297.831	99.5
298.062	106.5
298.292	75.5
298.523	94.5
298.753	89.5
298.984	77.5
299.214	74.5
299.445	84.5
299.675	75.5
299.905	87.5
300.136	80.5
300.366	76.5
300.597	84.5
300.827	71.5
301.057	87.5
301.288	93.5
301.518	93.5
301.748	85.5
301.979	83.5
302.209	84.5
302.439	77.5
302.669	78.5
302.9	82.5
303.13	78.5
303.36	88.5
303.59	77.5
303.82	68.5
304.051	77.5
304.281	99.5
304.511	99.5
304.741	75.5
304.971	94.5
305.201	82.5
305.431	87.5
305.661	88.5
305.891	85.5
306.121	82.5
306.352	78.5
306.582	92.5
306.812	87.5
307.042	66.5
307.272	91.5
307.502	86.5
307.731	87.5
307.961	92.5
308.191	87.5
308.421	86.5
308.651	85.5
308.881	83.5
309.111	66.5
309.341	94.5
309.571	101.5
309.8	71.5
310.03	86.5
310.26	98.5
310.49	97.5
310.72	85.5
310.949	75.5
311.179	85.5
311.409	76.5
311.639	80.5
311.868	92.5
312.098	85.5
312.328	80.5
312.557	89.5
312.787	86.5
313.017	75.5
313.246	77.5
313.476	80.5
313.706	94.5
313.935	78.5
314.165	85.5
314.394	90.5
314.624	83.5
314.853	84.5
315.083	92.5
315.312	71.5
315.542	86.5
315.771	88.5
316.001	74.5
316.23	85.5
316.46	86.5
316.689	71.5
316.919	92.5
317.148	85.5
317.377	87.5
317.607	76.5
317.836	75.5
318.065	85.5
318.295	87.5
318.524	92.5
318.753	90.5
318.983	90.5
319.212	84.5
319.441	62.5
319.67	80.5
319.9	58.5
320.129	81.5
320.358	96.5
320.587	88.5
320.816	91.5
321.046	85.5
321.275	100.5
321.504	78.5
321.733	86.5
321.962	92.5
322.191	88.5
322.42	87.5
322.649	75.5
322.878	88.5
323.108	81.5
323.337	90.5
323.566	82.5
323.795	82.5
324.024	86.5
324.253	87.5
324.482	90.5
324.71	96.5
324.939	79.5
325.168	77.5
325.397	85.5
325.626	74.5
325.855	80.5
326.084	76.5
326.313	82.5
326.542	96.5
326.77	91.5
326.999	84.5
327.228	84.5
327.457	84.5
327.686	75.5
327.914	89.5
328.143	96.5
328.372	91.5
328.6	74.5
328.829	86.5
329.058	72.5
329.287	88.5
329.515	82.5
329.744	82.5
329.972	91.5
330.201	82.5
330.43	89.5
330.658	82.5
330.887	89.5
331.115	76.5
331.344	83.5
331.572	85.5
331.801	77.5
332.03	93.5
332.258	62.5
332.486	83.5
332.715	74.5
332.943	88.5
333.172	73.5
333.4	73.5
333.629	100.5
333.857	90.5
334.085	95.5
334.314	87.5
334.542	83.5
334.771	77.5
334.999	84.5
335.227	89.5
335.455	101.5
335.684	76.5
335.912	75.5
336.14	87.5
336.369	84.5
336.597	80.5
336.825	84.5
337.053	87.5
337.281	82.5
337.51	86.5
337.738	82.5
337.966	90.5
338.194	82.5
338.422	80.5
338.65	71.5
338.878	90.5
339.106	90.5
339.334	73.5
339.562	76.5
339.79	97.5
340.018	74.5
340.246	74.5
340.474	79.5
340.702	71.5
340.93	73.5
341.158	96.5
341.386	82.5
341.614	76.5
341.842	83.5
342.07	75.5
342.298	78.5
342.526	74.5
342.754	70.5
342.981	85.5
343.209	84.5
343.437	90.5
343.665	82.5
343.893	90.5
344.12	77.5
344.348	82.5
344.576	74.5
344.804	73.5
345.031	72.5
345.259	75.5
345.487	75.5
345.714	94.5
345.942	82.5
346.17	80.5
346.397	75.5
346.625	80.5
346.853	86.5
347.08	86.5
347.308	87.5
347.535	76.5
347.763	66.5
347.99	76.5
348.218	86.5
348.445	69.5
348.673	78.5
348.9	82.5
349.128	87.5
349.355	74.5
349.583	86.5
349.81	91.5
350.037	90.5
350.265	81.5
350.492	81.5
350.72	81.5
350.947	78.5
351.174	77.5
351.402	75.5
351.629	80.5
351.856	90.5
352.083	78.5
352.311	76.5
352.538	88.5
352.765	79.5
352.992	77.5
353.22	90.5
353.447	89.5
353.674	90.5
353.901	95.5
354.128	80.5
354.355	80.5
354.583	79.5
354.81	78.5
355.037	79.5
355.264	79.5
355.491	71.5
355.718	83.5
355.945	93.5
356.172	90.5
356.399	84.5
356.626	76.5
356.853	88.5
357.08	94.5
357.307	96.5
357.534	74.5
357.761	84.5
357.988	93.5
358.215	84.5
358.441	77.5
358.668	84.5
358.895	89.5
359.122	82.5
359.349	86.5
359.576	68.5
359.802	70.5
360.029	83.5
360.256	94.5
360.483	88.5
360.709	76.5
360.936	92.5
361.163	85.5
361.39	87.5
361.616	81.5
361.843	84.5
362.07	76.5
362.296	90.5
362.523	81.5
362.749	71.5
362.976	88.5
363.203	100.5
363.429	79.5
363.656	103.5
363.882	104.5
364.109	128.5
364.335	99.5
364.562	90.5
364.788	78.5
365.015	81.5
365.241	88.5
365.468	92.5
365.694	87.5
365.92	89.5
366.147	78.5
366.373	76.5
366.599	75.5
366.826	103.5
367.052	82.5
367.278	89.5
367.505	83.5
367.731	88.5
367.957	91.5
368.184	107.5
368.41	119.5
368.636	103.5
368.862	91.5
369.089	87.5
369.315	67.5
369.541	78.5
369.767	88.5
369.993	85.5
370.219	102.5
370.445	76.5
370.672	82.5
370.898	90.5
371.124	75.5
371.35	83.5
371.576	84.5
371.802	71.5
372.028	76.5
372.254	90.5
372.48	81.5
372.706	82.5
372.932	82.5
373.158	83.5
373.384	83.5
373.61	79.5
373.835	94.5
374.061	86.5
374.287	85.5
374.513	75.5
374.739	83.5
374.965	83.5
375.191	66.5
375.416	76.5
375.642	84.5
375.868	88.5
376.094	74.5
376.319	92.5
376.545	80.5
376.771	90.5
376.997	84.5
377.222	86.5
377.448	94.5
377.674	78.5
377.899	88.5
378.125	82.5
378.35	88.5
378.576	82.5
378.802	78.5
379.027	73.5
379.253	75.5
379.478	71.5
379.704	82.5
379.929	80.5
380.155	84.5
380.38	84.5
380.606	69.5
380.831	76.5
381.057	81.5
381.282	60.5
381.507	82.5
381.733	74.5
381.958	79.5
382.184	76.5
382.409	84.5
382.634	93.5
382.86	93.5
383.085	74.5
383.31	73.5
383.535	91.5
383.761	72.5
383.986	62.5
384.211	80.5
384.436	80.5
384.662	69.5
384.887	84.5
385.112	77.5
385.337	78.5
385.562	80.5
385.787	87.5
386.013	94.5
386.238	91.5
386.463	84.5
386.688	96.5
386.913	85.5
387.138	82.5
387.363	76.5
387.588	82.5
387.813	75.5
388.038	78.5
388.263	78.5
388.488	83.5
388.713	82.5
388.938	75.5
389.163	86.5
389.387	88.5
389.612	76.5
389.837	90.5
390.062	87.5
390.287	86.5
390.512	67.5
390.736	86.5
390.961	100.5
391.186	94.5
391.411	82.5
391.636	84.5
391.86	86.5
392.085	87.5
392.31	75.5
392.534	80.5
392.759	81.5
392.984	85.5
393.208	81.5
393.433	89.5
393.658	78.5
393.882	86.5
394.107	75.5
394.331	85.5
394.556	88.5
394.78	89.5
395.005	83.5
395.229	82.5
395.454	82.5
395.678	85.5
395.903	86.5
396.127	97.5
396.352	107.5
396.576	96.5
396.801	84.5
397.025	81.5
397.249	73.5
397.474	94.5
397.698	71.5
397.922	94.5
398.147	72.5
398.371	94.5
398.595	86.5
398.82	84.5
399.044	82.5
399.268	77.5
399.492	74.5
399.717	82.5
399.941	82.5
400.165	83.5
400.389	89.5
400.613	79.5
400.837	82.5
401.062	106.5
401.286	79.5
401.51	82.5
401.734	96.5
401.958	87.5
402.182	76.5
402.406	86.5
402.63	85.5
402.854	82.5
403.078	90.5
403.302	79.5
403.526	89.5
403.75	96.5
403.974	82.5
404.198	83.5
404.422	76.5
404.645	71.5
404.869	76.5
405.093	88.5
405.317	93.5
405.541	113.5
405.765	128.5
405.988	127.5
406.212	97.5
406.436	105.5
406.66	87.5
406.883	75.5
407.107	85.5
407.331	70.5
407.555	68.5
407.778	79.5
408.002	87.5
408.226	82.5
408.449	82.5
408.673	74.5
408.896	63.5
409.12	84.5
409.344	82.5
409.567	75.5
409.791	86.5
410.014	77.5
410.238	80.5
410.461	87.5
410.685	84.5
410.908	83.5
411.132	89.5
411.355	99.5
411.578	84.5
411.802	76.5
412.025	87.5
412.249	81.5
412.472	86.5
412.695	76.5
412.919	80.5
413.142	82.5
413.365	93.5
413.589	80.5
413.812	87.5
414.035	75.5
414.258	78.5
414.482	62.5
414.705	55.5
414.928	60.5
415.151	74.5
415.374	79.5
415.597	83.5
415.821	91.5
416.044	69.5
416.267	83.5
416.49	89.5
416.713	79.5
416.936	86.5
417.159	79.5
417.382	83.5
417.605	81.5
417.828	87.5
418.051	72.5
418.274	84.5
418.497	74.5
418.72	81.5
418.943	85.5
419.166	90.5
419.389	74.5
419.611	70.5
419.834	82.5
420.057	72.5
420.28	89.5
420.503	84.5
420.726	88.5
420.948	93.5
421.171	75.5
421.394	78.5
421.617	81.5
421.839	72.5
422.062	66.5
422.285	86.5
422.507	90.5
422.73	83.5
422.953	74.5
423.175	77.5
423.398	90.5
423.621	72.5
423.843	82.5
424.066	87.5
424.288	68.5
424.511	76.5
424.733	79.5
424.956	86.5
425.178	93.5
425.401	76.5
425.623	75.5
425.846	83.5
426.068	72.5
426.291	84.5
426.513	67.5
426.735	90.5
426.958	91.5
427.18	73.5
427.402	91.5
427.625	83.5
427.847	78.5
428.069	77.5
428.292	81.5
428.514	72.5
428.736	82.5
428.958	94.5
429.181	82.5
429.403	80.5
429.625	75.5
429.847	82.5
430.069	87.5
430.292	86.5
430.514	81.5
430.736	82.5
430.958	77.5
431.18	83.5
431.402	84.5
431.624	75.5
431.846	69.5
432.068	72.5
432.29	85.5
432.512	88.5
432.734	82.5
432.956	82.5
433.178	86.5
433.4	97.5
433.622	84.5
433.844	90.5
434.066	81.5
434.287	85.5
434.509	81.5
434.731	86.5
434.953	80.5
435.175	76.5
435.397	85.5
435.618	78.5
435.84	82.5
436.062	85.5
436.284	92.5
436.505	82.5
436.727	86.5
436.949	80.5
437.17	96.5
437.392	87.5
437.614	82.5
437.835	78.5
438.057	74.5
438.278	82.5
438.5	95.5
438.721	76.5
438.943	86.5
439.165	69.5
439.386	79.5
439.608	76.5
439.829	82.5
440.05	77.5
440.272	76.5
440.493	79.5
440.715	88.5
440.936	80.5
441.158	72.5
441.379	72.5
441.6	84.5
441.822	77.5
442.043	83.5
442.264	73.5
442.486	84.5
442.707	91.5
442.928	90.5
443.149	89.5
443.371	73.5
443.592	70.5
443.813	71.5
444.034	86.5
444.255	84.5
444.476	76.5
444.698	79.5
444.919	81.5
445.14	153.5
445.361	96.5
445.582	78.5
445.803	89.5
446.024	68.5
446.245	76.5
446.466	91.5
446.687	83.5
446.908	80.5
447.129	82.5
447.35	90.5
447.571	89.5
447.792	85.5
448.013	80.5
448.234	67.5
448.455	70.5
448.675	90.5
448.896	78.5
449.117	80.5
449.338	82.5
449.559	84.5
449.779	76.5
450	67.5
450.221	82.5
450.442	76.5
450.662	63.5
450.883	66.5
451.104	88.5
451.324	72.5
451.545	90.5
451.766	89.5
451.986	86.5
452.207	69.5
452.428	82.5
452.648	80.5
452.869	86.5
453.089	83.5
453.31	72.5
453.53	89.5
453.751	91.5
453.971	98.5
454.192	69.5
454.412	83.5
454.633	67.5
454.853	80.5
455.073	95.5
455.294	65.5
455.514	92.5
455.734	82.5
455.955	83.5
456.175	71.5
456.395	67.5
456.616	78.5
456.836	86.5
457.056	67.5
457.276	73.5
457.497	86.5
457.717	72.5
457.937	91.5
458.157	72.5
458.377	84.5
458.598	74.5
458.818	70.5
459.038	71.5
459.258	75.5
459.478	93.5
459.698	80.5
459.918	79.5
460.138	81.5
460.358	71.5
460.578	84.5
460.798	82.5
461.018	84.5
461.238	77.5
461.458	66.5
461.678	86.5
461.898	79.5
462.118	82.5
462.338	91.5
462.558	82.5
462.777	82.5
462.997	68.5
463.217	84.5
463.437	80.5
463.657	92.5
463.876	89.5
464.096	87.5
464.316	88.5
464.536	77.5
464.755	67.5
464.975	80.5
465.195	83.5
465.414	90.5
465.634	66.5
465.854	96.5
466.073	85.5
466.293	86.5
466.512	83.5
466.732	74.5
466.951	83.5
467.171	80.5
467.391	77.5
467.61	78.5
467.829	93.5
468.049	73.5
468.268	81.5
468.488	79.5
468.707	82.5
468.927	87.5
469.146	95.5
469.365	86.5
469.585	84.5
469.804	95.5
470.023	83.5
470.243	77.5
470.462	64.5
470.681	76.5
470.901	81.5
471.12	78.5
471.339	88.5
471.558	74.5
471.777	80.5
471.997	84.5
472.216	73.5
472.435	78.5
472.654	73.5
472.873	94.5
473.092	82.5
473.311	86.5
473.53	71.5
473.749	89.5
473.968	96.5
474.187	80.5
474.406	75.5
474.625	92.5
474.844	73.5
475.063	82.5
475.282	86.5
475.501	71.5
475.72	85.5
475.939	80.5
476.158	77.5
476.377	78.5
476.596	87.5
476.814	72.5
477.033	79.5
477.252	84.5
477.471	100.5
477.69	83.5
477.908	89.5
478.127	87.5
478.346	83.5
478.564	86.5
478.783	75.5
479.002	86.5
479.22	72.5
479.439	64.5
479.658	75.5
479.876	86.5
480.095	93.5
480.313	89.5
480.532	76.5
480.751	92.5
480.969	88.5
481.188	84.5
481.406	80.5
481.624	83.5
481.843	84.5
482.061	84.5
482.28	88.5
482.498	77.5
482.717	84.5
482.935	76.5
483.153	74.5
483.372	78.5
483.59	84.5
483.808	83.5
484.027	76.5
484.245	82.5
484.463	73.5
484.681	86.5
484.9	84.5
485.118	80.5
485.336	80.5
485.554	77.5
485.772	72.5
485.99	81.5
486.209	82.5
486.427	65.5
486.645	87.5
486.863	73.5
487.081	85.5
487.299	96.5
487.517	81.5
487.735	80.5
487.953	83.5
488.171	87.5
488.389	76.5
488.607	84.5
488.825	103.5
489.043	80.5
489.261	76.5
489.479	83.5
489.696	77.5
489.914	68.5
490.132	76.5
490.35	83.5
490.568	81.5
490.786	94.5
491.003	100.5
491.221	84.5
491.439	75.5
491.657	76.5
491.874	79.5
492.092	84.5
492.31	95.5
492.527	84.5
492.745	98.5
492.963	96.5
493.18	95.5
493.398	94.5
493.615	81.5
493.833	82.5
494.05	89.5
494.268	80.5
494.485	86.5
494.703	71.5
494.92	98.5
495.138	102.5
495.355	88.5
495.573	95.5
495.79	82.5
496.008	86.5
496.225	74.5
496.442	81.5
496.66	87.5
496.877	72.5
497.094	76.5
497.312	90.5
497.529	90.5
497.746	95.5
497.963	77.5
498.181	85.5
498.398	81.5
498.615	79.5
498.832	88.5
499.049	91.5
499.267	96.5
499.484	82.5
499.701	75.5
499.918	78.5
500.135	74.5
500.352	72.5
500.569	78.5
500.786	84.5
501.003	78.5
501.22	78.5
501.437	90.5
501.654	67.5
501.871	71.5
502.088	89.5
502.305	84.5
502.522	94.5
502.739	82.5
502.956	86.5
503.172	77.5
503.389	82.5
503.606	81.5
503.823	89.5
504.04	95.5
504.256	71.5
504.473	93.5
504.69	84.5
504.907	76.5
505.123	95.5
505.34	74.5
505.557	72.5
505.773	85.5
505.99	84.5
506.207	70.5
506.423	74.5
506.64	85.5
506.856	88.5
507.073	91.5
507.289	78.5
507.506	78.5
507.722	80.5
507.939	87.5
508.155	89.5
508.372	87.5
508.588	79.5
508.805	71.5
509.021	67.5
509.238	82.5
509.454	100.5
509.67	90.5
509.887	85.5
510.103	91.5
510.319	86.5
510.536	80.5
510.752	90.5
510.968	77.5
511.184	73.5
511.401	70.5
511.617	85.5
511.833	95.5
512.049	96.5
512.265	89.5
512.481	89.5
512.698	84.5
512.914	76.5
513.13	74.5
513.346	81.5
513.562	62.5
513.778	88.5
513.994	93.5
514.21	99.5
514.426	88.5
514.642	89.5
514.858	82.5
515.074	81.5
515.29	81.5
515.506	89.5
515.721	79.5
515.937	81.5
516.153	90.5
516.369	75.5
516.585	82.5
516.801	82.5
517.016	82.5
517.232	92.5
517.448	88.5
517.664	78.5
517.879	74.5
518.095	83.5
518.311	75.5
518.527	82.5
518.742	80.5
518.958	91.5
519.173	88.5
519.389	63.5
519.605	82.5
519.82	74.5
520.036	82.5
520.251	82.5
520.467	81.5
520.682	72.5
520.898	88.5
521.113	76.5
521.329	94.5
521.544	66.5
521.76	80.5
521.975	72.5
522.19	87.5
522.406	89.5
522.621	86.5
522.836	91.5
523.052	91.5
523.267	79.5
523.482	83.5
523.698	85.5
523.913	84.5
524.128	68.5
524.343	97.5
524.559	91.5
524.774	91.5
524.989	87.5
525.204	86.5
525.419	85.5
525.634	87.5
525.849	79.5
526.064	79.5
526.28	83.5
526.495	96.5
526.71	96.5
526.925	70.5
527.14	83.5
527.355	78.5
527.57	72.5
527.785	87.5
527.999	88.5
528.214	77.5
528.429	82.5
528.644	82.5
528.859	84.5
529.074	85.5
529.289	82.5
529.503	88.5
529.718	87.5
529.933	98.5
530.148	88.5
530.363	87.5
530.577	75.5
530.792	88.5
531.007	80.5
531.221	91.5
531.436	76.5
531.651	94.5
531.865	77.5
532.08	80.5
532.295	84.5
532.509	86.5
532.724	79.5
532.938	81.5
533.153	75.5
533.367	93.5
533.582	82.5
533.796	85.5
534.011	81.5
534.225	74.5
534.44	70.5
534.654	88.5
534.868	92.5
535.083	97.5
535.297	88.5
535.511	76.5
535.726	68.5
535.94	84.5
536.154	93.5
536.369	89.5
536.583	75.5
536.797	84.5
537.011	78.5
537.225	76.5
537.44	78.5
537.654	76.5
537.868	84.5
538.082	75.5
538.296	85.5
538.51	89.5
538.724	82.5
538.938	76.5
539.153	91.5
539.367	100.5
539.581	84.5
539.795	89.5
540.009	93.5
540.222	84.5
540.436	76.5
540.65	95.5
540.864	79.5
541.078	91.5
541.292	84.5
541.506	83.5
541.72	89.5
541.934	87.5
542.147	92.5
542.361	82.5
542.575	90.5
542.789	76.5
543.002	80.5
543.216	92.5
543.43	72.5
543.644	89.5
543.857	80.5
544.071	83.5
544.285	80.5
544.498	86.5
544.712	83.5
544.925	83.5
545.139	91.5
545.352	77.5
545.566	85.5
545.779	80.5
545.993	80.5
546.206	84.5
546.42	83.5
546.633	86.5
546.847	90.5
547.06	71.5
547.274	84.5
547.487	86.5
547.7	92.5
547.914	89.5
548.127	82.5
548.34	75.5
548.554	79.5
548.767	88.5
548.98	82.5
549.193	87.5
549.407	86.5
549.62	82.5
549.833	72.5
550.046	70.5
550.259	80.5
550.473	91.5
550.686	85.5
550.899	74.5
551.112	75.5
551.325	80.5
551.538	80.5
551.751	82.5
551.964	95.5
552.177	77.5
552.39	91.5
552.603	93.5
552.816	87.5
553.029	84.5
553.242	92.5
553.455	92.5
553.667	95.5
553.88	86.5
554.093	77.5
554.306	75.5
554.519	91.5
554.732	92.5
554.944	91.5
555.157	89.5
555.37	83.5
555.583	85.5
555.795	90.5
556.008	93.5
556.221	85.5
556.433	82.5
556.646	80.5
556.859	93.5
557.071	86.5
557.284	81.5
557.496	88.5
557.709	86.5
557.921	87.5
558.134	71.5
558.346	87.5
558.559	98.5
558.771	74.5
558.984	89.5
559.196	82.5
559.409	88.5
559.621	99.5
559.833	74.5
560.046	80.5
560.258	68.5
560.47	94.5
560.683	97.5
560.895	89.5
561.107	87.5
561.32	72.5
561.532	92.5
561.744	71.5
561.956	79.5
562.168	81.5
562.381	103.5
562.593	80.5
562.805	87.5
563.017	89.5
563.229	98.5
563.441	87.5
563.653	87.5
563.865	95.5
564.077	83.5
564.289	75.5
564.501	83.5
564.713	88.5
564.925	79.5
565.137	84.5
565.349	89.5
565.561	85.5
565.773	82.5
565.985	96.5
566.197	92.5
566.408	82.5
566.62	77.5
566.832	88.5
567.044	87.5
567.255	100.5
567.467	84.5
567.679	75.5
567.891	91.5
568.102	90.5
568.314	97.5
568.526	96.5
568.737	86.5
568.949	74.5
569.161	89.5
569.372	82.5
569.584	78.5
569.795	86.5
570.007	91.5
570.218	87.5
570.43	95.5
570.641	92.5
570.853	86.5
571.064	82.5
571.276	88.5
571.487	99.5
571.698	78.5
571.91	74.5
572.121	81.5
572.333	74.5
572.544	93.5
572.755	82.5
572.966	80.5
573.178	66.5
573.389	82.5
573.6	87.5
573.811	87.5
574.023	93.5
574.234	83.5
574.445	93.5
574.656	82.5
574.867	94.5
575.078	71.5
575.289	76.5
575.501	86.5
575.712	80.5
575.923	84.5
576.134	82.5
576.345	80.5
576.556	68.5
576.767	92.5
576.978	89.5
577.188	79.5
577.399	94.5
577.61	82.5
577.821	84.5
578.032	83.5
578.243	83.5
578.454	94.5
578.665	94.5
578.875	82.5
579.086	82.5
579.297	89.5
579.508	85.5
579.718	80.5
579.929	83.5
580.14	98.5
580.35	75.5
580.561	97.5
580.772	82.5
580.982	74.5
581.193	83.5
581.403	91.5
581.614	81.5
581.825	80.5
582.035	79.5
582.246	103.5
582.456	92.5
582.667	91.5
582.877	80.5
583.087	93.5
583.298	88.5
583.508	87.5
583.719	80.5
583.929	83.5
584.139	85.5
584.35	94.5
584.56	90.5
584.77	77.5
584.981	81.5
585.191	88.5
585.401	88.5
585.611	89.5
585.821	89.5
586.032	79.5
586.242	87.5
586.452	82.5
586.662	87.5
586.872	90.5
587.082	90.5
587.292	82.5
587.502	99.5
587.713	89.5
587.923	75.5
588.133	89.5
588.343	80.5
588.553	90.5
588.762	99.5
588.972	132.5
589.182	197.5
589.392	151.5
589.602	130.5
589.812	172.5
590.022	123.5
590.232	99.5
590.441	75.5
590.651	76.5
590.861	65.5
591.071	76.5
591.281	81.5
591.49	74.5
591.7	84.5
591.91	85.5
592.119	80.5
592.329	80.5
592.539	81.5
592.748	86.5
592.958	76.5
593.167	80.5
593.377	85.5
593.587	95.5
593.796	88.5
594.006	81.5
594.215	83.5
594.424	86.5
594.634	80.5
594.843	75.5
595.053	80.5
595.262	82.5
595.472	88.5
595.681	78.5
595.89	88.5
596.1	79.5
596.309	83.5
596.518	69.5
596.727	96.5
596.937	74.5
597.146	86.5
597.355	85.5
597.564	82.5
597.774	82.5
597.983	87.5
598.192	80.5
598.401	74.5
598.61	76.5
598.819	90.5
599.028	84.5
599.237	90.5
599.446	85.5
599.655	73.5
599.864	87.5
600.073	78.5
600.282	83.5
600.491	70.5
600.7	87.5
600.909	89.5
601.118	84.5
601.327	95.5
601.536	89.5
601.745	94.5
601.953	73.5
602.162	86.5
602.371	93.5
602.58	88.5
602.789	70.5
602.997	79.5
603.206	77.5
603.415	94.5
603.623	94.5
603.832	81.5
604.041	70.5
604.249	70.5
604.458	91.5
604.666	86.5
604.875	87.5
605.084	80.5
605.292	84.5
605.501	86.5
605.709	89.5
605.918	84.5
606.126	84.5
606.334	76.5
606.543	96.5
606.751	94.5
606.96	82.5
607.168	76.5
607.376	75.5
607.585	82.5
607.793	94.5
608.001	89.5
608.21	87.5
608.418	93.5
608.626	69.5
608.834	93.5
609.043	80.5
609.251	94.5
609.459	75.5
609.667	91.5
609.875	89.5
610.083	80.5
610.291	71.5
610.499	87.5
610.707	85.5
610.916	86.5
611.124	88.5
611.332	91.5
611.54	79.5
611.748	86.5
611.955	66.5
612.163	77.5
612.371	95.5
612.579	80.5
612.787	89.5
612.995	95.5
613.203	86.5
613.411	65.5
613.618	89.5
613.826	77.5
614.034	79.5
614.242	100.5
614.449	89.5
614.657	80.5
614.865	90.5
615.072	78.5
615.28	82.5
615.488	76.5
615.695	98.5
615.903	83.5
616.111	102.5
616.318	98.5
616.526	93.5
616.733	89.5
616.941	89.5
617.148	80.5
617.356	97.5
617.563	100.5
617.771	80.5
617.978	92.5
618.185	74.5
618.393	79.5
618.6	76.5
618.807	78.5
619.015	94.5
619.222	86.5
619.429	85.5
619.637	82.5
619.844	82.5
620.051	87.5
620.258	87.5
620.466	85.5
620.673	94.5
620.88	90.5
621.087	83.5
621.294	90.5
621.501	82.5
621.708	73.5
621.915	87.5
622.122	77.5
622.329	83.5
622.536	92.5
622.743	89.5
622.95	80.5
623.157	82.5
623.364	90.5
623.571	96.5
623.778	76.5
623.985	86.5
624.192	78.5
624.399	90.5
624.606	81.5
624.812	87.5
625.019	74.5
625.226	90.5
625.433	89.5
625.639	87.5
625.846	67.5
626.053	89.5
626.259	79.5
626.466	90.5
626.673	83.5
626.879	86.5
627.086	90.5
627.293	84.5
627.499	70.5
627.706	72.5
627.912	85.5
628.119	74.5
628.325	68.5
628.532	90.5
628.738	85.5
628.945	84.5
629.151	82.5
629.357	90.5
629.564	87.5
629.77	83.5
629.976	83.5
630.183	90.5
630.389	85.5
630.595	83.5
630.802	81.5
631.008	88.5
631.214	83.5
631.42	68.5
631.627	96.5
631.833	90.5
632.039	90.5
632.245	73.5
632.451	82.5
632.657	87.5
632.863	75.5
633.069	92.5
633.275	76.5
633.481	82.5
633.688	82.5
633.893	80.5
634.099	74.5
634.305	82.5
634.511	99.5
634.717	84.5
634.923	81.5
635.129	78.5
635.335	80.5
635.541	89.5
635.747	95.5
635.952	79.5
636.158	87.5
636.364	88.5
636.57	76.5
636.775	83.5
636.981	80.5
637.187	72.5
637.392	79.5
637.598	75.5
637.804	75.5
638.009	74.5
638.215	71.5
638.421	77.5
638.626	72.5
638.832	73.5
639.037	89.5
639.243	79.5
639.448	74.5
639.654	90.5
639.859	83.5
640.065	88.5
640.27	81.5
640.475	88.5
640.681	82.5
640.886	75.5
641.091	82.5
641.297	82.5
641.502	82.5
641.707	76.5
641.913	71.5
642.118	79.5
642.323	72.5
642.528	86.5
642.733	82.5
642.939	83.5
643.144	74.5
643.349	82.5
643.554	85.5
643.759	105.5
643.964	82.5
644.169	75.5
644.374	82.5
644.579	84.5
644.784	70.5
644.989	76.5
645.194	84.5
645.399	86.5
645.604	81.5
645.809	87.5
646.014	85.5
646.219	91.5
646.423	88.5
646.628	89.5
646.833	76.5
647.038	97.5
647.243	60.5
647.447	88.5
647.652	88.5
647.857	75.5
648.062	72.5
648.266	68.5
648.471	85.5
648.676	84.5
648.88	77.5
649.085	84.5
649.289	81.5
649.494	78.5
649.698	86.5
649.903	88.5
650.107	75.5
650.312	82.5
650.516	82.5
650.721	85.5
650.925	81.5
651.13	70.5
651.334	83.5
651.539	77.5
651.743	98.5
651.947	79.5
652.152	88.5
652.356	89.5
652.56	88.5
652.764	79.5
652.969	77.5
653.173	78.5
653.377	81.5
653.581	86.5
653.785	79.5
653.99	87.5
654.194	78.5
654.398	76.5
654.602	70.5
654.806	80.5
655.01	84.5
655.214	93.5
655.418	97.5
655.622	78.5
655.826	81.5
656.03	74.5
656.234	90.5
656.438	92.5
656.642	77.5
656.846	87.5
657.049	68.5
657.253	82.5
657.457	73.5
657.661	73.5
657.865	85.5
658.068	74.5
658.272	75.5
658.476	77.5
658.68	82.5
658.883	87.5
659.087	90.5
659.291	88.5
659.494	88.5
659.698	83.5
659.901	84.5
660.105	83.5
660.309	78.5
660.512	82.5
660.716	89.5
660.919	81.5
661.123	90.5
661.326	82.5
661.53	67.5
661.733	64.5
661.936	74.5
662.14	80.5
662.343	68.5
662.546	82.5
662.75	68.5
662.953	85.5
663.156	78.5
663.36	84.5
663.563	85.5
663.766	69.5
663.969	81.5
664.173	75.5
664.376	84.5
664.579	92.5
664.782	77.5
664.985	86.5
665.188	89.5
665.391	72.5
665.594	68.5
665.797	82.5
666	80.5
666.203	78.5
666.406	83.5
666.609	86.5
666.812	71.5
667.015	80.5
667.218	88.5
667.421	82.5
667.624	87.5
667.827	74.5
668.03	68.5
668.232	86.5
668.435	86.5
668.638	79.5
668.841	86.5
669.043	71.5
669.246	78.5
669.449	74.5
669.651	81.5
669.854	83.5
670.057	98.5
670.259	91.5
670.462	75.5
670.665	83.5
670.867	82.5
671.07	86.5
671.272	80.5
671.475	99.5
671.677	83.5
671.88	87.5
672.082	75.5
672.284	82.5
672.487	78.5
672.689	93.5
672.892	66.5
