Data from Lead_HRD10591_00026.txt Node
Date: Tue Feb 17 14:14:00 EST 2026
User: Yrep
Spectrometer: HR+D1059
Trigger mode: 1
Integration Time (sec): 1.000000E-1
Scans to average: 1
Electric dark correction enabled: true
Nonlinearity correction enabled: false
Boxcar width: 0
XAxis mode: Wavelengths
Number of Pixels in Spectrum: 2048
>>>>>Begin Spectral Data<<<<<
223.165	-14.69
223.4	-14.69
223.635	-14.69
223.869	-3.69
224.104	-19.69
224.338	-16.69
224.573	-10.69
224.808	-5.69
225.042	-5.69
225.277	-11.69
225.511	-0.69
225.746	-2.69
225.98	16.31
226.215	14.31
226.449	11.31
226.683	9.31
226.918	20.31
227.152	20.31
227.387	35.31
227.621	37.31
227.856	44.31
228.09	52.31
228.324	62.31
228.559	59.31
228.793	52.31
229.027	60.31
229.262	63.31
229.496	77.31
229.73	72.31
229.964	56.31
230.199	68.31
230.433	70.31
230.667	75.31
230.901	84.31
231.136	78.31
231.37	69.31
231.604	85.31
231.838	74.31
232.072	87.31
232.306	88.31
232.541	83.31
232.775	89.31
233.009	88.31
233.243	90.31
233.477	78.31
233.711	77.31
233.945	94.31
234.179	83.31
234.413	85.31
234.647	71.31
234.881	70.31
235.115	82.31
235.349	74.31
235.583	64.31
235.817	90.31
236.051	67.31
236.285	68.31
236.519	82.31
236.753	72.31
236.987	82.31
237.221	82.31
237.455	78.31
237.689	75.31
237.922	76.31
238.156	77.31
238.39	88.31
238.624	86.31
238.858	78.31
239.091	81.31
239.325	74.31
239.559	80.31
239.793	69.31
240.027	90.31
240.26	83.31
240.494	82.31
240.728	84.31
240.961	81.31
241.195	96.31
241.429	73.31
241.662	77.31
241.896	74.31
242.13	79.31
242.363	80.31
242.597	90.31
242.83	74.31
243.064	75.31
243.298	93.31
243.531	80.31
243.765	78.31
243.998	60.31
244.232	86.31
244.465	79.31
244.699	70.31
244.932	71.31
245.166	70.31
245.399	76.31
245.633	72.31
245.866	69.31
246.099	71.31
246.333	73.31
246.566	78.31
246.8	70.31
247.033	67.31
247.266	82.31
247.5	84.31
247.733	68.31
247.966	88.31
248.2	90.31
248.433	77.31
248.666	85.31
248.899	77.31
249.133	82.31
249.366	83.31
249.599	79.31
249.832	83.31
250.066	76.31
250.299	71.31
250.532	85.31
250.765	78.31
250.998	85.31
251.231	84.31
251.465	62.31
251.698	76.31
251.931	71.31
252.164	76.31
252.397	87.31
252.63	84.31
252.863	86.31
253.096	73.31
253.329	80.31
253.562	83.31
253.795	86.31
254.028	75.31
254.261	102.31
254.494	82.31
254.727	83.31
254.96	84.31
255.193	87.31
255.426	84.31
255.659	89.31
255.892	76.31
256.124	69.31
256.357	79.31
256.59	81.31
256.823	71.31
257.056	82.31
257.289	77.31
257.521	86.31
257.754	74.31
257.987	93.31
258.22	99.31
258.452	94.31
258.685	74.31
258.918	75.31
259.151	82.31
259.383	87.31
259.616	90.31
259.849	95.31
260.081	75.31
260.314	94.31
260.547	82.31
260.779	66.31
261.012	86.31
261.244	93.31
261.477	114.31
261.71	101.31
261.942	102.31
262.175	95.31
262.407	84.31
262.64	82.31
262.872	77.31
263.105	75.31
263.337	83.31
263.57	80.31
263.802	82.31
264.035	93.31
264.267	75.31
264.499	85.31
264.732	86.31
264.964	86.31
265.197	94.31
265.429	89.31
265.661	90.31
265.894	87.31
266.126	73.31
266.358	87.31
266.591	92.31
266.823	75.31
267.055	74.31
267.287	81.31
267.52	80.31
267.752	89.31
267.984	84.31
268.216	86.31
268.448	67.31
268.681	86.31
268.913	78.31
269.145	76.31
269.377	83.31
269.609	71.31
269.841	84.31
270.073	85.31
270.306	84.31
270.538	85.31
270.77	81.31
271.002	84.31
271.234	81.31
271.466	83.31
271.698	71.31
271.93	77.31
272.162	81.31
272.394	88.31
272.626	75.31
272.858	78.31
273.09	88.31
273.322	90.31
273.553	89.31
273.785	75.31
274.017	84.31
274.249	90.31
274.481	82.31
274.713	82.31
274.945	92.31
275.176	76.31
275.408	78.31
275.64	68.31
275.872	74.31
276.104	81.31
276.335	79.31
276.567	77.31
276.799	79.31
277.031	84.31
277.262	86.31
277.494	80.31
277.726	93.31
277.957	94.31
278.189	98.31
278.421	91.31
278.652	76.31
278.884	76.31
279.115	69.31
279.347	74.31
279.579	91.31
279.81	92.31
280.042	130.31
280.273	130.31
280.505	123.31
280.736	102.31
280.968	90.31
281.199	77.31
281.431	82.31
281.662	80.31
281.894	108.31
282.125	83.31
282.356	107.31
282.588	113.31
282.819	101.31
283.051	118.31
283.282	140.31
283.513	122.31
283.745	94.31
283.976	79.31
284.207	103.31
284.439	81.31
284.67	69.31
284.901	83.31
285.132	88.31
285.364	87.31
285.595	85.31
285.826	74.31
286.057	70.31
286.288	96.31
286.52	75.31
286.751	96.31
286.982	88.31
287.213	99.31
287.444	124.31
287.675	92.31
287.906	103.31
288.138	96.31
288.369	100.31
288.6	76.31
288.831	88.31
289.062	77.31
289.293	84.31
289.524	87.31
289.755	98.31
289.986	86.31
290.217	88.31
290.448	74.31
290.679	66.31
290.91	73.31
291.141	82.31
291.371	97.31
291.602	87.31
291.833	82.31
292.064	80.31
292.295	84.31
292.526	83.31
292.757	91.31
292.987	79.31
293.218	85.31
293.449	99.31
293.68	92.31
293.91	95.31
294.141	89.31
294.372	85.31
294.603	80.31
294.833	85.31
295.064	69.31
295.295	85.31
295.525	95.31
295.756	96.31
295.987	93.31
296.217	99.31
296.448	84.31
296.679	72.31
296.909	96.31
297.14	96.31
297.37	83.31
297.601	84.31
297.831	81.31
298.062	77.31
298.292	92.31
298.523	84.31
298.753	72.31
298.984	99.31
299.214	87.31
299.445	85.31
299.675	92.31
299.905	88.31
300.136	84.31
300.366	91.31
300.597	98.31
300.827	83.31
301.057	88.31
301.288	98.31
301.518	76.31
301.748	84.31
301.979	96.31
302.209	97.31
302.439	78.31
302.669	79.31
302.9	83.31
303.13	77.31
303.36	95.31
303.59	98.31
303.82	90.31
304.051	84.31
304.281	88.31
304.511	96.31
304.741	89.31
304.971	87.31
305.201	92.31
305.431	82.31
305.661	82.31
305.891	83.31
306.121	89.31
306.352	79.31
306.582	99.31
306.812	96.31
307.042	85.31
307.272	88.31
307.502	82.31
307.731	92.31
307.961	90.31
308.191	91.31
308.421	76.31
308.651	99.31
308.881	96.31
309.111	77.31
309.341	90.31
309.571	96.31
309.8	90.31
310.03	82.31
310.26	97.31
310.49	78.31
310.72	94.31
310.949	85.31
311.179	91.31
311.409	68.31
311.639	76.31
311.868	78.31
312.098	83.31
312.328	75.31
312.557	69.31
312.787	82.31
313.017	96.31
313.246	83.31
313.476	82.31
313.706	84.31
313.935	83.31
314.165	91.31
314.394	78.31
314.624	90.31
314.853	85.31
315.083	85.31
315.312	77.31
315.542	92.31
315.771	92.31
316.001	85.31
316.23	79.31
316.46	88.31
316.689	78.31
316.919	81.31
317.148	94.31
317.377	94.31
317.607	90.31
317.836	77.31
318.065	92.31
318.295	87.31
318.524	84.31
318.753	93.31
318.983	81.31
319.212	83.31
319.441	87.31
319.67	90.31
319.9	83.31
320.129	82.31
320.358	77.31
320.587	85.31
320.816	81.31
321.046	80.31
321.275	94.31
321.504	93.31
321.733	89.31
321.962	88.31
322.191	96.31
322.42	81.31
322.649	89.31
322.878	88.31
323.108	70.31
323.337	95.31
323.566	79.31
323.795	89.31
324.024	80.31
324.253	96.31
324.482	95.31
324.71	96.31
324.939	104.31
325.168	102.31
325.397	86.31
325.626	84.31
325.855	85.31
326.084	90.31
326.313	110.31
326.542	82.31
326.77	87.31
326.999	92.31
327.228	79.31
327.457	112.31
327.686	74.31
327.914	82.31
328.143	96.31
328.372	90.31
328.6	84.31
328.829	89.31
329.058	90.31
329.287	65.31
329.515	82.31
329.744	91.31
329.972	84.31
330.201	82.31
330.43	101.31
330.658	82.31
330.887	100.31
331.115	105.31
331.344	82.31
331.572	88.31
331.801	90.31
332.03	87.31
332.258	84.31
332.486	77.31
332.715	88.31
332.943	86.31
333.172	82.31
333.4	97.31
333.629	87.31
333.857	84.31
334.085	82.31
334.314	99.31
334.542	75.31
334.771	94.31
334.999	104.31
335.227	81.31
335.455	89.31
335.684	78.31
335.912	83.31
336.14	78.31
336.369	73.31
336.597	83.31
336.825	92.31
337.053	87.31
337.281	92.31
337.51	84.31
337.738	92.31
337.966	81.31
338.194	91.31
338.422	92.31
338.65	89.31
338.878	85.31
339.106	93.31
339.334	104.31
339.562	82.31
339.79	93.31
340.018	87.31
340.246	99.31
340.474	78.31
340.702	86.31
340.93	86.31
341.158	83.31
341.386	90.31
341.614	83.31
341.842	86.31
342.07	85.31
342.298	88.31
342.526	81.31
342.754	79.31
342.981	95.31
343.209	91.31
343.437	102.31
343.665	84.31
343.893	84.31
344.12	77.31
344.348	91.31
344.576	68.31
344.804	81.31
345.031	79.31
345.259	83.31
345.487	85.31
345.714	80.31
345.942	91.31
346.17	81.31
346.397	77.31
346.625	91.31
346.853	86.31
347.08	86.31
347.308	79.31
347.535	87.31
347.763	84.31
347.99	81.31
348.218	77.31
348.445	82.31
348.673	93.31
348.9	77.31
349.128	102.31
349.355	82.31
349.583	81.31
349.81	91.31
350.037	91.31
350.265	83.31
350.492	99.31
350.72	80.31
350.947	86.31
351.174	97.31
351.402	97.31
351.629	74.31
351.856	86.31
352.083	80.31
352.311	104.31
352.538	72.31
352.765	73.31
352.992	85.31
353.22	88.31
353.447	91.31
353.674	97.31
353.901	96.31
354.128	93.31
354.355	84.31
354.583	83.31
354.81	91.31
355.037	84.31
355.264	88.31
355.491	87.31
355.718	88.31
355.945	82.31
356.172	81.31
356.399	84.31
356.626	105.31
356.853	101.31
357.08	155.31
357.307	181.31
357.534	152.31
357.761	92.31
357.988	90.31
358.215	97.31
358.441	78.31
358.668	88.31
358.895	79.31
359.122	92.31
359.349	92.31
359.576	93.31
359.802	76.31
360.029	85.31
360.256	77.31
360.483	89.31
360.709	88.31
360.936	93.31
361.163	83.31
361.39	95.31
361.616	76.31
361.843	78.31
362.07	85.31
362.296	100.31
362.523	84.31
362.749	83.31
362.976	81.31
363.203	100.31
363.429	106.31
363.656	151.31
363.882	223.31
364.109	278.31
364.335	145.31
364.562	84.31
364.788	78.31
365.015	90.31
365.241	82.31
365.468	87.31
365.694	92.31
365.92	82.31
366.147	74.31
366.373	77.31
366.599	87.31
366.826	102.31
367.052	103.31
367.278	121.31
367.505	94.31
367.731	104.31
367.957	151.31
368.184	246.31
368.41	346.31
368.636	233.31
368.862	120.31
369.089	92.31
369.315	81.31
369.541	93.31
369.767	97.31
369.993	91.31
370.219	94.31
370.445	88.31
370.672	90.31
370.898	76.31
371.124	87.31
371.35	72.31
371.576	76.31
371.802	101.31
372.028	79.31
372.254	92.31
372.48	84.31
372.706	73.31
372.932	91.31
373.158	77.31
373.384	104.31
373.61	113.31
373.835	151.31
374.061	182.31
374.287	145.31
374.513	97.31
374.739	95.31
374.965	87.31
375.191	76.31
375.416	98.31
375.642	74.31
375.868	86.31
376.094	80.31
376.319	77.31
376.545	93.31
376.771	93.31
376.997	90.31
377.222	67.31
377.448	91.31
377.674	92.31
377.899	83.31
378.125	83.31
378.35	92.31
378.576	88.31
378.802	84.31
379.027	74.31
379.253	74.31
379.478	75.31
379.704	95.31
379.929	81.31
380.155	83.31
380.38	89.31
380.606	90.31
380.831	79.31
381.057	84.31
381.282	77.31
381.507	90.31
381.733	94.31
381.958	87.31
382.184	83.31
382.409	83.31
382.634	82.31
382.86	96.31
383.085	91.31
383.31	77.31
383.535	80.31
383.761	81.31
383.986	96.31
384.211	93.31
384.436	86.31
384.662	82.31
384.887	99.31
385.112	88.31
385.337	68.31
385.562	77.31
385.787	88.31
386.013	91.31
386.238	91.31
386.463	88.31
386.688	104.31
386.913	83.31
387.138	83.31
387.363	77.31
387.588	91.31
387.813	81.31
388.038	90.31
388.263	98.31
388.488	89.31
388.713	70.31
388.938	94.31
389.163	76.31
389.387	82.31
389.612	77.31
389.837	84.31
390.062	89.31
390.287	96.31
390.512	89.31
390.736	92.31
390.961	82.31
391.186	84.31
391.411	75.31
391.636	86.31
391.86	76.31
392.085	73.31
392.31	73.31
392.534	97.31
392.759	91.31
392.984	96.31
393.208	109.31
393.433	141.31
393.658	120.31
393.882	95.31
394.107	114.31
394.331	120.31
394.556	117.31
394.78	100.31
395.005	79.31
395.229	82.31
395.454	94.31
395.678	78.31
395.903	91.31
396.127	131.31
396.352	136.31
396.576	89.31
396.801	90.31
397.025	122.31
397.249	91.31
397.474	88.31
397.698	75.31
397.922	91.31
398.147	110.31
398.371	89.31
398.595	74.31
398.82	74.31
399.044	83.31
399.268	82.31
399.492	76.31
399.717	93.31
399.941	78.31
400.165	107.31
400.389	89.31
400.613	81.31
400.837	79.31
401.062	82.31
401.286	86.31
401.51	89.31
401.734	80.31
401.958	100.31
402.182	101.31
402.406	92.31
402.63	89.31
402.854	96.31
403.078	98.31
403.302	82.31
403.526	91.31
403.75	89.31
403.974	73.31
404.198	111.31
404.422	146.31
404.645	162.31
404.869	109.31
405.093	135.31
405.317	130.31
405.541	281.31
405.765	513.31
405.988	544.31
406.212	237.31
406.436	146.31
406.66	90.31
406.883	97.31
407.107	95.31
407.331	79.31
407.555	78.31
407.778	73.31
408.002	77.31
408.226	90.31
408.449	76.31
408.673	83.31
408.896	89.31
409.12	89.31
409.344	91.31
409.567	69.31
409.791	86.31
410.014	70.31
410.238	90.31
410.461	68.31
410.685	83.31
410.908	95.31
411.132	89.31
411.355	85.31
411.578	76.31
411.802	74.31
412.025	81.31
412.249	70.31
412.472	80.31
412.695	92.31
412.919	77.31
413.142	95.31
413.365	88.31
413.589	76.31
413.812	74.31
414.035	90.31
414.258	87.31
414.482	90.31
414.705	89.31
414.928	96.31
415.151	84.31
415.374	78.31
415.597	88.31
415.821	68.31
416.044	84.31
416.267	72.31
416.49	78.31
416.713	74.31
416.936	100.31
417.159	100.31
417.382	93.31
417.605	78.31
417.828	82.31
418.051	87.31
418.274	88.31
418.497	89.31
418.72	77.31
418.943	76.31
419.166	91.31
419.389	85.31
419.611	84.31
419.834	93.31
420.057	88.31
420.28	84.31
420.503	90.31
420.726	94.31
420.948	85.31
421.171	80.31
421.394	86.31
421.617	88.31
421.839	101.31
422.062	82.31
422.285	92.31
422.507	91.31
422.73	126.31
422.953	116.31
423.175	96.31
423.398	83.31
423.621	77.31
423.843	82.31
424.066	77.31
424.288	100.31
424.511	93.31
424.733	80.31
424.956	87.31
425.178	68.31
425.401	79.31
425.623	84.31
425.846	85.31
426.068	76.31
426.291	76.31
426.513	78.31
426.735	93.31
426.958	73.31
427.18	88.31
427.402	90.31
427.625	76.31
427.847	88.31
428.069	68.31
428.292	76.31
428.514	87.31
428.736	79.31
428.958	98.31
429.181	78.31
429.403	72.31
429.625	88.31
429.847	72.31
430.069	77.31
430.292	92.31
430.514	89.31
430.736	80.31
430.958	85.31
431.18	83.31
431.402	75.31
431.624	73.31
431.846	88.31
432.068	80.31
432.29	79.31
432.512	81.31
432.734	69.31
432.956	92.31
433.178	89.31
433.4	88.31
433.622	84.31
433.844	74.31
434.066	68.31
434.287	76.31
434.509	77.31
434.731	83.31
434.953	85.31
435.175	84.31
435.397	79.31
435.618	96.31
435.84	81.31
436.062	77.31
436.284	87.31
436.505	94.31
436.727	77.31
436.949	95.31
437.17	96.31
437.392	79.31
437.614	86.31
437.835	88.31
438.057	86.31
438.278	92.31
438.5	90.31
438.721	92.31
438.943	90.31
439.165	93.31
439.386	93.31
439.608	86.31
439.829	89.31
440.05	85.31
440.272	85.31
440.493	82.31
440.715	100.31
440.936	89.31
441.158	89.31
441.379	85.31
441.6	76.31
441.822	82.31
442.043	88.31
442.264	89.31
442.486	84.31
442.707	86.31
442.928	87.31
443.149	106.31
443.371	82.31
443.592	82.31
443.813	75.31
444.034	67.31
444.255	79.31
444.476	97.31
444.698	95.31
444.919	99.31
445.14	150.31
445.361	126.31
445.582	99.31
445.803	72.31
446.024	71.31
446.245	99.31
446.466	84.31
446.687	81.31
446.908	85.31
447.129	73.31
447.35	75.31
447.571	87.31
447.792	88.31
448.013	81.31
448.234	98.31
448.455	72.31
448.675	65.31
448.896	82.31
449.117	84.31
449.338	69.31
449.559	86.31
449.779	83.31
450	81.31
450.221	85.31
450.442	96.31
450.662	77.31
450.883	72.31
451.104	86.31
451.324	90.31
451.545	76.31
451.766	77.31
451.986	85.31
452.207	88.31
452.428	78.31
452.648	74.31
452.869	80.31
453.089	86.31
453.31	83.31
453.53	85.31
453.751	77.31
453.971	80.31
454.192	72.31
454.412	81.31
454.633	84.31
454.853	85.31
455.073	92.31
455.294	78.31
455.514	88.31
455.734	86.31
455.955	74.31
456.175	74.31
456.395	92.31
456.616	85.31
456.836	77.31
457.056	86.31
457.276	90.31
457.497	74.31
457.717	92.31
457.937	88.31
458.157	90.31
458.377	93.31
458.598	66.31
458.818	88.31
459.038	78.31
459.258	88.31
459.478	76.31
459.698	98.31
459.918	89.31
460.138	92.31
460.358	78.31
460.578	78.31
460.798	68.31
461.018	97.31
461.238	90.31
461.458	107.31
461.678	84.31
461.898	78.31
462.118	82.31
462.338	80.31
462.558	76.31
462.777	66.31
462.997	84.31
463.217	74.31
463.437	90.31
463.657	77.31
463.876	80.31
464.096	77.31
464.316	60.31
464.536	84.31
464.755	76.31
464.975	90.31
465.195	93.31
465.414	83.31
465.634	72.31
465.854	77.31
466.073	92.31
466.293	85.31
466.512	89.31
466.732	73.31
466.951	75.31
467.171	83.31
467.391	93.31
467.61	93.31
467.829	89.31
468.049	62.31
468.268	82.31
468.488	75.31
468.707	76.31
468.927	75.31
469.146	103.31
469.365	93.31
469.585	85.31
469.804	87.31
470.023	63.31
470.243	96.31
470.462	81.31
470.681	89.31
470.901	79.31
471.12	79.31
471.339	85.31
471.558	94.31
471.777	90.31
471.997	77.31
472.216	84.31
472.435	78.31
472.654	89.31
472.873	88.31
473.092	87.31
473.311	86.31
473.53	78.31
473.749	85.31
473.968	94.31
474.187	96.31
474.406	76.31
474.625	89.31
474.844	97.31
475.063	81.31
475.282	96.31
475.501	91.31
475.72	75.31
475.939	87.31
476.158	70.31
476.377	75.31
476.596	60.31
476.814	84.31
477.033	77.31
477.252	88.31
477.471	79.31
477.69	74.31
477.908	84.31
478.127	82.31
478.346	85.31
478.564	85.31
478.783	75.31
479.002	94.31
479.22	68.31
479.439	66.31
479.658	82.31
479.876	91.31
480.095	98.31
480.313	88.31
480.532	89.31
480.751	87.31
480.969	95.31
481.188	83.31
481.406	83.31
481.624	80.31
481.843	79.31
482.061	64.31
482.28	80.31
482.498	79.31
482.717	71.31
482.935	101.31
483.153	83.31
483.372	89.31
483.59	78.31
483.808	78.31
484.027	77.31
484.245	85.31
484.463	74.31
484.681	86.31
484.9	79.31
485.118	94.31
485.336	92.31
485.554	96.31
485.772	78.31
485.99	78.31
486.209	95.31
486.427	75.31
486.645	77.31
486.863	83.31
487.081	78.31
487.299	90.31
487.517	81.31
487.735	84.31
487.953	75.31
488.171	94.31
488.389	90.31
488.607	68.31
488.825	90.31
489.043	89.31
489.261	83.31
489.479	89.31
489.696	83.31
489.914	84.31
490.132	82.31
490.35	93.31
490.568	94.31
490.786	84.31
491.003	73.31
491.221	77.31
491.439	90.31
491.657	85.31
491.874	100.31
492.092	91.31
492.31	78.31
492.527	86.31
492.745	94.31
492.963	79.31
493.18	87.31
493.398	103.31
493.615	93.31
493.833	86.31
494.05	82.31
494.268	88.31
494.485	89.31
494.703	97.31
494.92	83.31
495.138	89.31
495.355	94.31
495.573	107.31
495.79	76.31
496.008	85.31
496.225	88.31
496.442	74.31
496.66	92.31
496.877	102.31
497.094	94.31
497.312	90.31
497.529	86.31
497.746	90.31
497.963	91.31
498.181	93.31
498.398	77.31
498.615	96.31
498.832	84.31
499.049	81.31
499.267	91.31
499.484	88.31
499.701	78.31
499.918	82.31
500.135	88.31
500.352	98.31
500.569	109.31
500.786	124.31
501.003	89.31
501.22	86.31
501.437	89.31
501.654	79.31
501.871	93.31
502.088	83.31
502.305	87.31
502.522	83.31
502.739	88.31
502.956	92.31
503.172	91.31
503.389	83.31
503.606	92.31
503.823	84.31
504.04	75.31
504.256	98.31
504.473	83.31
504.69	66.31
504.907	84.31
505.123	82.31
505.34	86.31
505.557	73.31
505.773	97.31
505.99	85.31
506.207	76.31
506.423	88.31
506.64	87.31
506.856	96.31
507.073	90.31
507.289	79.31
507.506	84.31
507.722	75.31
507.939	79.31
508.155	93.31
508.372	91.31
508.588	85.31
508.805	82.31
509.021	86.31
509.238	84.31
509.454	70.31
509.67	74.31
509.887	91.31
510.103	89.31
510.319	103.31
510.536	94.31
510.752	87.31
510.968	84.31
511.184	87.31
511.401	83.31
511.617	81.31
511.833	76.31
512.049	99.31
512.265	85.31
512.481	94.31
512.698	82.31
512.914	84.31
513.13	89.31
513.346	72.31
513.562	84.31
513.778	88.31
513.994	89.31
514.21	77.31
514.426	85.31
514.642	100.31
514.858	84.31
515.074	89.31
515.29	81.31
515.506	88.31
515.721	93.31
515.937	90.31
516.153	83.31
516.369	89.31
516.585	89.31
516.801	95.31
517.016	82.31
517.232	84.31
517.448	86.31
517.664	85.31
517.879	101.31
518.095	75.31
518.311	75.31
518.527	87.31
518.742	84.31
518.958	68.31
519.173	92.31
519.389	91.31
519.605	68.31
519.82	99.31
520.036	92.31
520.251	88.31
520.467	96.31
520.682	88.31
520.898	94.31
521.113	78.31
521.329	91.31
521.544	73.31
521.76	88.31
521.975	85.31
522.19	97.31
522.406	81.31
522.621	79.31
522.836	84.31
523.052	108.31
523.267	96.31
523.482	91.31
523.698	86.31
523.913	75.31
524.128	67.31
524.343	78.31
524.559	90.31
524.774	88.31
524.989	75.31
525.204	85.31
525.419	89.31
525.634	90.31
525.849	89.31
526.064	91.31
526.28	87.31
526.495	91.31
526.71	87.31
526.925	91.31
527.14	91.31
527.355	89.31
527.57	91.31
527.785	71.31
527.999	87.31
528.214	91.31
528.429	96.31
528.644	73.31
528.859	66.31
529.074	82.31
529.289	77.31
529.503	77.31
529.718	94.31
529.933	88.31
530.148	92.31
530.363	83.31
530.577	94.31
530.792	83.31
531.007	78.31
531.221	88.31
531.436	99.31
531.651	65.31
531.865	72.31
532.08	82.31
532.295	95.31
532.509	93.31
532.724	96.31
532.938	97.31
533.153	66.31
533.367	94.31
533.582	84.31
533.796	78.31
534.011	84.31
534.225	81.31
534.44	75.31
534.654	93.31
534.868	93.31
535.083	90.31
535.297	90.31
535.511	88.31
535.726	93.31
535.94	79.31
536.154	87.31
536.369	88.31
536.583	95.31
536.797	77.31
537.011	95.31
537.225	88.31
537.44	88.31
537.654	99.31
537.868	93.31
538.082	96.31
538.296	84.31
538.51	93.31
538.724	70.31
538.938	80.31
539.153	83.31
539.367	90.31
539.581	92.31
539.795	81.31
540.009	92.31
540.222	88.31
540.436	75.31
540.65	89.31
540.864	95.31
541.078	87.31
541.292	89.31
541.506	80.31
541.72	83.31
541.934	89.31
542.147	90.31
542.361	93.31
542.575	84.31
542.789	98.31
543.002	88.31
543.216	95.31
543.43	82.31
543.644	92.31
543.857	91.31
544.071	90.31
544.285	97.31
544.498	99.31
544.712	77.31
544.925	86.31
545.139	90.31
545.352	74.31
545.566	102.31
545.779	84.31
545.993	83.31
546.206	81.31
546.42	93.31
546.633	79.31
546.847	92.31
547.06	100.31
547.274	89.31
547.487	98.31
547.7	94.31
547.914	87.31
548.127	81.31
548.34	94.31
548.554	82.31
548.767	97.31
548.98	84.31
549.193	84.31
549.407	87.31
549.62	104.31
549.833	75.31
550.046	78.31
550.259	88.31
550.473	99.31
550.686	95.31
550.899	88.31
551.112	98.31
551.325	86.31
551.538	95.31
551.751	94.31
551.964	84.31
552.177	91.31
552.39	90.31
552.603	91.31
552.816	89.31
553.029	88.31
553.242	84.31
553.455	86.31
553.667	98.31
553.88	73.31
554.093	82.31
554.306	85.31
554.519	72.31
554.732	91.31
554.944	91.31
555.157	99.31
555.37	76.31
555.583	89.31
555.795	90.31
556.008	84.31
556.221	91.31
556.433	69.31
556.646	102.31
556.859	88.31
557.071	75.31
557.284	97.31
557.496	87.31
557.709	94.31
557.921	86.31
558.134	93.31
558.346	86.31
558.559	79.31
558.771	94.31
558.984	96.31
559.196	91.31
559.409	85.31
559.621	93.31
559.833	98.31
560.046	92.31
560.258	65.31
560.47	91.31
560.683	106.31
560.895	105.31
561.107	98.31
561.32	89.31
561.532	81.31
561.744	94.31
561.956	86.31
562.168	89.31
562.381	84.31
562.593	78.31
562.805	88.31
563.017	104.31
563.229	89.31
563.441	72.31
563.653	96.31
563.865	79.31
564.077	80.31
564.289	88.31
564.501	70.31
564.713	77.31
564.925	88.31
565.137	100.31
565.349	88.31
565.561	93.31
565.773	84.31
565.985	84.31
566.197	95.31
566.408	79.31
566.62	85.31
566.832	93.31
567.044	90.31
567.255	97.31
567.467	82.31
567.679	89.31
567.891	83.31
568.102	96.31
568.314	82.31
568.526	92.31
568.737	88.31
568.949	79.31
569.161	90.31
569.372	95.31
569.584	86.31
569.795	97.31
570.007	91.31
570.218	88.31
570.43	76.31
570.641	104.31
570.853	77.31
571.064	92.31
571.276	85.31
571.487	85.31
571.698	86.31
571.91	96.31
572.121	88.31
572.333	89.31
572.544	98.31
572.755	76.31
572.966	88.31
573.178	90.31
573.389	85.31
573.6	84.31
573.811	68.31
574.023	88.31
574.234	84.31
574.445	90.31
574.656	102.31
574.867	74.31
575.078	81.31
575.289	89.31
575.501	98.31
575.712	73.31
575.923	94.31
576.134	96.31
576.345	85.31
576.556	80.31
576.767	90.31
576.978	84.31
577.188	86.31
577.399	90.31
577.61	81.31
577.821	85.31
578.032	91.31
578.243	92.31
578.454	94.31
578.665	102.31
578.875	85.31
579.086	83.31
579.297	92.31
579.508	84.31
579.718	84.31
579.929	91.31
580.14	94.31
580.35	88.31
580.561	119.31
580.772	105.31
580.982	77.31
581.193	90.31
581.403	76.31
581.614	83.31
581.825	94.31
582.035	86.31
582.246	89.31
582.456	88.31
582.667	91.31
582.877	86.31
583.087	90.31
583.298	72.31
583.508	88.31
583.719	77.31
583.929	87.31
584.139	89.31
584.35	81.31
584.56	94.31
584.77	93.31
584.981	99.31
585.191	88.31
585.401	73.31
585.611	99.31
585.821	86.31
586.032	107.31
586.242	78.31
586.452	83.31
586.662	83.31
586.872	88.31
587.082	73.31
587.292	93.31
587.502	91.31
587.713	86.31
587.923	74.31
588.133	104.31
588.343	97.31
588.553	110.31
588.762	120.31
588.972	206.31
589.182	554.31
589.392	323.31
589.602	226.31
589.812	484.31
590.022	216.31
590.232	93.31
590.441	97.31
590.651	90.31
590.861	108.31
591.071	90.31
591.281	92.31
591.49	94.31
591.7	87.31
591.91	86.31
592.119	70.31
592.329	81.31
592.539	85.31
592.748	89.31
592.958	86.31
593.167	92.31
593.377	87.31
593.587	94.31
593.796	76.31
594.006	86.31
594.215	85.31
594.424	80.31
594.634	70.31
594.843	96.31
595.053	76.31
595.262	74.31
595.472	104.31
595.681	95.31
595.89	89.31
596.1	83.31
596.309	98.31
596.518	89.31
596.727	92.31
596.937	75.31
597.146	82.31
597.355	75.31
597.564	84.31
597.774	86.31
597.983	92.31
598.192	75.31
598.401	85.31
598.61	90.31
598.819	85.31
599.028	85.31
599.237	84.31
599.446	75.31
599.655	73.31
599.864	97.31
600.073	76.31
600.282	96.31
600.491	102.31
600.7	99.31
600.909	85.31
601.118	84.31
601.327	103.31
601.536	89.31
601.745	86.31
601.953	90.31
602.162	89.31
602.371	92.31
602.58	91.31
602.789	97.31
602.997	91.31
603.206	79.31
603.415	85.31
603.623	84.31
603.832	85.31
604.041	81.31
604.249	84.31
604.458	88.31
604.666	88.31
604.875	89.31
605.084	96.31
605.292	86.31
605.501	82.31
605.709	83.31
605.918	80.31
606.126	99.31
606.334	94.31
606.543	82.31
606.751	80.31
606.96	95.31
607.168	81.31
607.376	88.31
607.585	80.31
607.793	77.31
608.001	86.31
608.21	85.31
608.418	83.31
608.626	82.31
608.834	98.31
609.043	84.31
609.251	84.31
609.459	89.31
609.667	90.31
609.875	84.31
610.083	82.31
610.291	77.31
610.499	81.31
610.707	91.31
610.916	83.31
611.124	91.31
611.332	94.31
611.54	74.31
611.748	73.31
611.955	97.31
612.163	94.31
612.371	97.31
612.579	91.31
612.787	79.31
612.995	76.31
613.203	80.31
613.411	83.31
613.618	82.31
613.826	73.31
614.034	113.31
614.242	81.31
614.449	90.31
614.657	88.31
614.865	95.31
615.072	88.31
615.28	88.31
615.488	84.31
615.695	91.31
615.903	81.31
616.111	78.31
616.318	88.31
616.526	82.31
616.733	102.31
616.941	93.31
617.148	95.31
617.356	106.31
617.563	78.31
617.771	90.31
617.978	85.31
618.185	94.31
618.393	89.31
618.6	105.31
618.807	94.31
619.015	93.31
619.222	93.31
619.429	91.31
619.637	90.31
619.844	79.31
620.051	85.31
620.258	85.31
620.466	101.31
620.673	93.31
620.88	100.31
621.087	94.31
621.294	97.31
621.501	86.31
621.708	94.31
621.915	95.31
622.122	89.31
622.329	87.31
622.536	85.31
622.743	80.31
622.95	89.31
623.157	79.31
623.364	81.31
623.571	82.31
623.778	85.31
623.985	89.31
624.192	98.31
624.399	85.31
624.606	83.31
624.812	92.31
625.019	71.31
625.226	84.31
625.433	100.31
625.639	93.31
625.846	89.31
626.053	74.31
626.259	84.31
626.466	98.31
626.673	90.31
626.879	81.31
627.086	91.31
627.293	79.31
627.499	87.31
627.706	76.31
627.912	80.31
628.119	72.31
628.325	80.31
628.532	89.31
628.738	78.31
628.945	75.31
629.151	91.31
629.357	83.31
629.564	96.31
629.77	100.31
629.976	68.31
630.183	85.31
630.389	86.31
630.595	85.31
630.802	77.31
631.008	90.31
631.214	79.31
631.42	88.31
631.627	87.31
631.833	83.31
632.039	92.31
632.245	85.31
632.451	94.31
632.657	84.31
632.863	89.31
633.069	78.31
633.275	88.31
633.481	88.31
633.688	80.31
633.893	82.31
634.099	77.31
634.305	77.31
634.511	82.31
634.717	84.31
634.923	100.31
635.129	89.31
635.335	85.31
635.541	77.31
635.747	87.31
635.952	88.31
636.158	80.31
636.364	84.31
636.57	87.31
636.775	74.31
636.981	73.31
637.187	91.31
637.392	89.31
637.598	82.31
637.804	82.31
638.009	91.31
638.215	87.31
638.421	84.31
638.626	90.31
638.832	80.31
639.037	96.31
639.243	96.31
639.448	85.31
639.654	82.31
639.859	80.31
640.065	98.31
640.27	83.31
640.475	81.31
640.681	79.31
640.886	86.31
641.091	68.31
641.297	100.31
641.502	76.31
641.707	82.31
641.913	93.31
642.118	88.31
642.323	69.31
642.528	85.31
642.733	78.31
642.939	100.31
643.144	95.31
643.349	90.31
643.554	86.31
643.759	83.31
643.964	86.31
644.169	100.31
644.374	88.31
644.579	90.31
644.784	91.31
644.989	75.31
645.194	81.31
645.399	89.31
645.604	82.31
645.809	87.31
646.014	78.31
646.219	90.31
646.423	94.31
646.628	96.31
646.833	74.31
647.038	105.31
647.243	69.31
647.447	75.31
647.652	95.31
647.857	76.31
648.062	89.31
648.266	78.31
648.471	88.31
648.676	74.31
648.88	96.31
649.085	85.31
649.289	79.31
649.494	84.31
649.698	84.31
649.903	88.31
650.107	76.31
650.312	94.31
650.516	93.31
650.721	88.31
650.925	73.31
651.13	86.31
651.334	93.31
651.539	78.31
651.743	78.31
651.947	86.31
652.152	90.31
652.356	100.31
652.56	73.31
652.764	74.31
652.969	85.31
653.173	99.31
653.377	85.31
653.581	86.31
653.785	78.31
653.99	85.31
654.194	92.31
654.398	87.31
654.602	81.31
654.806	98.31
655.01	88.31
655.214	92.31
655.418	72.31
655.622	81.31
655.826	82.31
656.03	85.31
656.234	84.31
656.438	76.31
656.642	76.31
656.846	91.31
657.049	96.31
657.253	82.31
657.457	76.31
657.661	89.31
657.865	87.31
658.068	83.31
658.272	90.31
658.476	75.31
658.68	77.31
658.883	84.31
659.087	82.31
659.291	86.31
659.494	86.31
659.698	94.31
659.901	81.31
660.105	91.31
660.309	72.31
660.512	85.31
660.716	80.31
660.919	83.31
661.123	90.31
661.326	74.31
661.53	79.31
661.733	86.31
661.936	75.31
662.14	84.31
662.343	84.31
662.546	83.31
662.75	82.31
662.953	84.31
663.156	87.31
663.36	81.31
663.563	82.31
663.766	73.31
663.969	72.31
664.173	79.31
664.376	69.31
664.579	86.31
664.782	79.31
664.985	92.31
665.188	76.31
665.391	100.31
665.594	71.31
665.797	81.31
666	84.31
666.203	88.31
666.406	70.31
666.609	78.31
666.812	83.31
667.015	96.31
667.218	93.31
667.421	88.31
667.624	92.31
667.827	76.31
668.03	81.31
668.232	78.31
668.435	86.31
668.638	86.31
668.841	81.31
669.043	79.31
669.246	81.31
669.449	81.31
669.651	76.31
669.854	86.31
670.057	102.31
670.259	65.31
670.462	89.31
670.665	80.31
670.867	87.31
671.07	88.31
671.272	90.31
671.475	85.31
671.677	87.31
671.88	84.31
672.082	84.31
672.284	96.31
672.487	97.31
672.689	76.31
672.892	68.31
