Data from Lead_HRD10591_00090.txt Node
Date: Tue Feb 17 14:14:21 EST 2026
User: Yrep
Spectrometer: HR+D1059
Trigger mode: 1
Integration Time (sec): 1.000000E-1
Scans to average: 1
Electric dark correction enabled: true
Nonlinearity correction enabled: false
Boxcar width: 0
XAxis mode: Wavelengths
Number of Pixels in Spectrum: 2048
>>>>>Begin Spectral Data<<<<<
223.165	-7.62
223.4	-7.62
223.635	-7.62
223.869	-15.62
224.104	-24.62
224.338	-19.62
224.573	-23.62
224.808	-10.62
225.042	3.38
225.277	-6.62
225.511	-3.62
225.746	11.38
225.98	6.38
226.215	3.38
226.449	15.38
226.683	25.38
226.918	32.38
227.152	14.38
227.387	35.38
227.621	41.38
227.856	40.38
228.09	41.38
228.324	52.38
228.559	59.38
228.793	55.38
229.027	63.38
229.262	73.38
229.496	62.38
229.73	64.38
229.964	62.38
230.199	65.38
230.433	75.38
230.667	67.38
230.901	83.38
231.136	88.38
231.37	92.38
231.604	83.38
231.838	77.38
232.072	100.38
232.306	74.38
232.541	75.38
232.775	79.38
233.009	81.38
233.243	82.38
233.477	86.38
233.711	79.38
233.945	87.38
234.179	75.38
234.413	84.38
234.647	80.38
234.881	78.38
235.115	77.38
235.349	77.38
235.583	93.38
235.817	76.38
236.051	77.38
236.285	80.38
236.519	67.38
236.753	81.38
236.987	77.38
237.221	74.38
237.455	89.38
237.689	80.38
237.922	73.38
238.156	82.38
238.39	75.38
238.624	86.38
238.858	80.38
239.091	77.38
239.325	81.38
239.559	81.38
239.793	77.38
240.027	82.38
240.26	62.38
240.494	78.38
240.728	72.38
240.961	84.38
241.195	86.38
241.429	88.38
241.662	72.38
241.896	61.38
242.13	79.38
242.363	66.38
242.597	72.38
242.83	71.38
243.064	81.38
243.298	71.38
243.531	72.38
243.765	93.38
243.998	69.38
244.232	78.38
244.465	75.38
244.699	78.38
244.932	78.38
245.166	81.38
245.399	84.38
245.633	74.38
245.866	84.38
246.099	77.38
246.333	71.38
246.566	85.38
246.8	84.38
247.033	58.38
247.266	68.38
247.5	71.38
247.733	79.38
247.966	97.38
248.2	100.38
248.433	57.38
248.666	81.38
248.899	92.38
249.133	79.38
249.366	80.38
249.599	76.38
249.832	75.38
250.066	86.38
250.299	68.38
250.532	81.38
250.765	85.38
250.998	73.38
251.231	66.38
251.465	84.38
251.698	84.38
251.931	83.38
252.164	89.38
252.397	94.38
252.63	99.38
252.863	80.38
253.096	92.38
253.329	91.38
253.562	98.38
253.795	93.38
254.028	91.38
254.261	82.38
254.494	76.38
254.727	85.38
254.96	84.38
255.193	88.38
255.426	73.38
255.659	78.38
255.892	82.38
256.124	76.38
256.357	84.38
256.59	84.38
256.823	73.38
257.056	89.38
257.289	84.38
257.521	86.38
257.754	78.38
257.987	72.38
258.22	86.38
258.452	85.38
258.685	91.38
258.918	82.38
259.151	80.38
259.383	73.38
259.616	79.38
259.849	84.38
260.081	96.38
260.314	85.38
260.547	81.38
260.779	88.38
261.012	76.38
261.244	94.38
261.477	114.38
261.71	108.38
261.942	94.38
262.175	97.38
262.407	88.38
262.64	92.38
262.872	79.38
263.105	82.38
263.337	78.38
263.57	88.38
263.802	82.38
264.035	89.38
264.267	63.38
264.499	90.38
264.732	89.38
264.964	90.38
265.197	77.38
265.429	98.38
265.661	90.38
265.894	74.38
266.126	93.38
266.358	100.38
266.591	90.38
266.823	88.38
267.055	76.38
267.287	85.38
267.52	91.38
267.752	96.38
267.984	74.38
268.216	88.38
268.448	97.38
268.681	81.38
268.913	77.38
269.145	92.38
269.377	72.38
269.609	84.38
269.841	79.38
270.073	82.38
270.306	79.38
270.538	82.38
270.77	86.38
271.002	87.38
271.234	70.38
271.466	79.38
271.698	99.38
271.93	81.38
272.162	74.38
272.394	85.38
272.626	89.38
272.858	72.38
273.09	94.38
273.322	79.38
273.553	76.38
273.785	92.38
274.017	77.38
274.249	76.38
274.481	81.38
274.713	86.38
274.945	88.38
275.176	89.38
275.408	87.38
275.64	84.38
275.872	94.38
276.104	71.38
276.335	77.38
276.567	88.38
276.799	82.38
277.031	86.38
277.262	89.38
277.494	71.38
277.726	82.38
277.957	78.38
278.189	96.38
278.421	89.38
278.652	81.38
278.884	76.38
279.115	90.38
279.347	91.38
279.579	90.38
279.81	108.38
280.042	139.38
280.273	146.38
280.505	143.38
280.736	103.38
280.968	89.38
281.199	88.38
281.431	85.38
281.662	84.38
281.894	88.38
282.125	103.38
282.356	110.38
282.588	105.38
282.819	101.38
283.051	118.38
283.282	136.38
283.513	136.38
283.745	95.38
283.976	112.38
284.207	101.38
284.439	97.38
284.67	93.38
284.901	88.38
285.132	91.38
285.364	105.38
285.595	92.38
285.826	93.38
286.057	87.38
286.288	96.38
286.52	90.38
286.751	79.38
286.982	85.38
287.213	101.38
287.444	119.38
287.675	122.38
287.906	108.38
288.138	124.38
288.369	113.38
288.6	90.38
288.831	90.38
289.062	92.38
289.293	78.38
289.524	87.38
289.755	89.38
289.986	93.38
290.217	89.38
290.448	82.38
290.679	92.38
290.91	81.38
291.141	95.38
291.371	88.38
291.602	77.38
291.833	84.38
292.064	78.38
292.295	80.38
292.526	80.38
292.757	78.38
292.987	93.38
293.218	87.38
293.449	75.38
293.68	79.38
293.91	93.38
294.141	93.38
294.372	94.38
294.603	84.38
294.833	76.38
295.064	81.38
295.295	78.38
295.525	80.38
295.756	79.38
295.987	91.38
296.217	84.38
296.448	84.38
296.679	83.38
296.909	79.38
297.14	85.38
297.37	102.38
297.601	79.38
297.831	94.38
298.062	100.38
298.292	80.38
298.523	78.38
298.753	86.38
298.984	97.38
299.214	84.38
299.445	76.38
299.675	82.38
299.905	76.38
300.136	87.38
300.366	96.38
300.597	87.38
300.827	91.38
301.057	102.38
301.288	104.38
301.518	99.38
301.748	92.38
301.979	92.38
302.209	96.38
302.439	78.38
302.669	98.38
302.9	88.38
303.13	96.38
303.36	93.38
303.59	108.38
303.82	98.38
304.051	88.38
304.281	80.38
304.511	85.38
304.741	96.38
304.971	89.38
305.201	85.38
305.431	78.38
305.661	96.38
305.891	79.38
306.121	93.38
306.352	92.38
306.582	89.38
306.812	75.38
307.042	92.38
307.272	82.38
307.502	89.38
307.731	92.38
307.961	93.38
308.191	112.38
308.421	118.38
308.651	102.38
308.881	99.38
309.111	114.38
309.341	124.38
309.571	114.38
309.8	84.38
310.03	68.38
310.26	82.38
310.49	83.38
310.72	79.38
310.949	76.38
311.179	82.38
311.409	93.38
311.639	93.38
311.868	85.38
312.098	76.38
312.328	88.38
312.557	87.38
312.787	86.38
313.017	96.38
313.246	86.38
313.476	81.38
313.706	88.38
313.935	88.38
314.165	71.38
314.394	94.38
314.624	91.38
314.853	86.38
315.083	102.38
315.312	102.38
315.542	92.38
315.771	93.38
316.001	85.38
316.23	78.38
316.46	79.38
316.689	66.38
316.919	77.38
317.148	90.38
317.377	117.38
317.607	97.38
317.836	94.38
318.065	97.38
318.295	84.38
318.524	92.38
318.753	92.38
318.983	98.38
319.212	101.38
319.441	85.38
319.67	80.38
319.9	82.38
320.129	100.38
320.358	89.38
320.587	92.38
320.816	88.38
321.046	88.38
321.275	92.38
321.504	96.38
321.733	88.38
321.962	71.38
322.191	95.38
322.42	64.38
322.649	87.38
322.878	87.38
323.108	89.38
323.337	81.38
323.566	90.38
323.795	81.38
324.024	92.38
324.253	92.38
324.482	92.38
324.71	108.38
324.939	113.38
325.168	113.38
325.397	81.38
325.626	87.38
325.855	98.38
326.084	98.38
326.313	99.38
326.542	116.38
326.77	86.38
326.999	76.38
327.228	108.38
327.457	117.38
327.686	90.38
327.914	95.38
328.143	94.38
328.372	85.38
328.6	82.38
328.829	89.38
329.058	82.38
329.287	98.38
329.515	93.38
329.744	90.38
329.972	76.38
330.201	83.38
330.43	84.38
330.658	78.38
330.887	84.38
331.115	82.38
331.344	80.38
331.572	90.38
331.801	82.38
332.03	82.38
332.258	100.38
332.486	92.38
332.715	81.38
332.943	90.38
333.172	95.38
333.4	78.38
333.629	89.38
333.857	83.38
334.085	92.38
334.314	89.38
334.542	91.38
334.771	76.38
334.999	90.38
335.227	78.38
335.455	74.38
335.684	99.38
335.912	99.38
336.14	98.38
336.369	93.38
336.597	84.38
336.825	73.38
337.053	81.38
337.281	68.38
337.51	76.38
337.738	87.38
337.966	86.38
338.194	76.38
338.422	77.38
338.65	91.38
338.878	76.38
339.106	105.38
339.334	87.38
339.562	85.38
339.79	80.38
340.018	79.38
340.246	76.38
340.474	94.38
340.702	94.38
340.93	93.38
341.158	75.38
341.386	82.38
341.614	79.38
341.842	77.38
342.07	82.38
342.298	84.38
342.526	80.38
342.754	96.38
342.981	75.38
343.209	91.38
343.437	99.38
343.665	87.38
343.893	86.38
344.12	97.38
344.348	93.38
344.576	92.38
344.804	81.38
345.031	91.38
345.259	87.38
345.487	82.38
345.714	86.38
345.942	78.38
346.17	77.38
346.397	82.38
346.625	98.38
346.853	82.38
347.08	95.38
347.308	97.38
347.535	76.38
347.763	88.38
347.99	77.38
348.218	82.38
348.445	78.38
348.673	88.38
348.9	87.38
349.128	89.38
349.355	89.38
349.583	84.38
349.81	81.38
350.037	89.38
350.265	92.38
350.492	74.38
350.72	88.38
350.947	108.38
351.174	77.38
351.402	76.38
351.629	88.38
351.856	88.38
352.083	79.38
352.311	84.38
352.538	84.38
352.765	89.38
352.992	106.38
353.22	97.38
353.447	90.38
353.674	99.38
353.901	88.38
354.128	89.38
354.355	84.38
354.583	72.38
354.81	85.38
355.037	86.38
355.264	87.38
355.491	88.38
355.718	74.38
355.945	77.38
356.172	89.38
356.399	93.38
356.626	84.38
356.853	132.38
357.08	172.38
357.307	229.38
357.534	183.38
357.761	110.38
357.988	107.38
358.215	89.38
358.441	93.38
358.668	87.38
358.895	96.38
359.122	79.38
359.349	76.38
359.576	87.38
359.802	79.38
360.029	87.38
360.256	86.38
360.483	102.38
360.709	84.38
360.936	93.38
361.163	93.38
361.39	89.38
361.616	99.38
361.843	84.38
362.07	95.38
362.296	86.38
362.523	90.38
362.749	98.38
362.976	97.38
363.203	107.38
363.429	110.38
363.656	184.38
363.882	294.38
364.109	323.38
364.335	150.38
364.562	106.38
364.788	94.38
365.015	88.38
365.241	82.38
365.468	94.38
365.694	83.38
365.92	80.38
366.147	89.38
366.373	82.38
366.599	82.38
366.826	117.38
367.052	132.38
367.278	143.38
367.505	114.38
367.731	117.38
367.957	168.38
368.184	294.38
368.41	425.38
368.636	282.38
368.862	126.38
369.089	93.38
369.315	77.38
369.541	84.38
369.767	78.38
369.993	91.38
370.219	79.38
370.445	80.38
370.672	88.38
370.898	77.38
371.124	82.38
371.35	75.38
371.576	74.38
371.802	71.38
372.028	81.38
372.254	93.38
372.48	79.38
372.706	94.38
372.932	96.38
373.158	116.38
373.384	90.38
373.61	138.38
373.835	185.38
374.061	212.38
374.287	164.38
374.513	103.38
374.739	93.38
374.965	89.38
375.191	83.38
375.416	81.38
375.642	92.38
375.868	94.38
376.094	83.38
376.319	81.38
376.545	94.38
376.771	74.38
376.997	96.38
377.222	62.38
377.448	102.38
377.674	103.38
377.899	89.38
378.125	75.38
378.35	82.38
378.576	72.38
378.802	89.38
379.027	94.38
379.253	77.38
379.478	81.38
379.704	87.38
379.929	84.38
380.155	88.38
380.38	88.38
380.606	77.38
380.831	93.38
381.057	95.38
381.282	96.38
381.507	82.38
381.733	99.38
381.958	88.38
382.184	84.38
382.409	91.38
382.634	82.38
382.86	106.38
383.085	97.38
383.31	86.38
383.535	84.38
383.761	89.38
383.986	84.38
384.211	85.38
384.436	84.38
384.662	86.38
384.887	93.38
385.112	89.38
385.337	85.38
385.562	82.38
385.787	90.38
386.013	89.38
386.238	85.38
386.463	93.38
386.688	89.38
386.913	76.38
387.138	82.38
387.363	81.38
387.588	82.38
387.813	101.38
388.038	89.38
388.263	94.38
388.488	75.38
388.713	80.38
388.938	80.38
389.163	83.38
389.387	88.38
389.612	79.38
389.837	89.38
390.062	87.38
390.287	88.38
390.512	89.38
390.736	86.38
390.961	84.38
391.186	75.38
391.411	84.38
391.636	84.38
391.86	101.38
392.085	82.38
392.31	75.38
392.534	84.38
392.759	83.38
392.984	106.38
393.208	142.38
393.433	171.38
393.658	128.38
393.882	100.38
394.107	113.38
394.331	161.38
394.556	192.38
394.78	113.38
395.005	97.38
395.229	89.38
395.454	86.38
395.678	98.38
395.903	131.38
396.127	204.38
396.352	217.38
396.576	117.38
396.801	128.38
397.025	114.38
397.249	91.38
397.474	88.38
397.698	83.38
397.922	90.38
398.147	100.38
398.371	93.38
398.595	87.38
398.82	90.38
399.044	68.38
399.268	74.38
399.492	73.38
399.717	72.38
399.941	84.38
400.165	71.38
400.389	81.38
400.613	86.38
400.837	89.38
401.062	81.38
401.286	79.38
401.51	90.38
401.734	82.38
401.958	118.38
402.182	115.38
402.406	81.38
402.63	78.38
402.854	90.38
403.078	81.38
403.302	78.38
403.526	93.38
403.75	84.38
403.974	89.38
404.198	93.38
404.422	97.38
404.645	97.38
404.869	100.38
405.093	106.38
405.317	154.38
405.541	307.38
405.765	627.38
405.988	674.38
406.212	298.38
406.436	172.38
406.66	105.38
406.883	97.38
407.107	86.38
407.331	92.38
407.555	89.38
407.778	81.38
408.002	87.38
408.226	71.38
408.449	85.38
408.673	82.38
408.896	94.38
409.12	71.38
409.344	84.38
409.567	85.38
409.791	81.38
410.014	95.38
410.238	83.38
410.461	90.38
410.685	82.38
410.908	88.38
411.132	92.38
411.355	100.38
411.578	79.38
411.802	66.38
412.025	71.38
412.249	86.38
412.472	91.38
412.695	82.38
412.919	70.38
413.142	83.38
413.365	76.38
413.589	69.38
413.812	82.38
414.035	90.38
414.258	96.38
414.482	82.38
414.705	87.38
414.928	90.38
415.151	73.38
415.374	88.38
415.597	95.38
415.821	74.38
416.044	70.38
416.267	93.38
416.49	88.38
416.713	84.38
416.936	103.38
417.159	74.38
417.382	86.38
417.605	78.38
417.828	83.38
418.051	90.38
418.274	84.38
418.497	85.38
418.72	72.38
418.943	87.38
419.166	94.38
419.389	68.38
419.611	75.38
419.834	79.38
420.057	98.38
420.28	94.38
420.503	81.38
420.726	84.38
420.948	77.38
421.171	64.38
421.394	79.38
421.617	81.38
421.839	85.38
422.062	87.38
422.285	99.38
422.507	101.38
422.73	129.38
422.953	120.38
423.175	92.38
423.398	71.38
423.621	84.38
423.843	94.38
424.066	81.38
424.288	71.38
424.511	92.38
424.733	74.38
424.956	78.38
425.178	84.38
425.401	88.38
425.623	94.38
425.846	83.38
426.068	84.38
426.291	82.38
426.513	85.38
426.735	78.38
426.958	57.38
427.18	83.38
427.402	88.38
427.625	75.38
427.847	93.38
428.069	90.38
428.292	81.38
428.514	80.38
428.736	97.38
428.958	87.38
429.181	74.38
429.403	96.38
429.625	82.38
429.847	83.38
430.069	94.38
430.292	99.38
430.514	103.38
430.736	82.38
430.958	78.38
431.18	71.38
431.402	88.38
431.624	85.38
431.846	77.38
432.068	86.38
432.29	77.38
432.512	78.38
432.734	75.38
432.956	76.38
433.178	89.38
433.4	84.38
433.622	84.38
433.844	86.38
434.066	86.38
434.287	78.38
434.509	87.38
434.731	77.38
434.953	75.38
435.175	79.38
435.397	70.38
435.618	76.38
435.84	83.38
436.062	79.38
436.284	85.38
436.505	75.38
436.727	86.38
436.949	90.38
437.17	83.38
437.392	68.38
437.614	83.38
437.835	92.38
438.057	88.38
438.278	85.38
438.5	96.38
438.721	84.38
438.943	82.38
439.165	84.38
439.386	76.38
439.608	83.38
439.829	78.38
440.05	77.38
440.272	86.38
440.493	91.38
440.715	94.38
440.936	94.38
441.158	91.38
441.379	84.38
441.6	82.38
441.822	66.38
442.043	86.38
442.264	83.38
442.486	80.38
442.707	80.38
442.928	90.38
443.149	86.38
443.371	87.38
443.592	89.38
443.813	84.38
444.034	86.38
444.255	77.38
444.476	79.38
444.698	84.38
444.919	83.38
445.14	156.38
445.361	110.38
445.582	87.38
445.803	91.38
446.024	78.38
446.245	89.38
446.466	85.38
446.687	84.38
446.908	81.38
447.129	72.38
447.35	92.38
447.571	93.38
447.792	77.38
448.013	88.38
448.234	80.38
448.455	80.38
448.675	92.38
448.896	84.38
449.117	92.38
449.338	85.38
449.559	80.38
449.779	88.38
450	80.38
450.221	77.38
450.442	95.38
450.662	102.38
450.883	108.38
451.104	89.38
451.324	79.38
451.545	89.38
451.766	81.38
451.986	87.38
452.207	90.38
452.428	78.38
452.648	95.38
452.869	74.38
453.089	90.38
453.31	79.38
453.53	84.38
453.751	90.38
453.971	74.38
454.192	94.38
454.412	85.38
454.633	86.38
454.853	72.38
455.073	85.38
455.294	84.38
455.514	84.38
455.734	89.38
455.955	90.38
456.175	86.38
456.395	82.38
456.616	83.38
456.836	87.38
457.056	93.38
457.276	79.38
457.497	75.38
457.717	76.38
457.937	84.38
458.157	79.38
458.377	81.38
458.598	78.38
458.818	76.38
459.038	83.38
459.258	70.38
459.478	83.38
459.698	88.38
459.918	97.38
460.138	86.38
460.358	76.38
460.578	91.38
460.798	77.38
461.018	89.38
461.238	76.38
461.458	88.38
461.678	89.38
461.898	77.38
462.118	80.38
462.338	76.38
462.558	68.38
462.777	86.38
462.997	86.38
463.217	78.38
463.437	96.38
463.657	89.38
463.876	76.38
464.096	71.38
464.316	83.38
464.536	92.38
464.755	75.38
464.975	83.38
465.195	74.38
465.414	67.38
465.634	84.38
465.854	84.38
466.073	102.38
466.293	101.38
466.512	76.38
466.732	86.38
466.951	74.38
467.171	89.38
467.391	86.38
467.61	88.38
467.829	93.38
468.049	78.38
468.268	89.38
468.488	79.38
468.707	82.38
468.927	79.38
469.146	75.38
469.365	83.38
469.585	72.38
469.804	82.38
470.023	83.38
470.243	94.38
470.462	71.38
470.681	78.38
470.901	85.38
471.12	85.38
471.339	104.38
471.558	95.38
471.777	72.38
471.997	93.38
472.216	88.38
472.435	84.38
472.654	87.38
472.873	76.38
473.092	80.38
473.311	80.38
473.53	91.38
473.749	90.38
473.968	86.38
474.187	91.38
474.406	70.38
474.625	73.38
474.844	92.38
475.063	87.38
475.282	84.38
475.501	86.38
475.72	92.38
475.939	94.38
476.158	89.38
476.377	79.38
476.596	76.38
476.814	74.38
477.033	73.38
477.252	92.38
477.471	88.38
477.69	92.38
477.908	81.38
478.127	87.38
478.346	72.38
478.564	81.38
478.783	86.38
479.002	94.38
479.22	96.38
479.439	92.38
479.658	88.38
479.876	86.38
480.095	79.38
480.313	94.38
480.532	85.38
480.751	86.38
480.969	68.38
481.188	94.38
481.406	81.38
481.624	82.38
481.843	85.38
482.061	73.38
482.28	60.38
482.498	92.38
482.717	85.38
482.935	81.38
483.153	88.38
483.372	86.38
483.59	82.38
483.808	89.38
484.027	73.38
484.245	81.38
484.463	97.38
484.681	99.38
484.9	83.38
485.118	86.38
485.336	91.38
485.554	84.38
485.772	84.38
485.99	92.38
486.209	74.38
486.427	94.38
486.645	83.38
486.863	78.38
487.081	84.38
487.299	82.38
487.517	74.38
487.735	76.38
487.953	97.38
488.171	87.38
488.389	83.38
488.607	84.38
488.825	90.38
489.043	88.38
489.261	83.38
489.479	98.38
489.696	93.38
489.914	84.38
490.132	65.38
490.35	81.38
490.568	89.38
490.786	80.38
491.003	97.38
491.221	88.38
491.439	74.38
491.657	92.38
491.874	90.38
492.092	89.38
492.31	88.38
492.527	82.38
492.745	64.38
492.963	73.38
493.18	89.38
493.398	80.38
493.615	88.38
493.833	74.38
494.05	90.38
494.268	91.38
494.485	84.38
494.703	75.38
494.92	96.38
495.138	95.38
495.355	96.38
495.573	89.38
495.79	94.38
496.008	74.38
496.225	96.38
496.442	102.38
496.66	101.38
496.877	79.38
497.094	97.38
497.312	74.38
497.529	86.38
497.746	79.38
497.963	95.38
498.181	93.38
498.398	82.38
498.615	100.38
498.832	88.38
499.049	85.38
499.267	92.38
499.484	76.38
499.701	82.38
499.918	98.38
500.135	90.38
500.352	85.38
500.569	111.38
500.786	159.38
501.003	105.38
501.22	84.38
501.437	92.38
501.654	73.38
501.871	76.38
502.088	87.38
502.305	81.38
502.522	87.38
502.739	107.38
502.956	74.38
503.172	81.38
503.389	81.38
503.606	89.38
503.823	86.38
504.04	87.38
504.256	101.38
504.473	85.38
504.69	80.38
504.907	93.38
505.123	75.38
505.34	98.38
505.557	86.38
505.773	94.38
505.99	103.38
506.207	90.38
506.423	87.38
506.64	78.38
506.856	78.38
507.073	74.38
507.289	71.38
507.506	80.38
507.722	83.38
507.939	82.38
508.155	88.38
508.372	94.38
508.588	81.38
508.805	88.38
509.021	96.38
509.238	85.38
509.454	91.38
509.67	89.38
509.887	88.38
510.103	88.38
510.319	79.38
510.536	108.38
510.752	90.38
510.968	94.38
511.184	88.38
511.401	87.38
511.617	85.38
511.833	88.38
512.049	87.38
512.265	70.38
512.481	87.38
512.698	90.38
512.914	91.38
513.13	79.38
513.346	93.38
513.562	84.38
513.778	74.38
513.994	80.38
514.21	92.38
514.426	93.38
514.642	90.38
514.858	84.38
515.074	89.38
515.29	102.38
515.506	99.38
515.721	87.38
515.937	107.38
516.153	94.38
516.369	92.38
516.585	99.38
516.801	91.38
517.016	94.38
517.232	84.38
517.448	91.38
517.664	83.38
517.879	87.38
518.095	79.38
518.311	89.38
518.527	85.38
518.742	85.38
518.958	74.38
519.173	85.38
519.389	92.38
519.605	86.38
519.82	88.38
520.036	89.38
520.251	98.38
520.467	101.38
520.682	75.38
520.898	89.38
521.113	92.38
521.329	88.38
521.544	84.38
521.76	88.38
521.975	93.38
522.19	91.38
522.406	81.38
522.621	90.38
522.836	97.38
523.052	113.38
523.267	91.38
523.482	81.38
523.698	76.38
523.913	77.38
524.128	74.38
524.343	85.38
524.559	88.38
524.774	101.38
524.989	91.38
525.204	86.38
525.419	90.38
525.634	90.38
525.849	86.38
526.064	85.38
526.28	72.38
526.495	82.38
526.71	98.38
526.925	85.38
527.14	78.38
527.355	100.38
527.57	92.38
527.785	80.38
527.999	68.38
528.214	98.38
528.429	78.38
528.644	86.38
528.859	77.38
529.074	84.38
529.289	83.38
529.503	97.38
529.718	84.38
529.933	100.38
530.148	73.38
530.363	93.38
530.577	81.38
530.792	88.38
531.007	91.38
531.221	86.38
531.436	96.38
531.651	83.38
531.865	73.38
532.08	77.38
532.295	85.38
532.509	84.38
532.724	84.38
532.938	99.38
533.153	67.38
533.367	81.38
533.582	85.38
533.796	77.38
534.011	84.38
534.225	87.38
534.44	88.38
534.654	87.38
534.868	88.38
535.083	94.38
535.297	74.38
535.511	79.38
535.726	74.38
535.94	80.38
536.154	93.38
536.369	84.38
536.583	80.38
536.797	91.38
537.011	94.38
537.225	81.38
537.44	89.38
537.654	85.38
537.868	72.38
538.082	70.38
538.296	74.38
538.51	85.38
538.724	85.38
538.938	82.38
539.153	89.38
539.367	88.38
539.581	87.38
539.795	92.38
540.009	92.38
540.222	102.38
540.436	91.38
540.65	94.38
540.864	79.38
541.078	86.38
541.292	106.38
541.506	98.38
541.72	77.38
541.934	96.38
542.147	74.38
542.361	100.38
542.575	81.38
542.789	82.38
543.002	96.38
543.216	75.38
543.43	91.38
543.644	85.38
543.857	92.38
544.071	86.38
544.285	94.38
544.498	96.38
544.712	91.38
544.925	98.38
545.139	92.38
545.352	88.38
545.566	92.38
545.779	93.38
545.993	74.38
546.206	85.38
546.42	80.38
546.633	95.38
546.847	107.38
547.06	85.38
547.274	85.38
547.487	88.38
547.7	82.38
547.914	94.38
548.127	84.38
548.34	99.38
548.554	85.38
548.767	100.38
548.98	93.38
549.193	80.38
549.407	97.38
549.62	77.38
549.833	74.38
550.046	86.38
550.259	88.38
550.473	93.38
550.686	82.38
550.899	86.38
551.112	93.38
551.325	77.38
551.538	79.38
551.751	79.38
551.964	93.38
552.177	77.38
552.39	78.38
552.603	89.38
552.816	109.38
553.029	94.38
553.242	75.38
553.455	86.38
553.667	89.38
553.88	81.38
554.093	89.38
554.306	79.38
554.519	82.38
554.732	77.38
554.944	84.38
555.157	80.38
555.37	69.38
555.583	92.38
555.795	86.38
556.008	85.38
556.221	77.38
556.433	86.38
556.646	90.38
556.859	88.38
557.071	86.38
557.284	94.38
557.496	88.38
557.709	79.38
557.921	101.38
558.134	84.38
558.346	89.38
558.559	80.38
558.771	88.38
558.984	94.38
559.196	92.38
559.409	89.38
559.621	98.38
559.833	92.38
560.046	89.38
560.258	97.38
560.47	101.38
560.683	109.38
560.895	95.38
561.107	95.38
561.32	85.38
561.532	75.38
561.744	91.38
561.956	96.38
562.168	94.38
562.381	100.38
562.593	77.38
562.805	81.38
563.017	76.38
563.229	90.38
563.441	80.38
563.653	97.38
563.865	85.38
564.077	86.38
564.289	97.38
564.501	84.38
564.713	96.38
564.925	98.38
565.137	89.38
565.349	91.38
565.561	89.38
565.773	93.38
565.985	76.38
566.197	82.38
566.408	85.38
566.62	88.38
566.832	105.38
567.044	86.38
567.255	96.38
567.467	93.38
567.679	84.38
567.891	80.38
568.102	95.38
568.314	87.38
568.526	88.38
568.737	91.38
568.949	95.38
569.161	85.38
569.372	79.38
569.584	99.38
569.795	83.38
570.007	77.38
570.218	92.38
570.43	89.38
570.641	89.38
570.853	76.38
571.064	78.38
571.276	86.38
571.487	92.38
571.698	96.38
571.91	94.38
572.121	91.38
572.333	90.38
572.544	79.38
572.755	86.38
572.966	82.38
573.178	96.38
573.389	76.38
573.6	81.38
573.811	99.38
574.023	84.38
574.234	82.38
574.445	78.38
574.656	83.38
574.867	100.38
575.078	92.38
575.289	74.38
575.501	89.38
575.712	86.38
575.923	88.38
576.134	82.38
576.345	100.38
576.556	91.38
576.767	87.38
576.978	83.38
577.188	85.38
577.399	73.38
577.61	91.38
577.821	84.38
578.032	72.38
578.243	85.38
578.454	83.38
578.665	86.38
578.875	90.38
579.086	78.38
579.297	100.38
579.508	90.38
579.718	91.38
579.929	97.38
580.14	93.38
580.35	84.38
580.561	90.38
580.772	95.38
580.982	86.38
581.193	92.38
581.403	95.38
581.614	87.38
581.825	75.38
582.035	81.38
582.246	80.38
582.456	76.38
582.667	86.38
582.877	73.38
583.087	83.38
583.298	90.38
583.508	88.38
583.719	89.38
583.929	94.38
584.139	100.38
584.35	82.38
584.56	92.38
584.77	107.38
584.981	104.38
585.191	102.38
585.401	98.38
585.611	94.38
585.821	82.38
586.032	76.38
586.242	82.38
586.452	88.38
586.662	79.38
586.872	84.38
587.082	93.38
587.292	90.38
587.502	88.38
587.713	81.38
587.923	91.38
588.133	84.38
588.343	88.38
588.553	98.38
588.762	109.38
588.972	155.38
589.182	449.38
589.392	256.38
589.602	198.38
589.812	367.38
590.022	168.38
590.232	92.38
590.441	96.38
590.651	94.38
590.861	86.38
591.071	92.38
591.281	82.38
591.49	86.38
591.7	96.38
591.91	96.38
592.119	80.38
592.329	96.38
592.539	85.38
592.748	98.38
592.958	88.38
593.167	85.38
593.377	89.38
593.587	75.38
593.796	88.38
594.006	72.38
594.215	86.38
594.424	79.38
594.634	84.38
594.843	88.38
595.053	98.38
595.262	97.38
595.472	88.38
595.681	93.38
595.89	81.38
596.1	83.38
596.309	88.38
596.518	101.38
596.727	100.38
596.937	102.38
597.146	83.38
597.355	69.38
597.564	96.38
597.774	76.38
597.983	83.38
598.192	73.38
598.401	79.38
598.61	81.38
598.819	93.38
599.028	92.38
599.237	77.38
599.446	91.38
599.655	84.38
599.864	84.38
600.073	84.38
600.282	100.38
600.491	104.38
600.7	93.38
600.909	86.38
601.118	71.38
601.327	89.38
601.536	79.38
601.745	85.38
601.953	82.38
602.162	79.38
602.371	92.38
602.58	85.38
602.789	79.38
602.997	83.38
603.206	88.38
603.415	104.38
603.623	84.38
603.832	81.38
604.041	88.38
604.249	93.38
604.458	96.38
604.666	88.38
604.875	104.38
605.084	93.38
605.292	81.38
605.501	81.38
605.709	94.38
605.918	99.38
606.126	82.38
606.334	96.38
606.543	96.38
606.751	100.38
606.96	87.38
607.168	94.38
607.376	70.38
607.585	86.38
607.793	77.38
608.001	88.38
608.21	88.38
608.418	91.38
608.626	93.38
608.834	101.38
609.043	81.38
609.251	79.38
609.459	94.38
609.667	98.38
609.875	84.38
610.083	87.38
610.291	96.38
610.499	71.38
610.707	86.38
610.916	91.38
611.124	85.38
611.332	90.38
611.54	83.38
611.748	93.38
611.955	92.38
612.163	93.38
612.371	104.38
612.579	84.38
612.787	83.38
612.995	79.38
613.203	76.38
613.411	84.38
613.618	82.38
613.826	80.38
614.034	89.38
614.242	75.38
614.449	76.38
614.657	87.38
614.865	69.38
615.072	90.38
615.28	90.38
615.488	87.38
615.695	97.38
615.903	91.38
616.111	82.38
616.318	97.38
616.526	83.38
616.733	97.38
616.941	87.38
617.148	78.38
617.356	86.38
617.563	96.38
617.771	81.38
617.978	85.38
618.185	89.38
618.393	85.38
618.6	84.38
618.807	87.38
619.015	84.38
619.222	89.38
619.429	84.38
619.637	84.38
619.844	85.38
620.051	72.38
620.258	88.38
620.466	65.38
620.673	82.38
620.88	93.38
621.087	91.38
621.294	92.38
621.501	75.38
621.708	66.38
621.915	84.38
622.122	86.38
622.329	83.38
622.536	80.38
622.743	90.38
622.95	89.38
623.157	97.38
623.364	81.38
623.571	83.38
623.778	101.38
623.985	79.38
624.192	67.38
624.399	101.38
624.606	89.38
624.812	91.38
625.019	90.38
625.226	81.38
625.433	95.38
625.639	80.38
625.846	80.38
626.053	78.38
626.259	76.38
626.466	86.38
626.673	92.38
626.879	88.38
627.086	84.38
627.293	86.38
627.499	89.38
627.706	84.38
627.912	86.38
628.119	89.38
628.325	74.38
628.532	93.38
628.738	84.38
628.945	96.38
629.151	89.38
629.357	77.38
629.564	74.38
629.77	92.38
629.976	86.38
630.183	83.38
630.389	89.38
630.595	97.38
630.802	83.38
631.008	79.38
631.214	94.38
631.42	83.38
631.627	84.38
631.833	78.38
632.039	98.38
632.245	94.38
632.451	85.38
632.657	89.38
632.863	93.38
633.069	97.38
633.275	81.38
633.481	85.38
633.688	77.38
633.893	92.38
634.099	96.38
634.305	105.38
634.511	78.38
634.717	76.38
634.923	91.38
635.129	85.38
635.335	86.38
635.541	95.38
635.747	81.38
635.952	96.38
636.158	92.38
636.364	81.38
636.57	85.38
636.775	81.38
636.981	75.38
637.187	82.38
637.392	82.38
637.598	96.38
637.804	87.38
638.009	82.38
638.215	76.38
638.421	82.38
638.626	72.38
638.832	87.38
639.037	81.38
639.243	85.38
639.448	77.38
639.654	89.38
639.859	83.38
640.065	91.38
640.27	102.38
640.475	84.38
640.681	77.38
640.886	74.38
641.091	86.38
641.297	84.38
641.502	80.38
641.707	93.38
641.913	90.38
642.118	92.38
642.323	91.38
642.528	83.38
642.733	84.38
642.939	90.38
643.144	75.38
643.349	98.38
643.554	78.38
643.759	75.38
643.964	90.38
644.169	74.38
644.374	88.38
644.579	100.38
644.784	79.38
644.989	83.38
645.194	94.38
645.399	93.38
645.604	80.38
645.809	90.38
646.014	64.38
646.219	86.38
646.423	78.38
646.628	81.38
646.833	84.38
647.038	86.38
647.243	97.38
647.447	77.38
647.652	78.38
647.857	84.38
648.062	84.38
648.266	67.38
648.471	82.38
648.676	73.38
648.88	80.38
649.085	85.38
649.289	85.38
649.494	98.38
649.698	91.38
649.903	82.38
650.107	90.38
650.312	99.38
650.516	77.38
650.721	101.38
650.925	87.38
651.13	79.38
651.334	81.38
651.539	90.38
651.743	60.38
651.947	85.38
652.152	88.38
652.356	72.38
652.56	84.38
652.764	96.38
652.969	93.38
653.173	79.38
653.377	74.38
653.581	88.38
653.785	87.38
653.99	87.38
654.194	74.38
654.398	87.38
654.602	80.38
654.806	70.38
655.01	90.38
655.214	83.38
655.418	75.38
655.622	76.38
655.826	91.38
656.03	82.38
656.234	85.38
656.438	95.38
656.642	75.38
656.846	82.38
657.049	91.38
657.253	85.38
657.457	93.38
657.661	78.38
657.865	84.38
658.068	88.38
658.272	70.38
658.476	88.38
658.68	74.38
658.883	73.38
659.087	77.38
659.291	87.38
659.494	78.38
659.698	76.38
659.901	93.38
660.105	84.38
660.309	71.38
660.512	80.38
660.716	85.38
660.919	84.38
661.123	73.38
661.326	94.38
661.53	100.38
661.733	98.38
661.936	108.38
662.14	90.38
662.343	85.38
662.546	91.38
662.75	78.38
662.953	89.38
663.156	88.38
663.36	91.38
663.563	83.38
663.766	79.38
663.969	90.38
664.173	75.38
664.376	87.38
664.579	90.38
664.782	61.38
664.985	76.38
665.188	87.38
665.391	92.38
665.594	88.38
665.797	81.38
666	92.38
666.203	87.38
666.406	86.38
666.609	80.38
666.812	79.38
667.015	83.38
667.218	86.38
667.421	66.38
667.624	72.38
667.827	76.38
668.03	83.38
668.232	90.38
668.435	69.38
668.638	84.38
668.841	82.38
669.043	72.38
669.246	81.38
669.449	88.38
669.651	88.38
669.854	75.38
670.057	61.38
670.259	87.38
670.462	65.38
670.665	88.38
670.867	81.38
671.07	88.38
671.272	84.38
671.475	101.38
671.677	77.38
671.88	91.38
672.082	77.38
672.284	89.38
672.487	72.38
672.689	73.38
672.892	74.38
