Data from Lead_HRD10591_00045.txt Node
Date: Tue Feb 17 14:14:07 EST 2026
User: Yrep
Spectrometer: HR+D1059
Trigger mode: 1
Integration Time (sec): 1.000000E-1
Scans to average: 1
Electric dark correction enabled: true
Nonlinearity correction enabled: false
Boxcar width: 0
XAxis mode: Wavelengths
Number of Pixels in Spectrum: 2048
>>>>>Begin Spectral Data<<<<<
223.165	-21.5
223.4	-21.5
223.635	-21.5
223.869	-31.5
224.104	-10.5
224.338	-21.5
224.573	-15.5
224.808	-2.5
225.042	-1.5
225.277	-19.5
225.511	-25.5
225.746	6.5
225.98	13.5
226.215	15.5
226.449	14.5
226.683	19.5
226.918	38.5
227.152	41.5
227.387	49.5
227.621	42.5
227.856	50.5
228.09	41.5
228.324	54.5
228.559	52.5
228.793	61.5
229.027	70.5
229.262	43.5
229.496	56.5
229.73	59.5
229.964	69.5
230.199	68.5
230.433	64.5
230.667	72.5
230.901	75.5
231.136	75.5
231.37	76.5
231.604	77.5
231.838	104.5
232.072	74.5
232.306	72.5
232.541	90.5
232.775	96.5
233.009	86.5
233.243	63.5
233.477	82.5
233.711	77.5
233.945	70.5
234.179	77.5
234.413	68.5
234.647	60.5
234.881	74.5
235.115	86.5
235.349	74.5
235.583	71.5
235.817	64.5
236.051	62.5
236.285	71.5
236.519	81.5
236.753	88.5
236.987	76.5
237.221	62.5
237.455	63.5
237.689	75.5
237.922	82.5
238.156	68.5
238.39	72.5
238.624	60.5
238.858	74.5
239.091	75.5
239.325	73.5
239.559	88.5
239.793	80.5
240.027	77.5
240.26	73.5
240.494	87.5
240.728	70.5
240.961	69.5
241.195	54.5
241.429	69.5
241.662	82.5
241.896	70.5
242.13	68.5
242.363	76.5
242.597	68.5
242.83	63.5
243.064	67.5
243.298	67.5
243.531	73.5
243.765	84.5
243.998	74.5
244.232	72.5
244.465	77.5
244.699	88.5
244.932	74.5
245.166	65.5
245.399	67.5
245.633	61.5
245.866	81.5
246.099	78.5
246.333	85.5
246.566	83.5
246.8	72.5
247.033	62.5
247.266	66.5
247.5	61.5
247.733	72.5
247.966	84.5
248.2	86.5
248.433	75.5
248.666	62.5
248.899	73.5
249.133	86.5
249.366	65.5
249.599	80.5
249.832	82.5
250.066	79.5
250.299	78.5
250.532	74.5
250.765	72.5
250.998	87.5
251.231	73.5
251.465	80.5
251.698	84.5
251.931	80.5
252.164	85.5
252.397	72.5
252.63	82.5
252.863	92.5
253.096	87.5
253.329	72.5
253.562	66.5
253.795	91.5
254.028	70.5
254.261	74.5
254.494	77.5
254.727	81.5
254.96	93.5
255.193	70.5
255.426	85.5
255.659	79.5
255.892	86.5
256.124	77.5
256.357	73.5
256.59	89.5
256.823	75.5
257.056	89.5
257.289	82.5
257.521	88.5
257.754	86.5
257.987	80.5
258.22	96.5
258.452	76.5
258.685	73.5
258.918	102.5
259.151	78.5
259.383	71.5
259.616	91.5
259.849	82.5
260.081	77.5
260.314	92.5
260.547	84.5
260.779	98.5
261.012	72.5
261.244	98.5
261.477	83.5
261.71	79.5
261.942	79.5
262.175	79.5
262.407	80.5
262.64	76.5
262.872	77.5
263.105	84.5
263.337	88.5
263.57	86.5
263.802	87.5
264.035	75.5
264.267	75.5
264.499	85.5
264.732	86.5
264.964	90.5
265.197	86.5
265.429	100.5
265.661	87.5
265.894	70.5
266.126	86.5
266.358	81.5
266.591	81.5
266.823	80.5
267.055	68.5
267.287	87.5
267.52	81.5
267.752	84.5
267.984	71.5
268.216	80.5
268.448	82.5
268.681	77.5
268.913	88.5
269.145	85.5
269.377	78.5
269.609	70.5
269.841	89.5
270.073	75.5
270.306	77.5
270.538	77.5
270.77	77.5
271.002	79.5
271.234	74.5
271.466	84.5
271.698	76.5
271.93	86.5
272.162	77.5
272.394	84.5
272.626	78.5
272.858	75.5
273.09	77.5
273.322	83.5
273.553	88.5
273.785	79.5
274.017	69.5
274.249	77.5
274.481	87.5
274.713	69.5
274.945	82.5
275.176	76.5
275.408	84.5
275.64	72.5
275.872	94.5
276.104	70.5
276.335	78.5
276.567	73.5
276.799	65.5
277.031	86.5
277.262	88.5
277.494	86.5
277.726	85.5
277.957	87.5
278.189	84.5
278.421	81.5
278.652	84.5
278.884	80.5
279.115	94.5
279.347	87.5
279.579	86.5
279.81	90.5
280.042	89.5
280.273	89.5
280.505	89.5
280.736	83.5
280.968	78.5
281.199	78.5
281.431	96.5
281.662	84.5
281.894	78.5
282.125	80.5
282.356	84.5
282.588	89.5
282.819	82.5
283.051	96.5
283.282	88.5
283.513	99.5
283.745	82.5
283.976	96.5
284.207	82.5
284.439	85.5
284.67	78.5
284.901	88.5
285.132	81.5
285.364	82.5
285.595	83.5
285.826	72.5
286.057	67.5
286.288	88.5
286.52	75.5
286.751	88.5
286.982	87.5
287.213	79.5
287.444	88.5
287.675	95.5
287.906	82.5
288.138	72.5
288.369	63.5
288.6	91.5
288.831	83.5
289.062	86.5
289.293	96.5
289.524	88.5
289.755	92.5
289.986	83.5
290.217	91.5
290.448	83.5
290.679	80.5
290.91	81.5
291.141	89.5
291.371	67.5
291.602	76.5
291.833	77.5
292.064	82.5
292.295	72.5
292.526	94.5
292.757	94.5
292.987	96.5
293.218	84.5
293.449	91.5
293.68	85.5
293.91	91.5
294.141	91.5
294.372	75.5
294.603	81.5
294.833	82.5
295.064	87.5
295.295	77.5
295.525	76.5
295.756	95.5
295.987	73.5
296.217	76.5
296.448	86.5
296.679	101.5
296.909	83.5
297.14	90.5
297.37	88.5
297.601	73.5
297.831	84.5
298.062	72.5
298.292	67.5
298.523	88.5
298.753	90.5
298.984	88.5
299.214	81.5
299.445	85.5
299.675	62.5
299.905	76.5
300.136	70.5
300.366	83.5
300.597	90.5
300.827	71.5
301.057	94.5
301.288	91.5
301.518	77.5
301.748	90.5
301.979	92.5
302.209	82.5
302.439	92.5
302.669	95.5
302.9	94.5
303.13	85.5
303.36	84.5
303.59	82.5
303.82	67.5
304.051	82.5
304.281	86.5
304.511	85.5
304.741	92.5
304.971	84.5
305.201	77.5
305.431	90.5
305.661	72.5
305.891	81.5
306.121	86.5
306.352	82.5
306.582	79.5
306.812	107.5
307.042	86.5
307.272	92.5
307.502	83.5
307.731	77.5
307.961	83.5
308.191	88.5
308.421	79.5
308.651	96.5
308.881	91.5
309.111	88.5
309.341	85.5
309.571	79.5
309.8	93.5
310.03	91.5
310.26	86.5
310.49	84.5
310.72	73.5
310.949	89.5
311.179	85.5
311.409	73.5
311.639	86.5
311.868	78.5
312.098	81.5
312.328	88.5
312.557	80.5
312.787	88.5
313.017	81.5
313.246	80.5
313.476	74.5
313.706	90.5
313.935	89.5
314.165	86.5
314.394	88.5
314.624	85.5
314.853	84.5
315.083	77.5
315.312	84.5
315.542	66.5
315.771	98.5
316.001	81.5
316.23	74.5
316.46	89.5
316.689	65.5
316.919	70.5
317.148	91.5
317.377	106.5
317.607	72.5
317.836	82.5
318.065	84.5
318.295	90.5
318.524	86.5
318.753	79.5
318.983	84.5
319.212	90.5
319.441	91.5
319.67	91.5
319.9	81.5
320.129	88.5
320.358	87.5
320.587	86.5
320.816	82.5
321.046	76.5
321.275	91.5
321.504	76.5
321.733	97.5
321.962	90.5
322.191	95.5
322.42	99.5
322.649	94.5
322.878	87.5
323.108	84.5
323.337	75.5
323.566	63.5
323.795	88.5
324.024	101.5
324.253	84.5
324.482	85.5
324.71	74.5
324.939	86.5
325.168	81.5
325.397	97.5
325.626	88.5
325.855	77.5
326.084	82.5
326.313	86.5
326.542	98.5
326.77	89.5
326.999	83.5
327.228	81.5
327.457	92.5
327.686	92.5
327.914	94.5
328.143	96.5
328.372	84.5
328.6	90.5
328.829	87.5
329.058	84.5
329.287	69.5
329.515	88.5
329.744	86.5
329.972	89.5
330.201	80.5
330.43	83.5
330.658	83.5
330.887	87.5
331.115	89.5
331.344	82.5
331.572	74.5
331.801	79.5
332.03	94.5
332.258	86.5
332.486	61.5
332.715	86.5
332.943	84.5
333.172	79.5
333.4	96.5
333.629	88.5
333.857	75.5
334.085	82.5
334.314	105.5
334.542	78.5
334.771	81.5
334.999	88.5
335.227	78.5
335.455	85.5
335.684	82.5
335.912	86.5
336.14	98.5
336.369	91.5
336.597	93.5
336.825	73.5
337.053	67.5
337.281	89.5
337.51	83.5
337.738	88.5
337.966	93.5
338.194	92.5
338.422	82.5
338.65	76.5
338.878	96.5
339.106	82.5
339.334	81.5
339.562	76.5
339.79	77.5
340.018	105.5
340.246	93.5
340.474	73.5
340.702	73.5
340.93	87.5
341.158	79.5
341.386	91.5
341.614	73.5
341.842	77.5
342.07	83.5
342.298	84.5
342.526	79.5
342.754	85.5
342.981	97.5
343.209	79.5
343.437	106.5
343.665	86.5
343.893	86.5
344.12	84.5
344.348	80.5
344.576	84.5
344.804	85.5
345.031	93.5
345.259	87.5
345.487	85.5
345.714	87.5
345.942	81.5
346.17	86.5
346.397	70.5
346.625	86.5
346.853	92.5
347.08	90.5
347.308	92.5
347.535	78.5
347.763	92.5
347.99	78.5
348.218	79.5
348.445	80.5
348.673	83.5
348.9	84.5
349.128	84.5
349.355	80.5
349.583	82.5
349.81	87.5
350.037	79.5
350.265	85.5
350.492	89.5
350.72	81.5
350.947	86.5
351.174	78.5
351.402	82.5
351.629	87.5
351.856	75.5
352.083	74.5
352.311	100.5
352.538	90.5
352.765	90.5
352.992	83.5
353.22	79.5
353.447	77.5
353.674	88.5
353.901	87.5
354.128	80.5
354.355	98.5
354.583	100.5
354.81	76.5
355.037	74.5
355.264	95.5
355.491	91.5
355.718	85.5
355.945	93.5
356.172	87.5
356.399	92.5
356.626	87.5
356.853	84.5
357.08	93.5
357.307	118.5
357.534	109.5
357.761	88.5
357.988	98.5
358.215	96.5
358.441	84.5
358.668	86.5
358.895	74.5
359.122	88.5
359.349	60.5
359.576	87.5
359.802	88.5
360.029	75.5
360.256	79.5
360.483	78.5
360.709	83.5
360.936	88.5
361.163	85.5
361.39	87.5
361.616	96.5
361.843	86.5
362.07	92.5
362.296	77.5
362.523	84.5
362.749	70.5
362.976	74.5
363.203	108.5
363.429	85.5
363.656	105.5
363.882	128.5
364.109	146.5
364.335	93.5
364.562	85.5
364.788	89.5
365.015	86.5
365.241	84.5
365.468	78.5
365.694	89.5
365.92	92.5
366.147	78.5
366.373	78.5
366.599	76.5
366.826	92.5
367.052	94.5
367.278	107.5
367.505	104.5
367.731	105.5
367.957	92.5
368.184	138.5
368.41	178.5
368.636	120.5
368.862	97.5
369.089	94.5
369.315	74.5
369.541	86.5
369.767	78.5
369.993	83.5
370.219	86.5
370.445	78.5
370.672	84.5
370.898	89.5
371.124	86.5
371.35	86.5
371.576	87.5
371.802	83.5
372.028	78.5
372.254	92.5
372.48	102.5
372.706	85.5
372.932	73.5
373.158	80.5
373.384	88.5
373.61	104.5
373.835	106.5
374.061	109.5
374.287	105.5
374.513	88.5
374.739	86.5
374.965	96.5
375.191	77.5
375.416	94.5
375.642	79.5
375.868	77.5
376.094	88.5
376.319	75.5
376.545	92.5
376.771	89.5
376.997	91.5
377.222	80.5
377.448	88.5
377.674	85.5
377.899	80.5
378.125	75.5
378.35	83.5
378.576	88.5
378.802	77.5
379.027	82.5
379.253	77.5
379.478	82.5
379.704	77.5
379.929	91.5
380.155	77.5
380.38	89.5
380.606	71.5
380.831	95.5
381.057	73.5
381.282	70.5
381.507	82.5
381.733	85.5
381.958	88.5
382.184	82.5
382.409	83.5
382.634	86.5
382.86	91.5
383.085	86.5
383.31	93.5
383.535	97.5
383.761	91.5
383.986	78.5
384.211	72.5
384.436	79.5
384.662	80.5
384.887	71.5
385.112	81.5
385.337	77.5
385.562	98.5
385.787	71.5
386.013	89.5
386.238	79.5
386.463	77.5
386.688	102.5
386.913	78.5
387.138	103.5
387.363	90.5
387.588	78.5
387.813	101.5
388.038	73.5
388.263	79.5
388.488	88.5
388.713	86.5
388.938	73.5
389.163	92.5
389.387	83.5
389.612	94.5
389.837	77.5
390.062	93.5
390.287	73.5
390.512	86.5
390.736	86.5
390.961	79.5
391.186	93.5
391.411	84.5
391.636	77.5
391.86	86.5
392.085	86.5
392.31	85.5
392.534	91.5
392.759	91.5
392.984	94.5
393.208	103.5
393.433	99.5
393.658	83.5
393.882	81.5
394.107	90.5
394.331	109.5
394.556	105.5
394.78	104.5
395.005	94.5
395.229	69.5
395.454	83.5
395.678	90.5
395.903	118.5
396.127	120.5
396.352	120.5
396.576	93.5
396.801	93.5
397.025	109.5
397.249	100.5
397.474	89.5
397.698	82.5
397.922	94.5
398.147	84.5
398.371	87.5
398.595	85.5
398.82	86.5
399.044	77.5
399.268	80.5
399.492	94.5
399.717	92.5
399.941	80.5
400.165	90.5
400.389	80.5
400.613	89.5
400.837	92.5
401.062	79.5
401.286	90.5
401.51	75.5
401.734	74.5
401.958	102.5
402.182	84.5
402.406	71.5
402.63	73.5
402.854	74.5
403.078	80.5
403.302	88.5
403.526	73.5
403.75	84.5
403.974	82.5
404.198	85.5
404.422	85.5
404.645	98.5
404.869	84.5
405.093	82.5
405.317	103.5
405.541	150.5
405.765	232.5
405.988	252.5
406.212	133.5
406.436	104.5
406.66	90.5
406.883	74.5
407.107	76.5
407.331	81.5
407.555	89.5
407.778	85.5
408.002	82.5
408.226	69.5
408.449	70.5
408.673	80.5
408.896	75.5
409.12	91.5
409.344	70.5
409.567	90.5
409.791	80.5
410.014	92.5
410.238	87.5
410.461	83.5
410.685	82.5
410.908	80.5
411.132	76.5
411.355	98.5
411.578	82.5
411.802	84.5
412.025	90.5
412.249	98.5
412.472	92.5
412.695	72.5
412.919	79.5
413.142	78.5
413.365	86.5
413.589	79.5
413.812	78.5
414.035	100.5
414.258	79.5
414.482	88.5
414.705	70.5
414.928	84.5
415.151	77.5
415.374	92.5
415.597	89.5
415.821	83.5
416.044	76.5
416.267	74.5
416.49	86.5
416.713	88.5
416.936	91.5
417.159	79.5
417.382	82.5
417.605	82.5
417.828	77.5
418.051	74.5
418.274	68.5
418.497	82.5
418.72	76.5
418.943	81.5
419.166	71.5
419.389	84.5
419.611	86.5
419.834	75.5
420.057	81.5
420.28	83.5
420.503	77.5
420.726	98.5
420.948	66.5
421.171	82.5
421.394	80.5
421.617	79.5
421.839	85.5
422.062	92.5
422.285	87.5
422.507	92.5
422.73	107.5
422.953	99.5
423.175	75.5
423.398	73.5
423.621	93.5
423.843	94.5
424.066	84.5
424.288	87.5
424.511	84.5
424.733	76.5
424.956	80.5
425.178	68.5
425.401	86.5
425.623	72.5
425.846	85.5
426.068	72.5
426.291	76.5
426.513	75.5
426.735	77.5
426.958	70.5
427.18	89.5
427.402	91.5
427.625	92.5
427.847	81.5
428.069	86.5
428.292	72.5
428.514	93.5
428.736	86.5
428.958	85.5
429.181	85.5
429.403	99.5
429.625	70.5
429.847	74.5
430.069	84.5
430.292	88.5
430.514	70.5
430.736	83.5
430.958	80.5
431.18	86.5
431.402	80.5
431.624	88.5
431.846	71.5
432.068	94.5
432.29	84.5
432.512	76.5
432.734	73.5
432.956	70.5
433.178	84.5
433.4	87.5
433.622	84.5
433.844	79.5
434.066	86.5
434.287	97.5
434.509	82.5
434.731	80.5
434.953	67.5
435.175	78.5
435.397	86.5
435.618	75.5
435.84	70.5
436.062	85.5
436.284	91.5
436.505	88.5
436.727	83.5
436.949	90.5
437.17	79.5
437.392	81.5
437.614	83.5
437.835	76.5
438.057	81.5
438.278	91.5
438.5	85.5
438.721	88.5
438.943	93.5
439.165	86.5
439.386	83.5
439.608	84.5
439.829	102.5
440.05	84.5
440.272	92.5
440.493	86.5
440.715	85.5
440.936	85.5
441.158	83.5
441.379	81.5
441.6	82.5
441.822	89.5
442.043	74.5
442.264	107.5
442.486	67.5
442.707	93.5
442.928	78.5
443.149	82.5
443.371	79.5
443.592	94.5
443.813	103.5
444.034	75.5
444.255	75.5
444.476	78.5
444.698	82.5
444.919	80.5
445.14	148.5
445.361	122.5
445.582	81.5
445.803	90.5
446.024	88.5
446.245	92.5
446.466	85.5
446.687	73.5
446.908	72.5
447.129	69.5
447.35	61.5
447.571	80.5
447.792	84.5
448.013	87.5
448.234	88.5
448.455	61.5
448.675	84.5
448.896	70.5
449.117	78.5
449.338	79.5
449.559	93.5
449.779	86.5
450	86.5
450.221	85.5
450.442	87.5
450.662	78.5
450.883	81.5
451.104	85.5
451.324	77.5
451.545	82.5
451.766	89.5
451.986	84.5
452.207	78.5
452.428	90.5
452.648	76.5
452.869	94.5
453.089	89.5
453.31	84.5
453.53	90.5
453.751	93.5
453.971	79.5
454.192	84.5
454.412	102.5
454.633	78.5
454.853	101.5
455.073	77.5
455.294	73.5
455.514	74.5
455.734	79.5
455.955	76.5
456.175	81.5
456.395	78.5
456.616	78.5
456.836	86.5
457.056	90.5
457.276	65.5
457.497	88.5
457.717	92.5
457.937	90.5
458.157	74.5
458.377	74.5
458.598	82.5
458.818	70.5
459.038	77.5
459.258	85.5
459.478	88.5
459.698	71.5
459.918	81.5
460.138	77.5
460.358	84.5
460.578	79.5
460.798	85.5
461.018	93.5
461.238	97.5
461.458	85.5
461.678	82.5
461.898	94.5
462.118	84.5
462.338	90.5
462.558	83.5
462.777	78.5
462.997	89.5
463.217	82.5
463.437	91.5
463.657	76.5
463.876	75.5
464.096	93.5
464.316	84.5
464.536	85.5
464.755	67.5
464.975	90.5
465.195	79.5
465.414	83.5
465.634	75.5
465.854	91.5
466.073	75.5
466.293	100.5
466.512	92.5
466.732	77.5
466.951	96.5
467.171	74.5
467.391	76.5
467.61	88.5
467.829	85.5
468.049	84.5
468.268	100.5
468.488	86.5
468.707	83.5
468.927	73.5
469.146	80.5
469.365	95.5
469.585	88.5
469.804	85.5
470.023	88.5
470.243	77.5
470.462	69.5
470.681	87.5
470.901	84.5
471.12	93.5
471.339	72.5
471.558	86.5
471.777	80.5
471.997	83.5
472.216	83.5
472.435	84.5
472.654	81.5
472.873	83.5
473.092	96.5
473.311	79.5
473.53	95.5
473.749	82.5
473.968	82.5
474.187	98.5
474.406	75.5
474.625	88.5
474.844	93.5
475.063	81.5
475.282	84.5
475.501	90.5
475.72	88.5
475.939	77.5
476.158	71.5
476.377	79.5
476.596	81.5
476.814	72.5
477.033	84.5
477.252	82.5
477.471	79.5
477.69	74.5
477.908	100.5
478.127	85.5
478.346	84.5
478.564	93.5
478.783	81.5
479.002	84.5
479.22	69.5
479.439	84.5
479.658	82.5
479.876	82.5
480.095	85.5
480.313	89.5
480.532	101.5
480.751	69.5
480.969	84.5
481.188	73.5
481.406	77.5
481.624	89.5
481.843	69.5
482.061	92.5
482.28	91.5
482.498	80.5
482.717	89.5
482.935	90.5
483.153	91.5
483.372	85.5
483.59	98.5
483.808	89.5
484.027	77.5
484.245	89.5
484.463	85.5
484.681	86.5
484.9	73.5
485.118	84.5
485.336	84.5
485.554	92.5
485.772	82.5
485.99	72.5
486.209	82.5
486.427	86.5
486.645	86.5
486.863	93.5
487.081	84.5
487.299	95.5
487.517	89.5
487.735	92.5
487.953	83.5
488.171	88.5
488.389	91.5
488.607	76.5
488.825	70.5
489.043	81.5
489.261	89.5
489.479	84.5
489.696	88.5
489.914	74.5
490.132	64.5
490.35	78.5
490.568	90.5
490.786	87.5
491.003	90.5
491.221	93.5
491.439	74.5
491.657	93.5
491.874	87.5
492.092	74.5
492.31	79.5
492.527	83.5
492.745	73.5
492.963	87.5
493.18	82.5
493.398	97.5
493.615	75.5
493.833	80.5
494.05	82.5
494.268	90.5
494.485	92.5
494.703	86.5
494.92	90.5
495.138	77.5
495.355	87.5
495.573	89.5
495.79	81.5
496.008	95.5
496.225	85.5
496.442	79.5
496.66	79.5
496.877	98.5
497.094	77.5
497.312	94.5
497.529	91.5
497.746	89.5
497.963	78.5
498.181	96.5
498.398	86.5
498.615	76.5
498.832	93.5
499.049	74.5
499.267	88.5
499.484	81.5
499.701	80.5
499.918	88.5
500.135	96.5
500.352	97.5
500.569	85.5
500.786	89.5
501.003	80.5
501.22	92.5
501.437	102.5
501.654	89.5
501.871	78.5
502.088	84.5
502.305	83.5
502.522	62.5
502.739	85.5
502.956	94.5
503.172	85.5
503.389	86.5
503.606	95.5
503.823	86.5
504.04	92.5
504.256	73.5
504.473	82.5
504.69	78.5
504.907	88.5
505.123	78.5
505.34	86.5
505.557	78.5
505.773	88.5
505.99	70.5
506.207	86.5
506.423	80.5
506.64	80.5
506.856	85.5
507.073	74.5
507.289	86.5
507.506	86.5
507.722	92.5
507.939	88.5
508.155	83.5
508.372	88.5
508.588	85.5
508.805	88.5
509.021	80.5
509.238	75.5
509.454	98.5
509.67	82.5
509.887	94.5
510.103	74.5
510.319	92.5
510.536	77.5
510.752	68.5
510.968	82.5
511.184	107.5
511.401	74.5
511.617	75.5
511.833	76.5
512.049	90.5
512.265	76.5
512.481	87.5
512.698	87.5
512.914	83.5
513.13	84.5
513.346	80.5
513.562	82.5
513.778	83.5
513.994	98.5
514.21	78.5
514.426	87.5
514.642	83.5
514.858	88.5
515.074	78.5
515.29	80.5
515.506	83.5
515.721	72.5
515.937	102.5
516.153	83.5
516.369	77.5
516.585	85.5
516.801	93.5
517.016	89.5
517.232	85.5
517.448	74.5
517.664	68.5
517.879	82.5
518.095	91.5
518.311	86.5
518.527	90.5
518.742	74.5
518.958	84.5
519.173	72.5
519.389	74.5
519.605	84.5
519.82	86.5
520.036	79.5
520.251	98.5
520.467	85.5
520.682	85.5
520.898	84.5
521.113	82.5
521.329	73.5
521.544	77.5
521.76	85.5
521.975	67.5
522.19	85.5
522.406	90.5
522.621	82.5
522.836	78.5
523.052	83.5
523.267	79.5
523.482	89.5
523.698	80.5
523.913	84.5
524.128	86.5
524.343	76.5
524.559	79.5
524.774	87.5
524.989	79.5
525.204	86.5
525.419	92.5
525.634	76.5
525.849	81.5
526.064	81.5
526.28	85.5
526.495	73.5
526.71	90.5
526.925	90.5
527.14	87.5
527.355	95.5
527.57	68.5
527.785	74.5
527.999	91.5
528.214	76.5
528.429	82.5
528.644	76.5
528.859	86.5
529.074	85.5
529.289	89.5
529.503	103.5
529.718	97.5
529.933	97.5
530.148	77.5
530.363	99.5
530.577	86.5
530.792	89.5
531.007	91.5
531.221	71.5
531.436	82.5
531.651	84.5
531.865	89.5
532.08	61.5
532.295	86.5
532.509	90.5
532.724	84.5
532.938	72.5
533.153	88.5
533.367	86.5
533.582	82.5
533.796	82.5
534.011	76.5
534.225	89.5
534.44	90.5
534.654	89.5
534.868	81.5
535.083	93.5
535.297	86.5
535.511	73.5
535.726	82.5
535.94	79.5
536.154	88.5
536.369	87.5
536.583	77.5
536.797	74.5
537.011	89.5
537.225	86.5
537.44	105.5
537.654	74.5
537.868	75.5
538.082	78.5
538.296	85.5
538.51	96.5
538.724	93.5
538.938	80.5
539.153	88.5
539.367	66.5
539.581	80.5
539.795	74.5
540.009	85.5
540.222	82.5
540.436	83.5
540.65	83.5
540.864	84.5
541.078	93.5
541.292	94.5
541.506	105.5
541.72	79.5
541.934	94.5
542.147	70.5
542.361	85.5
542.575	86.5
542.789	92.5
543.002	83.5
543.216	79.5
543.43	76.5
543.644	83.5
543.857	91.5
544.071	93.5
544.285	104.5
544.498	89.5
544.712	87.5
544.925	76.5
545.139	79.5
545.352	86.5
545.566	69.5
545.779	94.5
545.993	78.5
546.206	93.5
546.42	95.5
546.633	100.5
546.847	99.5
547.06	85.5
547.274	83.5
547.487	85.5
547.7	82.5
547.914	84.5
548.127	85.5
548.34	69.5
548.554	75.5
548.767	94.5
548.98	99.5
549.193	91.5
549.407	80.5
549.62	83.5
549.833	90.5
550.046	82.5
550.259	94.5
550.473	90.5
550.686	82.5
550.899	89.5
551.112	78.5
551.325	93.5
551.538	92.5
551.751	86.5
551.964	99.5
552.177	77.5
552.39	83.5
552.603	94.5
552.816	93.5
553.029	82.5
553.242	85.5
553.455	73.5
553.667	84.5
553.88	93.5
554.093	88.5
554.306	102.5
554.519	98.5
554.732	93.5
554.944	84.5
555.157	81.5
555.37	98.5
555.583	77.5
555.795	92.5
556.008	84.5
556.221	91.5
556.433	83.5
556.646	93.5
556.859	90.5
557.071	84.5
557.284	73.5
557.496	76.5
557.709	83.5
557.921	87.5
558.134	85.5
558.346	78.5
558.559	78.5
558.771	87.5
558.984	70.5
559.196	93.5
559.409	77.5
559.621	92.5
559.833	82.5
560.046	89.5
560.258	97.5
560.47	81.5
560.683	92.5
560.895	79.5
561.107	90.5
561.32	88.5
561.532	85.5
561.744	71.5
561.956	89.5
562.168	90.5
562.381	105.5
562.593	85.5
562.805	76.5
563.017	77.5
563.229	88.5
563.441	90.5
563.653	91.5
563.865	92.5
564.077	100.5
564.289	109.5
564.501	82.5
564.713	90.5
564.925	94.5
565.137	98.5
565.349	76.5
565.561	93.5
565.773	81.5
565.985	73.5
566.197	89.5
566.408	86.5
566.62	94.5
566.832	87.5
567.044	80.5
567.255	87.5
567.467	92.5
567.679	89.5
567.891	82.5
568.102	84.5
568.314	81.5
568.526	96.5
568.737	97.5
568.949	83.5
569.161	87.5
569.372	90.5
569.584	90.5
569.795	79.5
570.007	91.5
570.218	90.5
570.43	102.5
570.641	92.5
570.853	89.5
571.064	75.5
571.276	89.5
571.487	72.5
571.698	72.5
571.91	78.5
572.121	92.5
572.333	86.5
572.544	85.5
572.755	74.5
572.966	88.5
573.178	79.5
573.389	89.5
573.6	71.5
573.811	86.5
574.023	79.5
574.234	77.5
574.445	79.5
574.656	89.5
574.867	86.5
575.078	78.5
575.289	73.5
575.501	98.5
575.712	84.5
575.923	84.5
576.134	85.5
576.345	82.5
576.556	89.5
576.767	94.5
576.978	84.5
577.188	97.5
577.399	95.5
577.61	84.5
577.821	88.5
578.032	93.5
578.243	94.5
578.454	99.5
578.665	87.5
578.875	83.5
579.086	76.5
579.297	90.5
579.508	78.5
579.718	98.5
579.929	83.5
580.14	74.5
580.35	82.5
580.561	82.5
580.772	88.5
580.982	72.5
581.193	83.5
581.403	77.5
581.614	89.5
581.825	95.5
582.035	85.5
582.246	75.5
582.456	86.5
582.667	82.5
582.877	87.5
583.087	76.5
583.298	95.5
583.508	83.5
583.719	88.5
583.929	79.5
584.139	82.5
584.35	80.5
584.56	94.5
584.77	79.5
584.981	83.5
585.191	80.5
585.401	77.5
585.611	85.5
585.821	88.5
586.032	80.5
586.242	86.5
586.452	90.5
586.662	75.5
586.872	88.5
587.082	82.5
587.292	87.5
587.502	75.5
587.713	76.5
587.923	83.5
588.133	86.5
588.343	85.5
588.553	90.5
588.762	105.5
588.972	154.5
589.182	341.5
589.392	210.5
589.602	147.5
589.812	296.5
590.022	157.5
590.232	86.5
590.441	80.5
590.651	83.5
590.861	86.5
591.071	76.5
591.281	91.5
591.49	80.5
591.7	96.5
591.91	85.5
592.119	88.5
592.329	83.5
592.539	70.5
592.748	70.5
592.958	73.5
593.167	78.5
593.377	93.5
593.587	94.5
593.796	78.5
594.006	88.5
594.215	85.5
594.424	86.5
594.634	88.5
594.843	82.5
595.053	75.5
595.262	97.5
595.472	86.5
595.681	84.5
595.89	91.5
596.1	92.5
596.309	87.5
596.518	79.5
596.727	85.5
596.937	72.5
597.146	73.5
597.355	71.5
597.564	90.5
597.774	85.5
597.983	95.5
598.192	98.5
598.401	83.5
598.61	81.5
598.819	84.5
599.028	84.5
599.237	63.5
599.446	82.5
599.655	84.5
599.864	93.5
600.073	83.5
600.282	88.5
600.491	86.5
600.7	104.5
600.909	88.5
601.118	80.5
601.327	78.5
601.536	84.5
601.745	79.5
601.953	76.5
602.162	68.5
602.371	76.5
602.58	85.5
602.789	104.5
602.997	88.5
603.206	92.5
603.415	89.5
603.623	91.5
603.832	83.5
604.041	98.5
604.249	82.5
604.458	84.5
604.666	86.5
604.875	99.5
605.084	96.5
605.292	78.5
605.501	80.5
605.709	84.5
605.918	74.5
606.126	91.5
606.334	93.5
606.543	98.5
606.751	104.5
606.96	79.5
607.168	80.5
607.376	88.5
607.585	97.5
607.793	75.5
608.001	72.5
608.21	90.5
608.418	79.5
608.626	90.5
608.834	87.5
609.043	70.5
609.251	86.5
609.459	88.5
609.667	95.5
609.875	78.5
610.083	88.5
610.291	77.5
610.499	78.5
610.707	73.5
610.916	68.5
611.124	72.5
611.332	88.5
611.54	78.5
611.748	79.5
611.955	90.5
612.163	97.5
612.371	74.5
612.579	80.5
612.787	79.5
612.995	85.5
613.203	91.5
613.411	90.5
613.618	82.5
613.826	84.5
614.034	91.5
614.242	85.5
614.449	75.5
614.657	71.5
614.865	81.5
615.072	96.5
615.28	89.5
615.488	89.5
615.695	90.5
615.903	81.5
616.111	76.5
616.318	88.5
616.526	88.5
616.733	94.5
616.941	78.5
617.148	78.5
617.356	84.5
617.563	85.5
617.771	83.5
617.978	82.5
618.185	91.5
618.393	74.5
618.6	92.5
618.807	86.5
619.015	93.5
619.222	78.5
619.429	84.5
619.637	78.5
619.844	85.5
620.051	74.5
620.258	85.5
620.466	102.5
620.673	80.5
620.88	68.5
621.087	81.5
621.294	83.5
621.501	75.5
621.708	91.5
621.915	96.5
622.122	91.5
622.329	84.5
622.536	78.5
622.743	81.5
622.95	74.5
623.157	95.5
623.364	84.5
623.571	82.5
623.778	86.5
623.985	93.5
624.192	85.5
624.399	75.5
624.606	70.5
624.812	73.5
625.019	91.5
625.226	81.5
625.433	70.5
625.639	86.5
625.846	83.5
626.053	72.5
626.259	82.5
626.466	84.5
626.673	75.5
626.879	86.5
627.086	92.5
627.293	85.5
627.499	84.5
627.706	81.5
627.912	89.5
628.119	68.5
628.325	83.5
628.532	92.5
628.738	81.5
628.945	81.5
629.151	74.5
629.357	59.5
629.564	76.5
629.77	89.5
629.976	76.5
630.183	85.5
630.389	72.5
630.595	91.5
630.802	86.5
631.008	78.5
631.214	83.5
631.42	77.5
631.627	97.5
631.833	80.5
632.039	91.5
632.245	87.5
632.451	81.5
632.657	90.5
632.863	89.5
633.069	78.5
633.275	84.5
633.481	69.5
633.688	91.5
633.893	83.5
634.099	88.5
634.305	86.5
634.511	85.5
634.717	89.5
634.923	88.5
635.129	93.5
635.335	83.5
635.541	87.5
635.747	92.5
635.952	82.5
636.158	81.5
636.364	89.5
636.57	85.5
636.775	95.5
636.981	82.5
637.187	74.5
637.392	81.5
637.598	82.5
637.804	97.5
638.009	78.5
638.215	78.5
638.421	82.5
638.626	77.5
638.832	86.5
639.037	76.5
639.243	79.5
639.448	88.5
639.654	98.5
639.859	94.5
640.065	72.5
640.27	90.5
640.475	89.5
640.681	85.5
640.886	83.5
641.091	89.5
641.297	75.5
641.502	79.5
641.707	85.5
641.913	86.5
642.118	83.5
642.323	77.5
642.528	91.5
642.733	99.5
642.939	93.5
643.144	88.5
643.349	83.5
643.554	86.5
643.759	87.5
643.964	78.5
644.169	89.5
644.374	71.5
644.579	88.5
644.784	73.5
644.989	96.5
645.194	88.5
645.399	82.5
645.604	76.5
645.809	90.5
646.014	93.5
646.219	91.5
646.423	75.5
646.628	100.5
646.833	91.5
647.038	77.5
647.243	83.5
647.447	85.5
647.652	62.5
647.857	70.5
648.062	75.5
648.266	96.5
648.471	90.5
648.676	87.5
648.88	87.5
649.085	70.5
649.289	82.5
649.494	86.5
649.698	91.5
649.903	88.5
650.107	59.5
650.312	76.5
650.516	78.5
650.721	86.5
650.925	85.5
651.13	69.5
651.334	88.5
651.539	86.5
651.743	69.5
651.947	85.5
652.152	91.5
652.356	81.5
652.56	94.5
652.764	77.5
652.969	84.5
653.173	76.5
653.377	85.5
653.581	82.5
653.785	89.5
653.99	85.5
654.194	73.5
654.398	104.5
654.602	75.5
654.806	76.5
655.01	85.5
655.214	65.5
655.418	82.5
655.622	88.5
655.826	87.5
656.03	86.5
656.234	83.5
656.438	81.5
656.642	76.5
656.846	82.5
657.049	96.5
657.253	70.5
657.457	72.5
657.661	88.5
657.865	101.5
658.068	82.5
658.272	71.5
658.476	90.5
658.68	99.5
658.883	69.5
659.087	85.5
659.291	86.5
659.494	68.5
659.698	74.5
659.901	72.5
660.105	85.5
660.309	81.5
660.512	86.5
660.716	78.5
660.919	76.5
661.123	88.5
661.326	91.5
661.53	90.5
661.733	84.5
661.936	73.5
662.14	81.5
662.343	74.5
662.546	84.5
662.75	82.5
662.953	81.5
663.156	98.5
663.36	92.5
663.563	85.5
663.766	73.5
663.969	70.5
664.173	81.5
664.376	66.5
664.579	71.5
664.782	78.5
664.985	93.5
665.188	80.5
665.391	80.5
665.594	78.5
665.797	87.5
666	88.5
666.203	72.5
666.406	75.5
666.609	76.5
666.812	84.5
667.015	92.5
667.218	90.5
667.421	80.5
667.624	86.5
667.827	72.5
668.03	79.5
668.232	80.5
668.435	90.5
668.638	81.5
668.841	86.5
669.043	76.5
669.246	77.5
669.449	69.5
669.651	95.5
669.854	81.5
670.057	89.5
670.259	69.5
670.462	70.5
670.665	82.5
670.867	77.5
671.07	88.5
671.272	76.5
671.475	88.5
671.677	87.5
671.88	65.5
672.082	79.5
672.284	83.5
672.487	76.5
672.689	98.5
672.892	88.5
