Data from Mixheat2_HRD10591_00005.txt Node
Date: Fri Dec 27 15:09:08 EST 2024
User: Yrep
Spectrometer: HR+D1059
Trigger mode: 1
Integration Time (sec): 1.000000E-1
Scans to average: 1
Electric dark correction enabled: true
Nonlinearity correction enabled: false
Boxcar width: 0
XAxis mode: Wavelengths
Number of Pixels in Spectrum: 2048
>>>>>Begin Spectral Data<<<<<
223.165	-21.31
223.4	-21.31
223.635	-21.31
223.869	-29.31
224.104	-18.31
224.338	-8.31
224.573	-6.31
224.808	-14.31
225.042	-2.31
225.277	-3.31
225.511	-1.31
225.746	-10.31
225.98	2.69
226.215	11.69
226.449	25.69
226.683	21.69
226.918	9.69
227.152	43.69
227.387	50.69
227.621	37.69
227.856	48.69
228.09	53.69
228.324	36.69
228.559	70.69
228.793	51.69
229.027	59.69
229.262	58.69
229.496	57.69
229.73	63.69
229.964	68.69
230.199	73.69
230.433	72.69
230.667	80.69
230.901	85.69
231.136	78.69
231.37	85.69
231.604	84.69
231.838	81.69
232.072	76.69
232.306	89.69
232.541	71.69
232.775	71.69
233.009	74.69
233.243	89.69
233.477	95.69
233.711	72.69
233.945	79.69
234.179	88.69
234.413	82.69
234.647	81.69
234.881	73.69
235.115	73.69
235.349	80.69
235.583	79.69
235.817	71.69
236.051	79.69
236.285	78.69
236.519	87.69
236.753	85.69
236.987	88.69
237.221	83.69
237.455	68.69
237.689	83.69
237.922	79.69
238.156	65.69
238.39	65.69
238.624	77.69
238.858	74.69
239.091	77.69
239.325	65.69
239.559	77.69
239.793	69.69
240.027	82.69
240.26	71.69
240.494	91.69
240.728	67.69
240.961	74.69
241.195	79.69
241.429	75.69
241.662	73.69
241.896	68.69
242.13	81.69
242.363	74.69
242.597	83.69
242.83	62.69
243.064	80.69
243.298	85.69
243.531	71.69
243.765	74.69
243.998	83.69
244.232	80.69
244.465	82.69
244.699	82.69
244.932	73.69
245.166	88.69
245.399	73.69
245.633	86.69
245.866	87.69
246.099	72.69
246.333	80.69
246.566	89.69
246.8	82.69
247.033	71.69
247.266	78.69
247.5	82.69
247.733	68.69
247.966	79.69
248.2	83.69
248.433	74.69
248.666	71.69
248.899	61.69
249.133	64.69
249.366	91.69
249.599	81.69
249.832	78.69
250.066	86.69
250.299	93.69
250.532	85.69
250.765	90.69
250.998	78.69
251.231	76.69
251.465	86.69
251.698	78.69
251.931	83.69
252.164	72.69
252.397	78.69
252.63	84.69
252.863	77.69
253.096	92.69
253.329	80.69
253.562	78.69
253.795	91.69
254.028	83.69
254.261	86.69
254.494	82.69
254.727	87.69
254.96	74.69
255.193	85.69
255.426	75.69
255.659	89.69
255.892	91.69
256.124	70.69
256.357	84.69
256.59	107.69
256.823	86.69
257.056	94.69
257.289	87.69
257.521	93.69
257.754	84.69
257.987	75.69
258.22	79.69
258.452	74.69
258.685	93.69
258.918	85.69
259.151	75.69
259.383	97.69
259.616	80.69
259.849	74.69
260.081	71.69
260.314	82.69
260.547	88.69
260.779	79.69
261.012	75.69
261.244	81.69
261.477	94.69
261.71	91.69
261.942	75.69
262.175	73.69
262.407	77.69
262.64	74.69
262.872	91.69
263.105	86.69
263.337	86.69
263.57	69.69
263.802	70.69
264.035	88.69
264.267	85.69
264.499	89.69
264.732	103.69
264.964	85.69
265.197	94.69
265.429	77.69
265.661	79.69
265.894	93.69
266.126	87.69
266.358	75.69
266.591	89.69
266.823	79.69
267.055	67.69
267.287	90.69
267.52	83.69
267.752	88.69
267.984	100.69
268.216	93.69
268.448	90.69
268.681	88.69
268.913	88.69
269.145	83.69
269.377	80.69
269.609	76.69
269.841	86.69
270.073	74.69
270.306	75.69
270.538	91.69
270.77	81.69
271.002	77.69
271.234	81.69
271.466	71.69
271.698	90.69
271.93	86.69
272.162	88.69
272.394	76.69
272.626	83.69
272.858	85.69
273.09	77.69
273.322	88.69
273.553	81.69
273.785	68.69
274.017	71.69
274.249	86.69
274.481	80.69
274.713	74.69
274.945	86.69
275.176	81.69
275.408	83.69
275.64	87.69
275.872	76.69
276.104	93.69
276.335	87.69
276.567	69.69
276.799	74.69
277.031	69.69
277.262	90.69
277.494	93.69
277.726	88.69
277.957	82.69
278.189	87.69
278.421	83.69
278.652	74.69
278.884	82.69
279.115	78.69
279.347	91.69
279.579	94.69
279.81	87.69
280.042	95.69
280.273	81.69
280.505	66.69
280.736	77.69
280.968	77.69
281.199	81.69
281.431	91.69
281.662	80.69
281.894	77.69
282.125	87.69
282.356	77.69
282.588	83.69
282.819	85.69
283.051	93.69
283.282	77.69
283.513	85.69
283.745	91.69
283.976	90.69
284.207	83.69
284.439	78.69
284.67	92.69
284.901	70.69
285.132	78.69
285.364	90.69
285.595	86.69
285.826	84.69
286.057	73.69
286.288	85.69
286.52	90.69
286.751	77.69
286.982	78.69
287.213	72.69
287.444	93.69
287.675	84.69
287.906	94.69
288.138	80.69
288.369	87.69
288.6	82.69
288.831	90.69
289.062	94.69
289.293	83.69
289.524	98.69
289.755	107.69
289.986	70.69
290.217	78.69
290.448	97.69
290.679	96.69
290.91	106.69
291.141	71.69
291.371	98.69
291.602	84.69
291.833	81.69
292.064	89.69
292.295	90.69
292.526	89.69
292.757	85.69
292.987	88.69
293.218	88.69
293.449	79.69
293.68	86.69
293.91	99.69
294.141	86.69
294.372	88.69
294.603	78.69
294.833	85.69
295.064	92.69
295.295	92.69
295.525	92.69
295.756	82.69
295.987	83.69
296.217	97.69
296.448	77.69
296.679	81.69
296.909	79.69
297.14	90.69
297.37	87.69
297.601	78.69
297.831	73.69
298.062	79.69
298.292	90.69
298.523	72.69
298.753	80.69
298.984	87.69
299.214	83.69
299.445	87.69
299.675	90.69
299.905	78.69
300.136	81.69
300.366	67.69
300.597	92.69
300.827	85.69
301.057	92.69
301.288	80.69
301.518	73.69
301.748	95.69
301.979	98.69
302.209	101.69
302.439	90.69
302.669	77.69
302.9	90.69
303.13	90.69
303.36	82.69
303.59	83.69
303.82	86.69
304.051	103.69
304.281	74.69
304.511	97.69
304.741	60.69
304.971	87.69
305.201	80.69
305.431	84.69
305.661	79.69
305.891	89.69
306.121	97.69
306.352	83.69
306.582	87.69
306.812	72.69
307.042	79.69
307.272	89.69
307.502	94.69
307.731	80.69
307.961	89.69
308.191	93.69
308.421	107.69
308.651	85.69
308.881	93.69
309.111	85.69
309.341	90.69
309.571	97.69
309.8	87.69
310.03	103.69
310.26	80.69
310.49	96.69
310.72	85.69
310.949	96.69
311.179	83.69
311.409	71.69
311.639	74.69
311.868	76.69
312.098	95.69
312.328	88.69
312.557	87.69
312.787	73.69
313.017	83.69
313.246	86.69
313.476	92.69
313.706	78.69
313.935	72.69
314.165	79.69
314.394	96.69
314.624	96.69
314.853	89.69
315.083	86.69
315.312	73.69
315.542	71.69
315.771	89.69
316.001	80.69
316.23	97.69
316.46	85.69
316.689	88.69
316.919	84.69
317.148	89.69
317.377	84.69
317.607	91.69
317.836	95.69
318.065	88.69
318.295	76.69
318.524	88.69
318.753	86.69
318.983	72.69
319.212	88.69
319.441	95.69
319.67	80.69
319.9	82.69
320.129	98.69
320.358	86.69
320.587	83.69
320.816	82.69
321.046	78.69
321.275	85.69
321.504	91.69
321.733	89.69
321.962	78.69
322.191	94.69
322.42	96.69
322.649	88.69
322.878	88.69
323.108	80.69
323.337	75.69
323.566	82.69
323.795	82.69
324.024	91.69
324.253	78.69
324.482	93.69
324.71	87.69
324.939	86.69
325.168	88.69
325.397	88.69
325.626	101.69
325.855	84.69
326.084	94.69
326.313	87.69
326.542	96.69
326.77	79.69
326.999	84.69
327.228	90.69
327.457	112.69
327.686	75.69
327.914	84.69
328.143	87.69
328.372	72.69
328.6	91.69
328.829	76.69
329.058	86.69
329.287	77.69
329.515	76.69
329.744	85.69
329.972	88.69
330.201	102.69
330.43	105.69
330.658	83.69
330.887	83.69
331.115	90.69
331.344	90.69
331.572	97.69
331.801	105.69
332.03	77.69
332.258	83.69
332.486	83.69
332.715	69.69
332.943	90.69
333.172	74.69
333.4	73.69
333.629	83.69
333.857	87.69
334.085	84.69
334.314	84.69
334.542	92.69
334.771	83.69
334.999	84.69
335.227	83.69
335.455	86.69
335.684	98.69
335.912	102.69
336.14	87.69
336.369	89.69
336.597	92.69
336.825	101.69
337.053	95.69
337.281	90.69
337.51	77.69
337.738	101.69
337.966	78.69
338.194	89.69
338.422	105.69
338.65	77.69
338.878	88.69
339.106	87.69
339.334	86.69
339.562	68.69
339.79	68.69
340.018	88.69
340.246	88.69
340.474	94.69
340.702	84.69
340.93	94.69
341.158	83.69
341.386	81.69
341.614	80.69
341.842	89.69
342.07	91.69
342.298	81.69
342.526	78.69
342.754	89.69
342.981	77.69
343.209	93.69
343.437	95.69
343.665	100.69
343.893	79.69
344.12	82.69
344.348	82.69
344.576	98.69
344.804	103.69
345.031	91.69
345.259	85.69
345.487	86.69
345.714	101.69
345.942	80.69
346.17	81.69
346.397	80.69
346.625	87.69
346.853	76.69
347.08	96.69
347.308	81.69
347.535	71.69
347.763	91.69
347.99	81.69
348.218	73.69
348.445	81.69
348.673	93.69
348.9	89.69
349.128	93.69
349.355	88.69
349.583	99.69
349.81	79.69
350.037	93.69
350.265	86.69
350.492	84.69
350.72	82.69
350.947	82.69
351.174	102.69
351.402	91.69
351.629	94.69
351.856	100.69
352.083	93.69
352.311	88.69
352.538	79.69
352.765	70.69
352.992	98.69
353.22	89.69
353.447	75.69
353.674	96.69
353.901	107.69
354.128	93.69
354.355	101.69
354.583	95.69
354.81	105.69
355.037	93.69
355.264	87.69
355.491	76.69
355.718	86.69
355.945	82.69
356.172	88.69
356.399	93.69
356.626	85.69
356.853	84.69
357.08	75.69
357.307	84.69
357.534	86.69
357.761	87.69
357.988	82.69
358.215	84.69
358.441	99.69
358.668	96.69
358.895	91.69
359.122	83.69
359.349	78.69
359.576	79.69
359.802	71.69
360.029	82.69
360.256	91.69
360.483	95.69
360.709	81.69
360.936	101.69
361.163	76.69
361.39	78.69
361.616	94.69
361.843	82.69
362.07	101.69
362.296	83.69
362.523	83.69
362.749	96.69
362.976	88.69
363.203	98.69
363.429	86.69
363.656	87.69
363.882	95.69
364.109	94.69
364.335	107.69
364.562	83.69
364.788	81.69
365.015	82.69
365.241	95.69
365.468	99.69
365.694	102.69
365.92	69.69
366.147	93.69
366.373	98.69
366.599	104.69
366.826	94.69
367.052	87.69
367.278	79.69
367.505	89.69
367.731	86.69
367.957	85.69
368.184	76.69
368.41	93.69
368.636	90.69
368.862	85.69
369.089	93.69
369.315	78.69
369.541	85.69
369.767	90.69
369.993	98.69
370.219	93.69
370.445	87.69
370.672	77.69
370.898	65.69
371.124	86.69
371.35	98.69
371.576	86.69
371.802	79.69
372.028	89.69
372.254	94.69
372.48	86.69
372.706	92.69
372.932	87.69
373.158	91.69
373.384	91.69
373.61	103.69
373.835	85.69
374.061	80.69
374.287	89.69
374.513	75.69
374.739	80.69
374.965	87.69
375.191	75.69
375.416	86.69
375.642	87.69
375.868	90.69
376.094	91.69
376.319	90.69
376.545	90.69
376.771	95.69
376.997	81.69
377.222	87.69
377.448	94.69
377.674	81.69
377.899	92.69
378.125	81.69
378.35	106.69
378.576	82.69
378.802	89.69
379.027	78.69
379.253	95.69
379.478	82.69
379.704	91.69
379.929	101.69
380.155	91.69
380.38	97.69
380.606	81.69
380.831	85.69
381.057	95.69
381.282	90.69
381.507	93.69
381.733	95.69
381.958	86.69
382.184	91.69
382.409	97.69
382.634	84.69
382.86	102.69
383.085	71.69
383.31	82.69
383.535	101.69
383.761	87.69
383.986	101.69
384.211	85.69
384.436	76.69
384.662	89.69
384.887	88.69
385.112	95.69
385.337	72.69
385.562	78.69
385.787	106.69
386.013	98.69
386.238	87.69
386.463	78.69
386.688	112.69
386.913	79.69
387.138	88.69
387.363	79.69
387.588	101.69
387.813	93.69
388.038	92.69
388.263	93.69
388.488	70.69
388.713	86.69
388.938	85.69
389.163	91.69
389.387	95.69
389.612	91.69
389.837	82.69
390.062	93.69
390.287	102.69
390.512	89.69
390.736	87.69
390.961	88.69
391.186	89.69
391.411	88.69
391.636	67.69
391.86	79.69
392.085	97.69
392.31	71.69
392.534	79.69
392.759	88.69
392.984	101.69
393.208	119.69
393.433	137.69
393.658	107.69
393.882	92.69
394.107	94.69
394.331	92.69
394.556	93.69
394.78	89.69
395.005	83.69
395.229	85.69
395.454	98.69
395.678	86.69
395.903	101.69
396.127	103.69
396.352	112.69
396.576	102.69
396.801	127.69
397.025	130.69
397.249	99.69
397.474	96.69
397.698	88.69
397.922	98.69
398.147	102.69
398.371	77.69
398.595	82.69
398.82	82.69
399.044	91.69
399.268	97.69
399.492	90.69
399.717	104.69
399.941	94.69
400.165	78.69
400.389	90.69
400.613	84.69
400.837	82.69
401.062	77.69
401.286	83.69
401.51	78.69
401.734	76.69
401.958	94.69
402.182	86.69
402.406	88.69
402.63	88.69
402.854	88.69
403.078	98.69
403.302	94.69
403.526	90.69
403.75	87.69
403.974	90.69
404.198	116.69
404.422	121.69
404.645	130.69
404.869	126.69
405.093	120.69
405.317	91.69
405.541	77.69
405.765	78.69
405.988	90.69
406.212	90.69
406.436	88.69
406.66	86.69
406.883	79.69
407.107	72.69
407.331	79.69
407.555	99.69
407.778	94.69
408.002	83.69
408.226	96.69
408.449	102.69
408.673	94.69
408.896	83.69
409.12	96.69
409.344	79.69
409.567	72.69
409.791	99.69
410.014	86.69
410.238	90.69
410.461	85.69
410.685	82.69
410.908	89.69
411.132	93.69
411.355	87.69
411.578	89.69
411.802	82.69
412.025	80.69
412.249	97.69
412.472	86.69
412.695	92.69
412.919	103.69
413.142	88.69
413.365	86.69
413.589	86.69
413.812	86.69
414.035	91.69
414.258	79.69
414.482	68.69
414.705	94.69
414.928	90.69
415.151	95.69
415.374	89.69
415.597	72.69
415.821	86.69
416.044	107.69
416.267	90.69
416.49	88.69
416.713	90.69
416.936	86.69
417.159	87.69
417.382	87.69
417.605	81.69
417.828	83.69
418.051	99.69
418.274	83.69
418.497	64.69
418.72	95.69
418.943	88.69
419.166	85.69
419.389	99.69
419.611	84.69
419.834	87.69
420.057	86.69
420.28	87.69
420.503	76.69
420.726	86.69
420.948	73.69
421.171	100.69
421.394	96.69
421.617	89.69
421.839	89.69
422.062	102.69
422.285	115.69
422.507	151.69
422.73	184.69
422.953	184.69
423.175	136.69
423.398	103.69
423.621	84.69
423.843	93.69
424.066	102.69
424.288	89.69
424.511	101.69
424.733	77.69
424.956	93.69
425.178	99.69
425.401	79.69
425.623	84.69
425.846	85.69
426.068	77.69
426.291	84.69
426.513	81.69
426.735	94.69
426.958	95.69
427.18	89.69
427.402	79.69
427.625	91.69
427.847	95.69
428.069	87.69
428.292	93.69
428.514	113.69
428.736	94.69
428.958	102.69
429.181	97.69
429.403	86.69
429.625	94.69
429.847	123.69
430.069	115.69
430.292	122.69
430.514	89.69
430.736	97.69
430.958	108.69
431.18	94.69
431.402	86.69
431.624	85.69
431.846	116.69
432.068	106.69
432.29	99.69
432.512	83.69
432.734	92.69
432.956	92.69
433.178	92.69
433.4	91.69
433.622	92.69
433.844	77.69
434.066	95.69
434.287	89.69
434.509	83.69
434.731	93.69
434.953	79.69
435.175	75.69
435.397	89.69
435.618	95.69
435.84	87.69
436.062	75.69
436.284	91.69
436.505	82.69
436.727	77.69
436.949	79.69
437.17	83.69
437.392	90.69
437.614	81.69
437.835	82.69
438.057	94.69
438.278	81.69
438.5	99.69
438.721	80.69
438.943	93.69
439.165	84.69
439.386	91.69
439.608	93.69
439.829	93.69
440.05	85.69
440.272	82.69
440.493	92.69
440.715	93.69
440.936	85.69
441.158	77.69
441.379	80.69
441.6	81.69
441.822	93.69
442.043	86.69
442.264	98.69
442.486	93.69
442.707	117.69
442.928	95.69
443.149	97.69
443.371	136.69
443.592	144.69
443.813	143.69
444.034	97.69
444.255	93.69
444.476	87.69
444.698	87.69
444.919	93.69
445.14	170.69
445.361	156.69
445.582	167.69
445.803	135.69
446.024	99.69
446.245	98.69
446.466	85.69
446.687	85.69
446.908	89.69
447.129	87.69
447.35	73.69
447.571	96.69
447.792	86.69
448.013	93.69
448.234	75.69
448.455	76.69
448.675	85.69
448.896	94.69
449.117	81.69
449.338	90.69
449.559	93.69
449.779	86.69
450	99.69
450.221	94.69
450.442	102.69
450.662	92.69
450.883	84.69
451.104	92.69
451.324	75.69
451.545	92.69
451.766	79.69
451.986	81.69
452.207	98.69
452.428	83.69
452.648	80.69
452.869	101.69
453.089	103.69
453.31	80.69
453.53	73.69
453.751	108.69
453.971	85.69
454.192	101.69
454.412	93.69
454.633	87.69
454.853	82.69
455.073	73.69
455.294	95.69
455.514	88.69
455.734	81.69
455.955	92.69
456.175	100.69
456.395	91.69
456.616	84.69
456.836	97.69
457.056	87.69
457.276	79.69
457.497	84.69
457.717	80.69
457.937	94.69
458.157	106.69
458.377	100.69
458.598	93.69
458.818	102.69
459.038	85.69
459.258	81.69
459.478	95.69
459.698	81.69
459.918	99.69
460.138	78.69
460.358	88.69
460.578	106.69
460.798	97.69
461.018	96.69
461.238	87.69
461.458	92.69
461.678	77.69
461.898	74.69
462.118	85.69
462.338	90.69
462.558	88.69
462.777	70.69
462.997	97.69
463.217	74.69
463.437	80.69
463.657	74.69
463.876	94.69
464.096	85.69
464.316	92.69
464.536	80.69
464.755	89.69
464.975	85.69
465.195	87.69
465.414	73.69
465.634	90.69
465.854	98.69
466.073	78.69
466.293	85.69
466.512	96.69
466.732	93.69
466.951	92.69
467.171	88.69
467.391	86.69
467.61	77.69
467.829	91.69
468.049	82.69
468.268	91.69
468.488	88.69
468.707	87.69
468.927	80.69
469.146	80.69
469.365	87.69
469.585	89.69
469.804	84.69
470.023	73.69
470.243	85.69
470.462	78.69
470.681	79.69
470.901	93.69
471.12	73.69
471.339	85.69
471.558	96.69
471.777	97.69
471.997	81.69
472.216	91.69
472.435	91.69
472.654	77.69
472.873	96.69
473.092	62.69
473.311	95.69
473.53	93.69
473.749	80.69
473.968	91.69
474.187	94.69
474.406	85.69
474.625	95.69
474.844	88.69
475.063	87.69
475.282	93.69
475.501	87.69
475.72	85.69
475.939	85.69
476.158	90.69
476.377	88.69
476.596	82.69
476.814	77.69
477.033	82.69
477.252	82.69
477.471	90.69
477.69	89.69
477.908	82.69
478.127	95.69
478.346	76.69
478.564	84.69
478.783	101.69
479.002	83.69
479.22	87.69
479.439	87.69
479.658	87.69
479.876	93.69
480.095	68.69
480.313	89.69
480.532	99.69
480.751	84.69
480.969	92.69
481.188	88.69
481.406	82.69
481.624	81.69
481.843	85.69
482.061	96.69
482.28	90.69
482.498	91.69
482.717	88.69
482.935	73.69
483.153	86.69
483.372	91.69
483.59	86.69
483.808	77.69
484.027	103.69
484.245	101.69
484.463	92.69
484.681	93.69
484.9	76.69
485.118	81.69
485.336	76.69
485.554	93.69
485.772	99.69
485.99	91.69
486.209	87.69
486.427	85.69
486.645	79.69
486.863	87.69
487.081	76.69
487.299	93.69
487.517	94.69
487.735	89.69
487.953	103.69
488.171	109.69
488.389	98.69
488.607	83.69
488.825	90.69
489.043	85.69
489.261	90.69
489.479	90.69
489.696	90.69
489.914	93.69
490.132	98.69
490.35	77.69
490.568	89.69
490.786	87.69
491.003	82.69
491.221	88.69
491.439	98.69
491.657	77.69
491.874	94.69
492.092	82.69
492.31	99.69
492.527	103.69
492.745	79.69
492.963	85.69
493.18	90.69
493.398	79.69
493.615	90.69
493.833	73.69
494.05	90.69
494.268	87.69
494.485	93.69
494.703	93.69
494.92	78.69
495.138	78.69
495.355	95.69
495.573	96.69
495.79	78.69
496.008	86.69
496.225	89.69
496.442	90.69
496.66	82.69
496.877	76.69
497.094	86.69
497.312	73.69
497.529	80.69
497.746	94.69
497.963	82.69
498.181	95.69
498.398	101.69
498.615	109.69
498.832	95.69
499.049	101.69
499.267	96.69
499.484	87.69
499.701	88.69
499.918	101.69
500.135	101.69
500.352	93.69
500.569	80.69
500.786	96.69
501.003	83.69
501.22	86.69
501.437	96.69
501.654	97.69
501.871	100.69
502.088	87.69
502.305	93.69
502.522	103.69
502.739	97.69
502.956	79.69
503.172	83.69
503.389	94.69
503.606	94.69
503.823	96.69
504.04	103.69
504.256	87.69
504.473	93.69
504.69	77.69
504.907	88.69
505.123	76.69
505.34	75.69
505.557	68.69
505.773	92.69
505.99	90.69
506.207	89.69
506.423	85.69
506.64	88.69
506.856	98.69
507.073	91.69
507.289	81.69
507.506	93.69
507.722	84.69
507.939	87.69
508.155	80.69
508.372	77.69
508.588	96.69
508.805	90.69
509.021	86.69
509.238	81.69
509.454	87.69
509.67	96.69
509.887	71.69
510.103	85.69
510.319	95.69
510.536	90.69
510.752	86.69
510.968	79.69
511.184	79.69
511.401	88.69
511.617	80.69
511.833	91.69
512.049	93.69
512.265	91.69
512.481	75.69
512.698	85.69
512.914	92.69
513.13	81.69
513.346	78.69
513.562	84.69
513.778	87.69
513.994	75.69
514.21	76.69
514.426	93.69
514.642	91.69
514.858	87.69
515.074	83.69
515.29	83.69
515.506	85.69
515.721	86.69
515.937	80.69
516.153	67.69
516.369	94.69
516.585	93.69
516.801	103.69
517.016	85.69
517.232	79.69
517.448	91.69
517.664	96.69
517.879	78.69
518.095	91.69
518.311	87.69
518.527	90.69
518.742	88.69
518.958	107.69
519.173	125.69
519.389	93.69
519.605	93.69
519.82	94.69
520.036	107.69
520.251	91.69
520.467	77.69
520.682	79.69
520.898	87.69
521.113	105.69
521.329	89.69
521.544	93.69
521.76	90.69
521.975	77.69
522.19	71.69
522.406	90.69
522.621	87.69
522.836	114.69
523.052	93.69
523.267	76.69
523.482	94.69
523.698	96.69
523.913	88.69
524.128	88.69
524.343	87.69
524.559	93.69
524.774	88.69
524.989	99.69
525.204	84.69
525.419	102.69
525.634	78.69
525.849	69.69
526.064	89.69
526.28	130.69
526.495	151.69
526.71	185.69
526.925	113.69
527.14	153.69
527.355	122.69
527.57	103.69
527.785	90.69
527.999	69.69
528.214	82.69
528.429	68.69
528.644	98.69
528.859	84.69
529.074	82.69
529.289	75.69
529.503	80.69
529.718	94.69
529.933	91.69
530.148	77.69
530.363	85.69
530.577	94.69
530.792	82.69
531.007	91.69
531.221	98.69
531.436	91.69
531.651	92.69
531.865	89.69
532.08	103.69
532.295	95.69
532.509	92.69
532.724	93.69
532.938	89.69
533.153	94.69
533.367	84.69
533.582	101.69
533.796	83.69
534.011	91.69
534.225	95.69
534.44	95.69
534.654	98.69
534.868	108.69
535.083	114.69
535.297	109.69
535.511	107.69
535.726	90.69
535.94	92.69
536.154	92.69
536.369	100.69
536.583	89.69
536.797	96.69
537.011	89.69
537.225	99.69
537.44	88.69
537.654	110.69
537.868	87.69
538.082	74.69
538.296	94.69
538.51	87.69
538.724	89.69
538.938	88.69
539.153	97.69
539.367	85.69
539.581	88.69
539.795	100.69
540.009	87.69
540.222	78.69
540.436	97.69
540.65	87.69
540.864	81.69
541.078	91.69
541.292	96.69
541.506	95.69
541.72	83.69
541.934	89.69
542.147	95.69
542.361	101.69
542.575	85.69
542.789	88.69
543.002	77.69
543.216	89.69
543.43	88.69
543.644	83.69
543.857	106.69
544.071	93.69
544.285	85.69
544.498	87.69
544.712	90.69
544.925	106.69
545.139	94.69
545.352	80.69
545.566	94.69
545.779	100.69
545.993	95.69
546.206	93.69
546.42	84.69
546.633	80.69
546.847	90.69
547.06	85.69
547.274	95.69
547.487	106.69
547.7	103.69
547.914	114.69
548.127	102.69
548.34	104.69
548.554	98.69
548.767	107.69
548.98	112.69
549.193	105.69
549.407	109.69
549.62	106.69
549.833	111.69
550.046	114.69
550.259	123.69
550.473	104.69
550.686	121.69
550.899	102.69
551.112	118.69
551.325	130.69
551.538	129.69
551.751	122.69
551.964	117.69
552.177	123.69
552.39	118.69
552.603	110.69
552.816	107.69
553.029	98.69
553.242	120.69
553.455	114.69
553.667	121.69
553.88	120.69
554.093	127.69
554.306	115.69
554.519	127.69
554.732	113.69
554.944	113.69
555.157	116.69
555.37	121.69
555.583	117.69
555.795	111.69
556.008	101.69
556.221	113.69
556.433	105.69
556.646	106.69
556.859	113.69
557.071	111.69
557.284	98.69
557.496	100.69
557.709	101.69
557.921	111.69
558.134	106.69
558.346	119.69
558.559	110.69
558.771	111.69
558.984	186.69
559.196	185.69
559.409	135.69
559.621	179.69
559.833	142.69
560.046	169.69
560.258	150.69
560.47	115.69
560.683	101.69
560.895	83.69
561.107	90.69
561.32	94.69
561.532	75.69
561.744	85.69
561.956	90.69
562.168	79.69
562.381	89.69
562.593	95.69
562.805	87.69
563.017	81.69
563.229	80.69
563.441	95.69
563.653	96.69
563.865	98.69
564.077	87.69
564.289	84.69
564.501	95.69
564.713	83.69
564.925	101.69
565.137	71.69
565.349	84.69
565.561	93.69
565.773	87.69
565.985	83.69
566.197	97.69
566.408	98.69
566.62	80.69
566.832	107.69
567.044	81.69
567.255	94.69
567.467	92.69
567.679	100.69
567.891	101.69
568.102	105.69
568.314	103.69
568.526	90.69
568.737	97.69
568.949	97.69
569.161	93.69
569.372	80.69
569.584	85.69
569.795	89.69
570.007	101.69
570.218	87.69
570.43	102.69
570.641	80.69
570.853	93.69
571.064	85.69
571.276	83.69
571.487	77.69
571.698	87.69
571.91	105.69
572.121	89.69
572.333	82.69
572.544	94.69
572.755	84.69
572.966	92.69
573.178	79.69
573.389	101.69
573.6	83.69
573.811	90.69
574.023	81.69
574.234	82.69
574.445	93.69
574.656	104.69
574.867	77.69
575.078	89.69
575.289	84.69
575.501	92.69
575.712	81.69
575.923	96.69
576.134	81.69
576.345	94.69
576.556	86.69
576.767	92.69
576.978	94.69
577.188	83.69
577.399	97.69
577.61	87.69
577.821	82.69
578.032	77.69
578.243	93.69
578.454	90.69
578.665	106.69
578.875	98.69
579.086	99.69
579.297	94.69
579.508	92.69
579.718	104.69
579.929	94.69
580.14	95.69
580.35	105.69
580.561	115.69
580.772	116.69
580.982	98.69
581.193	101.69
581.403	91.69
581.614	95.69
581.825	95.69
582.035	102.69
582.246	93.69
582.456	94.69
582.667	89.69
582.877	90.69
583.087	106.69
583.298	86.69
583.508	96.69
583.719	92.69
583.929	88.69
584.139	98.69
584.35	91.69
584.56	91.69
584.77	87.69
584.981	85.69
585.191	80.69
585.401	89.69
585.611	101.69
585.821	109.69
586.032	117.69
586.242	108.69
586.452	97.69
586.662	92.69
586.872	89.69
587.082	98.69
587.292	86.69
587.502	95.69
587.713	102.69
587.923	96.69
588.133	94.69
588.343	95.69
588.553	92.69
588.762	89.69
588.972	118.69
589.182	209.69
589.392	136.69
589.602	123.69
589.812	161.69
590.022	115.69
590.232	102.69
590.441	85.69
590.651	100.69
590.861	93.69
591.071	103.69
591.281	95.69
591.49	81.69
591.7	97.69
591.91	90.69
592.119	91.69
592.329	100.69
592.539	89.69
592.748	81.69
592.958	81.69
593.167	94.69
593.377	105.69
593.587	107.69
593.796	96.69
594.006	88.69
594.215	99.69
594.424	100.69
594.634	101.69
594.843	101.69
595.053	96.69
595.262	90.69
595.472	93.69
595.681	92.69
595.89	99.69
596.1	120.69
596.309	87.69
596.518	101.69
596.727	106.69
596.937	97.69
597.146	103.69
597.355	87.69
597.564	106.69
597.774	99.69
597.983	99.69
598.192	95.69
598.401	116.69
598.61	93.69
598.819	121.69
599.028	105.69
599.237	99.69
599.446	123.69
599.655	127.69
599.864	115.69
600.073	112.69
600.282	117.69
600.491	128.69
600.7	119.69
600.909	110.69
601.118	97.69
601.327	103.69
601.536	93.69
601.745	107.69
601.953	108.69
602.162	102.69
602.371	106.69
602.58	107.69
602.789	112.69
602.997	112.69
603.206	109.69
603.415	108.69
603.623	96.69
603.832	114.69
604.041	115.69
604.249	112.69
604.458	120.69
604.666	109.69
604.875	117.69
605.084	107.69
605.292	113.69
605.501	106.69
605.709	118.69
605.918	100.69
606.126	107.69
606.334	111.69
606.543	113.69
606.751	122.69
606.96	112.69
607.168	103.69
607.376	116.69
607.585	113.69
607.793	122.69
608.001	105.69
608.21	113.69
608.418	122.69
608.626	111.69
608.834	123.69
609.043	128.69
609.251	110.69
609.459	129.69
609.667	134.69
609.875	124.69
610.083	140.69
610.291	142.69
610.499	151.69
610.707	109.69
610.916	113.69
611.124	110.69
611.332	116.69
611.54	115.69
611.748	124.69
611.955	117.69
612.163	146.69
612.371	183.69
612.579	165.69
612.787	140.69
612.995	119.69
613.203	120.69
613.411	131.69
613.618	120.69
613.826	116.69
614.034	121.69
614.242	125.69
614.449	127.69
614.657	116.69
614.865	135.69
615.072	127.69
615.28	117.69
615.488	122.69
615.695	124.69
615.903	131.69
616.111	144.69
616.318	197.69
616.526	209.69
616.733	155.69
616.941	143.69
617.148	154.69
617.356	155.69
617.563	113.69
617.771	113.69
617.978	126.69
618.185	123.69
618.393	115.69
618.6	118.69
618.807	115.69
619.015	107.69
619.222	114.69
619.429	113.69
619.637	119.69
619.844	112.69
620.051	127.69
620.258	114.69
620.466	112.69
620.673	119.69
620.88	117.69
621.087	132.69
621.294	116.69
621.501	126.69
621.708	107.69
621.915	118.69
622.122	127.69
622.329	121.69
622.536	126.69
622.743	121.69
622.95	128.69
623.157	134.69
623.364	121.69
623.571	144.69
623.778	143.69
623.985	133.69
624.192	141.69
624.399	153.69
624.606	168.69
624.812	147.69
625.019	154.69
625.226	152.69
625.433	156.69
625.639	155.69
625.846	125.69
626.053	118.69
626.259	126.69
626.466	130.69
626.673	138.69
626.879	149.69
627.086	154.69
627.293	150.69
627.499	134.69
627.706	127.69
627.912	118.69
628.119	128.69
628.325	121.69
628.532	102.69
628.738	100.69
628.945	90.69
629.151	87.69
629.357	90.69
629.564	82.69
629.77	90.69
629.976	106.69
630.183	88.69
630.389	90.69
630.595	94.69
630.802	103.69
631.008	99.69
631.214	84.69
631.42	91.69
631.627	109.69
631.833	92.69
632.039	86.69
632.245	97.69
632.451	93.69
632.657	88.69
632.863	98.69
633.069	95.69
633.275	99.69
633.481	91.69
633.688	93.69
633.893	92.69
634.099	97.69
634.305	103.69
634.511	105.69
634.717	108.69
634.923	89.69
635.129	78.69
635.335	97.69
635.541	97.69
635.747	96.69
635.952	97.69
636.158	87.69
636.364	95.69
636.57	93.69
636.775	97.69
636.981	101.69
637.187	101.69
637.392	77.69
637.598	114.69
637.804	87.69
638.009	91.69
638.215	88.69
638.421	75.69
638.626	106.69
638.832	89.69
639.037	79.69
639.243	95.69
639.448	86.69
639.654	95.69
639.859	89.69
640.065	81.69
640.27	96.69
640.475	78.69
640.681	91.69
640.886	84.69
641.091	81.69
641.297	94.69
641.502	78.69
641.707	90.69
641.913	98.69
642.118	81.69
642.323	90.69
642.528	107.69
642.733	99.69
642.939	101.69
643.144	98.69
643.349	92.69
643.554	90.69
643.759	89.69
643.964	115.69
644.169	132.69
644.374	85.69
644.579	94.69
644.784	80.69
644.989	88.69
645.194	101.69
645.399	95.69
645.604	94.69
645.809	91.69
646.014	97.69
646.219	95.69
646.423	125.69
646.628	94.69
646.833	86.69
647.038	86.69
647.243	99.69
647.447	91.69
647.652	80.69
647.857	85.69
648.062	87.69
648.266	88.69
648.471	86.69
648.676	95.69
648.88	101.69
649.085	89.69
649.289	91.69
649.494	98.69
649.698	114.69
649.903	89.69
650.107	89.69
650.312	90.69
650.516	77.69
650.721	88.69
650.925	80.69
651.13	86.69
651.334	87.69
651.539	84.69
651.743	77.69
651.947	80.69
652.152	86.69
652.356	86.69
652.56	83.69
652.764	85.69
652.969	82.69
653.173	79.69
653.377	77.69
653.581	79.69
653.785	91.69
653.99	82.69
654.194	87.69
654.398	90.69
654.602	89.69
654.806	79.69
655.01	82.69
655.214	83.69
655.418	84.69
655.622	86.69
655.826	99.69
656.03	90.69
656.234	89.69
656.438	79.69
656.642	98.69
656.846	81.69
657.049	80.69
657.253	83.69
657.457	103.69
657.661	83.69
657.865	77.69
658.068	73.69
658.272	79.69
658.476	89.69
658.68	83.69
658.883	93.69
659.087	87.69
659.291	88.69
659.494	90.69
659.698	73.69
659.901	73.69
660.105	96.69
660.309	89.69
660.512	93.69
660.716	84.69
660.919	76.69
661.123	84.69
661.326	86.69
661.53	95.69
661.733	77.69
661.936	99.69
662.14	97.69
662.343	84.69
662.546	78.69
662.75	88.69
662.953	100.69
663.156	100.69
663.36	90.69
663.563	96.69
663.766	85.69
663.969	82.69
664.173	85.69
664.376	87.69
664.579	93.69
664.782	77.69
664.985	86.69
665.188	90.69
665.391	81.69
665.594	62.69
665.797	80.69
666	85.69
666.203	81.69
666.406	79.69
666.609	87.69
666.812	98.69
667.015	75.69
667.218	92.69
667.421	89.69
667.624	85.69
667.827	79.69
668.03	79.69
668.232	71.69
668.435	103.69
668.638	73.69
668.841	85.69
669.043	88.69
669.246	88.69
669.449	73.69
669.651	86.69
669.854	82.69
670.057	78.69
670.259	79.69
670.462	85.69
670.665	78.69
670.867	85.69
671.07	88.69
671.272	75.69
671.475	78.69
671.677	79.69
671.88	81.69
672.082	82.69
672.284	81.69
672.487	82.69
672.689	81.69
672.892	95.69
