Data from Lead_HRD10591_00015.txt Node
Date: Tue Feb 17 14:15:14 EST 2026
User: Yrep
Spectrometer: HR+D1059
Trigger mode: 1
Integration Time (sec): 1.000000E-1
Scans to average: 1
Electric dark correction enabled: true
Nonlinearity correction enabled: false
Boxcar width: 0
XAxis mode: Wavelengths
Number of Pixels in Spectrum: 2048
>>>>>Begin Spectral Data<<<<<
223.165	-7.44
223.4	-7.44
223.635	-7.44
223.869	-4.44
224.104	-31.44
224.338	-19.44
224.573	-15.44
224.808	-15.44
225.042	-4.44
225.277	1.56
225.511	-16.44
225.746	-3.44
225.98	12.56
226.215	1.56
226.449	13.56
226.683	22.56
226.918	32.56
227.152	33.56
227.387	38.56
227.621	50.56
227.856	49.56
228.09	47.56
228.324	53.56
228.559	51.56
228.793	53.56
229.027	58.56
229.262	76.56
229.496	63.56
229.73	66.56
229.964	69.56
230.199	80.56
230.433	79.56
230.667	78.56
230.901	86.56
231.136	89.56
231.37	97.56
231.604	70.56
231.838	69.56
232.072	83.56
232.306	84.56
232.541	75.56
232.775	94.56
233.009	88.56
233.243	95.56
233.477	78.56
233.711	69.56
233.945	77.56
234.179	87.56
234.413	91.56
234.647	82.56
234.881	86.56
235.115	81.56
235.349	69.56
235.583	76.56
235.817	61.56
236.051	79.56
236.285	86.56
236.519	83.56
236.753	71.56
236.987	85.56
237.221	79.56
237.455	73.56
237.689	69.56
237.922	81.56
238.156	74.56
238.39	63.56
238.624	78.56
238.858	75.56
239.091	70.56
239.325	67.56
239.559	69.56
239.793	69.56
240.027	78.56
240.26	65.56
240.494	73.56
240.728	68.56
240.961	78.56
241.195	66.56
241.429	85.56
241.662	86.56
241.896	87.56
242.13	65.56
242.363	77.56
242.597	75.56
242.83	77.56
243.064	97.56
243.298	92.56
243.531	71.56
243.765	74.56
243.998	74.56
244.232	81.56
244.465	70.56
244.699	76.56
244.932	80.56
245.166	80.56
245.399	75.56
245.633	84.56
245.866	68.56
246.099	72.56
246.333	71.56
246.566	88.56
246.8	70.56
247.033	77.56
247.266	103.56
247.5	65.56
247.733	89.56
247.966	71.56
248.2	86.56
248.433	77.56
248.666	76.56
248.899	87.56
249.133	80.56
249.366	67.56
249.599	67.56
249.832	76.56
250.066	81.56
250.299	72.56
250.532	86.56
250.765	77.56
250.998	74.56
251.231	69.56
251.465	78.56
251.698	88.56
251.931	78.56
252.164	79.56
252.397	77.56
252.63	86.56
252.863	69.56
253.096	84.56
253.329	78.56
253.562	70.56
253.795	82.56
254.028	81.56
254.261	66.56
254.494	63.56
254.727	82.56
254.96	84.56
255.193	74.56
255.426	85.56
255.659	83.56
255.892	78.56
256.124	83.56
256.357	71.56
256.59	68.56
256.823	69.56
257.056	67.56
257.289	80.56
257.521	62.56
257.754	83.56
257.987	83.56
258.22	87.56
258.452	81.56
258.685	80.56
258.918	84.56
259.151	82.56
259.383	77.56
259.616	80.56
259.849	76.56
260.081	83.56
260.314	67.56
260.547	70.56
260.779	83.56
261.012	96.56
261.244	87.56
261.477	97.56
261.71	87.56
261.942	76.56
262.175	90.56
262.407	83.56
262.64	87.56
262.872	84.56
263.105	83.56
263.337	60.56
263.57	91.56
263.802	81.56
264.035	75.56
264.267	83.56
264.499	81.56
264.732	71.56
264.964	83.56
265.197	68.56
265.429	71.56
265.661	82.56
265.894	98.56
266.126	102.56
266.358	76.56
266.591	77.56
266.823	97.56
267.055	92.56
267.287	93.56
267.52	70.56
267.752	81.56
267.984	83.56
268.216	80.56
268.448	89.56
268.681	74.56
268.913	77.56
269.145	73.56
269.377	78.56
269.609	96.56
269.841	83.56
270.073	76.56
270.306	79.56
270.538	86.56
270.77	75.56
271.002	92.56
271.234	76.56
271.466	75.56
271.698	61.56
271.93	73.56
272.162	78.56
272.394	73.56
272.626	81.56
272.858	81.56
273.09	73.56
273.322	72.56
273.553	70.56
273.785	76.56
274.017	87.56
274.249	83.56
274.481	86.56
274.713	89.56
274.945	89.56
275.176	78.56
275.408	83.56
275.64	73.56
275.872	77.56
276.104	80.56
276.335	73.56
276.567	81.56
276.799	87.56
277.031	78.56
277.262	82.56
277.494	74.56
277.726	72.56
277.957	81.56
278.189	89.56
278.421	83.56
278.652	82.56
278.884	81.56
279.115	87.56
279.347	85.56
279.579	89.56
279.81	99.56
280.042	84.56
280.273	115.56
280.505	99.56
280.736	82.56
280.968	88.56
281.199	84.56
281.431	81.56
281.662	87.56
281.894	96.56
282.125	91.56
282.356	81.56
282.588	94.56
282.819	75.56
283.051	97.56
283.282	75.56
283.513	99.56
283.745	95.56
283.976	80.56
284.207	83.56
284.439	83.56
284.67	74.56
284.901	87.56
285.132	99.56
285.364	92.56
285.595	91.56
285.826	69.56
286.057	83.56
286.288	84.56
286.52	96.56
286.751	95.56
286.982	92.56
287.213	87.56
287.444	93.56
287.675	80.56
287.906	88.56
288.138	89.56
288.369	86.56
288.6	91.56
288.831	82.56
289.062	88.56
289.293	85.56
289.524	74.56
289.755	89.56
289.986	69.56
290.217	72.56
290.448	84.56
290.679	83.56
290.91	84.56
291.141	73.56
291.371	79.56
291.602	77.56
291.833	81.56
292.064	101.56
292.295	90.56
292.526	76.56
292.757	81.56
292.987	85.56
293.218	84.56
293.449	87.56
293.68	78.56
293.91	70.56
294.141	83.56
294.372	84.56
294.603	77.56
294.833	89.56
295.064	87.56
295.295	84.56
295.525	75.56
295.756	85.56
295.987	88.56
296.217	75.56
296.448	76.56
296.679	77.56
296.909	76.56
297.14	82.56
297.37	93.56
297.601	88.56
297.831	90.56
298.062	92.56
298.292	81.56
298.523	81.56
298.753	75.56
298.984	89.56
299.214	96.56
299.445	77.56
299.675	85.56
299.905	79.56
300.136	76.56
300.366	83.56
300.597	89.56
300.827	83.56
301.057	83.56
301.288	91.56
301.518	83.56
301.748	86.56
301.979	99.56
302.209	83.56
302.439	103.56
302.669	87.56
302.9	85.56
303.13	90.56
303.36	78.56
303.59	98.56
303.82	93.56
304.051	70.56
304.281	91.56
304.511	95.56
304.741	85.56
304.971	97.56
305.201	76.56
305.431	88.56
305.661	81.56
305.891	89.56
306.121	81.56
306.352	84.56
306.582	72.56
306.812	81.56
307.042	63.56
307.272	84.56
307.502	73.56
307.731	77.56
307.961	83.56
308.191	89.56
308.421	82.56
308.651	82.56
308.881	74.56
309.111	83.56
309.341	84.56
309.571	87.56
309.8	85.56
310.03	87.56
310.26	70.56
310.49	84.56
310.72	98.56
310.949	81.56
311.179	87.56
311.409	97.56
311.639	76.56
311.868	96.56
312.098	93.56
312.328	85.56
312.557	91.56
312.787	85.56
313.017	99.56
313.246	83.56
313.476	78.56
313.706	97.56
313.935	103.56
314.165	97.56
314.394	78.56
314.624	82.56
314.853	95.56
315.083	87.56
315.312	66.56
315.542	72.56
315.771	80.56
316.001	83.56
316.23	81.56
316.46	80.56
316.689	86.56
316.919	87.56
317.148	83.56
317.377	95.56
317.607	91.56
317.836	85.56
318.065	80.56
318.295	73.56
318.524	75.56
318.753	92.56
318.983	89.56
319.212	67.56
319.441	81.56
319.67	90.56
319.9	65.56
320.129	71.56
320.358	84.56
320.587	82.56
320.816	69.56
321.046	89.56
321.275	88.56
321.504	74.56
321.733	77.56
321.962	93.56
322.191	92.56
322.42	82.56
322.649	87.56
322.878	90.56
323.108	89.56
323.337	95.56
323.566	89.56
323.795	81.56
324.024	99.56
324.253	94.56
324.482	86.56
324.71	83.56
324.939	80.56
325.168	97.56
325.397	83.56
325.626	80.56
325.855	93.56
326.084	101.56
326.313	88.56
326.542	81.56
326.77	77.56
326.999	83.56
327.228	92.56
327.457	90.56
327.686	89.56
327.914	81.56
328.143	73.56
328.372	84.56
328.6	76.56
328.829	83.56
329.058	96.56
329.287	84.56
329.515	77.56
329.744	85.56
329.972	72.56
330.201	113.56
330.43	87.56
330.658	107.56
330.887	90.56
331.115	101.56
331.344	81.56
331.572	88.56
331.801	83.56
332.03	91.56
332.258	78.56
332.486	83.56
332.715	81.56
332.943	87.56
333.172	90.56
333.4	92.56
333.629	90.56
333.857	77.56
334.085	87.56
334.314	83.56
334.542	77.56
334.771	78.56
334.999	75.56
335.227	81.56
335.455	79.56
335.684	92.56
335.912	76.56
336.14	88.56
336.369	84.56
336.597	74.56
336.825	79.56
337.053	82.56
337.281	81.56
337.51	87.56
337.738	91.56
337.966	74.56
338.194	90.56
338.422	78.56
338.65	91.56
338.878	89.56
339.106	73.56
339.334	87.56
339.562	77.56
339.79	76.56
340.018	80.56
340.246	87.56
340.474	81.56
340.702	90.56
340.93	74.56
341.158	81.56
341.386	95.56
341.614	88.56
341.842	81.56
342.07	87.56
342.298	89.56
342.526	96.56
342.754	84.56
342.981	86.56
343.209	69.56
343.437	91.56
343.665	84.56
343.893	84.56
344.12	96.56
344.348	97.56
344.576	90.56
344.804	105.56
345.031	108.56
345.259	87.56
345.487	77.56
345.714	95.56
345.942	89.56
346.17	87.56
346.397	81.56
346.625	77.56
346.853	86.56
347.08	81.56
347.308	76.56
347.535	83.56
347.763	77.56
347.99	82.56
348.218	72.56
348.445	83.56
348.673	89.56
348.9	91.56
349.128	84.56
349.355	88.56
349.583	86.56
349.81	85.56
350.037	78.56
350.265	86.56
350.492	92.56
350.72	92.56
350.947	84.56
351.174	81.56
351.402	69.56
351.629	74.56
351.856	86.56
352.083	89.56
352.311	76.56
352.538	88.56
352.765	91.56
352.992	79.56
353.22	88.56
353.447	92.56
353.674	96.56
353.901	86.56
354.128	76.56
354.355	84.56
354.583	77.56
354.81	101.56
355.037	84.56
355.264	84.56
355.491	87.56
355.718	85.56
355.945	90.56
356.172	76.56
356.399	81.56
356.626	82.56
356.853	98.56
357.08	76.56
357.307	107.56
357.534	86.56
357.761	91.56
357.988	89.56
358.215	68.56
358.441	91.56
358.668	92.56
358.895	93.56
359.122	76.56
359.349	84.56
359.576	69.56
359.802	80.56
360.029	83.56
360.256	89.56
360.483	81.56
360.709	87.56
360.936	81.56
361.163	79.56
361.39	82.56
361.616	82.56
361.843	87.56
362.07	87.56
362.296	92.56
362.523	83.56
362.749	91.56
362.976	83.56
363.203	96.56
363.429	87.56
363.656	103.56
363.882	147.56
364.109	141.56
364.335	102.56
364.562	83.56
364.788	69.56
365.015	86.56
365.241	76.56
365.468	93.56
365.694	90.56
365.92	83.56
366.147	84.56
366.373	77.56
366.599	93.56
366.826	92.56
367.052	83.56
367.278	101.56
367.505	101.56
367.731	94.56
367.957	108.56
368.184	150.56
368.41	164.56
368.636	117.56
368.862	90.56
369.089	87.56
369.315	91.56
369.541	87.56
369.767	85.56
369.993	81.56
370.219	71.56
370.445	81.56
370.672	80.56
370.898	89.56
371.124	75.56
371.35	80.56
371.576	75.56
371.802	75.56
372.028	75.56
372.254	84.56
372.48	91.56
372.706	84.56
372.932	104.56
373.158	88.56
373.384	100.56
373.61	84.56
373.835	112.56
374.061	116.56
374.287	97.56
374.513	81.56
374.739	85.56
374.965	93.56
375.191	75.56
375.416	81.56
375.642	85.56
375.868	90.56
376.094	75.56
376.319	76.56
376.545	77.56
376.771	78.56
376.997	78.56
377.222	74.56
377.448	88.56
377.674	97.56
377.899	87.56
378.125	83.56
378.35	78.56
378.576	85.56
378.802	86.56
379.027	96.56
379.253	89.56
379.478	95.56
379.704	74.56
379.929	84.56
380.155	91.56
380.38	89.56
380.606	74.56
380.831	88.56
381.057	85.56
381.282	83.56
381.507	84.56
381.733	84.56
381.958	74.56
382.184	94.56
382.409	84.56
382.634	89.56
382.86	88.56
383.085	96.56
383.31	66.56
383.535	87.56
383.761	79.56
383.986	88.56
384.211	92.56
384.436	88.56
384.662	74.56
384.887	77.56
385.112	96.56
385.337	85.56
385.562	74.56
385.787	82.56
386.013	86.56
386.238	70.56
386.463	75.56
386.688	97.56
386.913	102.56
387.138	83.56
387.363	81.56
387.588	94.56
387.813	75.56
388.038	95.56
388.263	94.56
388.488	76.56
388.713	88.56
388.938	87.56
389.163	75.56
389.387	91.56
389.612	64.56
389.837	72.56
390.062	94.56
390.287	77.56
390.512	77.56
390.736	86.56
390.961	85.56
391.186	86.56
391.411	79.56
391.636	85.56
391.86	85.56
392.085	83.56
392.31	97.56
392.534	85.56
392.759	84.56
392.984	108.56
393.208	107.56
393.433	147.56
393.658	120.56
393.882	90.56
394.107	99.56
394.331	97.56
394.556	97.56
394.78	90.56
395.005	91.56
395.229	86.56
395.454	89.56
395.678	83.56
395.903	94.56
396.127	99.56
396.352	125.56
396.576	113.56
396.801	129.56
397.025	125.56
397.249	100.56
397.474	77.56
397.698	85.56
397.922	81.56
398.147	95.56
398.371	69.56
398.595	72.56
398.82	67.56
399.044	67.56
399.268	85.56
399.492	83.56
399.717	91.56
399.941	82.56
400.165	81.56
400.389	95.56
400.613	90.56
400.837	83.56
401.062	81.56
401.286	82.56
401.51	83.56
401.734	94.56
401.958	76.56
402.182	90.56
402.406	81.56
402.63	77.56
402.854	73.56
403.078	95.56
403.302	87.56
403.526	90.56
403.75	106.56
403.974	99.56
404.198	140.56
404.422	216.56
404.645	230.56
404.869	180.56
405.093	129.56
405.317	114.56
405.541	144.56
405.765	218.56
405.988	231.56
406.212	132.56
406.436	104.56
406.66	86.56
406.883	95.56
407.107	92.56
407.331	97.56
407.555	89.56
407.778	80.56
408.002	90.56
408.226	91.56
408.449	72.56
408.673	76.56
408.896	83.56
409.12	85.56
409.344	93.56
409.567	95.56
409.791	82.56
410.014	91.56
410.238	76.56
410.461	89.56
410.685	90.56
410.908	84.56
411.132	84.56
411.355	92.56
411.578	102.56
411.802	87.56
412.025	84.56
412.249	91.56
412.472	94.56
412.695	81.56
412.919	79.56
413.142	85.56
413.365	83.56
413.589	84.56
413.812	89.56
414.035	90.56
414.258	96.56
414.482	81.56
414.705	78.56
414.928	87.56
415.151	73.56
415.374	74.56
415.597	79.56
415.821	95.56
416.044	97.56
416.267	98.56
416.49	83.56
416.713	104.56
416.936	83.56
417.159	77.56
417.382	103.56
417.605	95.56
417.828	85.56
418.051	88.56
418.274	83.56
418.497	85.56
418.72	74.56
418.943	78.56
419.166	87.56
419.389	77.56
419.611	89.56
419.834	85.56
420.057	82.56
420.28	89.56
420.503	79.56
420.726	85.56
420.948	83.56
421.171	89.56
421.394	85.56
421.617	78.56
421.839	85.56
422.062	95.56
422.285	89.56
422.507	144.56
422.73	182.56
422.953	165.56
423.175	111.56
423.398	80.56
423.621	85.56
423.843	81.56
424.066	89.56
424.288	95.56
424.511	91.56
424.733	84.56
424.956	95.56
425.178	80.56
425.401	92.56
425.623	84.56
425.846	76.56
426.068	85.56
426.291	83.56
426.513	86.56
426.735	75.56
426.958	75.56
427.18	88.56
427.402	78.56
427.625	93.56
427.847	77.56
428.069	87.56
428.292	97.56
428.514	97.56
428.736	90.56
428.958	99.56
429.181	77.56
429.403	94.56
429.625	83.56
429.847	92.56
430.069	106.56
430.292	101.56
430.514	103.56
430.736	94.56
430.958	90.56
431.18	91.56
431.402	87.56
431.624	76.56
431.846	85.56
432.068	90.56
432.29	70.56
432.512	98.56
432.734	101.56
432.956	87.56
433.178	88.56
433.4	87.56
433.622	89.56
433.844	91.56
434.066	109.56
434.287	86.56
434.509	76.56
434.731	95.56
434.953	87.56
435.175	76.56
435.397	73.56
435.618	73.56
435.84	85.56
436.062	75.56
436.284	96.56
436.505	81.56
436.727	72.56
436.949	81.56
437.17	79.56
437.392	85.56
437.614	89.56
437.835	77.56
438.057	81.56
438.278	91.56
438.5	79.56
438.721	87.56
438.943	94.56
439.165	76.56
439.386	91.56
439.608	79.56
439.829	87.56
440.05	98.56
440.272	76.56
440.493	85.56
440.715	83.56
440.936	77.56
441.158	91.56
441.379	69.56
441.6	89.56
441.822	93.56
442.043	99.56
442.264	87.56
442.486	81.56
442.707	90.56
442.928	83.56
443.149	76.56
443.371	98.56
443.592	113.56
443.813	103.56
444.034	99.56
444.255	89.56
444.476	88.56
444.698	92.56
444.919	80.56
445.14	139.56
445.361	121.56
445.582	89.56
445.803	88.56
446.024	86.56
446.245	84.56
446.466	86.56
446.687	91.56
446.908	87.56
447.129	89.56
447.35	89.56
447.571	76.56
447.792	79.56
448.013	89.56
448.234	86.56
448.455	101.56
448.675	92.56
448.896	89.56
449.117	79.56
449.338	89.56
449.559	98.56
449.779	87.56
450	76.56
450.221	84.56
450.442	87.56
450.662	82.56
450.883	97.56
451.104	82.56
451.324	75.56
451.545	73.56
451.766	79.56
451.986	83.56
452.207	101.56
452.428	96.56
452.648	81.56
452.869	84.56
453.089	90.56
453.31	59.56
453.53	78.56
453.751	83.56
453.971	95.56
454.192	71.56
454.412	92.56
454.633	82.56
454.853	90.56
455.073	82.56
455.294	99.56
455.514	87.56
455.734	90.56
455.955	85.56
456.175	81.56
456.395	68.56
456.616	81.56
456.836	81.56
457.056	91.56
457.276	91.56
457.497	97.56
457.717	100.56
457.937	87.56
458.157	90.56
458.377	86.56
458.598	96.56
458.818	88.56
459.038	77.56
459.258	94.56
459.478	75.56
459.698	102.56
459.918	91.56
460.138	86.56
460.358	95.56
460.578	99.56
460.798	95.56
461.018	93.56
461.238	89.56
461.458	90.56
461.678	83.56
461.898	85.56
462.118	86.56
462.338	83.56
462.558	81.56
462.777	71.56
462.997	82.56
463.217	90.56
463.437	83.56
463.657	84.56
463.876	87.56
464.096	90.56
464.316	73.56
464.536	93.56
464.755	74.56
464.975	78.56
465.195	65.56
465.414	81.56
465.634	84.56
465.854	87.56
466.073	83.56
466.293	78.56
466.512	83.56
466.732	93.56
466.951	102.56
467.171	79.56
467.391	93.56
467.61	87.56
467.829	83.56
468.049	98.56
468.268	77.56
468.488	88.56
468.707	74.56
468.927	92.56
469.146	92.56
469.365	87.56
469.585	78.56
469.804	97.56
470.023	76.56
470.243	88.56
470.462	90.56
470.681	76.56
470.901	93.56
471.12	88.56
471.339	85.56
471.558	94.56
471.777	94.56
471.997	85.56
472.216	72.56
472.435	86.56
472.654	78.56
472.873	101.56
473.092	87.56
473.311	95.56
473.53	78.56
473.749	80.56
473.968	98.56
474.187	97.56
474.406	71.56
474.625	105.56
474.844	93.56
475.063	81.56
475.282	87.56
475.501	92.56
475.72	95.56
475.939	78.56
476.158	75.56
476.377	77.56
476.596	84.56
476.814	92.56
477.033	69.56
477.252	88.56
477.471	87.56
477.69	88.56
477.908	82.56
478.127	87.56
478.346	80.56
478.564	90.56
478.783	75.56
479.002	76.56
479.22	71.56
479.439	73.56
479.658	79.56
479.876	92.56
480.095	75.56
480.313	77.56
480.532	81.56
480.751	77.56
480.969	88.56
481.188	87.56
481.406	89.56
481.624	82.56
481.843	84.56
482.061	90.56
482.28	103.56
482.498	76.56
482.717	87.56
482.935	83.56
483.153	101.56
483.372	89.56
483.59	92.56
483.808	96.56
484.027	81.56
484.245	92.56
484.463	85.56
484.681	80.56
484.9	89.56
485.118	93.56
485.336	95.56
485.554	88.56
485.772	87.56
485.99	101.56
486.209	92.56
486.427	89.56
486.645	88.56
486.863	83.56
487.081	83.56
487.299	88.56
487.517	89.56
487.735	102.56
487.953	89.56
488.171	89.56
488.389	74.56
488.607	88.56
488.825	75.56
489.043	89.56
489.261	95.56
489.479	97.56
489.696	93.56
489.914	89.56
490.132	90.56
490.35	105.56
490.568	92.56
490.786	91.56
491.003	87.56
491.221	80.56
491.439	92.56
491.657	81.56
491.874	92.56
492.092	90.56
492.31	93.56
492.527	91.56
492.745	90.56
492.963	97.56
493.18	84.56
493.398	95.56
493.615	92.56
493.833	97.56
494.05	85.56
494.268	100.56
494.485	99.56
494.703	87.56
494.92	96.56
495.138	85.56
495.355	103.56
495.573	89.56
495.79	85.56
496.008	92.56
496.225	97.56
496.442	89.56
496.66	96.56
496.877	83.56
497.094	91.56
497.312	81.56
497.529	97.56
497.746	101.56
497.963	89.56
498.181	80.56
498.398	87.56
498.615	89.56
498.832	85.56
499.049	90.56
499.267	86.56
499.484	79.56
499.701	68.56
499.918	92.56
500.135	85.56
500.352	90.56
500.569	88.56
500.786	88.56
501.003	94.56
501.22	96.56
501.437	74.56
501.654	78.56
501.871	73.56
502.088	76.56
502.305	111.56
502.522	99.56
502.739	97.56
502.956	90.56
503.172	81.56
503.389	83.56
503.606	80.56
503.823	78.56
504.04	101.56
504.256	103.56
504.473	82.56
504.69	94.56
504.907	91.56
505.123	109.56
505.34	102.56
505.557	90.56
505.773	102.56
505.99	88.56
506.207	81.56
506.423	76.56
506.64	92.56
506.856	75.56
507.073	84.56
507.289	90.56
507.506	96.56
507.722	77.56
507.939	89.56
508.155	75.56
508.372	69.56
508.588	91.56
508.805	90.56
509.021	89.56
509.238	76.56
509.454	84.56
509.67	87.56
509.887	92.56
510.103	93.56
510.319	94.56
510.536	79.56
510.752	106.56
510.968	99.56
511.184	81.56
511.401	80.56
511.617	94.56
511.833	84.56
512.049	89.56
512.265	90.56
512.481	91.56
512.698	96.56
512.914	91.56
513.13	87.56
513.346	94.56
513.562	98.56
513.778	78.56
513.994	99.56
514.21	84.56
514.426	99.56
514.642	85.56
514.858	83.56
515.074	80.56
515.29	96.56
515.506	79.56
515.721	75.56
515.937	79.56
516.153	79.56
516.369	85.56
516.585	80.56
516.801	80.56
517.016	85.56
517.232	90.56
517.448	85.56
517.664	75.56
517.879	95.56
518.095	75.56
518.311	88.56
518.527	78.56
518.742	87.56
518.958	81.56
519.173	89.56
519.389	74.56
519.605	91.56
519.82	91.56
520.036	77.56
520.251	92.56
520.467	87.56
520.682	90.56
520.898	90.56
521.113	110.56
521.329	84.56
521.544	75.56
521.76	90.56
521.975	82.56
522.19	92.56
522.406	67.56
522.621	79.56
522.836	97.56
523.052	85.56
523.267	92.56
523.482	85.56
523.698	80.56
523.913	90.56
524.128	76.56
524.343	87.56
524.559	85.56
524.774	76.56
524.989	88.56
525.204	87.56
525.419	84.56
525.634	93.56
525.849	84.56
526.064	81.56
526.28	89.56
526.495	90.56
526.71	97.56
526.925	81.56
527.14	96.56
527.355	107.56
527.57	88.56
527.785	77.56
527.999	95.56
528.214	105.56
528.429	88.56
528.644	107.56
528.859	83.56
529.074	100.56
529.289	89.56
529.503	82.56
529.718	102.56
529.933	93.56
530.148	82.56
530.363	93.56
530.577	93.56
530.792	84.56
531.007	76.56
531.221	96.56
531.436	78.56
531.651	88.56
531.865	89.56
532.08	79.56
532.295	91.56
532.509	99.56
532.724	87.56
532.938	96.56
533.153	84.56
533.367	83.56
533.582	91.56
533.796	100.56
534.011	101.56
534.225	98.56
534.44	112.56
534.654	99.56
534.868	97.56
535.083	105.56
535.297	104.56
535.511	91.56
535.726	98.56
535.94	101.56
536.154	115.56
536.369	95.56
536.583	104.56
536.797	96.56
537.011	93.56
537.225	83.56
537.44	78.56
537.654	69.56
537.868	75.56
538.082	92.56
538.296	76.56
538.51	93.56
538.724	102.56
538.938	99.56
539.153	93.56
539.367	83.56
539.581	78.56
539.795	82.56
540.009	85.56
540.222	88.56
540.436	82.56
540.65	88.56
540.864	97.56
541.078	95.56
541.292	78.56
541.506	80.56
541.72	81.56
541.934	83.56
542.147	82.56
542.361	88.56
542.575	84.56
542.789	80.56
543.002	100.56
543.216	82.56
543.43	99.56
543.644	91.56
543.857	90.56
544.071	95.56
544.285	83.56
544.498	75.56
544.712	84.56
544.925	88.56
545.139	87.56
545.352	79.56
545.566	95.56
545.779	82.56
545.993	90.56
546.206	86.56
546.42	84.56
546.633	79.56
546.847	78.56
547.06	87.56
547.274	87.56
547.487	91.56
547.7	85.56
547.914	81.56
548.127	85.56
548.34	80.56
548.554	88.56
548.767	99.56
548.98	103.56
549.193	83.56
549.407	77.56
549.62	87.56
549.833	103.56
550.046	98.56
550.259	83.56
550.473	81.56
550.686	87.56
550.899	98.56
551.112	95.56
551.325	78.56
551.538	92.56
551.751	86.56
551.964	79.56
552.177	84.56
552.39	98.56
552.603	91.56
552.816	88.56
553.029	84.56
553.242	85.56
553.455	100.56
553.667	95.56
553.88	98.56
554.093	99.56
554.306	107.56
554.519	80.56
554.732	102.56
554.944	91.56
555.157	90.56
555.37	98.56
555.583	86.56
555.795	87.56
556.008	87.56
556.221	90.56
556.433	84.56
556.646	100.56
556.859	91.56
557.071	80.56
557.284	90.56
557.496	97.56
557.709	81.56
557.921	84.56
558.134	101.56
558.346	94.56
558.559	99.56
558.771	103.56
558.984	103.56
559.196	98.56
559.409	104.56
559.621	96.56
559.833	94.56
560.046	91.56
560.258	92.56
560.47	89.56
560.683	91.56
560.895	90.56
561.107	86.56
561.32	80.56
561.532	85.56
561.744	85.56
561.956	84.56
562.168	97.56
562.381	75.56
562.593	87.56
562.805	83.56
563.017	82.56
563.229	81.56
563.441	79.56
563.653	96.56
563.865	84.56
564.077	83.56
564.289	95.56
564.501	73.56
564.713	93.56
564.925	93.56
565.137	71.56
565.349	94.56
565.561	90.56
565.773	87.56
565.985	91.56
566.197	79.56
566.408	89.56
566.62	83.56
566.832	84.56
567.044	85.56
567.255	97.56
567.467	93.56
567.679	89.56
567.891	92.56
568.102	85.56
568.314	97.56
568.526	85.56
568.737	98.56
568.949	96.56
569.161	90.56
569.372	79.56
569.584	84.56
569.795	90.56
570.007	81.56
570.218	90.56
570.43	85.56
570.641	93.56
570.853	97.56
571.064	74.56
571.276	87.56
571.487	77.56
571.698	101.56
571.91	83.56
572.121	90.56
572.333	73.56
572.544	83.56
572.755	100.56
572.966	81.56
573.178	95.56
573.389	88.56
573.6	76.56
573.811	70.56
574.023	81.56
574.234	89.56
574.445	95.56
574.656	89.56
574.867	86.56
575.078	88.56
575.289	85.56
575.501	88.56
575.712	79.56
575.923	74.56
576.134	89.56
576.345	70.56
576.556	91.56
576.767	99.56
576.978	91.56
577.188	91.56
577.399	81.56
577.61	97.56
577.821	87.56
578.032	83.56
578.243	87.56
578.454	98.56
578.665	115.56
578.875	96.56
579.086	85.56
579.297	88.56
579.508	91.56
579.718	85.56
579.929	98.56
580.14	88.56
580.35	128.56
580.561	132.56
580.772	121.56
580.982	97.56
581.193	97.56
581.403	102.56
581.614	109.56
581.825	87.56
582.035	80.56
582.246	103.56
582.456	98.56
582.667	100.56
582.877	98.56
583.087	100.56
583.298	104.56
583.508	95.56
583.719	84.56
583.929	91.56
584.139	97.56
584.35	92.56
584.56	97.56
584.77	88.56
584.981	86.56
585.191	85.56
585.401	81.56
585.611	64.56
585.821	76.56
586.032	95.56
586.242	78.56
586.452	93.56
586.662	89.56
586.872	90.56
587.082	90.56
587.292	95.56
587.502	85.56
587.713	97.56
587.923	98.56
588.133	84.56
588.343	101.56
588.553	93.56
588.762	119.56
588.972	212.56
589.182	515.56
589.392	315.56
589.602	219.56
589.812	396.56
590.022	213.56
590.232	127.56
590.441	95.56
590.651	86.56
590.861	75.56
591.071	103.56
591.281	76.56
591.49	73.56
591.7	79.56
591.91	87.56
592.119	76.56
592.329	73.56
592.539	85.56
592.748	94.56
592.958	78.56
593.167	118.56
593.377	88.56
593.587	84.56
593.796	83.56
594.006	82.56
594.215	75.56
594.424	79.56
594.634	91.56
594.843	96.56
595.053	88.56
595.262	79.56
595.472	73.56
595.681	87.56
595.89	71.56
596.1	100.56
596.309	82.56
596.518	74.56
596.727	95.56
596.937	89.56
597.146	81.56
597.355	84.56
597.564	83.56
597.774	92.56
597.983	91.56
598.192	83.56
598.401	88.56
598.61	83.56
598.819	92.56
599.028	85.56
599.237	81.56
599.446	87.56
599.655	83.56
599.864	75.56
600.073	94.56
600.282	93.56
600.491	75.56
600.7	74.56
600.909	76.56
601.118	79.56
601.327	94.56
601.536	86.56
601.745	87.56
601.953	89.56
602.162	82.56
602.371	89.56
602.58	96.56
602.789	87.56
602.997	92.56
603.206	100.56
603.415	92.56
603.623	86.56
603.832	78.56
604.041	93.56
604.249	80.56
604.458	71.56
604.666	73.56
604.875	85.56
605.084	89.56
605.292	85.56
605.501	83.56
605.709	88.56
605.918	90.56
606.126	84.56
606.334	87.56
606.543	85.56
606.751	103.56
606.96	95.56
607.168	76.56
607.376	76.56
607.585	85.56
607.793	91.56
608.001	75.56
608.21	93.56
608.418	80.56
608.626	82.56
608.834	95.56
609.043	78.56
609.251	101.56
609.459	78.56
609.667	85.56
609.875	80.56
610.083	80.56
610.291	87.56
610.499	84.56
610.707	96.56
610.916	84.56
611.124	92.56
611.332	78.56
611.54	92.56
611.748	84.56
611.955	77.56
612.163	87.56
612.371	104.56
612.579	86.56
612.787	84.56
612.995	91.56
613.203	86.56
613.411	86.56
613.618	81.56
613.826	93.56
614.034	80.56
614.242	96.56
614.449	80.56
614.657	76.56
614.865	89.56
615.072	95.56
615.28	70.56
615.488	83.56
615.695	91.56
615.903	72.56
616.111	105.56
616.318	112.56
616.526	118.56
616.733	91.56
616.941	89.56
617.148	87.56
617.356	99.56
617.563	75.56
617.771	82.56
617.978	82.56
618.185	82.56
618.393	97.56
618.6	108.56
618.807	89.56
619.015	89.56
619.222	83.56
619.429	92.56
619.637	91.56
619.844	95.56
620.051	96.56
620.258	92.56
620.466	89.56
620.673	93.56
620.88	81.56
621.087	94.56
621.294	86.56
621.501	78.56
621.708	85.56
621.915	102.56
622.122	88.56
622.329	77.56
622.536	84.56
622.743	75.56
622.95	77.56
623.157	100.56
623.364	84.56
623.571	75.56
623.778	77.56
623.985	89.56
624.192	109.56
624.399	77.56
624.606	75.56
624.812	95.56
625.019	83.56
625.226	83.56
625.433	82.56
625.639	105.56
625.846	84.56
626.053	92.56
626.259	71.56
626.466	83.56
626.673	80.56
626.879	88.56
627.086	102.56
627.293	75.56
627.499	79.56
627.706	79.56
627.912	89.56
628.119	93.56
628.325	103.56
628.532	89.56
628.738	84.56
628.945	88.56
629.151	89.56
629.357	85.56
629.564	95.56
629.77	90.56
629.976	93.56
630.183	80.56
630.389	89.56
630.595	83.56
630.802	83.56
631.008	97.56
631.214	101.56
631.42	98.56
631.627	93.56
631.833	90.56
632.039	79.56
632.245	81.56
632.451	84.56
632.657	93.56
632.863	85.56
633.069	82.56
633.275	78.56
633.481	84.56
633.688	95.56
633.893	76.56
634.099	78.56
634.305	82.56
634.511	88.56
634.717	68.56
634.923	74.56
635.129	86.56
635.335	99.56
635.541	80.56
635.747	74.56
635.952	82.56
636.158	85.56
636.364	78.56
636.57	98.56
636.775	80.56
636.981	77.56
637.187	84.56
637.392	75.56
637.598	83.56
637.804	85.56
638.009	85.56
638.215	81.56
638.421	93.56
638.626	78.56
638.832	79.56
639.037	74.56
639.243	77.56
639.448	83.56
639.654	85.56
639.859	74.56
640.065	89.56
640.27	83.56
640.475	72.56
640.681	64.56
640.886	84.56
641.091	90.56
641.297	75.56
641.502	88.56
641.707	82.56
641.913	107.56
642.118	81.56
642.323	107.56
642.528	90.56
642.733	88.56
642.939	77.56
643.144	89.56
643.349	92.56
643.554	90.56
643.759	97.56
643.964	79.56
644.169	83.56
644.374	92.56
644.579	87.56
644.784	89.56
644.989	73.56
645.194	77.56
645.399	95.56
645.604	85.56
645.809	70.56
646.014	86.56
646.219	85.56
646.423	82.56
646.628	90.56
646.833	80.56
647.038	87.56
647.243	95.56
647.447	91.56
647.652	77.56
647.857	75.56
648.062	90.56
648.266	85.56
648.471	95.56
648.676	85.56
648.88	85.56
649.085	75.56
649.289	84.56
649.494	86.56
649.698	81.56
649.903	81.56
650.107	77.56
650.312	99.56
650.516	93.56
650.721	93.56
650.925	100.56
651.13	83.56
651.334	90.56
651.539	96.56
651.743	91.56
651.947	84.56
652.152	84.56
652.356	86.56
652.56	81.56
652.764	83.56
652.969	90.56
653.173	73.56
653.377	78.56
653.581	73.56
653.785	89.56
653.99	95.56
654.194	85.56
654.398	77.56
654.602	77.56
654.806	89.56
655.01	80.56
655.214	76.56
655.418	82.56
655.622	73.56
655.826	82.56
656.03	95.56
656.234	79.56
656.438	87.56
656.642	76.56
656.846	76.56
657.049	78.56
657.253	91.56
657.457	98.56
657.661	83.56
657.865	92.56
658.068	84.56
658.272	98.56
658.476	97.56
658.68	80.56
658.883	82.56
659.087	86.56
659.291	76.56
659.494	81.56
659.698	85.56
659.901	84.56
660.105	83.56
660.309	73.56
660.512	89.56
660.716	86.56
660.919	88.56
661.123	91.56
661.326	88.56
661.53	77.56
661.733	87.56
661.936	85.56
662.14	75.56
662.343	75.56
662.546	69.56
662.75	73.56
662.953	87.56
663.156	99.56
663.36	78.56
663.563	83.56
663.766	78.56
663.969	73.56
664.173	65.56
664.376	84.56
664.579	81.56
664.782	89.56
664.985	83.56
665.188	83.56
665.391	85.56
665.594	72.56
665.797	75.56
666	84.56
666.203	81.56
666.406	77.56
666.609	78.56
666.812	82.56
667.015	75.56
667.218	86.56
667.421	83.56
667.624	83.56
667.827	81.56
668.03	81.56
668.232	86.56
668.435	89.56
668.638	85.56
668.841	73.56
669.043	78.56
669.246	87.56
669.449	87.56
669.651	78.56
669.854	84.56
670.057	74.56
670.259	93.56
670.462	91.56
670.665	69.56
670.867	84.56
671.07	74.56
671.272	73.56
671.475	71.56
671.677	80.56
671.88	64.56
672.082	73.56
672.284	88.56
672.487	91.56
672.689	74.56
672.892	89.56
