Data from Lead_HRD10591_00096.txt Node
Date: Tue Feb 17 14:15:40 EST 2026
User: Yrep
Spectrometer: HR+D1059
Trigger mode: 1
Integration Time (sec): 1.000000E-1
Scans to average: 1
Electric dark correction enabled: true
Nonlinearity correction enabled: false
Boxcar width: 0
XAxis mode: Wavelengths
Number of Pixels in Spectrum: 2048
>>>>>Begin Spectral Data<<<<<
223.165	-13.75
223.4	-13.75
223.635	-13.75
223.869	-4.75
224.104	-36.75
224.338	-23.75
224.573	-12.75
224.808	-15.75
225.042	3.25
225.277	-3.75
225.511	-0.75
225.746	7.25
225.98	12.25
226.215	10.25
226.449	22.25
226.683	7.25
226.918	12.25
227.152	37.25
227.387	27.25
227.621	47.25
227.856	36.25
228.09	33.25
228.324	46.25
228.559	62.25
228.793	59.25
229.027	51.25
229.262	69.25
229.496	67.25
229.73	83.25
229.964	72.25
230.199	68.25
230.433	69.25
230.667	83.25
230.901	64.25
231.136	75.25
231.37	79.25
231.604	80.25
231.838	56.25
232.072	80.25
232.306	82.25
232.541	83.25
232.775	85.25
233.009	88.25
233.243	80.25
233.477	82.25
233.711	74.25
233.945	88.25
234.179	91.25
234.413	86.25
234.647	66.25
234.881	73.25
235.115	66.25
235.349	76.25
235.583	83.25
235.817	76.25
236.051	66.25
236.285	88.25
236.519	84.25
236.753	82.25
236.987	71.25
237.221	70.25
237.455	71.25
237.689	72.25
237.922	83.25
238.156	75.25
238.39	68.25
238.624	77.25
238.858	72.25
239.091	75.25
239.325	75.25
239.559	73.25
239.793	71.25
240.027	78.25
240.26	77.25
240.494	87.25
240.728	72.25
240.961	80.25
241.195	75.25
241.429	64.25
241.662	78.25
241.896	90.25
242.13	74.25
242.363	83.25
242.597	66.25
242.83	73.25
243.064	71.25
243.298	70.25
243.531	67.25
243.765	75.25
243.998	60.25
244.232	79.25
244.465	92.25
244.699	87.25
244.932	80.25
245.166	64.25
245.399	73.25
245.633	56.25
245.866	72.25
246.099	70.25
246.333	81.25
246.566	68.25
246.8	74.25
247.033	75.25
247.266	82.25
247.5	75.25
247.733	87.25
247.966	76.25
248.2	74.25
248.433	78.25
248.666	87.25
248.899	75.25
249.133	75.25
249.366	72.25
249.599	80.25
249.832	98.25
250.066	86.25
250.299	68.25
250.532	64.25
250.765	75.25
250.998	70.25
251.231	81.25
251.465	67.25
251.698	79.25
251.931	66.25
252.164	95.25
252.397	75.25
252.63	76.25
252.863	76.25
253.096	81.25
253.329	86.25
253.562	70.25
253.795	78.25
254.028	86.25
254.261	77.25
254.494	82.25
254.727	85.25
254.96	88.25
255.193	86.25
255.426	74.25
255.659	69.25
255.892	71.25
256.124	64.25
256.357	72.25
256.59	67.25
256.823	74.25
257.056	75.25
257.289	88.25
257.521	70.25
257.754	72.25
257.987	89.25
258.22	84.25
258.452	73.25
258.685	79.25
258.918	77.25
259.151	77.25
259.383	72.25
259.616	77.25
259.849	88.25
260.081	84.25
260.314	66.25
260.547	79.25
260.779	84.25
261.012	87.25
261.244	90.25
261.477	98.25
261.71	75.25
261.942	69.25
262.175	79.25
262.407	91.25
262.64	76.25
262.872	80.25
263.105	87.25
263.337	85.25
263.57	84.25
263.802	78.25
264.035	78.25
264.267	75.25
264.499	70.25
264.732	90.25
264.964	76.25
265.197	70.25
265.429	86.25
265.661	87.25
265.894	68.25
266.126	91.25
266.358	88.25
266.591	85.25
266.823	87.25
267.055	95.25
267.287	80.25
267.52	97.25
267.752	92.25
267.984	78.25
268.216	94.25
268.448	65.25
268.681	81.25
268.913	76.25
269.145	84.25
269.377	76.25
269.609	80.25
269.841	80.25
270.073	92.25
270.306	89.25
270.538	77.25
270.77	88.25
271.002	76.25
271.234	80.25
271.466	83.25
271.698	82.25
271.93	91.25
272.162	72.25
272.394	87.25
272.626	62.25
272.858	64.25
273.09	84.25
273.322	91.25
273.553	90.25
273.785	77.25
274.017	95.25
274.249	88.25
274.481	70.25
274.713	82.25
274.945	73.25
275.176	81.25
275.408	74.25
275.64	67.25
275.872	82.25
276.104	92.25
276.335	86.25
276.567	85.25
276.799	75.25
277.031	77.25
277.262	76.25
277.494	80.25
277.726	88.25
277.957	67.25
278.189	74.25
278.421	72.25
278.652	86.25
278.884	91.25
279.115	64.25
279.347	75.25
279.579	86.25
279.81	97.25
280.042	96.25
280.273	102.25
280.505	100.25
280.736	105.25
280.968	82.25
281.199	84.25
281.431	80.25
281.662	76.25
281.894	77.25
282.125	82.25
282.356	92.25
282.588	90.25
282.819	75.25
283.051	94.25
283.282	105.25
283.513	105.25
283.745	98.25
283.976	90.25
284.207	84.25
284.439	81.25
284.67	76.25
284.901	82.25
285.132	88.25
285.364	79.25
285.595	86.25
285.826	82.25
286.057	98.25
286.288	90.25
286.52	76.25
286.751	74.25
286.982	96.25
287.213	91.25
287.444	91.25
287.675	89.25
287.906	88.25
288.138	106.25
288.369	105.25
288.6	74.25
288.831	76.25
289.062	86.25
289.293	84.25
289.524	82.25
289.755	81.25
289.986	85.25
290.217	92.25
290.448	82.25
290.679	90.25
290.91	72.25
291.141	81.25
291.371	82.25
291.602	80.25
291.833	83.25
292.064	79.25
292.295	75.25
292.526	92.25
292.757	75.25
292.987	84.25
293.218	91.25
293.449	74.25
293.68	80.25
293.91	84.25
294.141	74.25
294.372	64.25
294.603	87.25
294.833	75.25
295.064	74.25
295.295	99.25
295.525	75.25
295.756	82.25
295.987	78.25
296.217	88.25
296.448	101.25
296.679	74.25
296.909	76.25
297.14	105.25
297.37	91.25
297.601	87.25
297.831	81.25
298.062	90.25
298.292	73.25
298.523	84.25
298.753	79.25
298.984	94.25
299.214	86.25
299.445	82.25
299.675	73.25
299.905	77.25
300.136	86.25
300.366	81.25
300.597	90.25
300.827	89.25
301.057	84.25
301.288	76.25
301.518	88.25
301.748	82.25
301.979	93.25
302.209	91.25
302.439	77.25
302.669	81.25
302.9	92.25
303.13	97.25
303.36	94.25
303.59	87.25
303.82	85.25
304.051	84.25
304.281	87.25
304.511	68.25
304.741	80.25
304.971	87.25
305.201	87.25
305.431	83.25
305.661	72.25
305.891	75.25
306.121	95.25
306.352	86.25
306.582	88.25
306.812	77.25
307.042	90.25
307.272	85.25
307.502	80.25
307.731	89.25
307.961	106.25
308.191	99.25
308.421	102.25
308.651	94.25
308.881	97.25
309.111	93.25
309.341	103.25
309.571	100.25
309.8	94.25
310.03	83.25
310.26	84.25
310.49	86.25
310.72	77.25
310.949	84.25
311.179	76.25
311.409	90.25
311.639	82.25
311.868	91.25
312.098	95.25
312.328	81.25
312.557	83.25
312.787	70.25
313.017	88.25
313.246	76.25
313.476	94.25
313.706	76.25
313.935	68.25
314.165	95.25
314.394	82.25
314.624	71.25
314.853	78.25
315.083	78.25
315.312	86.25
315.542	82.25
315.771	79.25
316.001	89.25
316.23	86.25
316.46	96.25
316.689	77.25
316.919	81.25
317.148	81.25
317.377	93.25
317.607	98.25
317.836	87.25
318.065	89.25
318.295	82.25
318.524	85.25
318.753	94.25
318.983	88.25
319.212	91.25
319.441	93.25
319.67	79.25
319.9	84.25
320.129	74.25
320.358	87.25
320.587	78.25
320.816	76.25
321.046	76.25
321.275	89.25
321.504	77.25
321.733	89.25
321.962	79.25
322.191	97.25
322.42	84.25
322.649	84.25
322.878	74.25
323.108	96.25
323.337	88.25
323.566	84.25
323.795	77.25
324.024	82.25
324.253	84.25
324.482	82.25
324.71	77.25
324.939	82.25
325.168	93.25
325.397	84.25
325.626	101.25
325.855	85.25
326.084	82.25
326.313	85.25
326.542	77.25
326.77	81.25
326.999	92.25
327.228	88.25
327.457	88.25
327.686	82.25
327.914	88.25
328.143	89.25
328.372	77.25
328.6	65.25
328.829	69.25
329.058	95.25
329.287	89.25
329.515	88.25
329.744	83.25
329.972	83.25
330.201	89.25
330.43	82.25
330.658	81.25
330.887	85.25
331.115	73.25
331.344	86.25
331.572	80.25
331.801	79.25
332.03	78.25
332.258	84.25
332.486	74.25
332.715	79.25
332.943	78.25
333.172	81.25
333.4	87.25
333.629	74.25
333.857	90.25
334.085	83.25
334.314	95.25
334.542	79.25
334.771	81.25
334.999	85.25
335.227	81.25
335.455	77.25
335.684	77.25
335.912	90.25
336.14	79.25
336.369	70.25
336.597	74.25
336.825	84.25
337.053	91.25
337.281	83.25
337.51	74.25
337.738	85.25
337.966	74.25
338.194	62.25
338.422	58.25
338.65	80.25
338.878	83.25
339.106	87.25
339.334	82.25
339.562	81.25
339.79	74.25
340.018	71.25
340.246	89.25
340.474	81.25
340.702	85.25
340.93	84.25
341.158	79.25
341.386	70.25
341.614	76.25
341.842	75.25
342.07	65.25
342.298	88.25
342.526	89.25
342.754	81.25
342.981	80.25
343.209	86.25
343.437	104.25
343.665	82.25
343.893	72.25
344.12	80.25
344.348	78.25
344.576	86.25
344.804	82.25
345.031	67.25
345.259	80.25
345.487	79.25
345.714	76.25
345.942	59.25
346.17	76.25
346.397	82.25
346.625	88.25
346.853	85.25
347.08	76.25
347.308	86.25
347.535	83.25
347.763	90.25
347.99	83.25
348.218	79.25
348.445	89.25
348.673	80.25
348.9	74.25
349.128	80.25
349.355	84.25
349.583	70.25
349.81	74.25
350.037	80.25
350.265	82.25
350.492	81.25
350.72	70.25
350.947	90.25
351.174	88.25
351.402	95.25
351.629	90.25
351.856	83.25
352.083	74.25
352.311	86.25
352.538	84.25
352.765	79.25
352.992	91.25
353.22	93.25
353.447	86.25
353.674	87.25
353.901	91.25
354.128	96.25
354.355	77.25
354.583	79.25
354.81	75.25
355.037	71.25
355.264	76.25
355.491	82.25
355.718	67.25
355.945	75.25
356.172	73.25
356.399	65.25
356.626	82.25
356.853	91.25
357.08	119.25
357.307	141.25
357.534	105.25
357.761	90.25
357.988	89.25
358.215	89.25
358.441	94.25
358.668	95.25
358.895	93.25
359.122	74.25
359.349	67.25
359.576	91.25
359.802	87.25
360.029	75.25
360.256	81.25
360.483	79.25
360.709	81.25
360.936	88.25
361.163	66.25
361.39	80.25
361.616	89.25
361.843	84.25
362.07	91.25
362.296	81.25
362.523	80.25
362.749	75.25
362.976	84.25
363.203	97.25
363.429	99.25
363.656	141.25
363.882	184.25
364.109	217.25
364.335	122.25
364.562	76.25
364.788	77.25
365.015	91.25
365.241	83.25
365.468	81.25
365.694	84.25
365.92	85.25
366.147	78.25
366.373	85.25
366.599	94.25
366.826	96.25
367.052	101.25
367.278	98.25
367.505	91.25
367.731	99.25
367.957	143.25
368.184	198.25
368.41	266.25
368.636	175.25
368.862	98.25
369.089	90.25
369.315	97.25
369.541	86.25
369.767	82.25
369.993	89.25
370.219	88.25
370.445	82.25
370.672	72.25
370.898	80.25
371.124	94.25
371.35	83.25
371.576	90.25
371.802	81.25
372.028	75.25
372.254	83.25
372.48	82.25
372.706	71.25
372.932	74.25
373.158	88.25
373.384	91.25
373.61	113.25
373.835	113.25
374.061	158.25
374.287	115.25
374.513	78.25
374.739	86.25
374.965	97.25
375.191	84.25
375.416	80.25
375.642	73.25
375.868	85.25
376.094	71.25
376.319	95.25
376.545	78.25
376.771	68.25
376.997	90.25
377.222	70.25
377.448	81.25
377.674	81.25
377.899	75.25
378.125	87.25
378.35	98.25
378.576	83.25
378.802	82.25
379.027	79.25
379.253	78.25
379.478	91.25
379.704	99.25
379.929	77.25
380.155	97.25
380.38	68.25
380.606	80.25
380.831	92.25
381.057	94.25
381.282	70.25
381.507	92.25
381.733	80.25
381.958	72.25
382.184	81.25
382.409	82.25
382.634	80.25
382.86	76.25
383.085	84.25
383.31	81.25
383.535	75.25
383.761	82.25
383.986	80.25
384.211	66.25
384.436	82.25
384.662	76.25
384.887	83.25
385.112	83.25
385.337	84.25
385.562	79.25
385.787	66.25
386.013	79.25
386.238	88.25
386.463	101.25
386.688	83.25
386.913	85.25
387.138	76.25
387.363	84.25
387.588	77.25
387.813	83.25
388.038	76.25
388.263	82.25
388.488	77.25
388.713	85.25
388.938	67.25
389.163	88.25
389.387	80.25
389.612	77.25
389.837	88.25
390.062	74.25
390.287	74.25
390.512	81.25
390.736	79.25
390.961	79.25
391.186	71.25
391.411	85.25
391.636	65.25
391.86	82.25
392.085	83.25
392.31	90.25
392.534	93.25
392.759	66.25
392.984	108.25
393.208	126.25
393.433	139.25
393.658	117.25
393.882	89.25
394.107	104.25
394.331	146.25
394.556	150.25
394.78	108.25
395.005	88.25
395.229	84.25
395.454	102.25
395.678	92.25
395.903	123.25
396.127	163.25
396.352	161.25
396.576	101.25
396.801	110.25
397.025	133.25
397.249	93.25
397.474	85.25
397.698	86.25
397.922	68.25
398.147	81.25
398.371	69.25
398.595	66.25
398.82	81.25
399.044	73.25
399.268	75.25
399.492	80.25
399.717	80.25
399.941	71.25
400.165	74.25
400.389	70.25
400.613	73.25
400.837	81.25
401.062	85.25
401.286	78.25
401.51	85.25
401.734	82.25
401.958	89.25
402.182	94.25
402.406	84.25
402.63	79.25
402.854	98.25
403.078	94.25
403.302	91.25
403.526	84.25
403.75	76.25
403.974	95.25
404.198	120.25
404.422	165.25
404.645	183.25
404.869	148.25
405.093	102.25
405.317	127.25
405.541	226.25
405.765	360.25
405.988	408.25
406.212	209.25
406.436	130.25
406.66	96.25
406.883	93.25
407.107	101.25
407.331	72.25
407.555	64.25
407.778	73.25
408.002	94.25
408.226	80.25
408.449	89.25
408.673	72.25
408.896	70.25
409.12	83.25
409.344	84.25
409.567	86.25
409.791	91.25
410.014	73.25
410.238	86.25
410.461	74.25
410.685	94.25
410.908	90.25
411.132	85.25
411.355	81.25
411.578	81.25
411.802	81.25
412.025	71.25
412.249	93.25
412.472	77.25
412.695	73.25
412.919	80.25
413.142	87.25
413.365	91.25
413.589	87.25
413.812	88.25
414.035	79.25
414.258	71.25
414.482	80.25
414.705	73.25
414.928	83.25
415.151	64.25
415.374	74.25
415.597	90.25
415.821	61.25
416.044	75.25
416.267	84.25
416.49	90.25
416.713	84.25
416.936	95.25
417.159	80.25
417.382	70.25
417.605	92.25
417.828	104.25
418.051	80.25
418.274	71.25
418.497	88.25
418.72	86.25
418.943	79.25
419.166	91.25
419.389	82.25
419.611	79.25
419.834	82.25
420.057	89.25
420.28	76.25
420.503	82.25
420.726	79.25
420.948	81.25
421.171	90.25
421.394	85.25
421.617	82.25
421.839	84.25
422.062	81.25
422.285	95.25
422.507	125.25
422.73	166.25
422.953	133.25
423.175	100.25
423.398	63.25
423.621	91.25
423.843	92.25
424.066	77.25
424.288	89.25
424.511	87.25
424.733	97.25
424.956	82.25
425.178	80.25
425.401	79.25
425.623	68.25
425.846	80.25
426.068	82.25
426.291	78.25
426.513	82.25
426.735	87.25
426.958	98.25
427.18	80.25
427.402	75.25
427.625	65.25
427.847	75.25
428.069	82.25
428.292	96.25
428.514	75.25
428.736	91.25
428.958	76.25
429.181	91.25
429.403	89.25
429.625	77.25
429.847	90.25
430.069	83.25
430.292	87.25
430.514	83.25
430.736	82.25
430.958	92.25
431.18	79.25
431.402	76.25
431.624	67.25
431.846	90.25
432.068	72.25
432.29	74.25
432.512	71.25
432.734	79.25
432.956	89.25
433.178	87.25
433.4	92.25
433.622	76.25
433.844	73.25
434.066	89.25
434.287	72.25
434.509	77.25
434.731	86.25
434.953	82.25
435.175	83.25
435.397	81.25
435.618	75.25
435.84	75.25
436.062	70.25
436.284	76.25
436.505	85.25
436.727	80.25
436.949	76.25
437.17	89.25
437.392	84.25
437.614	60.25
437.835	86.25
438.057	69.25
438.278	91.25
438.5	75.25
438.721	68.25
438.943	78.25
439.165	78.25
439.386	93.25
439.608	84.25
439.829	87.25
440.05	91.25
440.272	85.25
440.493	76.25
440.715	71.25
440.936	73.25
441.158	74.25
441.379	83.25
441.6	88.25
441.822	87.25
442.043	80.25
442.264	80.25
442.486	76.25
442.707	85.25
442.928	76.25
443.149	84.25
443.371	75.25
443.592	94.25
443.813	72.25
444.034	68.25
444.255	81.25
444.476	87.25
444.698	71.25
444.919	77.25
445.14	157.25
445.361	115.25
445.582	93.25
445.803	88.25
446.024	72.25
446.245	87.25
446.466	95.25
446.687	86.25
446.908	84.25
447.129	84.25
447.35	87.25
447.571	84.25
447.792	75.25
448.013	89.25
448.234	86.25
448.455	77.25
448.675	72.25
448.896	68.25
449.117	86.25
449.338	80.25
449.559	87.25
449.779	88.25
450	82.25
450.221	89.25
450.442	86.25
450.662	84.25
450.883	90.25
451.104	90.25
451.324	72.25
451.545	84.25
451.766	84.25
451.986	77.25
452.207	77.25
452.428	79.25
452.648	95.25
452.869	90.25
453.089	86.25
453.31	79.25
453.53	85.25
453.751	76.25
453.971	70.25
454.192	83.25
454.412	66.25
454.633	78.25
454.853	82.25
455.073	89.25
455.294	72.25
455.514	69.25
455.734	75.25
455.955	78.25
456.175	80.25
456.395	75.25
456.616	82.25
456.836	90.25
457.056	87.25
457.276	76.25
457.497	88.25
457.717	91.25
457.937	82.25
458.157	80.25
458.377	70.25
458.598	86.25
458.818	92.25
459.038	94.25
459.258	86.25
459.478	74.25
459.698	79.25
459.918	77.25
460.138	74.25
460.358	76.25
460.578	70.25
460.798	103.25
461.018	84.25
461.238	90.25
461.458	85.25
461.678	79.25
461.898	68.25
462.118	92.25
462.338	68.25
462.558	80.25
462.777	91.25
462.997	71.25
463.217	75.25
463.437	85.25
463.657	82.25
463.876	80.25
464.096	71.25
464.316	72.25
464.536	91.25
464.755	75.25
464.975	90.25
465.195	88.25
465.414	91.25
465.634	72.25
465.854	84.25
466.073	89.25
466.293	83.25
466.512	83.25
466.732	63.25
466.951	85.25
467.171	76.25
467.391	87.25
467.61	76.25
467.829	83.25
468.049	82.25
468.268	70.25
468.488	75.25
468.707	76.25
468.927	74.25
469.146	83.25
469.365	96.25
469.585	55.25
469.804	73.25
470.023	79.25
470.243	84.25
470.462	84.25
470.681	92.25
470.901	71.25
471.12	74.25
471.339	72.25
471.558	75.25
471.777	91.25
471.997	79.25
472.216	82.25
472.435	83.25
472.654	79.25
472.873	84.25
473.092	76.25
473.311	64.25
473.53	89.25
473.749	82.25
473.968	74.25
474.187	86.25
474.406	82.25
474.625	75.25
474.844	90.25
475.063	88.25
475.282	74.25
475.501	83.25
475.72	66.25
475.939	72.25
476.158	86.25
476.377	80.25
476.596	92.25
476.814	83.25
477.033	80.25
477.252	95.25
477.471	64.25
477.69	67.25
477.908	73.25
478.127	80.25
478.346	75.25
478.564	83.25
478.783	71.25
479.002	80.25
479.22	87.25
479.439	89.25
479.658	99.25
479.876	90.25
480.095	98.25
480.313	88.25
480.532	95.25
480.751	70.25
480.969	82.25
481.188	88.25
481.406	71.25
481.624	82.25
481.843	82.25
482.061	74.25
482.28	68.25
482.498	78.25
482.717	81.25
482.935	78.25
483.153	87.25
483.372	92.25
483.59	82.25
483.808	87.25
484.027	86.25
484.245	78.25
484.463	63.25
484.681	85.25
484.9	90.25
485.118	102.25
485.336	90.25
485.554	85.25
485.772	81.25
485.99	93.25
486.209	90.25
486.427	85.25
486.645	63.25
486.863	77.25
487.081	81.25
487.299	77.25
487.517	94.25
487.735	79.25
487.953	87.25
488.171	79.25
488.389	94.25
488.607	85.25
488.825	97.25
489.043	93.25
489.261	78.25
489.479	74.25
489.696	94.25
489.914	84.25
490.132	85.25
490.35	79.25
490.568	83.25
490.786	74.25
491.003	84.25
491.221	72.25
491.439	67.25
491.657	80.25
491.874	90.25
492.092	88.25
492.31	68.25
492.527	82.25
492.745	89.25
492.963	84.25
493.18	80.25
493.398	92.25
493.615	98.25
493.833	84.25
494.05	83.25
494.268	83.25
494.485	95.25
494.703	80.25
494.92	84.25
495.138	99.25
495.355	96.25
495.573	77.25
495.79	81.25
496.008	95.25
496.225	84.25
496.442	81.25
496.66	80.25
496.877	91.25
497.094	90.25
497.312	87.25
497.529	84.25
497.746	99.25
497.963	82.25
498.181	87.25
498.398	93.25
498.615	84.25
498.832	88.25
499.049	88.25
499.267	98.25
499.484	82.25
499.701	76.25
499.918	84.25
500.135	86.25
500.352	81.25
500.569	89.25
500.786	119.25
501.003	91.25
501.22	84.25
501.437	80.25
501.654	77.25
501.871	71.25
502.088	78.25
502.305	84.25
502.522	79.25
502.739	91.25
502.956	90.25
503.172	94.25
503.389	94.25
503.606	72.25
503.823	88.25
504.04	87.25
504.256	93.25
504.473	89.25
504.69	90.25
504.907	78.25
505.123	68.25
505.34	81.25
505.557	98.25
505.773	82.25
505.99	82.25
506.207	71.25
506.423	86.25
506.64	90.25
506.856	79.25
507.073	86.25
507.289	86.25
507.506	95.25
507.722	82.25
507.939	68.25
508.155	81.25
508.372	97.25
508.588	96.25
508.805	87.25
509.021	80.25
509.238	88.25
509.454	82.25
509.67	78.25
509.887	81.25
510.103	97.25
510.319	98.25
510.536	94.25
510.752	86.25
510.968	79.25
511.184	86.25
511.401	71.25
511.617	96.25
511.833	86.25
512.049	83.25
512.265	90.25
512.481	86.25
512.698	91.25
512.914	81.25
513.13	89.25
513.346	74.25
513.562	60.25
513.778	87.25
513.994	74.25
514.21	94.25
514.426	76.25
514.642	86.25
514.858	98.25
515.074	87.25
515.29	81.25
515.506	86.25
515.721	94.25
515.937	68.25
516.153	82.25
516.369	62.25
516.585	70.25
516.801	91.25
517.016	94.25
517.232	100.25
517.448	95.25
517.664	89.25
517.879	90.25
518.095	77.25
518.311	72.25
518.527	91.25
518.742	100.25
518.958	91.25
519.173	63.25
519.389	66.25
519.605	86.25
519.82	85.25
520.036	82.25
520.251	93.25
520.467	85.25
520.682	82.25
520.898	78.25
521.113	75.25
521.329	96.25
521.544	74.25
521.76	70.25
521.975	94.25
522.19	72.25
522.406	81.25
522.621	83.25
522.836	88.25
523.052	92.25
523.267	90.25
523.482	97.25
523.698	87.25
523.913	100.25
524.128	81.25
524.343	74.25
524.559	82.25
524.774	86.25
524.989	77.25
525.204	82.25
525.419	90.25
525.634	80.25
525.849	94.25
526.064	79.25
526.28	98.25
526.495	89.25
526.71	80.25
526.925	85.25
527.14	97.25
527.355	83.25
527.57	85.25
527.785	84.25
527.999	84.25
528.214	83.25
528.429	70.25
528.644	72.25
528.859	73.25
529.074	90.25
529.289	83.25
529.503	78.25
529.718	89.25
529.933	84.25
530.148	88.25
530.363	84.25
530.577	81.25
530.792	80.25
531.007	70.25
531.221	93.25
531.436	90.25
531.651	79.25
531.865	82.25
532.08	81.25
532.295	90.25
532.509	94.25
532.724	93.25
532.938	88.25
533.153	85.25
533.367	88.25
533.582	80.25
533.796	83.25
534.011	84.25
534.225	102.25
534.44	88.25
534.654	96.25
534.868	80.25
535.083	79.25
535.297	82.25
535.511	94.25
535.726	78.25
535.94	89.25
536.154	110.25
536.369	84.25
536.583	84.25
536.797	97.25
537.011	80.25
537.225	87.25
537.44	83.25
537.654	80.25
537.868	87.25
538.082	84.25
538.296	87.25
538.51	72.25
538.724	77.25
538.938	80.25
539.153	85.25
539.367	84.25
539.581	83.25
539.795	83.25
540.009	87.25
540.222	70.25
540.436	82.25
540.65	93.25
540.864	83.25
541.078	87.25
541.292	78.25
541.506	86.25
541.72	89.25
541.934	74.25
542.147	80.25
542.361	74.25
542.575	90.25
542.789	91.25
543.002	87.25
543.216	92.25
543.43	77.25
543.644	88.25
543.857	74.25
544.071	81.25
544.285	82.25
544.498	88.25
544.712	86.25
544.925	85.25
545.139	90.25
545.352	91.25
545.566	88.25
545.779	93.25
545.993	76.25
546.206	86.25
546.42	98.25
546.633	70.25
546.847	84.25
547.06	90.25
547.274	85.25
547.487	83.25
547.7	84.25
547.914	79.25
548.127	82.25
548.34	90.25
548.554	87.25
548.767	79.25
548.98	85.25
549.193	82.25
549.407	96.25
549.62	88.25
549.833	92.25
550.046	90.25
550.259	82.25
550.473	94.25
550.686	76.25
550.899	94.25
551.112	88.25
551.325	85.25
551.538	72.25
551.751	84.25
551.964	74.25
552.177	86.25
552.39	62.25
552.603	85.25
552.816	83.25
553.029	98.25
553.242	80.25
553.455	80.25
553.667	96.25
553.88	83.25
554.093	69.25
554.306	99.25
554.519	81.25
554.732	79.25
554.944	91.25
555.157	89.25
555.37	91.25
555.583	81.25
555.795	88.25
556.008	91.25
556.221	96.25
556.433	84.25
556.646	92.25
556.859	82.25
557.071	79.25
557.284	82.25
557.496	94.25
557.709	103.25
557.921	77.25
558.134	84.25
558.346	82.25
558.559	74.25
558.771	64.25
558.984	88.25
559.196	81.25
559.409	85.25
559.621	79.25
559.833	82.25
560.046	88.25
560.258	96.25
560.47	84.25
560.683	82.25
560.895	72.25
561.107	80.25
561.32	84.25
561.532	81.25
561.744	79.25
561.956	81.25
562.168	90.25
562.381	90.25
562.593	85.25
562.805	79.25
563.017	92.25
563.229	87.25
563.441	83.25
563.653	94.25
563.865	63.25
564.077	82.25
564.289	86.25
564.501	80.25
564.713	86.25
564.925	95.25
565.137	75.25
565.349	89.25
565.561	79.25
565.773	94.25
565.985	84.25
566.197	111.25
566.408	73.25
566.62	89.25
566.832	95.25
567.044	77.25
567.255	77.25
567.467	79.25
567.679	59.25
567.891	89.25
568.102	83.25
568.314	84.25
568.526	75.25
568.737	97.25
568.949	98.25
569.161	89.25
569.372	83.25
569.584	86.25
569.795	90.25
570.007	89.25
570.218	80.25
570.43	92.25
570.641	90.25
570.853	84.25
571.064	75.25
571.276	72.25
571.487	68.25
571.698	67.25
571.91	78.25
572.121	85.25
572.333	85.25
572.544	97.25
572.755	80.25
572.966	74.25
573.178	85.25
573.389	84.25
573.6	95.25
573.811	90.25
574.023	70.25
574.234	82.25
574.445	88.25
574.656	106.25
574.867	100.25
575.078	100.25
575.289	81.25
575.501	93.25
575.712	79.25
575.923	85.25
576.134	90.25
576.345	80.25
576.556	95.25
576.767	86.25
576.978	77.25
577.188	92.25
577.399	86.25
577.61	74.25
577.821	72.25
578.032	94.25
578.243	82.25
578.454	108.25
578.665	107.25
578.875	90.25
579.086	84.25
579.297	82.25
579.508	75.25
579.718	83.25
579.929	91.25
580.14	101.25
580.35	104.25
580.561	108.25
580.772	105.25
580.982	86.25
581.193	100.25
581.403	88.25
581.614	90.25
581.825	93.25
582.035	91.25
582.246	102.25
582.456	90.25
582.667	94.25
582.877	101.25
583.087	85.25
583.298	93.25
583.508	98.25
583.719	98.25
583.929	101.25
584.139	98.25
584.35	91.25
584.56	88.25
584.77	84.25
584.981	79.25
585.191	89.25
585.401	93.25
585.611	93.25
585.821	96.25
586.032	84.25
586.242	88.25
586.452	82.25
586.662	83.25
586.872	90.25
587.082	79.25
587.292	91.25
587.502	79.25
587.713	76.25
587.923	88.25
588.133	93.25
588.343	103.25
588.553	97.25
588.762	131.25
588.972	217.25
589.182	579.25
589.392	336.25
589.602	241.25
589.812	477.25
590.022	223.25
590.232	118.25
590.441	107.25
590.651	106.25
590.861	87.25
591.071	81.25
591.281	92.25
591.49	76.25
591.7	82.25
591.91	90.25
592.119	99.25
592.329	89.25
592.539	77.25
592.748	86.25
592.958	88.25
593.167	75.25
593.377	81.25
593.587	90.25
593.796	81.25
594.006	88.25
594.215	71.25
594.424	82.25
594.634	86.25
594.843	83.25
595.053	79.25
595.262	91.25
595.472	90.25
595.681	80.25
595.89	75.25
596.1	79.25
596.309	76.25
596.518	88.25
596.727	75.25
596.937	90.25
597.146	82.25
597.355	88.25
597.564	79.25
597.774	92.25
597.983	78.25
598.192	81.25
598.401	90.25
598.61	83.25
598.819	65.25
599.028	95.25
599.237	88.25
599.446	84.25
599.655	79.25
599.864	82.25
600.073	76.25
600.282	87.25
600.491	88.25
600.7	91.25
600.909	93.25
601.118	80.25
601.327	79.25
601.536	89.25
601.745	91.25
601.953	99.25
602.162	88.25
602.371	81.25
602.58	83.25
602.789	84.25
602.997	88.25
603.206	96.25
603.415	88.25
603.623	80.25
603.832	80.25
604.041	86.25
604.249	72.25
604.458	87.25
604.666	80.25
604.875	83.25
605.084	102.25
605.292	93.25
605.501	75.25
605.709	67.25
605.918	89.25
606.126	85.25
606.334	87.25
606.543	76.25
606.751	89.25
606.96	90.25
607.168	86.25
607.376	83.25
607.585	86.25
607.793	82.25
608.001	99.25
608.21	88.25
608.418	90.25
608.626	84.25
608.834	80.25
609.043	87.25
609.251	89.25
609.459	81.25
609.667	73.25
609.875	88.25
610.083	85.25
610.291	103.25
610.499	100.25
610.707	87.25
610.916	84.25
611.124	81.25
611.332	80.25
611.54	81.25
611.748	90.25
611.955	82.25
612.163	89.25
612.371	95.25
612.579	90.25
612.787	80.25
612.995	80.25
613.203	76.25
613.411	78.25
613.618	68.25
613.826	79.25
614.034	84.25
614.242	82.25
614.449	95.25
614.657	76.25
614.865	89.25
615.072	90.25
615.28	84.25
615.488	91.25
615.695	85.25
615.903	74.25
616.111	90.25
616.318	94.25
616.526	99.25
616.733	97.25
616.941	94.25
617.148	98.25
617.356	77.25
617.563	89.25
617.771	87.25
617.978	88.25
618.185	84.25
618.393	84.25
618.6	83.25
618.807	83.25
619.015	75.25
619.222	81.25
619.429	73.25
619.637	80.25
619.844	94.25
620.051	82.25
620.258	84.25
620.466	91.25
620.673	84.25
620.88	87.25
621.087	86.25
621.294	83.25
621.501	81.25
621.708	86.25
621.915	76.25
622.122	78.25
622.329	81.25
622.536	85.25
622.743	78.25
622.95	82.25
623.157	83.25
623.364	84.25
623.571	88.25
623.778	84.25
623.985	89.25
624.192	76.25
624.399	76.25
624.606	82.25
624.812	68.25
625.019	84.25
625.226	73.25
625.433	98.25
625.639	89.25
625.846	72.25
626.053	81.25
626.259	93.25
626.466	90.25
626.673	76.25
626.879	90.25
627.086	76.25
627.293	84.25
627.499	101.25
627.706	82.25
627.912	71.25
628.119	76.25
628.325	84.25
628.532	71.25
628.738	79.25
628.945	89.25
629.151	80.25
629.357	87.25
629.564	83.25
629.77	84.25
629.976	87.25
630.183	79.25
630.389	83.25
630.595	66.25
630.802	76.25
631.008	82.25
631.214	91.25
631.42	86.25
631.627	93.25
631.833	84.25
632.039	77.25
632.245	72.25
632.451	84.25
632.657	85.25
632.863	98.25
633.069	94.25
633.275	88.25
633.481	76.25
633.688	84.25
633.893	86.25
634.099	78.25
634.305	80.25
634.511	90.25
634.717	80.25
634.923	73.25
635.129	75.25
635.335	82.25
635.541	95.25
635.747	75.25
635.952	94.25
636.158	95.25
636.364	77.25
636.57	75.25
636.775	94.25
636.981	89.25
637.187	82.25
637.392	65.25
637.598	80.25
637.804	91.25
638.009	84.25
638.215	76.25
638.421	72.25
638.626	70.25
638.832	79.25
639.037	88.25
639.243	83.25
639.448	86.25
639.654	82.25
639.859	74.25
640.065	68.25
640.27	84.25
640.475	81.25
640.681	79.25
640.886	90.25
641.091	85.25
641.297	97.25
641.502	71.25
641.707	83.25
641.913	75.25
642.118	82.25
642.323	72.25
642.528	94.25
642.733	87.25
642.939	99.25
643.144	90.25
643.349	87.25
643.554	81.25
643.759	70.25
643.964	87.25
644.169	87.25
644.374	82.25
644.579	69.25
644.784	79.25
644.989	81.25
645.194	99.25
645.399	80.25
645.604	96.25
645.809	85.25
646.014	88.25
646.219	79.25
646.423	82.25
646.628	64.25
646.833	81.25
647.038	89.25
647.243	86.25
647.447	85.25
647.652	80.25
647.857	78.25
648.062	81.25
648.266	68.25
648.471	78.25
648.676	81.25
648.88	82.25
649.085	70.25
649.289	76.25
649.494	91.25
649.698	76.25
649.903	73.25
650.107	90.25
650.312	76.25
650.516	75.25
650.721	82.25
650.925	76.25
651.13	87.25
651.334	90.25
651.539	73.25
651.743	85.25
651.947	78.25
652.152	86.25
652.356	72.25
652.56	75.25
652.764	71.25
652.969	76.25
653.173	80.25
653.377	86.25
653.581	83.25
653.785	91.25
653.99	76.25
654.194	82.25
654.398	85.25
654.602	62.25
654.806	93.25
655.01	79.25
655.214	87.25
655.418	83.25
655.622	77.25
655.826	82.25
656.03	80.25
656.234	70.25
656.438	83.25
656.642	83.25
656.846	88.25
657.049	73.25
657.253	96.25
657.457	91.25
657.661	66.25
657.865	88.25
658.068	78.25
658.272	63.25
658.476	82.25
658.68	97.25
658.883	81.25
659.087	92.25
659.291	75.25
659.494	86.25
659.698	89.25
659.901	88.25
660.105	84.25
660.309	85.25
660.512	73.25
660.716	68.25
660.919	66.25
661.123	92.25
661.326	78.25
661.53	74.25
661.733	88.25
661.936	72.25
662.14	83.25
662.343	75.25
662.546	84.25
662.75	76.25
662.953	94.25
663.156	88.25
663.36	77.25
663.563	78.25
663.766	74.25
663.969	97.25
664.173	82.25
664.376	82.25
664.579	81.25
664.782	66.25
664.985	82.25
665.188	85.25
665.391	81.25
665.594	62.25
665.797	78.25
666	87.25
666.203	85.25
666.406	86.25
666.609	87.25
666.812	87.25
667.015	83.25
667.218	94.25
667.421	85.25
667.624	70.25
667.827	81.25
668.03	86.25
668.232	84.25
668.435	84.25
668.638	72.25
668.841	82.25
669.043	77.25
669.246	78.25
669.449	72.25
669.651	90.25
669.854	88.25
670.057	81.25
670.259	77.25
670.462	84.25
670.665	83.25
670.867	86.25
671.07	69.25
671.272	86.25
671.475	68.25
671.677	80.25
671.88	90.25
672.082	77.25
672.284	84.25
672.487	80.25
672.689	89.25
672.892	80.25
