Data from Lead_HRD10591_00076.txt Node
Date: Tue Feb 17 14:15:33 EST 2026
User: Yrep
Spectrometer: HR+D1059
Trigger mode: 1
Integration Time (sec): 1.000000E-1
Scans to average: 1
Electric dark correction enabled: true
Nonlinearity correction enabled: false
Boxcar width: 0
XAxis mode: Wavelengths
Number of Pixels in Spectrum: 2048
>>>>>Begin Spectral Data<<<<<
223.165	-18.44
223.4	-18.44
223.635	-18.44
223.869	-19.44
224.104	-20.44
224.338	-18.44
224.573	-6.44
224.808	-15.44
225.042	-15.44
225.277	-11.44
225.511	0.56
225.746	-1.44
225.98	22.56
226.215	8.56
226.449	9.56
226.683	24.56
226.918	26.56
227.152	34.56
227.387	34.56
227.621	28.56
227.856	47.56
228.09	43.56
228.324	49.56
228.559	61.56
228.793	56.56
229.027	63.56
229.262	69.56
229.496	56.56
229.73	66.56
229.964	69.56
230.199	66.56
230.433	73.56
230.667	91.56
230.901	83.56
231.136	67.56
231.37	70.56
231.604	85.56
231.838	77.56
232.072	81.56
232.306	85.56
232.541	75.56
232.775	75.56
233.009	80.56
233.243	75.56
233.477	81.56
233.711	88.56
233.945	79.56
234.179	74.56
234.413	81.56
234.647	84.56
234.881	82.56
235.115	75.56
235.349	81.56
235.583	79.56
235.817	81.56
236.051	74.56
236.285	80.56
236.519	78.56
236.753	84.56
236.987	87.56
237.221	75.56
237.455	85.56
237.689	78.56
237.922	80.56
238.156	85.56
238.39	78.56
238.624	73.56
238.858	76.56
239.091	72.56
239.325	84.56
239.559	68.56
239.793	91.56
240.027	74.56
240.26	75.56
240.494	73.56
240.728	82.56
240.961	79.56
241.195	77.56
241.429	76.56
241.662	62.56
241.896	66.56
242.13	76.56
242.363	82.56
242.597	85.56
242.83	85.56
243.064	70.56
243.298	80.56
243.531	63.56
243.765	70.56
243.998	81.56
244.232	77.56
244.465	67.56
244.699	84.56
244.932	83.56
245.166	77.56
245.399	80.56
245.633	85.56
245.866	85.56
246.099	83.56
246.333	79.56
246.566	83.56
246.8	76.56
247.033	74.56
247.266	75.56
247.5	78.56
247.733	87.56
247.966	86.56
248.2	85.56
248.433	85.56
248.666	87.56
248.899	58.56
249.133	82.56
249.366	81.56
249.599	74.56
249.832	65.56
250.066	76.56
250.299	86.56
250.532	86.56
250.765	83.56
250.998	83.56
251.231	81.56
251.465	82.56
251.698	77.56
251.931	75.56
252.164	80.56
252.397	96.56
252.63	90.56
252.863	71.56
253.096	81.56
253.329	74.56
253.562	67.56
253.795	86.56
254.028	99.56
254.261	94.56
254.494	91.56
254.727	81.56
254.96	89.56
255.193	90.56
255.426	69.56
255.659	73.56
255.892	88.56
256.124	78.56
256.357	74.56
256.59	88.56
256.823	73.56
257.056	74.56
257.289	71.56
257.521	72.56
257.754	97.56
257.987	83.56
258.22	82.56
258.452	69.56
258.685	88.56
258.918	96.56
259.151	97.56
259.383	86.56
259.616	89.56
259.849	98.56
260.081	81.56
260.314	103.56
260.547	77.56
260.779	95.56
261.012	78.56
261.244	87.56
261.477	108.56
261.71	105.56
261.942	97.56
262.175	93.56
262.407	91.56
262.64	81.56
262.872	81.56
263.105	93.56
263.337	91.56
263.57	80.56
263.802	83.56
264.035	84.56
264.267	73.56
264.499	78.56
264.732	93.56
264.964	90.56
265.197	89.56
265.429	82.56
265.661	81.56
265.894	72.56
266.126	84.56
266.358	90.56
266.591	90.56
266.823	117.56
267.055	82.56
267.287	101.56
267.52	81.56
267.752	80.56
267.984	75.56
268.216	72.56
268.448	71.56
268.681	81.56
268.913	96.56
269.145	80.56
269.377	88.56
269.609	74.56
269.841	77.56
270.073	84.56
270.306	80.56
270.538	79.56
270.77	74.56
271.002	84.56
271.234	87.56
271.466	83.56
271.698	83.56
271.93	75.56
272.162	66.56
272.394	81.56
272.626	91.56
272.858	73.56
273.09	88.56
273.322	86.56
273.553	90.56
273.785	69.56
274.017	82.56
274.249	83.56
274.481	82.56
274.713	87.56
274.945	87.56
275.176	69.56
275.408	81.56
275.64	89.56
275.872	67.56
276.104	87.56
276.335	97.56
276.567	75.56
276.799	86.56
277.031	88.56
277.262	84.56
277.494	95.56
277.726	68.56
277.957	84.56
278.189	83.56
278.421	89.56
278.652	68.56
278.884	89.56
279.115	89.56
279.347	97.56
279.579	101.56
279.81	105.56
280.042	122.56
280.273	144.56
280.505	127.56
280.736	100.56
280.968	88.56
281.199	90.56
281.431	107.56
281.662	82.56
281.894	91.56
282.125	88.56
282.356	107.56
282.588	104.56
282.819	91.56
283.051	97.56
283.282	126.56
283.513	141.56
283.745	102.56
283.976	103.56
284.207	97.56
284.439	90.56
284.67	94.56
284.901	78.56
285.132	78.56
285.364	85.56
285.595	100.56
285.826	100.56
286.057	94.56
286.288	102.56
286.52	81.56
286.751	88.56
286.982	72.56
287.213	103.56
287.444	127.56
287.675	103.56
287.906	95.56
288.138	89.56
288.369	109.56
288.6	89.56
288.831	81.56
289.062	87.56
289.293	85.56
289.524	75.56
289.755	69.56
289.986	91.56
290.217	76.56
290.448	69.56
290.679	75.56
290.91	83.56
291.141	93.56
291.371	85.56
291.602	82.56
291.833	93.56
292.064	95.56
292.295	80.56
292.526	83.56
292.757	80.56
292.987	82.56
293.218	76.56
293.449	77.56
293.68	74.56
293.91	81.56
294.141	95.56
294.372	94.56
294.603	83.56
294.833	68.56
295.064	73.56
295.295	81.56
295.525	73.56
295.756	80.56
295.987	80.56
296.217	83.56
296.448	87.56
296.679	73.56
296.909	75.56
297.14	87.56
297.37	93.56
297.601	75.56
297.831	89.56
298.062	87.56
298.292	82.56
298.523	83.56
298.753	86.56
298.984	81.56
299.214	96.56
299.445	73.56
299.675	83.56
299.905	84.56
300.136	81.56
300.366	78.56
300.597	85.56
300.827	99.56
301.057	94.56
301.288	94.56
301.518	79.56
301.748	76.56
301.979	109.56
302.209	95.56
302.439	80.56
302.669	86.56
302.9	86.56
303.13	89.56
303.36	80.56
303.59	77.56
303.82	92.56
304.051	95.56
304.281	78.56
304.511	84.56
304.741	85.56
304.971	81.56
305.201	91.56
305.431	90.56
305.661	77.56
305.891	83.56
306.121	79.56
306.352	88.56
306.582	88.56
306.812	90.56
307.042	90.56
307.272	95.56
307.502	75.56
307.731	87.56
307.961	85.56
308.191	115.56
308.421	110.56
308.651	98.56
308.881	109.56
309.111	125.56
309.341	124.56
309.571	106.56
309.8	74.56
310.03	82.56
310.26	86.56
310.49	81.56
310.72	87.56
310.949	90.56
311.179	87.56
311.409	80.56
311.639	81.56
311.868	85.56
312.098	98.56
312.328	81.56
312.557	83.56
312.787	78.56
313.017	88.56
313.246	87.56
313.476	97.56
313.706	83.56
313.935	68.56
314.165	93.56
314.394	85.56
314.624	97.56
314.853	98.56
315.083	85.56
315.312	103.56
315.542	78.56
315.771	82.56
316.001	90.56
316.23	90.56
316.46	79.56
316.689	91.56
316.919	87.56
317.148	93.56
317.377	113.56
317.607	97.56
317.836	89.56
318.065	85.56
318.295	86.56
318.524	94.56
318.753	87.56
318.983	93.56
319.212	93.56
319.441	82.56
319.67	79.56
319.9	93.56
320.129	90.56
320.358	89.56
320.587	101.56
320.816	74.56
321.046	79.56
321.275	88.56
321.504	94.56
321.733	65.56
321.962	93.56
322.191	85.56
322.42	85.56
322.649	82.56
322.878	81.56
323.108	91.56
323.337	87.56
323.566	88.56
323.795	83.56
324.024	85.56
324.253	97.56
324.482	109.56
324.71	104.56
324.939	107.56
325.168	85.56
325.397	81.56
325.626	88.56
325.855	101.56
326.084	93.56
326.313	73.56
326.542	93.56
326.77	78.56
326.999	79.56
327.228	93.56
327.457	93.56
327.686	83.56
327.914	91.56
328.143	103.56
328.372	78.56
328.6	77.56
328.829	81.56
329.058	85.56
329.287	73.56
329.515	91.56
329.744	82.56
329.972	100.56
330.201	86.56
330.43	84.56
330.658	85.56
330.887	74.56
331.115	97.56
331.344	71.56
331.572	100.56
331.801	86.56
332.03	106.56
332.258	88.56
332.486	97.56
332.715	86.56
332.943	86.56
333.172	87.56
333.4	102.56
333.629	78.56
333.857	84.56
334.085	82.56
334.314	83.56
334.542	71.56
334.771	83.56
334.999	79.56
335.227	79.56
335.455	89.56
335.684	85.56
335.912	86.56
336.14	85.56
336.369	88.56
336.597	78.56
336.825	80.56
337.053	74.56
337.281	76.56
337.51	81.56
337.738	83.56
337.966	95.56
338.194	93.56
338.422	85.56
338.65	79.56
338.878	94.56
339.106	85.56
339.334	86.56
339.562	91.56
339.79	88.56
340.018	89.56
340.246	86.56
340.474	77.56
340.702	93.56
340.93	71.56
341.158	75.56
341.386	71.56
341.614	93.56
341.842	75.56
342.07	72.56
342.298	98.56
342.526	85.56
342.754	82.56
342.981	85.56
343.209	78.56
343.437	97.56
343.665	81.56
343.893	85.56
344.12	91.56
344.348	95.56
344.576	109.56
344.804	111.56
345.031	86.56
345.259	94.56
345.487	91.56
345.714	89.56
345.942	83.56
346.17	94.56
346.397	89.56
346.625	89.56
346.853	75.56
347.08	73.56
347.308	94.56
347.535	91.56
347.763	84.56
347.99	75.56
348.218	71.56
348.445	84.56
348.673	93.56
348.9	85.56
349.128	91.56
349.355	90.56
349.583	75.56
349.81	78.56
350.037	73.56
350.265	67.56
350.492	82.56
350.72	71.56
350.947	80.56
351.174	85.56
351.402	94.56
351.629	94.56
351.856	89.56
352.083	79.56
352.311	97.56
352.538	85.56
352.765	89.56
352.992	89.56
353.22	91.56
353.447	83.56
353.674	80.56
353.901	83.56
354.128	91.56
354.355	82.56
354.583	80.56
354.81	85.56
355.037	83.56
355.264	99.56
355.491	89.56
355.718	88.56
355.945	94.56
356.172	83.56
356.399	86.56
356.626	97.56
356.853	129.56
357.08	184.56
357.307	229.56
357.534	180.56
357.761	106.56
357.988	96.56
358.215	101.56
358.441	85.56
358.668	97.56
358.895	87.56
359.122	87.56
359.349	99.56
359.576	87.56
359.802	90.56
360.029	83.56
360.256	80.56
360.483	88.56
360.709	86.56
360.936	80.56
361.163	99.56
361.39	87.56
361.616	68.56
361.843	85.56
362.07	95.56
362.296	82.56
362.523	99.56
362.749	88.56
362.976	95.56
363.203	105.56
363.429	124.56
363.656	205.56
363.882	309.56
364.109	344.56
364.335	192.56
364.562	100.56
364.788	100.56
365.015	85.56
365.241	99.56
365.468	89.56
365.694	79.56
365.92	79.56
366.147	109.56
366.373	100.56
366.599	95.56
366.826	107.56
367.052	137.56
367.278	139.56
367.505	130.56
367.731	137.56
367.957	205.56
368.184	331.56
368.41	473.56
368.636	310.56
368.862	140.56
369.089	100.56
369.315	93.56
369.541	83.56
369.767	79.56
369.993	97.56
370.219	77.56
370.445	88.56
370.672	98.56
370.898	93.56
371.124	93.56
371.35	95.56
371.576	78.56
371.802	84.56
372.028	96.56
372.254	87.56
372.48	88.56
372.706	92.56
372.932	88.56
373.158	85.56
373.384	99.56
373.61	128.56
373.835	150.56
374.061	208.56
374.287	147.56
374.513	97.56
374.739	85.56
374.965	70.56
375.191	79.56
375.416	86.56
375.642	81.56
375.868	90.56
376.094	91.56
376.319	97.56
376.545	74.56
376.771	83.56
376.997	82.56
377.222	79.56
377.448	90.56
377.674	74.56
377.899	78.56
378.125	78.56
378.35	83.56
378.576	85.56
378.802	89.56
379.027	74.56
379.253	65.56
379.478	77.56
379.704	86.56
379.929	74.56
380.155	90.56
380.38	102.56
380.606	85.56
380.831	80.56
381.057	89.56
381.282	76.56
381.507	91.56
381.733	71.56
381.958	67.56
382.184	76.56
382.409	91.56
382.634	89.56
382.86	87.56
383.085	91.56
383.31	80.56
383.535	101.56
383.761	79.56
383.986	89.56
384.211	76.56
384.436	107.56
384.662	83.56
384.887	88.56
385.112	77.56
385.337	87.56
385.562	82.56
385.787	72.56
386.013	86.56
386.238	91.56
386.463	82.56
386.688	92.56
386.913	77.56
387.138	76.56
387.363	81.56
387.588	90.56
387.813	94.56
388.038	86.56
388.263	88.56
388.488	84.56
388.713	92.56
388.938	97.56
389.163	86.56
389.387	79.56
389.612	78.56
389.837	83.56
390.062	96.56
390.287	75.56
390.512	81.56
390.736	99.56
390.961	80.56
391.186	83.56
391.411	89.56
391.636	86.56
391.86	85.56
392.085	87.56
392.31	83.56
392.534	83.56
392.759	93.56
392.984	96.56
393.208	135.56
393.433	189.56
393.658	142.56
393.882	100.56
394.107	119.56
394.331	166.56
394.556	203.56
394.78	138.56
395.005	99.56
395.229	87.56
395.454	91.56
395.678	104.56
395.903	175.56
396.127	229.56
396.352	256.56
396.576	141.56
396.801	141.56
397.025	135.56
397.249	99.56
397.474	104.56
397.698	87.56
397.922	81.56
398.147	82.56
398.371	83.56
398.595	91.56
398.82	91.56
399.044	66.56
399.268	73.56
399.492	88.56
399.717	99.56
399.941	89.56
400.165	85.56
400.389	87.56
400.613	94.56
400.837	86.56
401.062	83.56
401.286	97.56
401.51	86.56
401.734	97.56
401.958	109.56
402.182	118.56
402.406	98.56
402.63	82.56
402.854	93.56
403.078	88.56
403.302	96.56
403.526	89.56
403.75	83.56
403.974	133.56
404.198	195.56
404.422	281.56
404.645	349.56
404.869	276.56
405.093	188.56
405.317	197.56
405.541	383.56
405.765	691.56
405.988	741.56
406.212	367.56
406.436	208.56
406.66	125.56
406.883	105.56
407.107	100.56
407.331	82.56
407.555	82.56
407.778	78.56
408.002	93.56
408.226	83.56
408.449	77.56
408.673	87.56
408.896	91.56
409.12	88.56
409.344	86.56
409.567	76.56
409.791	82.56
410.014	83.56
410.238	83.56
410.461	81.56
410.685	87.56
410.908	87.56
411.132	93.56
411.355	85.56
411.578	95.56
411.802	70.56
412.025	87.56
412.249	85.56
412.472	78.56
412.695	78.56
412.919	78.56
413.142	83.56
413.365	80.56
413.589	85.56
413.812	89.56
414.035	86.56
414.258	93.56
414.482	85.56
414.705	81.56
414.928	89.56
415.151	85.56
415.374	78.56
415.597	81.56
415.821	86.56
416.044	80.56
416.267	101.56
416.49	96.56
416.713	79.56
416.936	114.56
417.159	87.56
417.382	93.56
417.605	89.56
417.828	87.56
418.051	93.56
418.274	86.56
418.497	99.56
418.72	72.56
418.943	91.56
419.166	72.56
419.389	97.56
419.611	82.56
419.834	97.56
420.057	89.56
420.28	80.56
420.503	82.56
420.726	80.56
420.948	78.56
421.171	94.56
421.394	81.56
421.617	83.56
421.839	95.56
422.062	91.56
422.285	104.56
422.507	153.56
422.73	197.56
422.953	173.56
423.175	92.56
423.398	83.56
423.621	90.56
423.843	86.56
424.066	86.56
424.288	76.56
424.511	85.56
424.733	87.56
424.956	72.56
425.178	96.56
425.401	95.56
425.623	81.56
425.846	93.56
426.068	74.56
426.291	90.56
426.513	82.56
426.735	78.56
426.958	82.56
427.18	81.56
427.402	77.56
427.625	87.56
427.847	78.56
428.069	87.56
428.292	86.56
428.514	87.56
428.736	74.56
428.958	76.56
429.181	80.56
429.403	93.56
429.625	71.56
429.847	93.56
430.069	74.56
430.292	101.56
430.514	113.56
430.736	89.56
430.958	86.56
431.18	86.56
431.402	94.56
431.624	93.56
431.846	100.56
432.068	85.56
432.29	82.56
432.512	81.56
432.734	77.56
432.956	85.56
433.178	90.56
433.4	82.56
433.622	85.56
433.844	101.56
434.066	87.56
434.287	80.56
434.509	81.56
434.731	88.56
434.953	82.56
435.175	98.56
435.397	102.56
435.618	99.56
435.84	91.56
436.062	98.56
436.284	77.56
436.505	74.56
436.727	81.56
436.949	87.56
437.17	84.56
437.392	88.56
437.614	86.56
437.835	73.56
438.057	72.56
438.278	90.56
438.5	95.56
438.721	81.56
438.943	82.56
439.165	66.56
439.386	98.56
439.608	89.56
439.829	88.56
440.05	93.56
440.272	94.56
440.493	73.56
440.715	87.56
440.936	91.56
441.158	90.56
441.379	74.56
441.6	87.56
441.822	75.56
442.043	81.56
442.264	82.56
442.486	79.56
442.707	91.56
442.928	95.56
443.149	83.56
443.371	87.56
443.592	95.56
443.813	91.56
444.034	94.56
444.255	90.56
444.476	92.56
444.698	94.56
444.919	89.56
445.14	161.56
445.361	122.56
445.582	100.56
445.803	101.56
446.024	82.56
446.245	98.56
446.466	89.56
446.687	89.56
446.908	84.56
447.129	85.56
447.35	89.56
447.571	82.56
447.792	86.56
448.013	72.56
448.234	93.56
448.455	82.56
448.675	78.56
448.896	91.56
449.117	77.56
449.338	83.56
449.559	79.56
449.779	85.56
450	86.56
450.221	91.56
450.442	88.56
450.662	85.56
450.883	83.56
451.104	94.56
451.324	88.56
451.545	75.56
451.766	89.56
451.986	77.56
452.207	80.56
452.428	82.56
452.648	100.56
452.869	95.56
453.089	82.56
453.31	81.56
453.53	86.56
453.751	97.56
453.971	79.56
454.192	88.56
454.412	91.56
454.633	91.56
454.853	80.56
455.073	85.56
455.294	63.56
455.514	84.56
455.734	103.56
455.955	83.56
456.175	89.56
456.395	64.56
456.616	85.56
456.836	77.56
457.056	81.56
457.276	86.56
457.497	89.56
457.717	82.56
457.937	75.56
458.157	89.56
458.377	77.56
458.598	90.56
458.818	86.56
459.038	80.56
459.258	85.56
459.478	86.56
459.698	86.56
459.918	91.56
460.138	87.56
460.358	79.56
460.578	78.56
460.798	103.56
461.018	94.56
461.238	90.56
461.458	78.56
461.678	86.56
461.898	92.56
462.118	85.56
462.338	78.56
462.558	79.56
462.777	72.56
462.997	71.56
463.217	79.56
463.437	75.56
463.657	83.56
463.876	82.56
464.096	90.56
464.316	87.56
464.536	81.56
464.755	86.56
464.975	77.56
465.195	81.56
465.414	90.56
465.634	76.56
465.854	79.56
466.073	86.56
466.293	84.56
466.512	91.56
466.732	85.56
466.951	72.56
467.171	83.56
467.391	93.56
467.61	97.56
467.829	86.56
468.049	85.56
468.268	85.56
468.488	94.56
468.707	81.56
468.927	77.56
469.146	91.56
469.365	87.56
469.585	90.56
469.804	93.56
470.023	103.56
470.243	85.56
470.462	97.56
470.681	87.56
470.901	80.56
471.12	91.56
471.339	96.56
471.558	80.56
471.777	76.56
471.997	97.56
472.216	85.56
472.435	81.56
472.654	84.56
472.873	88.56
473.092	82.56
473.311	90.56
473.53	83.56
473.749	90.56
473.968	111.56
474.187	90.56
474.406	90.56
474.625	92.56
474.844	67.56
475.063	102.56
475.282	89.56
475.501	84.56
475.72	89.56
475.939	85.56
476.158	91.56
476.377	88.56
476.596	79.56
476.814	81.56
477.033	79.56
477.252	83.56
477.471	90.56
477.69	83.56
477.908	90.56
478.127	97.56
478.346	91.56
478.564	85.56
478.783	73.56
479.002	90.56
479.22	94.56
479.439	89.56
479.658	81.56
479.876	83.56
480.095	72.56
480.313	77.56
480.532	91.56
480.751	86.56
480.969	94.56
481.188	97.56
481.406	78.56
481.624	90.56
481.843	78.56
482.061	83.56
482.28	87.56
482.498	95.56
482.717	79.56
482.935	91.56
483.153	78.56
483.372	85.56
483.59	84.56
483.808	73.56
484.027	91.56
484.245	112.56
484.463	92.56
484.681	79.56
484.9	91.56
485.118	87.56
485.336	85.56
485.554	94.56
485.772	106.56
485.99	93.56
486.209	89.56
486.427	85.56
486.645	79.56
486.863	94.56
487.081	88.56
487.299	80.56
487.517	81.56
487.735	85.56
487.953	95.56
488.171	91.56
488.389	87.56
488.607	101.56
488.825	83.56
489.043	82.56
489.261	94.56
489.479	95.56
489.696	88.56
489.914	94.56
490.132	97.56
490.35	79.56
490.568	95.56
490.786	80.56
491.003	84.56
491.221	93.56
491.439	81.56
491.657	79.56
491.874	99.56
492.092	81.56
492.31	95.56
492.527	85.56
492.745	88.56
492.963	93.56
493.18	77.56
493.398	81.56
493.615	94.56
493.833	92.56
494.05	84.56
494.268	88.56
494.485	78.56
494.703	97.56
494.92	92.56
495.138	105.56
495.355	101.56
495.573	94.56
495.79	87.56
496.008	89.56
496.225	101.56
496.442	77.56
496.66	102.56
496.877	87.56
497.094	90.56
497.312	92.56
497.529	80.56
497.746	88.56
497.963	94.56
498.181	89.56
498.398	71.56
498.615	80.56
498.832	86.56
499.049	94.56
499.267	82.56
499.484	101.56
499.701	98.56
499.918	95.56
500.135	100.56
500.352	100.56
500.569	130.56
500.786	159.56
501.003	122.56
501.22	90.56
501.437	99.56
501.654	87.56
501.871	77.56
502.088	79.56
502.305	87.56
502.522	88.56
502.739	78.56
502.956	89.56
503.172	90.56
503.389	101.56
503.606	93.56
503.823	86.56
504.04	89.56
504.256	85.56
504.473	78.56
504.69	86.56
504.907	98.56
505.123	81.56
505.34	93.56
505.557	98.56
505.773	95.56
505.99	105.56
506.207	95.56
506.423	92.56
506.64	79.56
506.856	87.56
507.073	86.56
507.289	82.56
507.506	80.56
507.722	105.56
507.939	99.56
508.155	102.56
508.372	90.56
508.588	72.56
508.805	85.56
509.021	89.56
509.238	89.56
509.454	101.56
509.67	94.56
509.887	85.56
510.103	99.56
510.319	97.56
510.536	93.56
510.752	83.56
510.968	98.56
511.184	94.56
511.401	86.56
511.617	96.56
511.833	91.56
512.049	105.56
512.265	101.56
512.481	91.56
512.698	94.56
512.914	75.56
513.13	87.56
513.346	81.56
513.562	96.56
513.778	86.56
513.994	93.56
514.21	93.56
514.426	97.56
514.642	90.56
514.858	91.56
515.074	89.56
515.29	98.56
515.506	84.56
515.721	93.56
515.937	83.56
516.153	95.56
516.369	85.56
516.585	86.56
516.801	68.56
517.016	81.56
517.232	79.56
517.448	84.56
517.664	88.56
517.879	78.56
518.095	99.56
518.311	88.56
518.527	101.56
518.742	81.56
518.958	81.56
519.173	98.56
519.389	84.56
519.605	82.56
519.82	84.56
520.036	85.56
520.251	81.56
520.467	110.56
520.682	93.56
520.898	82.56
521.113	99.56
521.329	95.56
521.544	97.56
521.76	73.56
521.975	87.56
522.19	90.56
522.406	81.56
522.621	88.56
522.836	101.56
523.052	96.56
523.267	103.56
523.482	100.56
523.698	100.56
523.913	80.56
524.128	73.56
524.343	83.56
524.559	89.56
524.774	91.56
524.989	79.56
525.204	102.56
525.419	96.56
525.634	85.56
525.849	89.56
526.064	88.56
526.28	104.56
526.495	95.56
526.71	85.56
526.925	103.56
527.14	88.56
527.355	86.56
527.57	102.56
527.785	88.56
527.999	75.56
528.214	90.56
528.429	100.56
528.644	97.56
528.859	103.56
529.074	94.56
529.289	75.56
529.503	91.56
529.718	98.56
529.933	98.56
530.148	99.56
530.363	100.56
530.577	93.56
530.792	107.56
531.007	103.56
531.221	98.56
531.436	85.56
531.651	86.56
531.865	84.56
532.08	99.56
532.295	94.56
532.509	104.56
532.724	94.56
532.938	104.56
533.153	87.56
533.367	89.56
533.582	99.56
533.796	82.56
534.011	93.56
534.225	108.56
534.44	127.56
534.654	119.56
534.868	93.56
535.083	109.56
535.297	103.56
535.511	98.56
535.726	99.56
535.94	114.56
536.154	115.56
536.369	107.56
536.583	111.56
536.797	105.56
537.011	95.56
537.225	107.56
537.44	89.56
537.654	99.56
537.868	102.56
538.082	98.56
538.296	89.56
538.51	84.56
538.724	87.56
538.938	87.56
539.153	111.56
539.367	96.56
539.581	95.56
539.795	84.56
540.009	85.56
540.222	94.56
540.436	90.56
540.65	89.56
540.864	82.56
541.078	86.56
541.292	93.56
541.506	99.56
541.72	86.56
541.934	80.56
542.147	98.56
542.361	85.56
542.575	98.56
542.789	97.56
543.002	83.56
543.216	88.56
543.43	76.56
543.644	89.56
543.857	92.56
544.071	73.56
544.285	102.56
544.498	89.56
544.712	82.56
544.925	97.56
545.139	72.56
545.352	84.56
545.566	90.56
545.779	89.56
545.993	93.56
546.206	87.56
546.42	96.56
546.633	97.56
546.847	92.56
547.06	93.56
547.274	94.56
547.487	99.56
547.7	93.56
547.914	82.56
548.127	74.56
548.34	87.56
548.554	81.56
548.767	94.56
548.98	89.56
549.193	77.56
549.407	99.56
549.62	79.56
549.833	94.56
550.046	87.56
550.259	87.56
550.473	86.56
550.686	87.56
550.899	84.56
551.112	96.56
551.325	96.56
551.538	88.56
551.751	93.56
551.964	93.56
552.177	86.56
552.39	67.56
552.603	96.56
552.816	93.56
553.029	85.56
553.242	109.56
553.455	88.56
553.667	89.56
553.88	90.56
554.093	86.56
554.306	90.56
554.519	84.56
554.732	89.56
554.944	73.56
555.157	83.56
555.37	86.56
555.583	90.56
555.795	109.56
556.008	80.56
556.221	97.56
556.433	103.56
556.646	91.56
556.859	85.56
557.071	95.56
557.284	94.56
557.496	75.56
557.709	86.56
557.921	95.56
558.134	83.56
558.346	96.56
558.559	88.56
558.771	93.56
558.984	100.56
559.196	99.56
559.409	101.56
559.621	87.56
559.833	96.56
560.046	100.56
560.258	102.56
560.47	99.56
560.683	106.56
560.895	84.56
561.107	91.56
561.32	83.56
561.532	83.56
561.744	96.56
561.956	95.56
562.168	87.56
562.381	85.56
562.593	93.56
562.805	93.56
563.017	78.56
563.229	91.56
563.441	87.56
563.653	93.56
563.865	93.56
564.077	94.56
564.289	94.56
564.501	90.56
564.713	105.56
564.925	91.56
565.137	87.56
565.349	81.56
565.561	97.56
565.773	83.56
565.985	93.56
566.197	85.56
566.408	81.56
566.62	98.56
566.832	118.56
567.044	97.56
567.255	89.56
567.467	87.56
567.679	91.56
567.891	101.56
568.102	85.56
568.314	102.56
568.526	99.56
568.737	87.56
568.949	91.56
569.161	104.56
569.372	109.56
569.584	84.56
569.795	109.56
570.007	95.56
570.218	97.56
570.43	96.56
570.641	88.56
570.853	101.56
571.064	85.56
571.276	87.56
571.487	78.56
571.698	100.56
571.91	96.56
572.121	78.56
572.333	72.56
572.544	69.56
572.755	83.56
572.966	78.56
573.178	85.56
573.389	93.56
573.6	95.56
573.811	93.56
574.023	87.56
574.234	86.56
574.445	76.56
574.656	82.56
574.867	88.56
575.078	88.56
575.289	97.56
575.501	86.56
575.712	91.56
575.923	82.56
576.134	81.56
576.345	84.56
576.556	97.56
576.767	95.56
576.978	96.56
577.188	85.56
577.399	84.56
577.61	81.56
577.821	87.56
578.032	98.56
578.243	104.56
578.454	111.56
578.665	127.56
578.875	110.56
579.086	101.56
579.297	89.56
579.508	93.56
579.718	119.56
579.929	107.56
580.14	107.56
580.35	136.56
580.561	149.56
580.772	131.56
580.982	112.56
581.193	96.56
581.403	101.56
581.614	106.56
581.825	95.56
582.035	92.56
582.246	105.56
582.456	90.56
582.667	86.56
582.877	97.56
583.087	106.56
583.298	113.56
583.508	121.56
583.719	115.56
583.929	106.56
584.139	106.56
584.35	96.56
584.56	95.56
584.77	89.56
584.981	64.56
585.191	95.56
585.401	85.56
585.611	83.56
585.821	94.56
586.032	103.56
586.242	82.56
586.452	89.56
586.662	85.56
586.872	95.56
587.082	110.56
587.292	95.56
587.502	85.56
587.713	91.56
587.923	96.56
588.133	97.56
588.343	115.56
588.553	123.56
588.762	179.56
588.972	400.56
589.182	1051.56
589.392	628.56
589.602	426.56
589.812	857.56
590.022	370.56
590.232	153.56
590.441	104.56
590.651	99.56
590.861	93.56
591.071	83.56
591.281	106.56
591.49	87.56
591.7	109.56
591.91	88.56
592.119	89.56
592.329	93.56
592.539	82.56
592.748	88.56
592.958	91.56
593.167	79.56
593.377	101.56
593.587	102.56
593.796	97.56
594.006	90.56
594.215	85.56
594.424	82.56
594.634	72.56
594.843	98.56
595.053	85.56
595.262	84.56
595.472	83.56
595.681	87.56
595.89	89.56
596.1	89.56
596.309	89.56
596.518	76.56
596.727	85.56
596.937	82.56
597.146	99.56
597.355	94.56
597.564	86.56
597.774	74.56
597.983	95.56
598.192	83.56
598.401	81.56
598.61	98.56
598.819	93.56
599.028	84.56
599.237	93.56
599.446	93.56
599.655	85.56
599.864	88.56
600.073	85.56
600.282	92.56
600.491	100.56
600.7	101.56
600.909	82.56
601.118	89.56
601.327	76.56
601.536	84.56
601.745	94.56
601.953	89.56
602.162	81.56
602.371	73.56
602.58	94.56
602.789	88.56
602.997	77.56
603.206	85.56
603.415	93.56
603.623	87.56
603.832	86.56
604.041	99.56
604.249	96.56
604.458	85.56
604.666	80.56
604.875	83.56
605.084	70.56
605.292	85.56
605.501	95.56
605.709	83.56
605.918	81.56
606.126	100.56
606.334	99.56
606.543	81.56
606.751	71.56
606.96	82.56
607.168	88.56
607.376	89.56
607.585	91.56
607.793	77.56
608.001	89.56
608.21	99.56
608.418	97.56
608.626	81.56
608.834	82.56
609.043	94.56
609.251	99.56
609.459	85.56
609.667	78.56
609.875	104.56
610.083	78.56
610.291	95.56
610.499	87.56
610.707	85.56
610.916	80.56
611.124	88.56
611.332	88.56
611.54	97.56
611.748	87.56
611.955	88.56
612.163	81.56
612.371	103.56
612.579	79.56
612.787	84.56
612.995	89.56
613.203	109.56
613.411	90.56
613.618	89.56
613.826	86.56
614.034	94.56
614.242	91.56
614.449	96.56
614.657	81.56
614.865	85.56
615.072	93.56
615.28	95.56
615.488	90.56
615.695	98.56
615.903	86.56
616.111	84.56
616.318	86.56
616.526	118.56
616.733	85.56
616.941	88.56
617.148	97.56
617.356	79.56
617.563	93.56
617.771	84.56
617.978	95.56
618.185	73.56
618.393	82.56
618.6	88.56
618.807	81.56
619.015	77.56
619.222	90.56
619.429	103.56
619.637	83.56
619.844	79.56
620.051	79.56
620.258	90.56
620.466	84.56
620.673	90.56
620.88	91.56
621.087	81.56
621.294	93.56
621.501	78.56
621.708	83.56
621.915	74.56
622.122	77.56
622.329	73.56
622.536	93.56
622.743	89.56
622.95	97.56
623.157	85.56
623.364	87.56
623.571	79.56
623.778	87.56
623.985	81.56
624.192	80.56
624.399	86.56
624.606	92.56
624.812	85.56
625.019	93.56
625.226	92.56
625.433	86.56
625.639	93.56
625.846	69.56
626.053	76.56
626.259	74.56
626.466	85.56
626.673	85.56
626.879	86.56
627.086	84.56
627.293	86.56
627.499	80.56
627.706	91.56
627.912	83.56
628.119	81.56
628.325	78.56
628.532	79.56
628.738	78.56
628.945	79.56
629.151	80.56
629.357	76.56
629.564	93.56
629.77	80.56
629.976	81.56
630.183	88.56
630.389	78.56
630.595	81.56
630.802	88.56
631.008	86.56
631.214	100.56
631.42	85.56
631.627	94.56
631.833	74.56
632.039	77.56
632.245	81.56
632.451	85.56
632.657	95.56
632.863	83.56
633.069	86.56
633.275	81.56
633.481	93.56
633.688	89.56
633.893	96.56
634.099	79.56
634.305	93.56
634.511	85.56
634.717	80.56
634.923	72.56
635.129	90.56
635.335	81.56
635.541	80.56
635.747	100.56
635.952	90.56
636.158	70.56
636.364	83.56
636.57	92.56
636.775	83.56
636.981	75.56
637.187	81.56
637.392	83.56
637.598	90.56
637.804	100.56
638.009	94.56
638.215	80.56
638.421	98.56
638.626	84.56
638.832	81.56
639.037	82.56
639.243	80.56
639.448	83.56
639.654	92.56
639.859	77.56
640.065	79.56
640.27	81.56
640.475	69.56
640.681	89.56
640.886	81.56
641.091	77.56
641.297	79.56
641.502	86.56
641.707	80.56
641.913	70.56
642.118	70.56
642.323	92.56
642.528	74.56
642.733	93.56
642.939	90.56
643.144	87.56
643.349	93.56
643.554	77.56
643.759	80.56
643.964	94.56
644.169	76.56
644.374	81.56
644.579	81.56
644.784	81.56
644.989	83.56
645.194	84.56
645.399	76.56
645.604	81.56
645.809	85.56
646.014	75.56
646.219	81.56
646.423	88.56
646.628	87.56
646.833	84.56
647.038	79.56
647.243	81.56
647.447	76.56
647.652	84.56
647.857	84.56
648.062	105.56
648.266	75.56
648.471	93.56
648.676	89.56
648.88	91.56
649.085	72.56
649.289	85.56
649.494	84.56
649.698	94.56
649.903	76.56
650.107	86.56
650.312	88.56
650.516	89.56
650.721	83.56
650.925	82.56
651.13	75.56
651.334	97.56
651.539	71.56
651.743	77.56
651.947	76.56
652.152	78.56
652.356	75.56
652.56	95.56
652.764	81.56
652.969	78.56
653.173	90.56
653.377	73.56
653.581	81.56
653.785	89.56
653.99	80.56
654.194	66.56
654.398	87.56
654.602	91.56
654.806	76.56
655.01	74.56
655.214	90.56
655.418	92.56
655.622	69.56
655.826	84.56
656.03	77.56
656.234	96.56
656.438	91.56
656.642	101.56
656.846	87.56
657.049	72.56
657.253	89.56
657.457	89.56
657.661	83.56
657.865	80.56
658.068	81.56
658.272	79.56
658.476	81.56
658.68	51.56
658.883	74.56
659.087	74.56
659.291	67.56
659.494	74.56
659.698	81.56
659.901	82.56
660.105	84.56
660.309	83.56
660.512	82.56
660.716	84.56
660.919	87.56
661.123	78.56
661.326	78.56
661.53	83.56
661.733	79.56
661.936	85.56
662.14	80.56
662.343	79.56
662.546	67.56
662.75	73.56
662.953	86.56
663.156	93.56
663.36	86.56
663.563	84.56
663.766	70.56
663.969	88.56
664.173	81.56
664.376	86.56
664.579	71.56
664.782	84.56
664.985	98.56
665.188	77.56
665.391	75.56
665.594	71.56
665.797	82.56
666	70.56
666.203	92.56
666.406	80.56
666.609	63.56
666.812	90.56
667.015	85.56
667.218	94.56
667.421	83.56
667.624	68.56
667.827	74.56
668.03	84.56
668.232	61.56
668.435	71.56
668.638	73.56
668.841	99.56
669.043	83.56
669.246	93.56
669.449	82.56
669.651	65.56
669.854	81.56
670.057	87.56
670.259	76.56
670.462	67.56
670.665	90.56
670.867	98.56
671.07	74.56
671.272	90.56
671.475	79.56
671.677	80.56
671.88	84.56
672.082	85.56
672.284	84.56
672.487	88.56
672.689	97.56
672.892	93.56
