Data from Lead_HRD10591_00009.txt Node
Date: Tue Feb 17 14:15:12 EST 2026
User: Yrep
Spectrometer: HR+D1059
Trigger mode: 1
Integration Time (sec): 1.000000E-1
Scans to average: 1
Electric dark correction enabled: true
Nonlinearity correction enabled: false
Boxcar width: 0
XAxis mode: Wavelengths
Number of Pixels in Spectrum: 2048
>>>>>Begin Spectral Data<<<<<
223.165	-6.12
223.4	-6.12
223.635	-6.12
223.869	-13.12
224.104	-16.12
224.338	-17.12
224.573	-15.12
224.808	-5.12
225.042	-19.12
225.277	-19.12
225.511	-7.12
225.746	12.88
225.98	6.88
226.215	13.88
226.449	17.88
226.683	19.88
226.918	24.88
227.152	21.88
227.387	30.88
227.621	42.88
227.856	41.88
228.09	58.88
228.324	73.88
228.559	62.88
228.793	67.88
229.027	64.88
229.262	59.88
229.496	65.88
229.73	72.88
229.964	85.88
230.199	80.88
230.433	73.88
230.667	79.88
230.901	72.88
231.136	74.88
231.37	67.88
231.604	74.88
231.838	77.88
232.072	76.88
232.306	98.88
232.541	82.88
232.775	74.88
233.009	70.88
233.243	70.88
233.477	82.88
233.711	94.88
233.945	96.88
234.179	68.88
234.413	80.88
234.647	73.88
234.881	84.88
235.115	80.88
235.349	84.88
235.583	76.88
235.817	73.88
236.051	79.88
236.285	92.88
236.519	76.88
236.753	66.88
236.987	65.88
237.221	76.88
237.455	86.88
237.689	70.88
237.922	71.88
238.156	72.88
238.39	73.88
238.624	93.88
238.858	68.88
239.091	69.88
239.325	78.88
239.559	70.88
239.793	74.88
240.027	78.88
240.26	72.88
240.494	79.88
240.728	65.88
240.961	84.88
241.195	78.88
241.429	64.88
241.662	84.88
241.896	78.88
242.13	69.88
242.363	83.88
242.597	66.88
242.83	78.88
243.064	98.88
243.298	91.88
243.531	70.88
243.765	70.88
243.998	70.88
244.232	79.88
244.465	78.88
244.699	86.88
244.932	84.88
245.166	73.88
245.399	62.88
245.633	91.88
245.866	85.88
246.099	77.88
246.333	71.88
246.566	71.88
246.8	98.88
247.033	89.88
247.266	71.88
247.5	83.88
247.733	80.88
247.966	79.88
248.2	70.88
248.433	81.88
248.666	83.88
248.899	78.88
249.133	73.88
249.366	86.88
249.599	78.88
249.832	74.88
250.066	70.88
250.299	89.88
250.532	76.88
250.765	75.88
250.998	86.88
251.231	76.88
251.465	77.88
251.698	91.88
251.931	82.88
252.164	72.88
252.397	70.88
252.63	92.88
252.863	80.88
253.096	79.88
253.329	81.88
253.562	94.88
253.795	85.88
254.028	90.88
254.261	63.88
254.494	86.88
254.727	76.88
254.96	88.88
255.193	73.88
255.426	92.88
255.659	89.88
255.892	86.88
256.124	94.88
256.357	77.88
256.59	87.88
256.823	70.88
257.056	73.88
257.289	68.88
257.521	86.88
257.754	86.88
257.987	78.88
258.22	86.88
258.452	74.88
258.685	77.88
258.918	90.88
259.151	93.88
259.383	83.88
259.616	92.88
259.849	84.88
260.081	84.88
260.314	87.88
260.547	98.88
260.779	85.88
261.012	84.88
261.244	83.88
261.477	94.88
261.71	93.88
261.942	86.88
262.175	76.88
262.407	95.88
262.64	69.88
262.872	76.88
263.105	86.88
263.337	80.88
263.57	81.88
263.802	72.88
264.035	83.88
264.267	96.88
264.499	74.88
264.732	81.88
264.964	84.88
265.197	80.88
265.429	87.88
265.661	84.88
265.894	90.88
266.126	84.88
266.358	82.88
266.591	78.88
266.823	82.88
267.055	76.88
267.287	92.88
267.52	92.88
267.752	83.88
267.984	78.88
268.216	64.88
268.448	81.88
268.681	88.88
268.913	81.88
269.145	84.88
269.377	90.88
269.609	74.88
269.841	84.88
270.073	95.88
270.306	69.88
270.538	91.88
270.77	85.88
271.002	69.88
271.234	81.88
271.466	84.88
271.698	92.88
271.93	74.88
272.162	91.88
272.394	73.88
272.626	71.88
272.858	82.88
273.09	74.88
273.322	83.88
273.553	88.88
273.785	78.88
274.017	74.88
274.249	86.88
274.481	89.88
274.713	93.88
274.945	87.88
275.176	91.88
275.408	95.88
275.64	74.88
275.872	72.88
276.104	76.88
276.335	77.88
276.567	70.88
276.799	84.88
277.031	75.88
277.262	76.88
277.494	78.88
277.726	99.88
277.957	89.88
278.189	85.88
278.421	90.88
278.652	78.88
278.884	86.88
279.115	89.88
279.347	90.88
279.579	81.88
279.81	85.88
280.042	111.88
280.273	99.88
280.505	94.88
280.736	86.88
280.968	86.88
281.199	90.88
281.431	77.88
281.662	91.88
281.894	89.88
282.125	92.88
282.356	94.88
282.588	86.88
282.819	88.88
283.051	83.88
283.282	99.88
283.513	97.88
283.745	95.88
283.976	89.88
284.207	86.88
284.439	88.88
284.67	94.88
284.901	90.88
285.132	97.88
285.364	77.88
285.595	91.88
285.826	93.88
286.057	85.88
286.288	88.88
286.52	84.88
286.751	81.88
286.982	74.88
287.213	87.88
287.444	100.88
287.675	92.88
287.906	97.88
288.138	88.88
288.369	87.88
288.6	84.88
288.831	87.88
289.062	93.88
289.293	82.88
289.524	81.88
289.755	84.88
289.986	84.88
290.217	87.88
290.448	99.88
290.679	83.88
290.91	85.88
291.141	93.88
291.371	78.88
291.602	69.88
291.833	82.88
292.064	82.88
292.295	89.88
292.526	77.88
292.757	74.88
292.987	97.88
293.218	96.88
293.449	93.88
293.68	89.88
293.91	96.88
294.141	74.88
294.372	69.88
294.603	90.88
294.833	80.88
295.064	93.88
295.295	86.88
295.525	81.88
295.756	77.88
295.987	82.88
296.217	86.88
296.448	91.88
296.679	86.88
296.909	87.88
297.14	77.88
297.37	78.88
297.601	66.88
297.831	82.88
298.062	85.88
298.292	90.88
298.523	69.88
298.753	70.88
298.984	77.88
299.214	81.88
299.445	91.88
299.675	92.88
299.905	88.88
300.136	94.88
300.366	75.88
300.597	88.88
300.827	66.88
301.057	86.88
301.288	84.88
301.518	89.88
301.748	78.88
301.979	94.88
302.209	92.88
302.439	86.88
302.669	78.88
302.9	88.88
303.13	92.88
303.36	82.88
303.59	76.88
303.82	89.88
304.051	88.88
304.281	75.88
304.511	81.88
304.741	94.88
304.971	84.88
305.201	84.88
305.431	85.88
305.661	94.88
305.891	84.88
306.121	89.88
306.352	84.88
306.582	90.88
306.812	78.88
307.042	90.88
307.272	74.88
307.502	84.88
307.731	100.88
307.961	92.88
308.191	90.88
308.421	99.88
308.651	88.88
308.881	88.88
309.111	79.88
309.341	94.88
309.571	84.88
309.8	92.88
310.03	98.88
310.26	84.88
310.49	86.88
310.72	89.88
310.949	84.88
311.179	90.88
311.409	87.88
311.639	98.88
311.868	92.88
312.098	101.88
312.328	79.88
312.557	90.88
312.787	86.88
313.017	81.88
313.246	92.88
313.476	102.88
313.706	85.88
313.935	89.88
314.165	79.88
314.394	91.88
314.624	78.88
314.853	72.88
315.083	75.88
315.312	86.88
315.542	78.88
315.771	84.88
316.001	94.88
316.23	97.88
316.46	66.88
316.689	83.88
316.919	85.88
317.148	83.88
317.377	93.88
317.607	92.88
317.836	94.88
318.065	107.88
318.295	98.88
318.524	86.88
318.753	84.88
318.983	74.88
319.212	80.88
319.441	84.88
319.67	84.88
319.9	84.88
320.129	93.88
320.358	83.88
320.587	77.88
320.816	89.88
321.046	80.88
321.275	88.88
321.504	88.88
321.733	93.88
321.962	89.88
322.191	88.88
322.42	81.88
322.649	86.88
322.878	92.88
323.108	87.88
323.337	68.88
323.566	87.88
323.795	95.88
324.024	79.88
324.253	87.88
324.482	84.88
324.71	82.88
324.939	92.88
325.168	69.88
325.397	82.88
325.626	99.88
325.855	84.88
326.084	84.88
326.313	86.88
326.542	89.88
326.77	84.88
326.999	88.88
327.228	84.88
327.457	71.88
327.686	84.88
327.914	84.88
328.143	81.88
328.372	84.88
328.6	85.88
328.829	78.88
329.058	75.88
329.287	88.88
329.515	84.88
329.744	90.88
329.972	92.88
330.201	88.88
330.43	88.88
330.658	86.88
330.887	88.88
331.115	77.88
331.344	85.88
331.572	82.88
331.801	68.88
332.03	79.88
332.258	86.88
332.486	84.88
332.715	76.88
332.943	93.88
333.172	79.88
333.4	86.88
333.629	74.88
333.857	83.88
334.085	92.88
334.314	88.88
334.542	82.88
334.771	80.88
334.999	78.88
335.227	82.88
335.455	85.88
335.684	76.88
335.912	83.88
336.14	90.88
336.369	85.88
336.597	94.88
336.825	96.88
337.053	77.88
337.281	84.88
337.51	88.88
337.738	99.88
337.966	89.88
338.194	90.88
338.422	92.88
338.65	74.88
338.878	92.88
339.106	87.88
339.334	80.88
339.562	84.88
339.79	84.88
340.018	77.88
340.246	77.88
340.474	78.88
340.702	79.88
340.93	76.88
341.158	76.88
341.386	86.88
341.614	90.88
341.842	69.88
342.07	98.88
342.298	82.88
342.526	74.88
342.754	99.88
342.981	89.88
343.209	89.88
343.437	93.88
343.665	99.88
343.893	92.88
344.12	105.88
344.348	90.88
344.576	97.88
344.804	102.88
345.031	91.88
345.259	73.88
345.487	77.88
345.714	83.88
345.942	82.88
346.17	81.88
346.397	102.88
346.625	79.88
346.853	84.88
347.08	71.88
347.308	83.88
347.535	89.88
347.763	84.88
347.99	77.88
348.218	86.88
348.445	80.88
348.673	82.88
348.9	92.88
349.128	69.88
349.355	96.88
349.583	92.88
349.81	85.88
350.037	89.88
350.265	91.88
350.492	77.88
350.72	83.88
350.947	94.88
351.174	90.88
351.402	91.88
351.629	82.88
351.856	85.88
352.083	89.88
352.311	90.88
352.538	83.88
352.765	98.88
352.992	97.88
353.22	83.88
353.447	81.88
353.674	87.88
353.901	92.88
354.128	83.88
354.355	84.88
354.583	60.88
354.81	99.88
355.037	92.88
355.264	96.88
355.491	84.88
355.718	80.88
355.945	82.88
356.172	74.88
356.399	101.88
356.626	94.88
356.853	94.88
357.08	122.88
357.307	120.88
357.534	113.88
357.761	97.88
357.988	90.88
358.215	97.88
358.441	91.88
358.668	96.88
358.895	77.88
359.122	88.88
359.349	88.88
359.576	84.88
359.802	85.88
360.029	88.88
360.256	93.88
360.483	83.88
360.709	82.88
360.936	94.88
361.163	86.88
361.39	97.88
361.616	80.88
361.843	99.88
362.07	99.88
362.296	85.88
362.523	97.88
362.749	73.88
362.976	90.88
363.203	100.88
363.429	88.88
363.656	131.88
363.882	167.88
364.109	180.88
364.335	113.88
364.562	96.88
364.788	91.88
365.015	88.88
365.241	106.88
365.468	92.88
365.694	96.88
365.92	85.88
366.147	93.88
366.373	96.88
366.599	95.88
366.826	80.88
367.052	100.88
367.278	98.88
367.505	91.88
367.731	100.88
367.957	119.88
368.184	182.88
368.41	207.88
368.636	169.88
368.862	93.88
369.089	91.88
369.315	87.88
369.541	77.88
369.767	90.88
369.993	90.88
370.219	86.88
370.445	90.88
370.672	79.88
370.898	87.88
371.124	75.88
371.35	84.88
371.576	74.88
371.802	88.88
372.028	88.88
372.254	66.88
372.48	76.88
372.706	90.88
372.932	100.88
373.158	74.88
373.384	89.88
373.61	99.88
373.835	123.88
374.061	123.88
374.287	110.88
374.513	104.88
374.739	99.88
374.965	66.88
375.191	88.88
375.416	91.88
375.642	89.88
375.868	93.88
376.094	74.88
376.319	88.88
376.545	82.88
376.771	72.88
376.997	77.88
377.222	78.88
377.448	96.88
377.674	96.88
377.899	86.88
378.125	81.88
378.35	92.88
378.576	86.88
378.802	84.88
379.027	74.88
379.253	82.88
379.478	80.88
379.704	85.88
379.929	75.88
380.155	84.88
380.38	70.88
380.606	88.88
380.831	77.88
381.057	90.88
381.282	94.88
381.507	85.88
381.733	83.88
381.958	81.88
382.184	97.88
382.409	77.88
382.634	93.88
382.86	72.88
383.085	100.88
383.31	73.88
383.535	83.88
383.761	94.88
383.986	76.88
384.211	84.88
384.436	82.88
384.662	89.88
384.887	82.88
385.112	87.88
385.337	80.88
385.562	86.88
385.787	72.88
386.013	92.88
386.238	77.88
386.463	82.88
386.688	90.88
386.913	89.88
387.138	77.88
387.363	100.88
387.588	90.88
387.813	91.88
388.038	93.88
388.263	75.88
388.488	84.88
388.713	78.88
388.938	87.88
389.163	87.88
389.387	91.88
389.612	75.88
389.837	86.88
390.062	79.88
390.287	94.88
390.512	85.88
390.736	78.88
390.961	94.88
391.186	101.88
391.411	80.88
391.636	90.88
391.86	94.88
392.085	81.88
392.31	96.88
392.534	78.88
392.759	93.88
392.984	117.88
393.208	138.88
393.433	179.88
393.658	128.88
393.882	100.88
394.107	106.88
394.331	105.88
394.556	128.88
394.78	116.88
395.005	89.88
395.229	99.88
395.454	81.88
395.678	94.88
395.903	104.88
396.127	131.88
396.352	138.88
396.576	116.88
396.801	133.88
397.025	139.88
397.249	101.88
397.474	88.88
397.698	84.88
397.922	84.88
398.147	87.88
398.371	67.88
398.595	87.88
398.82	89.88
399.044	92.88
399.268	91.88
399.492	84.88
399.717	93.88
399.941	93.88
400.165	93.88
400.389	89.88
400.613	70.88
400.837	84.88
401.062	74.88
401.286	90.88
401.51	77.88
401.734	77.88
401.958	92.88
402.182	92.88
402.406	102.88
402.63	87.88
402.854	92.88
403.078	89.88
403.302	71.88
403.526	92.88
403.75	93.88
403.974	129.88
404.198	171.88
404.422	276.88
404.645	304.88
404.869	240.88
405.093	150.88
405.317	124.88
405.541	186.88
405.765	298.88
405.988	339.88
406.212	179.88
406.436	134.88
406.66	97.88
406.883	94.88
407.107	104.88
407.331	96.88
407.555	99.88
407.778	85.88
408.002	100.88
408.226	89.88
408.449	87.88
408.673	94.88
408.896	97.88
409.12	84.88
409.344	83.88
409.567	85.88
409.791	70.88
410.014	65.88
410.238	86.88
410.461	90.88
410.685	84.88
410.908	78.88
411.132	89.88
411.355	90.88
411.578	91.88
411.802	79.88
412.025	87.88
412.249	97.88
412.472	89.88
412.695	79.88
412.919	76.88
413.142	100.88
413.365	84.88
413.589	84.88
413.812	77.88
414.035	83.88
414.258	72.88
414.482	89.88
414.705	93.88
414.928	75.88
415.151	100.88
415.374	88.88
415.597	74.88
415.821	82.88
416.044	73.88
416.267	92.88
416.49	82.88
416.713	84.88
416.936	90.88
417.159	96.88
417.382	83.88
417.605	82.88
417.828	83.88
418.051	89.88
418.274	95.88
418.497	88.88
418.72	97.88
418.943	83.88
419.166	90.88
419.389	86.88
419.611	88.88
419.834	77.88
420.057	94.88
420.28	84.88
420.503	84.88
420.726	96.88
420.948	90.88
421.171	86.88
421.394	104.88
421.617	98.88
421.839	77.88
422.062	85.88
422.285	109.88
422.507	162.88
422.73	250.88
422.953	198.88
423.175	96.88
423.398	87.88
423.621	79.88
423.843	67.88
424.066	76.88
424.288	88.88
424.511	82.88
424.733	95.88
424.956	87.88
425.178	93.88
425.401	84.88
425.623	83.88
425.846	83.88
426.068	75.88
426.291	80.88
426.513	82.88
426.735	84.88
426.958	78.88
427.18	87.88
427.402	96.88
427.625	71.88
427.847	77.88
428.069	76.88
428.292	92.88
428.514	103.88
428.736	92.88
428.958	93.88
429.181	90.88
429.403	101.88
429.625	92.88
429.847	90.88
430.069	104.88
430.292	97.88
430.514	104.88
430.736	98.88
430.958	98.88
431.18	81.88
431.402	85.88
431.624	81.88
431.846	77.88
432.068	91.88
432.29	94.88
432.512	76.88
432.734	88.88
432.956	88.88
433.178	76.88
433.4	86.88
433.622	86.88
433.844	80.88
434.066	81.88
434.287	85.88
434.509	91.88
434.731	86.88
434.953	74.88
435.175	75.88
435.397	94.88
435.618	79.88
435.84	76.88
436.062	95.88
436.284	86.88
436.505	73.88
436.727	78.88
436.949	81.88
437.17	86.88
437.392	87.88
437.614	88.88
437.835	77.88
438.057	88.88
438.278	88.88
438.5	84.88
438.721	88.88
438.943	80.88
439.165	82.88
439.386	88.88
439.608	97.88
439.829	79.88
440.05	83.88
440.272	75.88
440.493	89.88
440.715	88.88
440.936	73.88
441.158	96.88
441.379	95.88
441.6	86.88
441.822	84.88
442.043	90.88
442.264	84.88
442.486	92.88
442.707	108.88
442.928	83.88
443.149	79.88
443.371	105.88
443.592	122.88
443.813	96.88
444.034	91.88
444.255	87.88
444.476	67.88
444.698	91.88
444.919	88.88
445.14	153.88
445.361	124.88
445.582	107.88
445.803	88.88
446.024	77.88
446.245	96.88
446.466	82.88
446.687	89.88
446.908	90.88
447.129	105.88
447.35	97.88
447.571	77.88
447.792	83.88
448.013	89.88
448.234	88.88
448.455	99.88
448.675	77.88
448.896	83.88
449.117	92.88
449.338	86.88
449.559	79.88
449.779	78.88
450	86.88
450.221	79.88
450.442	91.88
450.662	78.88
450.883	86.88
451.104	79.88
451.324	98.88
451.545	73.88
451.766	92.88
451.986	84.88
452.207	86.88
452.428	78.88
452.648	92.88
452.869	90.88
453.089	76.88
453.31	85.88
453.53	101.88
453.751	93.88
453.971	84.88
454.192	89.88
454.412	83.88
454.633	89.88
454.853	72.88
455.073	69.88
455.294	86.88
455.514	103.88
455.734	80.88
455.955	85.88
456.175	84.88
456.395	70.88
456.616	69.88
456.836	69.88
457.056	86.88
457.276	79.88
457.497	87.88
457.717	86.88
457.937	77.88
458.157	80.88
458.377	105.88
458.598	96.88
458.818	98.88
459.038	76.88
459.258	88.88
459.478	85.88
459.698	82.88
459.918	96.88
460.138	67.88
460.358	82.88
460.578	96.88
460.798	91.88
461.018	84.88
461.238	97.88
461.458	92.88
461.678	84.88
461.898	85.88
462.118	96.88
462.338	86.88
462.558	79.88
462.777	81.88
462.997	82.88
463.217	96.88
463.437	89.88
463.657	87.88
463.876	85.88
464.096	82.88
464.316	90.88
464.536	93.88
464.755	94.88
464.975	101.88
465.195	84.88
465.414	63.88
465.634	89.88
465.854	101.88
466.073	96.88
466.293	103.88
466.512	99.88
466.732	77.88
466.951	75.88
467.171	97.88
467.391	87.88
467.61	79.88
467.829	98.88
468.049	88.88
468.268	97.88
468.488	89.88
468.707	87.88
468.927	79.88
469.146	89.88
469.365	86.88
469.585	83.88
469.804	77.88
470.023	82.88
470.243	77.88
470.462	95.88
470.681	93.88
470.901	96.88
471.12	100.88
471.339	96.88
471.558	81.88
471.777	95.88
471.997	77.88
472.216	96.88
472.435	100.88
472.654	86.88
472.873	85.88
473.092	89.88
473.311	94.88
473.53	83.88
473.749	83.88
473.968	100.88
474.187	101.88
474.406	81.88
474.625	100.88
474.844	91.88
475.063	100.88
475.282	73.88
475.501	63.88
475.72	92.88
475.939	80.88
476.158	81.88
476.377	84.88
476.596	87.88
476.814	85.88
477.033	96.88
477.252	86.88
477.471	77.88
477.69	91.88
477.908	90.88
478.127	101.88
478.346	101.88
478.564	72.88
478.783	90.88
479.002	97.88
479.22	101.88
479.439	81.88
479.658	77.88
479.876	78.88
480.095	97.88
480.313	80.88
480.532	96.88
480.751	84.88
480.969	92.88
481.188	76.88
481.406	85.88
481.624	92.88
481.843	95.88
482.061	82.88
482.28	92.88
482.498	77.88
482.717	89.88
482.935	105.88
483.153	88.88
483.372	98.88
483.59	92.88
483.808	100.88
484.027	98.88
484.245	80.88
484.463	81.88
484.681	99.88
484.9	90.88
485.118	86.88
485.336	93.88
485.554	87.88
485.772	87.88
485.99	90.88
486.209	101.88
486.427	77.88
486.645	89.88
486.863	98.88
487.081	93.88
487.299	93.88
487.517	92.88
487.735	84.88
487.953	99.88
488.171	83.88
488.389	81.88
488.607	92.88
488.825	101.88
489.043	100.88
489.261	102.88
489.479	101.88
489.696	77.88
489.914	96.88
490.132	96.88
490.35	96.88
490.568	94.88
490.786	91.88
491.003	101.88
491.221	97.88
491.439	86.88
491.657	91.88
491.874	96.88
492.092	90.88
492.31	83.88
492.527	94.88
492.745	92.88
492.963	104.88
493.18	93.88
493.398	96.88
493.615	86.88
493.833	91.88
494.05	91.88
494.268	90.88
494.485	80.88
494.703	92.88
494.92	99.88
495.138	93.88
495.355	91.88
495.573	99.88
495.79	96.88
496.008	104.88
496.225	96.88
496.442	82.88
496.66	100.88
496.877	102.88
497.094	82.88
497.312	96.88
497.529	96.88
497.746	94.88
497.963	104.88
498.181	91.88
498.398	98.88
498.615	109.88
498.832	84.88
499.049	98.88
499.267	100.88
499.484	95.88
499.701	86.88
499.918	98.88
500.135	93.88
500.352	98.88
500.569	93.88
500.786	102.88
501.003	90.88
501.22	96.88
501.437	94.88
501.654	92.88
501.871	92.88
502.088	88.88
502.305	93.88
502.522	77.88
502.739	98.88
502.956	98.88
503.172	86.88
503.389	83.88
503.606	88.88
503.823	100.88
504.04	95.88
504.256	93.88
504.473	72.88
504.69	86.88
504.907	90.88
505.123	78.88
505.34	94.88
505.557	88.88
505.773	79.88
505.99	91.88
506.207	96.88
506.423	96.88
506.64	86.88
506.856	92.88
507.073	82.88
507.289	92.88
507.506	85.88
507.722	84.88
507.939	100.88
508.155	93.88
508.372	70.88
508.588	100.88
508.805	100.88
509.021	89.88
509.238	86.88
509.454	97.88
509.67	91.88
509.887	95.88
510.103	106.88
510.319	100.88
510.536	102.88
510.752	84.88
510.968	83.88
511.184	87.88
511.401	103.88
511.617	85.88
511.833	96.88
512.049	98.88
512.265	101.88
512.481	92.88
512.698	102.88
512.914	97.88
513.13	110.88
513.346	91.88
513.562	73.88
513.778	97.88
513.994	92.88
514.21	89.88
514.426	89.88
514.642	85.88
514.858	94.88
515.074	88.88
515.29	91.88
515.506	85.88
515.721	95.88
515.937	84.88
516.153	97.88
516.369	84.88
516.585	90.88
516.801	83.88
517.016	97.88
517.232	88.88
517.448	88.88
517.664	100.88
517.879	93.88
518.095	84.88
518.311	91.88
518.527	93.88
518.742	82.88
518.958	89.88
519.173	84.88
519.389	84.88
519.605	93.88
519.82	89.88
520.036	97.88
520.251	92.88
520.467	98.88
520.682	88.88
520.898	90.88
521.113	98.88
521.329	93.88
521.544	79.88
521.76	106.88
521.975	87.88
522.19	93.88
522.406	87.88
522.621	85.88
522.836	81.88
523.052	91.88
523.267	92.88
523.482	86.88
523.698	81.88
523.913	78.88
524.128	92.88
524.343	91.88
524.559	92.88
524.774	103.88
524.989	92.88
525.204	88.88
525.419	104.88
525.634	102.88
525.849	89.88
526.064	94.88
526.28	100.88
526.495	87.88
526.71	113.88
526.925	106.88
527.14	109.88
527.355	93.88
527.57	93.88
527.785	101.88
527.999	96.88
528.214	87.88
528.429	101.88
528.644	67.88
528.859	92.88
529.074	69.88
529.289	102.88
529.503	88.88
529.718	82.88
529.933	97.88
530.148	91.88
530.363	90.88
530.577	92.88
530.792	92.88
531.007	87.88
531.221	87.88
531.436	82.88
531.651	91.88
531.865	88.88
532.08	86.88
532.295	108.88
532.509	94.88
532.724	97.88
532.938	97.88
533.153	104.88
533.367	94.88
533.582	88.88
533.796	94.88
534.011	109.88
534.225	91.88
534.44	113.88
534.654	100.88
534.868	116.88
535.083	116.88
535.297	112.88
535.511	100.88
535.726	100.88
535.94	97.88
536.154	92.88
536.369	113.88
536.583	115.88
536.797	95.88
537.011	90.88
537.225	95.88
537.44	89.88
537.654	107.88
537.868	102.88
538.082	83.88
538.296	108.88
538.51	102.88
538.724	97.88
538.938	114.88
539.153	101.88
539.367	89.88
539.581	89.88
539.795	93.88
540.009	102.88
540.222	99.88
540.436	101.88
540.65	91.88
540.864	102.88
541.078	83.88
541.292	95.88
541.506	90.88
541.72	92.88
541.934	80.88
542.147	98.88
542.361	90.88
542.575	97.88
542.789	86.88
543.002	88.88
543.216	91.88
543.43	92.88
543.644	93.88
543.857	90.88
544.071	78.88
544.285	90.88
544.498	78.88
544.712	86.88
544.925	88.88
545.139	86.88
545.352	85.88
545.566	94.88
545.779	94.88
545.993	98.88
546.206	80.88
546.42	72.88
546.633	85.88
546.847	94.88
547.06	95.88
547.274	93.88
547.487	98.88
547.7	95.88
547.914	98.88
548.127	84.88
548.34	110.88
548.554	90.88
548.767	72.88
548.98	92.88
549.193	98.88
549.407	88.88
549.62	88.88
549.833	91.88
550.046	86.88
550.259	95.88
550.473	101.88
550.686	92.88
550.899	103.88
551.112	91.88
551.325	106.88
551.538	99.88
551.751	92.88
551.964	79.88
552.177	100.88
552.39	92.88
552.603	98.88
552.816	99.88
553.029	77.88
553.242	98.88
553.455	94.88
553.667	96.88
553.88	103.88
554.093	92.88
554.306	103.88
554.519	82.88
554.732	92.88
554.944	82.88
555.157	91.88
555.37	86.88
555.583	99.88
555.795	72.88
556.008	85.88
556.221	92.88
556.433	89.88
556.646	88.88
556.859	112.88
557.071	74.88
557.284	94.88
557.496	98.88
557.709	89.88
557.921	82.88
558.134	81.88
558.346	78.88
558.559	84.88
558.771	97.88
558.984	110.88
559.196	116.88
559.409	78.88
559.621	116.88
559.833	109.88
560.046	116.88
560.258	102.88
560.47	95.88
560.683	97.88
560.895	89.88
561.107	81.88
561.32	91.88
561.532	93.88
561.744	98.88
561.956	84.88
562.168	76.88
562.381	90.88
562.593	106.88
562.805	88.88
563.017	77.88
563.229	96.88
563.441	86.88
563.653	88.88
563.865	77.88
564.077	90.88
564.289	82.88
564.501	75.88
564.713	86.88
564.925	120.88
565.137	92.88
565.349	95.88
565.561	86.88
565.773	89.88
565.985	90.88
566.197	74.88
566.408	85.88
566.62	87.88
566.832	93.88
567.044	95.88
567.255	90.88
567.467	88.88
567.679	89.88
567.891	97.88
568.102	89.88
568.314	97.88
568.526	85.88
568.737	105.88
568.949	103.88
569.161	97.88
569.372	94.88
569.584	92.88
569.795	88.88
570.007	109.88
570.218	106.88
570.43	97.88
570.641	90.88
570.853	89.88
571.064	85.88
571.276	112.88
571.487	89.88
571.698	86.88
571.91	82.88
572.121	91.88
572.333	94.88
572.544	101.88
572.755	84.88
572.966	81.88
573.178	87.88
573.389	96.88
573.6	76.88
573.811	96.88
574.023	88.88
574.234	89.88
574.445	83.88
574.656	76.88
574.867	96.88
575.078	71.88
575.289	90.88
575.501	97.88
575.712	96.88
575.923	97.88
576.134	86.88
576.345	93.88
576.556	88.88
576.767	107.88
576.978	96.88
577.188	102.88
577.399	78.88
577.61	81.88
577.821	92.88
578.032	99.88
578.243	92.88
578.454	88.88
578.665	120.88
578.875	107.88
579.086	114.88
579.297	88.88
579.508	84.88
579.718	107.88
579.929	96.88
580.14	97.88
580.35	121.88
580.561	147.88
580.772	135.88
580.982	112.88
581.193	92.88
581.403	92.88
581.614	107.88
581.825	111.88
582.035	95.88
582.246	109.88
582.456	83.88
582.667	85.88
582.877	105.88
583.087	79.88
583.298	100.88
583.508	124.88
583.719	109.88
583.929	102.88
584.139	100.88
584.35	92.88
584.56	104.88
584.77	84.88
584.981	78.88
585.191	96.88
585.401	87.88
585.611	99.88
585.821	99.88
586.032	96.88
586.242	93.88
586.452	88.88
586.662	88.88
586.872	87.88
587.082	85.88
587.292	90.88
587.502	98.88
587.713	91.88
587.923	107.88
588.133	77.88
588.343	116.88
588.553	104.88
588.762	151.88
588.972	296.88
589.182	696.88
589.392	426.88
589.602	328.88
589.812	564.88
590.022	284.88
590.232	144.88
590.441	98.88
590.651	93.88
590.861	95.88
591.071	87.88
591.281	82.88
591.49	86.88
591.7	87.88
591.91	86.88
592.119	94.88
592.329	90.88
592.539	103.88
592.748	97.88
592.958	80.88
593.167	85.88
593.377	96.88
593.587	80.88
593.796	83.88
594.006	101.88
594.215	90.88
594.424	89.88
594.634	87.88
594.843	84.88
595.053	97.88
595.262	89.88
595.472	83.88
595.681	92.88
595.89	72.88
596.1	88.88
596.309	105.88
596.518	90.88
596.727	96.88
596.937	76.88
597.146	79.88
597.355	70.88
597.564	76.88
597.774	94.88
597.983	88.88
598.192	90.88
598.401	91.88
598.61	80.88
598.819	78.88
599.028	89.88
599.237	88.88
599.446	84.88
599.655	91.88
599.864	99.88
600.073	100.88
600.282	85.88
600.491	93.88
600.7	98.88
600.909	92.88
601.118	88.88
601.327	82.88
601.536	89.88
601.745	80.88
601.953	73.88
602.162	80.88
602.371	78.88
602.58	93.88
602.789	84.88
602.997	95.88
603.206	93.88
603.415	69.88
603.623	77.88
603.832	105.88
604.041	84.88
604.249	100.88
604.458	93.88
604.666	97.88
604.875	77.88
605.084	85.88
605.292	97.88
605.501	79.88
605.709	82.88
605.918	79.88
606.126	80.88
606.334	89.88
606.543	96.88
606.751	98.88
606.96	95.88
607.168	102.88
607.376	87.88
607.585	96.88
607.793	97.88
608.001	82.88
608.21	96.88
608.418	93.88
608.626	61.88
608.834	92.88
609.043	89.88
609.251	92.88
609.459	96.88
609.667	95.88
609.875	88.88
610.083	88.88
610.291	87.88
610.499	106.88
610.707	107.88
610.916	93.88
611.124	101.88
611.332	93.88
611.54	94.88
611.748	94.88
611.955	85.88
612.163	85.88
612.371	105.88
612.579	99.88
612.787	101.88
612.995	86.88
613.203	94.88
613.411	83.88
613.618	84.88
613.826	83.88
614.034	91.88
614.242	86.88
614.449	88.88
614.657	103.88
614.865	84.88
615.072	88.88
615.28	96.88
615.488	84.88
615.695	80.88
615.903	90.88
616.111	89.88
616.318	117.88
616.526	130.88
616.733	93.88
616.941	86.88
617.148	101.88
617.356	93.88
617.563	88.88
617.771	88.88
617.978	76.88
618.185	98.88
618.393	84.88
618.6	89.88
618.807	90.88
619.015	96.88
619.222	76.88
619.429	86.88
619.637	92.88
619.844	84.88
620.051	95.88
620.258	96.88
620.466	87.88
620.673	93.88
620.88	85.88
621.087	88.88
621.294	72.88
621.501	82.88
621.708	88.88
621.915	91.88
622.122	81.88
622.329	88.88
622.536	92.88
622.743	75.88
622.95	86.88
623.157	85.88
623.364	92.88
623.571	84.88
623.778	100.88
623.985	89.88
624.192	109.88
624.399	93.88
624.606	98.88
624.812	70.88
625.019	88.88
625.226	86.88
625.433	105.88
625.639	98.88
625.846	94.88
626.053	90.88
626.259	87.88
626.466	84.88
626.673	87.88
626.879	89.88
627.086	86.88
627.293	99.88
627.499	90.88
627.706	86.88
627.912	85.88
628.119	88.88
628.325	93.88
628.532	82.88
628.738	79.88
628.945	89.88
629.151	82.88
629.357	80.88
629.564	93.88
629.77	90.88
629.976	102.88
630.183	86.88
630.389	71.88
630.595	96.88
630.802	76.88
631.008	84.88
631.214	80.88
631.42	95.88
631.627	100.88
631.833	82.88
632.039	82.88
632.245	89.88
632.451	86.88
632.657	93.88
632.863	81.88
633.069	81.88
633.275	90.88
633.481	98.88
633.688	78.88
633.893	81.88
634.099	90.88
634.305	99.88
634.511	102.88
634.717	89.88
634.923	73.88
635.129	95.88
635.335	90.88
635.541	91.88
635.747	77.88
635.952	74.88
636.158	73.88
636.364	85.88
636.57	94.88
636.775	89.88
636.981	96.88
637.187	78.88
637.392	96.88
637.598	106.88
637.804	83.88
638.009	92.88
638.215	82.88
638.421	86.88
638.626	99.88
638.832	77.88
639.037	87.88
639.243	81.88
639.448	77.88
639.654	88.88
639.859	78.88
640.065	85.88
640.27	98.88
640.475	96.88
640.681	81.88
640.886	74.88
641.091	92.88
641.297	81.88
641.502	75.88
641.707	78.88
641.913	85.88
642.118	82.88
642.323	85.88
642.528	83.88
642.733	97.88
642.939	92.88
643.144	84.88
643.349	87.88
643.554	80.88
643.759	84.88
643.964	91.88
644.169	100.88
644.374	67.88
644.579	83.88
644.784	81.88
644.989	88.88
645.194	85.88
645.399	75.88
645.604	82.88
645.809	92.88
646.014	80.88
646.219	93.88
646.423	100.88
646.628	91.88
646.833	77.88
647.038	86.88
647.243	93.88
647.447	78.88
647.652	82.88
647.857	84.88
648.062	79.88
648.266	74.88
648.471	79.88
648.676	92.88
648.88	90.88
649.085	77.88
649.289	72.88
649.494	78.88
649.698	87.88
649.903	98.88
650.107	92.88
650.312	94.88
650.516	71.88
650.721	96.88
650.925	80.88
651.13	70.88
651.334	79.88
651.539	73.88
651.743	73.88
651.947	92.88
652.152	80.88
652.356	95.88
652.56	84.88
652.764	90.88
652.969	70.88
653.173	82.88
653.377	62.88
653.581	76.88
653.785	100.88
653.99	78.88
654.194	77.88
654.398	96.88
654.602	90.88
654.806	82.88
655.01	86.88
655.214	80.88
655.418	85.88
655.622	96.88
655.826	80.88
656.03	81.88
656.234	84.88
656.438	77.88
656.642	90.88
656.846	91.88
657.049	86.88
657.253	92.88
657.457	90.88
657.661	78.88
657.865	85.88
658.068	87.88
658.272	76.88
658.476	100.88
658.68	79.88
658.883	91.88
659.087	76.88
659.291	86.88
659.494	98.88
659.698	73.88
659.901	85.88
660.105	73.88
660.309	98.88
660.512	87.88
660.716	82.88
660.919	82.88
661.123	82.88
661.326	75.88
661.53	80.88
661.733	90.88
661.936	81.88
662.14	77.88
662.343	80.88
662.546	91.88
662.75	84.88
662.953	86.88
663.156	94.88
663.36	84.88
663.563	89.88
663.766	90.88
663.969	88.88
664.173	76.88
664.376	80.88
664.579	91.88
664.782	91.88
664.985	75.88
665.188	82.88
665.391	90.88
665.594	82.88
665.797	89.88
666	77.88
666.203	74.88
666.406	93.88
666.609	74.88
666.812	78.88
667.015	80.88
667.218	78.88
667.421	84.88
667.624	86.88
667.827	82.88
668.03	85.88
668.232	73.88
668.435	93.88
668.638	82.88
668.841	88.88
669.043	77.88
669.246	76.88
669.449	86.88
669.651	94.88
669.854	73.88
670.057	84.88
670.259	82.88
670.462	85.88
670.665	78.88
670.867	73.88
671.07	92.88
671.272	76.88
671.475	97.88
671.677	76.88
671.88	62.88
672.082	78.88
672.284	106.88
672.487	80.88
672.689	86.88
672.892	92.88
