Data from Lead_HRD10591_00060.txt Node
Date: Tue Feb 17 14:15:28 EST 2026
User: Yrep
Spectrometer: HR+D1059
Trigger mode: 1
Integration Time (sec): 1.000000E-1
Scans to average: 1
Electric dark correction enabled: true
Nonlinearity correction enabled: false
Boxcar width: 0
XAxis mode: Wavelengths
Number of Pixels in Spectrum: 2048
>>>>>Begin Spectral Data<<<<<
223.165	-18.69
223.4	-18.69
223.635	-18.69
223.869	-10.69
224.104	-25.69
224.338	-14.69
224.573	-17.69
224.808	-7.69
225.042	-19.69
225.277	-9.69
225.511	0.31
225.746	14.31
225.98	13.31
226.215	21.31
226.449	18.31
226.683	15.31
226.918	11.31
227.152	30.31
227.387	48.31
227.621	46.31
227.856	58.31
228.09	37.31
228.324	48.31
228.559	60.31
228.793	52.31
229.027	59.31
229.262	79.31
229.496	70.31
229.73	74.31
229.964	67.31
230.199	73.31
230.433	80.31
230.667	68.31
230.901	76.31
231.136	70.31
231.37	81.31
231.604	84.31
231.838	66.31
232.072	83.31
232.306	84.31
232.541	71.31
232.775	90.31
233.009	91.31
233.243	80.31
233.477	87.31
233.711	83.31
233.945	81.31
234.179	77.31
234.413	92.31
234.647	82.31
234.881	85.31
235.115	89.31
235.349	84.31
235.583	86.31
235.817	66.31
236.051	83.31
236.285	84.31
236.519	84.31
236.753	82.31
236.987	73.31
237.221	75.31
237.455	77.31
237.689	70.31
237.922	86.31
238.156	56.31
238.39	73.31
238.624	73.31
238.858	81.31
239.091	78.31
239.325	79.31
239.559	66.31
239.793	70.31
240.027	69.31
240.26	82.31
240.494	78.31
240.728	68.31
240.961	77.31
241.195	89.31
241.429	81.31
241.662	66.31
241.896	73.31
242.13	74.31
242.363	82.31
242.597	78.31
242.83	80.31
243.064	80.31
243.298	90.31
243.531	65.31
243.765	66.31
243.998	62.31
244.232	74.31
244.465	77.31
244.699	81.31
244.932	82.31
245.166	85.31
245.399	78.31
245.633	84.31
245.866	87.31
246.099	90.31
246.333	75.31
246.566	79.31
246.8	83.31
247.033	78.31
247.266	78.31
247.5	85.31
247.733	82.31
247.966	66.31
248.2	85.31
248.433	69.31
248.666	90.31
248.899	80.31
249.133	75.31
249.366	76.31
249.599	79.31
249.832	70.31
250.066	90.31
250.299	90.31
250.532	83.31
250.765	77.31
250.998	87.31
251.231	72.31
251.465	73.31
251.698	74.31
251.931	99.31
252.164	67.31
252.397	83.31
252.63	77.31
252.863	82.31
253.096	82.31
253.329	108.31
253.562	89.31
253.795	73.31
254.028	71.31
254.261	72.31
254.494	70.31
254.727	84.31
254.96	76.31
255.193	94.31
255.426	86.31
255.659	78.31
255.892	86.31
256.124	103.31
256.357	82.31
256.59	71.31
256.823	82.31
257.056	88.31
257.289	76.31
257.521	84.31
257.754	87.31
257.987	82.31
258.22	86.31
258.452	85.31
258.685	69.31
258.918	84.31
259.151	83.31
259.383	92.31
259.616	61.31
259.849	91.31
260.081	89.31
260.314	77.31
260.547	76.31
260.779	91.31
261.012	99.31
261.244	99.31
261.477	105.31
261.71	93.31
261.942	87.31
262.175	88.31
262.407	106.31
262.64	86.31
262.872	91.31
263.105	90.31
263.337	80.31
263.57	80.31
263.802	97.31
264.035	86.31
264.267	83.31
264.499	90.31
264.732	84.31
264.964	83.31
265.197	77.31
265.429	77.31
265.661	82.31
265.894	97.31
266.126	84.31
266.358	75.31
266.591	93.31
266.823	83.31
267.055	75.31
267.287	86.31
267.52	90.31
267.752	100.31
267.984	86.31
268.216	77.31
268.448	89.31
268.681	88.31
268.913	82.31
269.145	79.31
269.377	67.31
269.609	77.31
269.841	89.31
270.073	86.31
270.306	68.31
270.538	90.31
270.77	93.31
271.002	84.31
271.234	75.31
271.466	72.31
271.698	85.31
271.93	82.31
272.162	83.31
272.394	76.31
272.626	87.31
272.858	82.31
273.09	85.31
273.322	92.31
273.553	82.31
273.785	90.31
274.017	98.31
274.249	73.31
274.481	76.31
274.713	84.31
274.945	84.31
275.176	85.31
275.408	94.31
275.64	84.31
275.872	81.31
276.104	86.31
276.335	72.31
276.567	83.31
276.799	94.31
277.031	71.31
277.262	78.31
277.494	86.31
277.726	67.31
277.957	74.31
278.189	82.31
278.421	92.31
278.652	100.31
278.884	104.31
279.115	80.31
279.347	94.31
279.579	87.31
279.81	87.31
280.042	103.31
280.273	112.31
280.505	120.31
280.736	94.31
280.968	85.31
281.199	76.31
281.431	84.31
281.662	88.31
281.894	89.31
282.125	104.31
282.356	108.31
282.588	106.31
282.819	88.31
283.051	91.31
283.282	120.31
283.513	117.31
283.745	82.31
283.976	87.31
284.207	81.31
284.439	91.31
284.67	84.31
284.901	75.31
285.132	90.31
285.364	86.31
285.595	86.31
285.826	75.31
286.057	77.31
286.288	88.31
286.52	83.31
286.751	84.31
286.982	90.31
287.213	106.31
287.444	108.31
287.675	104.31
287.906	98.31
288.138	84.31
288.369	103.31
288.6	86.31
288.831	99.31
289.062	94.31
289.293	92.31
289.524	81.31
289.755	90.31
289.986	85.31
290.217	82.31
290.448	92.31
290.679	92.31
290.91	84.31
291.141	92.31
291.371	99.31
291.602	95.31
291.833	88.31
292.064	93.31
292.295	81.31
292.526	68.31
292.757	68.31
292.987	101.31
293.218	81.31
293.449	83.31
293.68	83.31
293.91	84.31
294.141	96.31
294.372	84.31
294.603	90.31
294.833	75.31
295.064	99.31
295.295	86.31
295.525	79.31
295.756	86.31
295.987	85.31
296.217	82.31
296.448	82.31
296.679	86.31
296.909	90.31
297.14	88.31
297.37	75.31
297.601	97.31
297.831	85.31
298.062	85.31
298.292	76.31
298.523	93.31
298.753	79.31
298.984	96.31
299.214	71.31
299.445	74.31
299.675	83.31
299.905	73.31
300.136	82.31
300.366	78.31
300.597	78.31
300.827	93.31
301.057	91.31
301.288	85.31
301.518	80.31
301.748	91.31
301.979	99.31
302.209	76.31
302.439	76.31
302.669	72.31
302.9	93.31
303.13	96.31
303.36	75.31
303.59	89.31
303.82	80.31
304.051	91.31
304.281	73.31
304.511	92.31
304.741	79.31
304.971	87.31
305.201	84.31
305.431	79.31
305.661	91.31
305.891	95.31
306.121	89.31
306.352	84.31
306.582	92.31
306.812	74.31
307.042	98.31
307.272	90.31
307.502	99.31
307.731	105.31
307.961	108.31
308.191	119.31
308.421	108.31
308.651	98.31
308.881	80.31
309.111	127.31
309.341	124.31
309.571	101.31
309.8	88.31
310.03	104.31
310.26	71.31
310.49	93.31
310.72	78.31
310.949	90.31
311.179	79.31
311.409	85.31
311.639	80.31
311.868	92.31
312.098	98.31
312.328	96.31
312.557	88.31
312.787	77.31
313.017	72.31
313.246	89.31
313.476	75.31
313.706	96.31
313.935	91.31
314.165	102.31
314.394	90.31
314.624	86.31
314.853	93.31
315.083	74.31
315.312	81.31
315.542	77.31
315.771	91.31
316.001	100.31
316.23	90.31
316.46	83.31
316.689	97.31
316.919	81.31
317.148	92.31
317.377	108.31
317.607	89.31
317.836	85.31
318.065	93.31
318.295	76.31
318.524	85.31
318.753	82.31
318.983	66.31
319.212	94.31
319.441	86.31
319.67	83.31
319.9	86.31
320.129	92.31
320.358	94.31
320.587	81.31
320.816	94.31
321.046	85.31
321.275	74.31
321.504	98.31
321.733	85.31
321.962	89.31
322.191	101.31
322.42	98.31
322.649	93.31
322.878	78.31
323.108	87.31
323.337	87.31
323.566	83.31
323.795	100.31
324.024	90.31
324.253	80.31
324.482	86.31
324.71	109.31
324.939	93.31
325.168	90.31
325.397	76.31
325.626	81.31
325.855	96.31
326.084	97.31
326.313	109.31
326.542	90.31
326.77	83.31
326.999	101.31
327.228	90.31
327.457	90.31
327.686	91.31
327.914	82.31
328.143	89.31
328.372	88.31
328.6	87.31
328.829	100.31
329.058	102.31
329.287	84.31
329.515	95.31
329.744	88.31
329.972	84.31
330.201	88.31
330.43	86.31
330.658	83.31
330.887	84.31
331.115	84.31
331.344	90.31
331.572	68.31
331.801	90.31
332.03	93.31
332.258	86.31
332.486	92.31
332.715	89.31
332.943	84.31
333.172	89.31
333.4	93.31
333.629	85.31
333.857	86.31
334.085	74.31
334.314	88.31
334.542	86.31
334.771	81.31
334.999	88.31
335.227	72.31
335.455	98.31
335.684	83.31
335.912	89.31
336.14	86.31
336.369	91.31
336.597	77.31
336.825	72.31
337.053	86.31
337.281	98.31
337.51	77.31
337.738	82.31
337.966	96.31
338.194	74.31
338.422	94.31
338.65	91.31
338.878	90.31
339.106	87.31
339.334	91.31
339.562	93.31
339.79	81.31
340.018	89.31
340.246	84.31
340.474	88.31
340.702	91.31
340.93	88.31
341.158	84.31
341.386	86.31
341.614	96.31
341.842	80.31
342.07	87.31
342.298	85.31
342.526	103.31
342.754	86.31
342.981	82.31
343.209	91.31
343.437	109.31
343.665	90.31
343.893	83.31
344.12	85.31
344.348	95.31
344.576	93.31
344.804	96.31
345.031	98.31
345.259	100.31
345.487	89.31
345.714	86.31
345.942	86.31
346.17	78.31
346.397	72.31
346.625	88.31
346.853	98.31
347.08	87.31
347.308	102.31
347.535	93.31
347.763	87.31
347.99	92.31
348.218	75.31
348.445	78.31
348.673	96.31
348.9	84.31
349.128	79.31
349.355	102.31
349.583	99.31
349.81	80.31
350.037	89.31
350.265	95.31
350.492	82.31
350.72	87.31
350.947	92.31
351.174	78.31
351.402	79.31
351.629	82.31
351.856	97.31
352.083	82.31
352.311	91.31
352.538	91.31
352.765	79.31
352.992	90.31
353.22	76.31
353.447	97.31
353.674	97.31
353.901	92.31
354.128	84.31
354.355	84.31
354.583	84.31
354.81	103.31
355.037	88.31
355.264	98.31
355.491	90.31
355.718	88.31
355.945	101.31
356.172	82.31
356.399	102.31
356.626	92.31
356.853	124.31
357.08	121.31
357.307	155.31
357.534	152.31
357.761	102.31
357.988	93.31
358.215	107.31
358.441	104.31
358.668	94.31
358.895	79.31
359.122	84.31
359.349	74.31
359.576	91.31
359.802	88.31
360.029	86.31
360.256	91.31
360.483	72.31
360.709	84.31
360.936	98.31
361.163	90.31
361.39	84.31
361.616	96.31
361.843	98.31
362.07	97.31
362.296	89.31
362.523	96.31
362.749	82.31
362.976	101.31
363.203	108.31
363.429	111.31
363.656	173.31
363.882	238.31
364.109	255.31
364.335	148.31
364.562	116.31
364.788	109.31
365.015	95.31
365.241	87.31
365.468	89.31
365.694	99.31
365.92	91.31
366.147	86.31
366.373	84.31
366.599	94.31
366.826	101.31
367.052	120.31
367.278	98.31
367.505	100.31
367.731	115.31
367.957	152.31
368.184	230.31
368.41	312.31
368.636	234.31
368.862	116.31
369.089	80.31
369.315	100.31
369.541	93.31
369.767	89.31
369.993	81.31
370.219	97.31
370.445	88.31
370.672	92.31
370.898	101.31
371.124	88.31
371.35	97.31
371.576	76.31
371.802	83.31
372.028	99.31
372.254	90.31
372.48	78.31
372.706	99.31
372.932	88.31
373.158	105.31
373.384	101.31
373.61	112.31
373.835	152.31
374.061	168.31
374.287	146.31
374.513	102.31
374.739	94.31
374.965	100.31
375.191	89.31
375.416	81.31
375.642	88.31
375.868	96.31
376.094	72.31
376.319	81.31
376.545	74.31
376.771	76.31
376.997	81.31
377.222	87.31
377.448	93.31
377.674	94.31
377.899	80.31
378.125	84.31
378.35	91.31
378.576	97.31
378.802	85.31
379.027	72.31
379.253	98.31
379.478	78.31
379.704	79.31
379.929	88.31
380.155	102.31
380.38	88.31
380.606	88.31
380.831	73.31
381.057	97.31
381.282	83.31
381.507	88.31
381.733	86.31
381.958	87.31
382.184	98.31
382.409	102.31
382.634	84.31
382.86	82.31
383.085	80.31
383.31	87.31
383.535	93.31
383.761	88.31
383.986	69.31
384.211	66.31
384.436	83.31
384.662	93.31
384.887	83.31
385.112	98.31
385.337	89.31
385.562	76.31
385.787	86.31
386.013	93.31
386.238	97.31
386.463	81.31
386.688	96.31
386.913	85.31
387.138	91.31
387.363	87.31
387.588	86.31
387.813	91.31
388.038	87.31
388.263	87.31
388.488	84.31
388.713	89.31
388.938	76.31
389.163	93.31
389.387	79.31
389.612	89.31
389.837	83.31
390.062	93.31
390.287	95.31
390.512	73.31
390.736	92.31
390.961	93.31
391.186	75.31
391.411	78.31
391.636	90.31
391.86	93.31
392.085	92.31
392.31	91.31
392.534	86.31
392.759	96.31
392.984	104.31
393.208	148.31
393.433	160.31
393.658	135.31
393.882	128.31
394.107	133.31
394.331	172.31
394.556	189.31
394.78	120.31
395.005	93.31
395.229	96.31
395.454	109.31
395.678	99.31
395.903	141.31
396.127	213.31
396.352	228.31
396.576	140.31
396.801	140.31
397.025	143.31
397.249	114.31
397.474	101.31
397.698	88.31
397.922	97.31
398.147	91.31
398.371	75.31
398.595	96.31
398.82	95.31
399.044	91.31
399.268	85.31
399.492	87.31
399.717	84.31
399.941	96.31
400.165	98.31
400.389	101.31
400.613	100.31
400.837	91.31
401.062	90.31
401.286	90.31
401.51	91.31
401.734	96.31
401.958	108.31
402.182	112.31
402.406	90.31
402.63	83.31
402.854	103.31
403.078	93.31
403.302	94.31
403.526	107.31
403.75	91.31
403.974	128.31
404.198	173.31
404.422	288.31
404.645	331.31
404.869	268.31
405.093	175.31
405.317	160.31
405.541	283.31
405.765	481.31
405.988	489.31
406.212	238.31
406.436	139.31
406.66	120.31
406.883	97.31
407.107	108.31
407.331	87.31
407.555	89.31
407.778	87.31
408.002	89.31
408.226	87.31
408.449	95.31
408.673	79.31
408.896	76.31
409.12	78.31
409.344	82.31
409.567	93.31
409.791	80.31
410.014	81.31
410.238	82.31
410.461	77.31
410.685	87.31
410.908	79.31
411.132	91.31
411.355	76.31
411.578	88.31
411.802	85.31
412.025	92.31
412.249	81.31
412.472	75.31
412.695	94.31
412.919	83.31
413.142	93.31
413.365	97.31
413.589	94.31
413.812	79.31
414.035	84.31
414.258	85.31
414.482	85.31
414.705	86.31
414.928	87.31
415.151	85.31
415.374	90.31
415.597	90.31
415.821	96.31
416.044	89.31
416.267	96.31
416.49	107.31
416.713	95.31
416.936	89.31
417.159	99.31
417.382	91.31
417.605	86.31
417.828	88.31
418.051	78.31
418.274	98.31
418.497	82.31
418.72	79.31
418.943	85.31
419.166	94.31
419.389	99.31
419.611	79.31
419.834	75.31
420.057	86.31
420.28	73.31
420.503	74.31
420.726	86.31
420.948	94.31
421.171	99.31
421.394	104.31
421.617	88.31
421.839	83.31
422.062	81.31
422.285	101.31
422.507	149.31
422.73	225.31
422.953	193.31
423.175	108.31
423.398	92.31
423.621	81.31
423.843	89.31
424.066	84.31
424.288	84.31
424.511	86.31
424.733	89.31
424.956	77.31
425.178	79.31
425.401	76.31
425.623	93.31
425.846	81.31
426.068	89.31
426.291	92.31
426.513	88.31
426.735	88.31
426.958	79.31
427.18	86.31
427.402	102.31
427.625	89.31
427.847	97.31
428.069	91.31
428.292	86.31
428.514	94.31
428.736	91.31
428.958	93.31
429.181	87.31
429.403	92.31
429.625	93.31
429.847	99.31
430.069	97.31
430.292	114.31
430.514	102.31
430.736	88.31
430.958	95.31
431.18	88.31
431.402	97.31
431.624	84.31
431.846	98.31
432.068	122.31
432.29	86.31
432.512	74.31
432.734	83.31
432.956	86.31
433.178	77.31
433.4	86.31
433.622	92.31
433.844	81.31
434.066	96.31
434.287	86.31
434.509	91.31
434.731	82.31
434.953	96.31
435.175	86.31
435.397	89.31
435.618	75.31
435.84	82.31
436.062	86.31
436.284	89.31
436.505	78.31
436.727	84.31
436.949	80.31
437.17	88.31
437.392	82.31
437.614	93.31
437.835	89.31
438.057	85.31
438.278	88.31
438.5	105.31
438.721	81.31
438.943	86.31
439.165	88.31
439.386	88.31
439.608	83.31
439.829	92.31
440.05	85.31
440.272	86.31
440.493	93.31
440.715	100.31
440.936	96.31
441.158	85.31
441.379	86.31
441.6	83.31
441.822	86.31
442.043	93.31
442.264	86.31
442.486	106.31
442.707	91.31
442.928	83.31
443.149	105.31
443.371	110.31
443.592	103.31
443.813	104.31
444.034	96.31
444.255	90.31
444.476	85.31
444.698	80.31
444.919	85.31
445.14	168.31
445.361	132.31
445.582	107.31
445.803	93.31
446.024	77.31
446.245	78.31
446.466	92.31
446.687	97.31
446.908	91.31
447.129	81.31
447.35	101.31
447.571	91.31
447.792	88.31
448.013	72.31
448.234	101.31
448.455	90.31
448.675	83.31
448.896	72.31
449.117	85.31
449.338	82.31
449.559	77.31
449.779	99.31
450	88.31
450.221	77.31
450.442	98.31
450.662	86.31
450.883	93.31
451.104	89.31
451.324	86.31
451.545	71.31
451.766	74.31
451.986	89.31
452.207	78.31
452.428	97.31
452.648	96.31
452.869	91.31
453.089	84.31
453.31	96.31
453.53	84.31
453.751	88.31
453.971	101.31
454.192	92.31
454.412	85.31
454.633	89.31
454.853	84.31
455.073	86.31
455.294	85.31
455.514	91.31
455.734	91.31
455.955	85.31
456.175	96.31
456.395	87.31
456.616	94.31
456.836	81.31
457.056	82.31
457.276	91.31
457.497	82.31
457.717	86.31
457.937	86.31
458.157	80.31
458.377	77.31
458.598	85.31
458.818	92.31
459.038	97.31
459.258	78.31
459.478	87.31
459.698	87.31
459.918	81.31
460.138	88.31
460.358	84.31
460.578	92.31
460.798	92.31
461.018	97.31
461.238	90.31
461.458	92.31
461.678	93.31
461.898	92.31
462.118	77.31
462.338	84.31
462.558	93.31
462.777	83.31
462.997	94.31
463.217	94.31
463.437	92.31
463.657	81.31
463.876	96.31
464.096	91.31
464.316	88.31
464.536	97.31
464.755	93.31
464.975	93.31
465.195	97.31
465.414	91.31
465.634	84.31
465.854	73.31
466.073	81.31
466.293	90.31
466.512	92.31
466.732	84.31
466.951	84.31
467.171	86.31
467.391	91.31
467.61	94.31
467.829	83.31
468.049	71.31
468.268	96.31
468.488	96.31
468.707	93.31
468.927	93.31
469.146	104.31
469.365	90.31
469.585	83.31
469.804	90.31
470.023	84.31
470.243	91.31
470.462	98.31
470.681	88.31
470.901	96.31
471.12	83.31
471.339	83.31
471.558	75.31
471.777	91.31
471.997	92.31
472.216	88.31
472.435	77.31
472.654	78.31
472.873	89.31
473.092	83.31
473.311	81.31
473.53	95.31
473.749	96.31
473.968	92.31
474.187	89.31
474.406	78.31
474.625	96.31
474.844	87.31
475.063	75.31
475.282	88.31
475.501	87.31
475.72	104.31
475.939	80.31
476.158	94.31
476.377	98.31
476.596	88.31
476.814	88.31
477.033	101.31
477.252	87.31
477.471	86.31
477.69	88.31
477.908	90.31
478.127	89.31
478.346	86.31
478.564	86.31
478.783	89.31
479.002	92.31
479.22	96.31
479.439	78.31
479.658	96.31
479.876	98.31
480.095	87.31
480.313	97.31
480.532	89.31
480.751	103.31
480.969	102.31
481.188	106.31
481.406	84.31
481.624	90.31
481.843	86.31
482.061	77.31
482.28	78.31
482.498	101.31
482.717	90.31
482.935	90.31
483.153	88.31
483.372	100.31
483.59	88.31
483.808	75.31
484.027	92.31
484.245	92.31
484.463	86.31
484.681	96.31
484.9	104.31
485.118	90.31
485.336	97.31
485.554	91.31
485.772	76.31
485.99	93.31
486.209	87.31
486.427	95.31
486.645	94.31
486.863	88.31
487.081	97.31
487.299	86.31
487.517	99.31
487.735	86.31
487.953	86.31
488.171	81.31
488.389	109.31
488.607	88.31
488.825	84.31
489.043	105.31
489.261	84.31
489.479	99.31
489.696	95.31
489.914	94.31
490.132	75.31
490.35	82.31
490.568	112.31
490.786	88.31
491.003	87.31
491.221	98.31
491.439	82.31
491.657	88.31
491.874	98.31
492.092	77.31
492.31	107.31
492.527	86.31
492.745	90.31
492.963	98.31
493.18	92.31
493.398	106.31
493.615	77.31
493.833	94.31
494.05	79.31
494.268	108.31
494.485	84.31
494.703	93.31
494.92	94.31
495.138	88.31
495.355	91.31
495.573	112.31
495.79	100.31
496.008	92.31
496.225	94.31
496.442	91.31
496.66	107.31
496.877	99.31
497.094	89.31
497.312	108.31
497.529	101.31
497.746	94.31
497.963	90.31
498.181	88.31
498.398	104.31
498.615	93.31
498.832	89.31
499.049	109.31
499.267	91.31
499.484	91.31
499.701	94.31
499.918	94.31
500.135	87.31
500.352	99.31
500.569	106.31
500.786	135.31
501.003	108.31
501.22	93.31
501.437	81.31
501.654	99.31
501.871	89.31
502.088	104.31
502.305	114.31
502.522	94.31
502.739	91.31
502.956	85.31
503.172	88.31
503.389	98.31
503.606	83.31
503.823	96.31
504.04	106.31
504.256	100.31
504.473	94.31
504.69	98.31
504.907	93.31
505.123	85.31
505.34	77.31
505.557	99.31
505.773	84.31
505.99	84.31
506.207	97.31
506.423	90.31
506.64	79.31
506.856	83.31
507.073	81.31
507.289	92.31
507.506	83.31
507.722	84.31
507.939	90.31
508.155	94.31
508.372	79.31
508.588	83.31
508.805	88.31
509.021	91.31
509.238	94.31
509.454	91.31
509.67	80.31
509.887	92.31
510.103	83.31
510.319	96.31
510.536	91.31
510.752	89.31
510.968	86.31
511.184	88.31
511.401	89.31
511.617	86.31
511.833	83.31
512.049	99.31
512.265	78.31
512.481	84.31
512.698	95.31
512.914	102.31
513.13	93.31
513.346	88.31
513.562	87.31
513.778	91.31
513.994	97.31
514.21	97.31
514.426	79.31
514.642	99.31
514.858	84.31
515.074	81.31
515.29	104.31
515.506	89.31
515.721	91.31
515.937	103.31
516.153	112.31
516.369	94.31
516.585	88.31
516.801	93.31
517.016	88.31
517.232	90.31
517.448	87.31
517.664	93.31
517.879	86.31
518.095	92.31
518.311	93.31
518.527	90.31
518.742	91.31
518.958	104.31
519.173	93.31
519.389	101.31
519.605	92.31
519.82	84.31
520.036	79.31
520.251	98.31
520.467	98.31
520.682	84.31
520.898	95.31
521.113	100.31
521.329	90.31
521.544	94.31
521.76	84.31
521.975	87.31
522.19	79.31
522.406	100.31
522.621	86.31
522.836	93.31
523.052	106.31
523.267	114.31
523.482	99.31
523.698	76.31
523.913	83.31
524.128	88.31
524.343	87.31
524.559	89.31
524.774	86.31
524.989	90.31
525.204	91.31
525.419	92.31
525.634	88.31
525.849	103.31
526.064	100.31
526.28	101.31
526.495	115.31
526.71	100.31
526.925	105.31
527.14	104.31
527.355	97.31
527.57	90.31
527.785	93.31
527.999	90.31
528.214	95.31
528.429	89.31
528.644	93.31
528.859	73.31
529.074	85.31
529.289	87.31
529.503	81.31
529.718	101.31
529.933	93.31
530.148	76.31
530.363	96.31
530.577	85.31
530.792	92.31
531.007	79.31
531.221	82.31
531.436	94.31
531.651	83.31
531.865	89.31
532.08	96.31
532.295	99.31
532.509	99.31
532.724	102.31
532.938	118.31
533.153	89.31
533.367	83.31
533.582	97.31
533.796	104.31
534.011	96.31
534.225	102.31
534.44	119.31
534.654	113.31
534.868	107.31
535.083	104.31
535.297	108.31
535.511	108.31
535.726	95.31
535.94	94.31
536.154	107.31
536.369	109.31
536.583	93.31
536.797	105.31
537.011	90.31
537.225	110.31
537.44	100.31
537.654	100.31
537.868	92.31
538.082	88.31
538.296	83.31
538.51	82.31
538.724	98.31
538.938	90.31
539.153	94.31
539.367	100.31
539.581	90.31
539.795	71.31
540.009	90.31
540.222	80.31
540.436	94.31
540.65	100.31
540.864	95.31
541.078	70.31
541.292	86.31
541.506	88.31
541.72	76.31
541.934	93.31
542.147	84.31
542.361	82.31
542.575	87.31
542.789	110.31
543.002	102.31
543.216	92.31
543.43	92.31
543.644	100.31
543.857	81.31
544.071	95.31
544.285	89.31
544.498	88.31
544.712	79.31
544.925	74.31
545.139	96.31
545.352	88.31
545.566	94.31
545.779	94.31
545.993	100.31
546.206	90.31
546.42	93.31
546.633	101.31
546.847	88.31
547.06	96.31
547.274	96.31
547.487	77.31
547.7	72.31
547.914	83.31
548.127	90.31
548.34	95.31
548.554	94.31
548.767	78.31
548.98	91.31
549.193	94.31
549.407	85.31
549.62	97.31
549.833	96.31
550.046	94.31
550.259	97.31
550.473	98.31
550.686	109.31
550.899	92.31
551.112	92.31
551.325	85.31
551.538	101.31
551.751	97.31
551.964	87.31
552.177	87.31
552.39	93.31
552.603	72.31
552.816	90.31
553.029	87.31
553.242	89.31
553.455	100.31
553.667	93.31
553.88	94.31
554.093	94.31
554.306	85.31
554.519	93.31
554.732	77.31
554.944	90.31
555.157	80.31
555.37	84.31
555.583	82.31
555.795	101.31
556.008	88.31
556.221	94.31
556.433	77.31
556.646	93.31
556.859	97.31
557.071	83.31
557.284	93.31
557.496	97.31
557.709	87.31
557.921	96.31
558.134	88.31
558.346	100.31
558.559	100.31
558.771	106.31
558.984	113.31
559.196	128.31
559.409	100.31
559.621	106.31
559.833	106.31
560.046	95.31
560.258	103.31
560.47	104.31
560.683	88.31
560.895	90.31
561.107	98.31
561.32	106.31
561.532	91.31
561.744	110.31
561.956	85.31
562.168	92.31
562.381	91.31
562.593	77.31
562.805	80.31
563.017	94.31
563.229	90.31
563.441	102.31
563.653	95.31
563.865	92.31
564.077	83.31
564.289	103.31
564.501	92.31
564.713	93.31
564.925	86.31
565.137	94.31
565.349	101.31
565.561	93.31
565.773	84.31
565.985	81.31
566.197	105.31
566.408	88.31
566.62	85.31
566.832	96.31
567.044	89.31
567.255	89.31
567.467	91.31
567.679	78.31
567.891	94.31
568.102	101.31
568.314	88.31
568.526	90.31
568.737	96.31
568.949	113.31
569.161	112.31
569.372	105.31
569.584	88.31
569.795	97.31
570.007	100.31
570.218	104.31
570.43	79.31
570.641	81.31
570.853	93.31
571.064	94.31
571.276	98.31
571.487	97.31
571.698	93.31
571.91	92.31
572.121	96.31
572.333	85.31
572.544	94.31
572.755	94.31
572.966	82.31
573.178	90.31
573.389	77.31
573.6	82.31
573.811	92.31
574.023	72.31
574.234	88.31
574.445	81.31
574.656	89.31
574.867	96.31
575.078	96.31
575.289	83.31
575.501	91.31
575.712	87.31
575.923	89.31
576.134	101.31
576.345	91.31
576.556	99.31
576.767	102.31
576.978	99.31
577.188	90.31
577.399	77.31
577.61	93.31
577.821	94.31
578.032	84.31
578.243	98.31
578.454	115.31
578.665	107.31
578.875	105.31
579.086	101.31
579.297	78.31
579.508	86.31
579.718	94.31
579.929	89.31
580.14	97.31
580.35	128.31
580.561	146.31
580.772	135.31
580.982	116.31
581.193	108.31
581.403	107.31
581.614	105.31
581.825	101.31
582.035	112.31
582.246	107.31
582.456	102.31
582.667	106.31
582.877	91.31
583.087	106.31
583.298	106.31
583.508	122.31
583.719	95.31
583.929	126.31
584.139	93.31
584.35	86.31
584.56	93.31
584.77	97.31
584.981	79.31
585.191	97.31
585.401	85.31
585.611	91.31
585.821	94.31
586.032	107.31
586.242	84.31
586.452	86.31
586.662	89.31
586.872	84.31
587.082	86.31
587.292	88.31
587.502	100.31
587.713	82.31
587.923	103.31
588.133	115.31
588.343	125.31
588.553	144.31
588.762	193.31
588.972	458.31
589.182	1112.31
589.392	704.31
589.602	496.31
589.812	878.31
590.022	416.31
590.232	183.31
590.441	133.31
590.651	105.31
590.861	92.31
591.071	86.31
591.281	107.31
591.49	90.31
591.7	78.31
591.91	92.31
592.119	88.31
592.329	105.31
592.539	99.31
592.748	87.31
592.958	78.31
593.167	85.31
593.377	88.31
593.587	83.31
593.796	91.31
594.006	88.31
594.215	98.31
594.424	87.31
594.634	97.31
594.843	101.31
595.053	93.31
595.262	90.31
595.472	85.31
595.681	107.31
595.89	92.31
596.1	79.31
596.309	99.31
596.518	78.31
596.727	86.31
596.937	88.31
597.146	84.31
597.355	90.31
597.564	91.31
597.774	96.31
597.983	83.31
598.192	85.31
598.401	92.31
598.61	78.31
598.819	93.31
599.028	73.31
599.237	85.31
599.446	86.31
599.655	99.31
599.864	92.31
600.073	92.31
600.282	95.31
600.491	82.31
600.7	88.31
600.909	83.31
601.118	97.31
601.327	88.31
601.536	89.31
601.745	81.31
601.953	88.31
602.162	84.31
602.371	84.31
602.58	94.31
602.789	94.31
602.997	79.31
603.206	79.31
603.415	91.31
603.623	78.31
603.832	91.31
604.041	96.31
604.249	77.31
604.458	93.31
604.666	82.31
604.875	77.31
605.084	98.31
605.292	86.31
605.501	88.31
605.709	101.31
605.918	90.31
606.126	89.31
606.334	87.31
606.543	92.31
606.751	84.31
606.96	97.31
607.168	99.31
607.376	86.31
607.585	78.31
607.793	78.31
608.001	79.31
608.21	90.31
608.418	65.31
608.626	93.31
608.834	90.31
609.043	91.31
609.251	85.31
609.459	86.31
609.667	98.31
609.875	82.31
610.083	97.31
610.291	87.31
610.499	90.31
610.707	85.31
610.916	88.31
611.124	90.31
611.332	91.31
611.54	86.31
611.748	80.31
611.955	97.31
612.163	81.31
612.371	86.31
612.579	102.31
612.787	84.31
612.995	99.31
613.203	96.31
613.411	99.31
613.618	93.31
613.826	77.31
614.034	83.31
614.242	104.31
614.449	96.31
614.657	86.31
614.865	95.31
615.072	93.31
615.28	87.31
615.488	90.31
615.695	84.31
615.903	87.31
616.111	85.31
616.318	113.31
616.526	108.31
616.733	86.31
616.941	86.31
617.148	88.31
617.356	86.31
617.563	88.31
617.771	76.31
617.978	72.31
618.185	90.31
618.393	96.31
618.6	77.31
618.807	79.31
619.015	79.31
619.222	78.31
619.429	90.31
619.637	83.31
619.844	100.31
620.051	90.31
620.258	89.31
620.466	101.31
620.673	82.31
620.88	84.31
621.087	99.31
621.294	79.31
621.501	87.31
621.708	85.31
621.915	75.31
622.122	86.31
622.329	77.31
622.536	84.31
622.743	96.31
622.95	90.31
623.157	76.31
623.364	90.31
623.571	86.31
623.778	93.31
623.985	92.31
624.192	78.31
624.399	88.31
624.606	100.31
624.812	73.31
625.019	86.31
625.226	82.31
625.433	88.31
625.639	96.31
625.846	97.31
626.053	90.31
626.259	96.31
626.466	88.31
626.673	86.31
626.879	80.31
627.086	86.31
627.293	89.31
627.499	85.31
627.706	85.31
627.912	97.31
628.119	82.31
628.325	84.31
628.532	81.31
628.738	84.31
628.945	79.31
629.151	90.31
629.357	92.31
629.564	88.31
629.77	92.31
629.976	81.31
630.183	82.31
630.389	88.31
630.595	96.31
630.802	80.31
631.008	88.31
631.214	87.31
631.42	86.31
631.627	87.31
631.833	93.31
632.039	81.31
632.245	99.31
632.451	87.31
632.657	94.31
632.863	90.31
633.069	92.31
633.275	92.31
633.481	92.31
633.688	106.31
633.893	100.31
634.099	87.31
634.305	101.31
634.511	92.31
634.717	92.31
634.923	85.31
635.129	99.31
635.335	69.31
635.541	92.31
635.747	92.31
635.952	76.31
636.158	71.31
636.364	95.31
636.57	66.31
636.775	81.31
636.981	83.31
637.187	89.31
637.392	85.31
637.598	76.31
637.804	83.31
638.009	81.31
638.215	88.31
638.421	76.31
638.626	85.31
638.832	82.31
639.037	90.31
639.243	100.31
639.448	84.31
639.654	84.31
639.859	102.31
640.065	74.31
640.27	92.31
640.475	86.31
640.681	93.31
640.886	88.31
641.091	85.31
641.297	86.31
641.502	84.31
641.707	97.31
641.913	73.31
642.118	81.31
642.323	85.31
642.528	94.31
642.733	97.31
642.939	76.31
643.144	91.31
643.349	88.31
643.554	88.31
643.759	76.31
643.964	92.31
644.169	96.31
644.374	84.31
644.579	83.31
644.784	74.31
644.989	75.31
645.194	88.31
645.399	87.31
645.604	85.31
645.809	93.31
646.014	92.31
646.219	84.31
646.423	88.31
646.628	97.31
646.833	87.31
647.038	85.31
647.243	86.31
647.447	75.31
647.652	78.31
647.857	84.31
648.062	84.31
648.266	84.31
648.471	91.31
648.676	86.31
648.88	89.31
649.085	86.31
649.289	80.31
649.494	70.31
649.698	92.31
649.903	80.31
650.107	91.31
650.312	93.31
650.516	92.31
650.721	93.31
650.925	74.31
651.13	76.31
651.334	90.31
651.539	80.31
651.743	79.31
651.947	89.31
652.152	87.31
652.356	82.31
652.56	70.31
652.764	81.31
652.969	93.31
653.173	82.31
653.377	78.31
653.581	78.31
653.785	98.31
653.99	93.31
654.194	79.31
654.398	81.31
654.602	81.31
654.806	73.31
655.01	81.31
655.214	83.31
655.418	78.31
655.622	91.31
655.826	84.31
656.03	87.31
656.234	79.31
656.438	89.31
656.642	76.31
656.846	81.31
657.049	89.31
657.253	91.31
657.457	79.31
657.661	86.31
657.865	96.31
658.068	96.31
658.272	74.31
658.476	72.31
658.68	74.31
658.883	77.31
659.087	80.31
659.291	90.31
659.494	82.31
659.698	89.31
659.901	81.31
660.105	81.31
660.309	79.31
660.512	70.31
660.716	76.31
660.919	90.31
661.123	100.31
661.326	89.31
661.53	99.31
661.733	83.31
661.936	90.31
662.14	74.31
662.343	74.31
662.546	87.31
662.75	81.31
662.953	70.31
663.156	85.31
663.36	84.31
663.563	92.31
663.766	92.31
663.969	83.31
664.173	86.31
664.376	89.31
664.579	69.31
664.782	90.31
664.985	86.31
665.188	81.31
665.391	84.31
665.594	75.31
665.797	76.31
666	84.31
666.203	88.31
666.406	78.31
666.609	83.31
666.812	84.31
667.015	101.31
667.218	84.31
667.421	99.31
667.624	70.31
667.827	78.31
668.03	82.31
668.232	66.31
668.435	81.31
668.638	86.31
668.841	84.31
669.043	88.31
669.246	90.31
669.449	87.31
669.651	90.31
669.854	76.31
670.057	74.31
670.259	79.31
670.462	86.31
670.665	81.31
670.867	101.31
671.07	77.31
671.272	89.31
671.475	84.31
671.677	82.31
671.88	89.31
672.082	87.31
672.284	84.31
672.487	67.31
672.689	85.31
672.892	72.31
