Data from Lead_HRD10591_00097.txt Node
Date: Tue Feb 17 14:15:40 EST 2026
User: Yrep
Spectrometer: HR+D1059
Trigger mode: 1
Integration Time (sec): 1.000000E-1
Scans to average: 1
Electric dark correction enabled: true
Nonlinearity correction enabled: false
Boxcar width: 0
XAxis mode: Wavelengths
Number of Pixels in Spectrum: 2048
>>>>>Begin Spectral Data<<<<<
223.165	-18.62
223.4	-18.62
223.635	-18.62
223.869	-17.62
224.104	-11.62
224.338	-15.62
224.573	-20.62
224.808	-19.62
225.042	1.38
225.277	-16.62
225.511	11.38
225.746	9.38
225.98	15.38
226.215	8.38
226.449	15.38
226.683	4.38
226.918	27.38
227.152	27.38
227.387	38.38
227.621	21.38
227.856	41.38
228.09	49.38
228.324	58.38
228.559	52.38
228.793	56.38
229.027	51.38
229.262	72.38
229.496	73.38
229.73	80.38
229.964	81.38
230.199	78.38
230.433	75.38
230.667	78.38
230.901	63.38
231.136	76.38
231.37	69.38
231.604	82.38
231.838	85.38
232.072	68.38
232.306	82.38
232.541	75.38
232.775	88.38
233.009	86.38
233.243	78.38
233.477	84.38
233.711	64.38
233.945	78.38
234.179	82.38
234.413	86.38
234.647	92.38
234.881	75.38
235.115	81.38
235.349	82.38
235.583	77.38
235.817	75.38
236.051	77.38
236.285	92.38
236.519	76.38
236.753	76.38
236.987	87.38
237.221	69.38
237.455	86.38
237.689	86.38
237.922	76.38
238.156	62.38
238.39	71.38
238.624	88.38
238.858	82.38
239.091	82.38
239.325	75.38
239.559	76.38
239.793	74.38
240.027	92.38
240.26	83.38
240.494	77.38
240.728	66.38
240.961	73.38
241.195	75.38
241.429	83.38
241.662	73.38
241.896	73.38
242.13	75.38
242.363	88.38
242.597	85.38
242.83	82.38
243.064	76.38
243.298	90.38
243.531	73.38
243.765	76.38
243.998	68.38
244.232	80.38
244.465	80.38
244.699	95.38
244.932	91.38
245.166	76.38
245.399	81.38
245.633	64.38
245.866	78.38
246.099	81.38
246.333	68.38
246.566	68.38
246.8	73.38
247.033	90.38
247.266	76.38
247.5	76.38
247.733	70.38
247.966	70.38
248.2	74.38
248.433	87.38
248.666	85.38
248.899	88.38
249.133	65.38
249.366	82.38
249.599	82.38
249.832	85.38
250.066	83.38
250.299	82.38
250.532	72.38
250.765	80.38
250.998	89.38
251.231	85.38
251.465	88.38
251.698	82.38
251.931	70.38
252.164	80.38
252.397	86.38
252.63	78.38
252.863	77.38
253.096	78.38
253.329	74.38
253.562	76.38
253.795	81.38
254.028	80.38
254.261	90.38
254.494	77.38
254.727	88.38
254.96	78.38
255.193	88.38
255.426	76.38
255.659	74.38
255.892	85.38
256.124	78.38
256.357	78.38
256.59	75.38
256.823	64.38
257.056	74.38
257.289	66.38
257.521	73.38
257.754	61.38
257.987	84.38
258.22	81.38
258.452	69.38
258.685	68.38
258.918	80.38
259.151	75.38
259.383	87.38
259.616	82.38
259.849	76.38
260.081	73.38
260.314	69.38
260.547	86.38
260.779	73.38
261.012	82.38
261.244	80.38
261.477	83.38
261.71	97.38
261.942	92.38
262.175	88.38
262.407	64.38
262.64	81.38
262.872	80.38
263.105	76.38
263.337	87.38
263.57	73.38
263.802	76.38
264.035	76.38
264.267	85.38
264.499	80.38
264.732	76.38
264.964	76.38
265.197	81.38
265.429	92.38
265.661	84.38
265.894	72.38
266.126	77.38
266.358	78.38
266.591	87.38
266.823	81.38
267.055	79.38
267.287	85.38
267.52	87.38
267.752	82.38
267.984	77.38
268.216	74.38
268.448	92.38
268.681	98.38
268.913	72.38
269.145	75.38
269.377	78.38
269.609	63.38
269.841	73.38
270.073	84.38
270.306	70.38
270.538	88.38
270.77	80.38
271.002	84.38
271.234	77.38
271.466	83.38
271.698	84.38
271.93	84.38
272.162	87.38
272.394	104.38
272.626	81.38
272.858	89.38
273.09	97.38
273.322	93.38
273.553	70.38
273.785	86.38
274.017	82.38
274.249	81.38
274.481	85.38
274.713	93.38
274.945	94.38
275.176	90.38
275.408	89.38
275.64	83.38
275.872	90.38
276.104	80.38
276.335	82.38
276.567	79.38
276.799	89.38
277.031	88.38
277.262	77.38
277.494	70.38
277.726	72.38
277.957	90.38
278.189	85.38
278.421	81.38
278.652	77.38
278.884	77.38
279.115	97.38
279.347	83.38
279.579	81.38
279.81	92.38
280.042	104.38
280.273	116.38
280.505	107.38
280.736	75.38
280.968	79.38
281.199	92.38
281.431	88.38
281.662	95.38
281.894	73.38
282.125	92.38
282.356	91.38
282.588	100.38
282.819	98.38
283.051	107.38
283.282	110.38
283.513	116.38
283.745	96.38
283.976	84.38
284.207	86.38
284.439	90.38
284.67	102.38
284.901	89.38
285.132	89.38
285.364	85.38
285.595	95.38
285.826	75.38
286.057	91.38
286.288	85.38
286.52	77.38
286.751	105.38
286.982	88.38
287.213	93.38
287.444	96.38
287.675	101.38
287.906	68.38
288.138	80.38
288.369	89.38
288.6	86.38
288.831	80.38
289.062	84.38
289.293	93.38
289.524	91.38
289.755	94.38
289.986	81.38
290.217	85.38
290.448	86.38
290.679	90.38
290.91	83.38
291.141	90.38
291.371	88.38
291.602	86.38
291.833	91.38
292.064	75.38
292.295	79.38
292.526	86.38
292.757	67.38
292.987	87.38
293.218	94.38
293.449	100.38
293.68	68.38
293.91	80.38
294.141	92.38
294.372	94.38
294.603	91.38
294.833	72.38
295.064	81.38
295.295	77.38
295.525	90.38
295.756	68.38
295.987	76.38
296.217	83.38
296.448	76.38
296.679	73.38
296.909	85.38
297.14	92.38
297.37	88.38
297.601	88.38
297.831	89.38
298.062	89.38
298.292	86.38
298.523	80.38
298.753	79.38
298.984	92.38
299.214	84.38
299.445	95.38
299.675	83.38
299.905	88.38
300.136	93.38
300.366	87.38
300.597	79.38
300.827	90.38
301.057	112.38
301.288	96.38
301.518	86.38
301.748	94.38
301.979	100.38
302.209	78.38
302.439	90.38
302.669	86.38
302.9	98.38
303.13	82.38
303.36	80.38
303.59	96.38
303.82	95.38
304.051	79.38
304.281	91.38
304.511	74.38
304.741	102.38
304.971	71.38
305.201	75.38
305.431	76.38
305.661	92.38
305.891	86.38
306.121	84.38
306.352	75.38
306.582	84.38
306.812	86.38
307.042	92.38
307.272	84.38
307.502	77.38
307.731	86.38
307.961	83.38
308.191	89.38
308.421	104.38
308.651	93.38
308.881	89.38
309.111	90.38
309.341	91.38
309.571	93.38
309.8	76.38
310.03	98.38
310.26	80.38
310.49	96.38
310.72	77.38
310.949	77.38
311.179	73.38
311.409	85.38
311.639	78.38
311.868	83.38
312.098	84.38
312.328	103.38
312.557	72.38
312.787	94.38
313.017	85.38
313.246	97.38
313.476	85.38
313.706	79.38
313.935	76.38
314.165	83.38
314.394	106.38
314.624	100.38
314.853	96.38
315.083	91.38
315.312	87.38
315.542	97.38
315.771	86.38
316.001	94.38
316.23	83.38
316.46	68.38
316.689	70.38
316.919	85.38
317.148	93.38
317.377	98.38
317.607	82.38
317.836	91.38
318.065	72.38
318.295	77.38
318.524	90.38
318.753	78.38
318.983	86.38
319.212	84.38
319.441	91.38
319.67	79.38
319.9	98.38
320.129	85.38
320.358	92.38
320.587	76.38
320.816	84.38
321.046	90.38
321.275	95.38
321.504	53.38
321.733	81.38
321.962	77.38
322.191	82.38
322.42	75.38
322.649	85.38
322.878	84.38
323.108	82.38
323.337	83.38
323.566	83.38
323.795	87.38
324.024	83.38
324.253	96.38
324.482	74.38
324.71	86.38
324.939	94.38
325.168	88.38
325.397	74.38
325.626	85.38
325.855	66.38
326.084	88.38
326.313	84.38
326.542	76.38
326.77	83.38
326.999	71.38
327.228	89.38
327.457	76.38
327.686	78.38
327.914	95.38
328.143	94.38
328.372	81.38
328.6	79.38
328.829	105.38
329.058	89.38
329.287	89.38
329.515	83.38
329.744	82.38
329.972	91.38
330.201	84.38
330.43	84.38
330.658	90.38
330.887	82.38
331.115	92.38
331.344	92.38
331.572	83.38
331.801	83.38
332.03	96.38
332.258	81.38
332.486	88.38
332.715	88.38
332.943	100.38
333.172	82.38
333.4	84.38
333.629	78.38
333.857	85.38
334.085	94.38
334.314	84.38
334.542	75.38
334.771	85.38
334.999	92.38
335.227	86.38
335.455	86.38
335.684	90.38
335.912	89.38
336.14	82.38
336.369	78.38
336.597	84.38
336.825	91.38
337.053	105.38
337.281	86.38
337.51	84.38
337.738	102.38
337.966	93.38
338.194	83.38
338.422	97.38
338.65	75.38
338.878	94.38
339.106	92.38
339.334	83.38
339.562	78.38
339.79	88.38
340.018	76.38
340.246	91.38
340.474	87.38
340.702	75.38
340.93	68.38
341.158	93.38
341.386	78.38
341.614	85.38
341.842	77.38
342.07	79.38
342.298	71.38
342.526	92.38
342.754	72.38
342.981	78.38
343.209	73.38
343.437	89.38
343.665	88.38
343.893	81.38
344.12	75.38
344.348	90.38
344.576	81.38
344.804	86.38
345.031	91.38
345.259	77.38
345.487	84.38
345.714	90.38
345.942	88.38
346.17	85.38
346.397	91.38
346.625	87.38
346.853	90.38
347.08	96.38
347.308	94.38
347.535	83.38
347.763	78.38
347.99	92.38
348.218	96.38
348.445	87.38
348.673	93.38
348.9	87.38
349.128	105.38
349.355	78.38
349.583	72.38
349.81	72.38
350.037	89.38
350.265	86.38
350.492	74.38
350.72	82.38
350.947	91.38
351.174	89.38
351.402	78.38
351.629	87.38
351.856	76.38
352.083	87.38
352.311	76.38
352.538	84.38
352.765	90.38
352.992	93.38
353.22	68.38
353.447	84.38
353.674	87.38
353.901	102.38
354.128	76.38
354.355	81.38
354.583	96.38
354.81	78.38
355.037	82.38
355.264	88.38
355.491	91.38
355.718	82.38
355.945	87.38
356.172	93.38
356.399	105.38
356.626	72.38
356.853	106.38
357.08	118.38
357.307	127.38
357.534	125.38
357.761	83.38
357.988	90.38
358.215	87.38
358.441	79.38
358.668	96.38
358.895	88.38
359.122	74.38
359.349	84.38
359.576	90.38
359.802	80.38
360.029	89.38
360.256	86.38
360.483	81.38
360.709	91.38
360.936	80.38
361.163	85.38
361.39	73.38
361.616	81.38
361.843	70.38
362.07	88.38
362.296	83.38
362.523	87.38
362.749	90.38
362.976	100.38
363.203	100.38
363.429	103.38
363.656	132.38
363.882	191.38
364.109	193.38
364.335	130.38
364.562	96.38
364.788	73.38
365.015	86.38
365.241	80.38
365.468	92.38
365.694	85.38
365.92	104.38
366.147	88.38
366.373	87.38
366.599	90.38
366.826	99.38
367.052	103.38
367.278	101.38
367.505	113.38
367.731	120.38
367.957	133.38
368.184	194.38
368.41	259.38
368.636	186.38
368.862	116.38
369.089	105.38
369.315	88.38
369.541	84.38
369.767	85.38
369.993	112.38
370.219	93.38
370.445	77.38
370.672	92.38
370.898	85.38
371.124	72.38
371.35	80.38
371.576	93.38
371.802	82.38
372.028	98.38
372.254	99.38
372.48	96.38
372.706	62.38
372.932	85.38
373.158	101.38
373.384	84.38
373.61	118.38
373.835	126.38
374.061	141.38
374.287	120.38
374.513	89.38
374.739	80.38
374.965	86.38
375.191	75.38
375.416	97.38
375.642	89.38
375.868	86.38
376.094	93.38
376.319	76.38
376.545	89.38
376.771	88.38
376.997	83.38
377.222	72.38
377.448	80.38
377.674	90.38
377.899	83.38
378.125	94.38
378.35	82.38
378.576	72.38
378.802	87.38
379.027	91.38
379.253	95.38
379.478	86.38
379.704	92.38
379.929	92.38
380.155	79.38
380.38	84.38
380.606	83.38
380.831	80.38
381.057	99.38
381.282	103.38
381.507	76.38
381.733	76.38
381.958	84.38
382.184	85.38
382.409	90.38
382.634	74.38
382.86	77.38
383.085	87.38
383.31	86.38
383.535	98.38
383.761	81.38
383.986	92.38
384.211	86.38
384.436	79.38
384.662	84.38
384.887	73.38
385.112	84.38
385.337	72.38
385.562	69.38
385.787	90.38
386.013	84.38
386.238	82.38
386.463	93.38
386.688	94.38
386.913	79.38
387.138	88.38
387.363	80.38
387.588	81.38
387.813	77.38
388.038	88.38
388.263	77.38
388.488	89.38
388.713	80.38
388.938	104.38
389.163	93.38
389.387	84.38
389.612	92.38
389.837	90.38
390.062	92.38
390.287	98.38
390.512	74.38
390.736	77.38
390.961	77.38
391.186	97.38
391.411	84.38
391.636	76.38
391.86	72.38
392.085	70.38
392.31	76.38
392.534	70.38
392.759	85.38
392.984	90.38
393.208	94.38
393.433	121.38
393.658	103.38
393.882	120.38
394.107	106.38
394.331	130.38
394.556	130.38
394.78	108.38
395.005	80.38
395.229	88.38
395.454	84.38
395.678	70.38
395.903	114.38
396.127	132.38
396.352	144.38
396.576	109.38
396.801	107.38
397.025	113.38
397.249	91.38
397.474	73.38
397.698	89.38
397.922	82.38
398.147	83.38
398.371	88.38
398.595	82.38
398.82	81.38
399.044	78.38
399.268	92.38
399.492	82.38
399.717	75.38
399.941	76.38
400.165	90.38
400.389	82.38
400.613	78.38
400.837	93.38
401.062	92.38
401.286	83.38
401.51	82.38
401.734	97.38
401.958	89.38
402.182	95.38
402.406	87.38
402.63	98.38
402.854	75.38
403.078	82.38
403.302	105.38
403.526	84.38
403.75	96.38
403.974	99.38
404.198	120.38
404.422	150.38
404.645	185.38
404.869	156.38
405.093	112.38
405.317	139.38
405.541	247.38
405.765	382.38
405.988	398.38
406.212	202.38
406.436	139.38
406.66	84.38
406.883	85.38
407.107	96.38
407.331	96.38
407.555	90.38
407.778	76.38
408.002	82.38
408.226	71.38
408.449	90.38
408.673	88.38
408.896	76.38
409.12	93.38
409.344	96.38
409.567	88.38
409.791	75.38
410.014	83.38
410.238	93.38
410.461	90.38
410.685	80.38
410.908	85.38
411.132	80.38
411.355	75.38
411.578	78.38
411.802	83.38
412.025	92.38
412.249	83.38
412.472	92.38
412.695	71.38
412.919	85.38
413.142	86.38
413.365	87.38
413.589	78.38
413.812	84.38
414.035	85.38
414.258	91.38
414.482	100.38
414.705	77.38
414.928	80.38
415.151	89.38
415.374	80.38
415.597	85.38
415.821	80.38
416.044	75.38
416.267	70.38
416.49	89.38
416.713	87.38
416.936	94.38
417.159	96.38
417.382	88.38
417.605	85.38
417.828	82.38
418.051	86.38
418.274	81.38
418.497	91.38
418.72	88.38
418.943	94.38
419.166	87.38
419.389	78.38
419.611	91.38
419.834	86.38
420.057	90.38
420.28	74.38
420.503	81.38
420.726	86.38
420.948	69.38
421.171	84.38
421.394	86.38
421.617	92.38
421.839	88.38
422.062	99.38
422.285	83.38
422.507	106.38
422.73	130.38
422.953	104.38
423.175	93.38
423.398	70.38
423.621	86.38
423.843	82.38
424.066	84.38
424.288	82.38
424.511	84.38
424.733	83.38
424.956	78.38
425.178	83.38
425.401	78.38
425.623	79.38
425.846	82.38
426.068	84.38
426.291	90.38
426.513	96.38
426.735	74.38
426.958	82.38
427.18	92.38
427.402	109.38
427.625	84.38
427.847	88.38
428.069	75.38
428.292	86.38
428.514	85.38
428.736	82.38
428.958	102.38
429.181	96.38
429.403	75.38
429.625	76.38
429.847	83.38
430.069	90.38
430.292	84.38
430.514	76.38
430.736	80.38
430.958	92.38
431.18	85.38
431.402	86.38
431.624	100.38
431.846	89.38
432.068	78.38
432.29	90.38
432.512	92.38
432.734	88.38
432.956	85.38
433.178	89.38
433.4	83.38
433.622	106.38
433.844	76.38
434.066	96.38
434.287	83.38
434.509	71.38
434.731	90.38
434.953	89.38
435.175	78.38
435.397	84.38
435.618	90.38
435.84	82.38
436.062	90.38
436.284	89.38
436.505	76.38
436.727	85.38
436.949	74.38
437.17	88.38
437.392	80.38
437.614	82.38
437.835	100.38
438.057	83.38
438.278	75.38
438.5	84.38
438.721	82.38
438.943	77.38
439.165	76.38
439.386	108.38
439.608	86.38
439.829	88.38
440.05	78.38
440.272	79.38
440.493	92.38
440.715	84.38
440.936	75.38
441.158	86.38
441.379	91.38
441.6	98.38
441.822	84.38
442.043	84.38
442.264	92.38
442.486	98.38
442.707	71.38
442.928	92.38
443.149	81.38
443.371	98.38
443.592	83.38
443.813	103.38
444.034	78.38
444.255	86.38
444.476	79.38
444.698	102.38
444.919	79.38
445.14	162.38
445.361	105.38
445.582	81.38
445.803	84.38
446.024	79.38
446.245	82.38
446.466	77.38
446.687	84.38
446.908	87.38
447.129	88.38
447.35	82.38
447.571	86.38
447.792	81.38
448.013	84.38
448.234	85.38
448.455	89.38
448.675	72.38
448.896	79.38
449.117	84.38
449.338	82.38
449.559	95.38
449.779	90.38
450	88.38
450.221	79.38
450.442	76.38
450.662	84.38
450.883	79.38
451.104	60.38
451.324	72.38
451.545	82.38
451.766	79.38
451.986	78.38
452.207	86.38
452.428	83.38
452.648	85.38
452.869	85.38
453.089	84.38
453.31	84.38
453.53	63.38
453.751	92.38
453.971	74.38
454.192	80.38
454.412	75.38
454.633	69.38
454.853	77.38
455.073	86.38
455.294	87.38
455.514	91.38
455.734	64.38
455.955	76.38
456.175	80.38
456.395	89.38
456.616	80.38
456.836	83.38
457.056	76.38
457.276	97.38
457.497	84.38
457.717	91.38
457.937	86.38
458.157	76.38
458.377	78.38
458.598	59.38
458.818	79.38
459.038	75.38
459.258	72.38
459.478	86.38
459.698	109.38
459.918	74.38
460.138	84.38
460.358	86.38
460.578	79.38
460.798	74.38
461.018	86.38
461.238	82.38
461.458	84.38
461.678	89.38
461.898	66.38
462.118	75.38
462.338	82.38
462.558	92.38
462.777	90.38
462.997	88.38
463.217	87.38
463.437	88.38
463.657	92.38
463.876	85.38
464.096	92.38
464.316	88.38
464.536	81.38
464.755	89.38
464.975	78.38
465.195	92.38
465.414	77.38
465.634	76.38
465.854	86.38
466.073	75.38
466.293	88.38
466.512	80.38
466.732	89.38
466.951	91.38
467.171	76.38
467.391	92.38
467.61	98.38
467.829	74.38
468.049	101.38
468.268	86.38
468.488	86.38
468.707	76.38
468.927	84.38
469.146	81.38
469.365	81.38
469.585	91.38
469.804	75.38
470.023	92.38
470.243	73.38
470.462	70.38
470.681	72.38
470.901	102.38
471.12	92.38
471.339	77.38
471.558	86.38
471.777	88.38
471.997	96.38
472.216	94.38
472.435	75.38
472.654	87.38
472.873	90.38
473.092	84.38
473.311	89.38
473.53	91.38
473.749	89.38
473.968	79.38
474.187	87.38
474.406	73.38
474.625	82.38
474.844	91.38
475.063	84.38
475.282	84.38
475.501	84.38
475.72	89.38
475.939	69.38
476.158	87.38
476.377	88.38
476.596	69.38
476.814	87.38
477.033	87.38
477.252	92.38
477.471	72.38
477.69	89.38
477.908	90.38
478.127	79.38
478.346	82.38
478.564	78.38
478.783	89.38
479.002	88.38
479.22	82.38
479.439	83.38
479.658	86.38
479.876	75.38
480.095	89.38
480.313	73.38
480.532	80.38
480.751	85.38
480.969	80.38
481.188	84.38
481.406	81.38
481.624	86.38
481.843	74.38
482.061	88.38
482.28	86.38
482.498	94.38
482.717	79.38
482.935	78.38
483.153	86.38
483.372	96.38
483.59	84.38
483.808	97.38
484.027	84.38
484.245	94.38
484.463	84.38
484.681	97.38
484.9	90.38
485.118	88.38
485.336	81.38
485.554	81.38
485.772	76.38
485.99	85.38
486.209	84.38
486.427	89.38
486.645	88.38
486.863	81.38
487.081	82.38
487.299	87.38
487.517	80.38
487.735	101.38
487.953	97.38
488.171	82.38
488.389	97.38
488.607	96.38
488.825	76.38
489.043	74.38
489.261	79.38
489.479	78.38
489.696	100.38
489.914	78.38
490.132	85.38
490.35	96.38
490.568	84.38
490.786	88.38
491.003	87.38
491.221	92.38
491.439	85.38
491.657	98.38
491.874	99.38
492.092	89.38
492.31	112.38
492.527	79.38
492.745	90.38
492.963	101.38
493.18	80.38
493.398	91.38
493.615	84.38
493.833	78.38
494.05	88.38
494.268	96.38
494.485	88.38
494.703	80.38
494.92	79.38
495.138	68.38
495.355	90.38
495.573	78.38
495.79	85.38
496.008	97.38
496.225	92.38
496.442	85.38
496.66	83.38
496.877	90.38
497.094	91.38
497.312	98.38
497.529	85.38
497.746	82.38
497.963	97.38
498.181	84.38
498.398	70.38
498.615	89.38
498.832	92.38
499.049	75.38
499.267	93.38
499.484	104.38
499.701	89.38
499.918	82.38
500.135	83.38
500.352	89.38
500.569	107.38
500.786	127.38
501.003	82.38
501.22	86.38
501.437	88.38
501.654	77.38
501.871	82.38
502.088	88.38
502.305	85.38
502.522	78.38
502.739	75.38
502.956	98.38
503.172	89.38
503.389	86.38
503.606	77.38
503.823	90.38
504.04	97.38
504.256	73.38
504.473	75.38
504.69	89.38
504.907	92.38
505.123	77.38
505.34	84.38
505.557	88.38
505.773	95.38
505.99	94.38
506.207	91.38
506.423	80.38
506.64	92.38
506.856	85.38
507.073	85.38
507.289	80.38
507.506	77.38
507.722	82.38
507.939	103.38
508.155	72.38
508.372	93.38
508.588	90.38
508.805	98.38
509.021	84.38
509.238	92.38
509.454	75.38
509.67	87.38
509.887	93.38
510.103	97.38
510.319	94.38
510.536	95.38
510.752	80.38
510.968	89.38
511.184	101.38
511.401	86.38
511.617	92.38
511.833	86.38
512.049	84.38
512.265	86.38
512.481	76.38
512.698	89.38
512.914	82.38
513.13	96.38
513.346	89.38
513.562	88.38
513.778	84.38
513.994	85.38
514.21	88.38
514.426	90.38
514.642	71.38
514.858	93.38
515.074	88.38
515.29	97.38
515.506	84.38
515.721	98.38
515.937	89.38
516.153	103.38
516.369	84.38
516.585	79.38
516.801	93.38
517.016	88.38
517.232	80.38
517.448	87.38
517.664	82.38
517.879	93.38
518.095	82.38
518.311	103.38
518.527	84.38
518.742	103.38
518.958	84.38
519.173	92.38
519.389	97.38
519.605	90.38
519.82	86.38
520.036	91.38
520.251	105.38
520.467	96.38
520.682	95.38
520.898	96.38
521.113	82.38
521.329	84.38
521.544	82.38
521.76	81.38
521.975	82.38
522.19	77.38
522.406	88.38
522.621	92.38
522.836	83.38
523.052	98.38
523.267	100.38
523.482	89.38
523.698	80.38
523.913	74.38
524.128	90.38
524.343	87.38
524.559	91.38
524.774	86.38
524.989	88.38
525.204	93.38
525.419	74.38
525.634	81.38
525.849	74.38
526.064	95.38
526.28	76.38
526.495	84.38
526.71	81.38
526.925	100.38
527.14	85.38
527.355	91.38
527.57	83.38
527.785	77.38
527.999	88.38
528.214	91.38
528.429	87.38
528.644	92.38
528.859	88.38
529.074	76.38
529.289	90.38
529.503	92.38
529.718	82.38
529.933	75.38
530.148	71.38
530.363	80.38
530.577	90.38
530.792	90.38
531.007	71.38
531.221	84.38
531.436	82.38
531.651	94.38
531.865	88.38
532.08	86.38
532.295	87.38
532.509	95.38
532.724	100.38
532.938	90.38
533.153	76.38
533.367	90.38
533.582	84.38
533.796	81.38
534.011	99.38
534.225	103.38
534.44	99.38
534.654	100.38
534.868	105.38
535.083	92.38
535.297	93.38
535.511	100.38
535.726	84.38
535.94	88.38
536.154	93.38
536.369	98.38
536.583	88.38
536.797	95.38
537.011	76.38
537.225	91.38
537.44	90.38
537.654	77.38
537.868	84.38
538.082	84.38
538.296	93.38
538.51	94.38
538.724	87.38
538.938	88.38
539.153	83.38
539.367	88.38
539.581	84.38
539.795	78.38
540.009	71.38
540.222	78.38
540.436	75.38
540.65	76.38
540.864	95.38
541.078	75.38
541.292	96.38
541.506	83.38
541.72	86.38
541.934	84.38
542.147	95.38
542.361	88.38
542.575	94.38
542.789	77.38
543.002	82.38
543.216	84.38
543.43	90.38
543.644	84.38
543.857	84.38
544.071	76.38
544.285	94.38
544.498	91.38
544.712	88.38
544.925	75.38
545.139	77.38
545.352	81.38
545.566	75.38
545.779	80.38
545.993	86.38
546.206	84.38
546.42	86.38
546.633	87.38
546.847	86.38
547.06	85.38
547.274	83.38
547.487	81.38
547.7	91.38
547.914	88.38
548.127	86.38
548.34	84.38
548.554	78.38
548.767	84.38
548.98	80.38
549.193	81.38
549.407	86.38
549.62	82.38
549.833	85.38
550.046	86.38
550.259	86.38
550.473	86.38
550.686	88.38
550.899	90.38
551.112	89.38
551.325	77.38
551.538	82.38
551.751	85.38
551.964	73.38
552.177	84.38
552.39	84.38
552.603	85.38
552.816	89.38
553.029	76.38
553.242	90.38
553.455	94.38
553.667	104.38
553.88	86.38
554.093	102.38
554.306	81.38
554.519	94.38
554.732	93.38
554.944	88.38
555.157	99.38
555.37	102.38
555.583	82.38
555.795	73.38
556.008	77.38
556.221	84.38
556.433	84.38
556.646	102.38
556.859	68.38
557.071	76.38
557.284	69.38
557.496	96.38
557.709	93.38
557.921	90.38
558.134	78.38
558.346	84.38
558.559	70.38
558.771	93.38
558.984	92.38
559.196	97.38
559.409	97.38
559.621	82.38
559.833	83.38
560.046	94.38
560.258	86.38
560.47	96.38
560.683	81.38
560.895	92.38
561.107	73.38
561.32	100.38
561.532	76.38
561.744	94.38
561.956	82.38
562.168	82.38
562.381	72.38
562.593	89.38
562.805	92.38
563.017	74.38
563.229	84.38
563.441	92.38
563.653	79.38
563.865	87.38
564.077	84.38
564.289	89.38
564.501	74.38
564.713	94.38
564.925	81.38
565.137	80.38
565.349	84.38
565.561	90.38
565.773	85.38
565.985	84.38
566.197	85.38
566.408	83.38
566.62	92.38
566.832	87.38
567.044	83.38
567.255	76.38
567.467	84.38
567.679	86.38
567.891	86.38
568.102	78.38
568.314	77.38
568.526	93.38
568.737	104.38
568.949	89.38
569.161	97.38
569.372	77.38
569.584	71.38
569.795	90.38
570.007	89.38
570.218	86.38
570.43	92.38
570.641	90.38
570.853	84.38
571.064	86.38
571.276	84.38
571.487	82.38
571.698	96.38
571.91	79.38
572.121	98.38
572.333	76.38
572.544	84.38
572.755	88.38
572.966	79.38
573.178	90.38
573.389	90.38
573.6	97.38
573.811	94.38
574.023	89.38
574.234	101.38
574.445	92.38
574.656	91.38
574.867	99.38
575.078	98.38
575.289	78.38
575.501	74.38
575.712	73.38
575.923	78.38
576.134	87.38
576.345	81.38
576.556	86.38
576.767	85.38
576.978	100.38
577.188	90.38
577.399	88.38
577.61	80.38
577.821	77.38
578.032	90.38
578.243	100.38
578.454	93.38
578.665	103.38
578.875	86.38
579.086	85.38
579.297	84.38
579.508	95.38
579.718	96.38
579.929	85.38
580.14	86.38
580.35	116.38
580.561	103.38
580.772	104.38
580.982	94.38
581.193	97.38
581.403	109.38
581.614	98.38
581.825	99.38
582.035	65.38
582.246	93.38
582.456	85.38
582.667	84.38
582.877	86.38
583.087	87.38
583.298	84.38
583.508	101.38
583.719	84.38
583.929	92.38
584.139	91.38
584.35	103.38
584.56	85.38
584.77	86.38
584.981	91.38
585.191	86.38
585.401	79.38
585.611	93.38
585.821	84.38
586.032	81.38
586.242	83.38
586.452	93.38
586.662	92.38
586.872	92.38
587.082	78.38
587.292	89.38
587.502	100.38
587.713	85.38
587.923	85.38
588.133	94.38
588.343	94.38
588.553	107.38
588.762	116.38
588.972	218.38
589.182	550.38
589.392	304.38
589.602	228.38
589.812	450.38
590.022	177.38
590.232	96.38
590.441	86.38
590.651	79.38
590.861	75.38
591.071	94.38
591.281	89.38
591.49	68.38
591.7	66.38
591.91	89.38
592.119	84.38
592.329	86.38
592.539	87.38
592.748	94.38
592.958	88.38
593.167	84.38
593.377	70.38
593.587	82.38
593.796	76.38
594.006	82.38
594.215	101.38
594.424	97.38
594.634	80.38
594.843	99.38
595.053	88.38
595.262	93.38
595.472	73.38
595.681	88.38
595.89	82.38
596.1	82.38
596.309	92.38
596.518	87.38
596.727	84.38
596.937	92.38
597.146	76.38
597.355	91.38
597.564	83.38
597.774	98.38
597.983	89.38
598.192	88.38
598.401	89.38
598.61	95.38
598.819	92.38
599.028	72.38
599.237	86.38
599.446	80.38
599.655	83.38
599.864	97.38
600.073	79.38
600.282	82.38
600.491	88.38
600.7	89.38
600.909	74.38
601.118	86.38
601.327	85.38
601.536	84.38
601.745	78.38
601.953	77.38
602.162	86.38
602.371	90.38
602.58	86.38
602.789	82.38
602.997	83.38
603.206	86.38
603.415	77.38
603.623	87.38
603.832	90.38
604.041	96.38
604.249	85.38
604.458	101.38
604.666	78.38
604.875	83.38
605.084	85.38
605.292	94.38
605.501	84.38
605.709	83.38
605.918	87.38
606.126	85.38
606.334	83.38
606.543	75.38
606.751	94.38
606.96	86.38
607.168	88.38
607.376	98.38
607.585	90.38
607.793	108.38
608.001	90.38
608.21	83.38
608.418	76.38
608.626	88.38
608.834	86.38
609.043	86.38
609.251	78.38
609.459	102.38
609.667	95.38
609.875	90.38
610.083	85.38
610.291	88.38
610.499	84.38
610.707	85.38
610.916	87.38
611.124	101.38
611.332	88.38
611.54	85.38
611.748	107.38
611.955	97.38
612.163	79.38
612.371	90.38
612.579	88.38
612.787	84.38
612.995	89.38
613.203	102.38
613.411	88.38
613.618	92.38
613.826	84.38
614.034	87.38
614.242	80.38
614.449	88.38
614.657	78.38
614.865	90.38
615.072	89.38
615.28	92.38
615.488	83.38
615.695	82.38
615.903	83.38
616.111	90.38
616.318	89.38
616.526	83.38
616.733	90.38
616.941	84.38
617.148	88.38
617.356	89.38
617.563	75.38
617.771	94.38
617.978	79.38
618.185	85.38
618.393	72.38
618.6	82.38
618.807	92.38
619.015	84.38
619.222	92.38
619.429	94.38
619.637	86.38
619.844	85.38
620.051	77.38
620.258	90.38
620.466	83.38
620.673	75.38
620.88	76.38
621.087	89.38
621.294	81.38
621.501	79.38
621.708	88.38
621.915	80.38
622.122	89.38
622.329	86.38
622.536	63.38
622.743	91.38
622.95	75.38
623.157	90.38
623.364	84.38
623.571	87.38
623.778	76.38
623.985	100.38
624.192	83.38
624.399	88.38
624.606	96.38
624.812	95.38
625.019	99.38
625.226	86.38
625.433	85.38
625.639	82.38
625.846	87.38
626.053	74.38
626.259	81.38
626.466	89.38
626.673	85.38
626.879	89.38
627.086	78.38
627.293	84.38
627.499	82.38
627.706	76.38
627.912	87.38
628.119	85.38
628.325	78.38
628.532	72.38
628.738	77.38
628.945	87.38
629.151	78.38
629.357	80.38
629.564	78.38
629.77	93.38
629.976	85.38
630.183	81.38
630.389	85.38
630.595	84.38
630.802	86.38
631.008	85.38
631.214	82.38
631.42	72.38
631.627	88.38
631.833	84.38
632.039	64.38
632.245	82.38
632.451	84.38
632.657	72.38
632.863	81.38
633.069	85.38
633.275	91.38
633.481	90.38
633.688	93.38
633.893	93.38
634.099	82.38
634.305	82.38
634.511	91.38
634.717	85.38
634.923	85.38
635.129	98.38
635.335	76.38
635.541	84.38
635.747	78.38
635.952	81.38
636.158	92.38
636.364	96.38
636.57	70.38
636.775	81.38
636.981	99.38
637.187	93.38
637.392	99.38
637.598	95.38
637.804	75.38
638.009	75.38
638.215	69.38
638.421	90.38
638.626	77.38
638.832	93.38
639.037	91.38
639.243	85.38
639.448	84.38
639.654	92.38
639.859	87.38
640.065	90.38
640.27	97.38
640.475	75.38
640.681	68.38
640.886	85.38
641.091	84.38
641.297	74.38
641.502	79.38
641.707	78.38
641.913	85.38
642.118	80.38
642.323	84.38
642.528	90.38
642.733	93.38
642.939	78.38
643.144	83.38
643.349	86.38
643.554	86.38
643.759	72.38
643.964	93.38
644.169	96.38
644.374	74.38
644.579	85.38
644.784	82.38
644.989	86.38
645.194	81.38
645.399	89.38
645.604	85.38
645.809	117.38
646.014	96.38
646.219	99.38
646.423	80.38
646.628	86.38
646.833	89.38
647.038	81.38
647.243	87.38
647.447	72.38
647.652	84.38
647.857	85.38
648.062	86.38
648.266	87.38
648.471	76.38
648.676	90.38
648.88	85.38
649.085	83.38
649.289	65.38
649.494	68.38
649.698	76.38
649.903	90.38
650.107	92.38
650.312	72.38
650.516	81.38
650.721	86.38
650.925	87.38
651.13	92.38
651.334	71.38
651.539	86.38
651.743	81.38
651.947	67.38
652.152	89.38
652.356	84.38
652.56	90.38
652.764	75.38
652.969	95.38
653.173	94.38
653.377	80.38
653.581	80.38
653.785	80.38
653.99	85.38
654.194	89.38
654.398	85.38
654.602	88.38
654.806	88.38
655.01	84.38
655.214	91.38
655.418	78.38
655.622	89.38
655.826	90.38
656.03	75.38
656.234	70.38
656.438	87.38
656.642	79.38
656.846	75.38
657.049	86.38
657.253	88.38
657.457	72.38
657.661	80.38
657.865	89.38
658.068	92.38
658.272	62.38
658.476	93.38
658.68	83.38
658.883	77.38
659.087	76.38
659.291	62.38
659.494	79.38
659.698	93.38
659.901	86.38
660.105	75.38
660.309	75.38
660.512	87.38
660.716	78.38
660.919	85.38
661.123	90.38
661.326	94.38
661.53	100.38
661.733	87.38
661.936	100.38
662.14	78.38
662.343	76.38
662.546	84.38
662.75	90.38
662.953	89.38
663.156	80.38
663.36	90.38
663.563	79.38
663.766	75.38
663.969	92.38
664.173	80.38
664.376	92.38
664.579	81.38
664.782	78.38
664.985	84.38
665.188	80.38
665.391	68.38
665.594	76.38
665.797	81.38
666	74.38
666.203	72.38
666.406	90.38
666.609	89.38
666.812	69.38
667.015	92.38
667.218	92.38
667.421	81.38
667.624	80.38
667.827	83.38
668.03	95.38
668.232	68.38
668.435	78.38
668.638	74.38
668.841	79.38
669.043	72.38
669.246	91.38
669.449	92.38
669.651	86.38
669.854	78.38
670.057	90.38
670.259	78.38
670.462	76.38
670.665	85.38
670.867	76.38
671.07	74.38
671.272	86.38
671.475	90.38
671.677	78.38
671.88	78.38
672.082	73.38
672.284	80.38
672.487	84.38
672.689	91.38
672.892	79.38
