Data from KBr_1_HRD10591_00037.txt Node
Date: Mon Jan 19 13:11:20 EST 2026
User: Yrep
Spectrometer: HR+D1059
Trigger mode: 0
Integration Time (sec): 1.000000E-1
Scans to average: 1
Electric dark correction enabled: true
Nonlinearity correction enabled: false
Boxcar width: 0
XAxis mode: Wavelengths
Number of Pixels in Spectrum: 2048
>>>>>Begin Spectral Data<<<<<
223.165	-14.31
223.4	-14.31
223.635	-14.31
223.869	-33.31
224.104	-22.31
224.338	-17.31
224.573	-7.31
224.808	-21.31
225.042	-7.31
225.277	-6.31
225.511	-5.31
225.746	19.69
225.98	6.69
226.215	2.69
226.449	24.69
226.683	18.69
226.918	28.69
227.152	33.69
227.387	28.69
227.621	32.69
227.856	31.69
228.09	47.69
228.324	59.69
228.559	42.69
228.793	60.69
229.027	57.69
229.262	59.69
229.496	57.69
229.73	79.69
229.964	69.69
230.199	73.69
230.433	78.69
230.667	66.69
230.901	72.69
231.136	64.69
231.37	84.69
231.604	80.69
231.838	95.69
232.072	66.69
232.306	83.69
232.541	73.69
232.775	69.69
233.009	72.69
233.243	83.69
233.477	86.69
233.711	85.69
233.945	81.69
234.179	87.69
234.413	75.69
234.647	94.69
234.881	80.69
235.115	84.69
235.349	81.69
235.583	85.69
235.817	75.69
236.051	76.69
236.285	80.69
236.519	83.69
236.753	91.69
236.987	78.69
237.221	61.69
237.455	88.69
237.689	70.69
237.922	86.69
238.156	78.69
238.39	64.69
238.624	83.69
238.858	56.69
239.091	70.69
239.325	58.69
239.559	83.69
239.793	63.69
240.027	86.69
240.26	95.69
240.494	72.69
240.728	87.69
240.961	88.69
241.195	84.69
241.429	79.69
241.662	82.69
241.896	79.69
242.13	81.69
242.363	75.69
242.597	67.69
242.83	69.69
243.064	85.69
243.298	76.69
243.531	71.69
243.765	70.69
243.998	64.69
244.232	79.69
244.465	76.69
244.699	82.69
244.932	77.69
245.166	65.69
245.399	81.69
245.633	79.69
245.866	73.69
246.099	79.69
246.333	84.69
246.566	88.69
246.8	73.69
247.033	80.69
247.266	76.69
247.5	84.69
247.733	91.69
247.966	63.69
248.2	82.69
248.433	80.69
248.666	73.69
248.899	77.69
249.133	73.69
249.366	86.69
249.599	86.69
249.832	85.69
250.066	86.69
250.299	83.69
250.532	79.69
250.765	88.69
250.998	77.69
251.231	71.69
251.465	78.69
251.698	84.69
251.931	89.69
252.164	77.69
252.397	87.69
252.63	87.69
252.863	85.69
253.096	72.69
253.329	81.69
253.562	84.69
253.795	51.69
254.028	86.69
254.261	69.69
254.494	85.69
254.727	87.69
254.96	83.69
255.193	78.69
255.426	69.69
255.659	76.69
255.892	81.69
256.124	80.69
256.357	85.69
256.59	87.69
256.823	77.69
257.056	73.69
257.289	69.69
257.521	75.69
257.754	76.69
257.987	69.69
258.22	73.69
258.452	69.69
258.685	75.69
258.918	75.69
259.151	76.69
259.383	78.69
259.616	77.69
259.849	73.69
260.081	93.69
260.314	86.69
260.547	83.69
260.779	77.69
261.012	77.69
261.244	88.69
261.477	87.69
261.71	80.69
261.942	71.69
262.175	78.69
262.407	73.69
262.64	78.69
262.872	90.69
263.105	108.69
263.337	85.69
263.57	81.69
263.802	87.69
264.035	88.69
264.267	89.69
264.499	91.69
264.732	92.69
264.964	84.69
265.197	72.69
265.429	84.69
265.661	88.69
265.894	89.69
266.126	97.69
266.358	83.69
266.591	79.69
266.823	74.69
267.055	89.69
267.287	83.69
267.52	88.69
267.752	70.69
267.984	82.69
268.216	89.69
268.448	75.69
268.681	84.69
268.913	57.69
269.145	78.69
269.377	91.69
269.609	86.69
269.841	88.69
270.073	84.69
270.306	95.69
270.538	74.69
270.77	86.69
271.002	90.69
271.234	84.69
271.466	89.69
271.698	80.69
271.93	87.69
272.162	91.69
272.394	64.69
272.626	77.69
272.858	75.69
273.09	82.69
273.322	79.69
273.553	85.69
273.785	96.69
274.017	83.69
274.249	71.69
274.481	73.69
274.713	75.69
274.945	74.69
275.176	80.69
275.408	61.69
275.64	65.69
275.872	90.69
276.104	85.69
276.335	97.69
276.567	93.69
276.799	96.69
277.031	85.69
277.262	95.69
277.494	84.69
277.726	80.69
277.957	69.69
278.189	91.69
278.421	81.69
278.652	70.69
278.884	95.69
279.115	79.69
279.347	62.69
279.579	86.69
279.81	82.69
280.042	81.69
280.273	86.69
280.505	80.69
280.736	93.69
280.968	81.69
281.199	74.69
281.431	87.69
281.662	72.69
281.894	86.69
282.125	81.69
282.356	81.69
282.588	88.69
282.819	87.69
283.051	81.69
283.282	88.69
283.513	87.69
283.745	80.69
283.976	72.69
284.207	81.69
284.439	102.69
284.67	76.69
284.901	77.69
285.132	74.69
285.364	86.69
285.595	86.69
285.826	93.69
286.057	81.69
286.288	80.69
286.52	82.69
286.751	99.69
286.982	93.69
287.213	82.69
287.444	97.69
287.675	84.69
287.906	90.69
288.138	96.69
288.369	88.69
288.6	64.69
288.831	81.69
289.062	86.69
289.293	79.69
289.524	77.69
289.755	79.69
289.986	81.69
290.217	84.69
290.448	71.69
290.679	90.69
290.91	87.69
291.141	91.69
291.371	86.69
291.602	97.69
291.833	80.69
292.064	84.69
292.295	78.69
292.526	87.69
292.757	72.69
292.987	81.69
293.218	76.69
293.449	81.69
293.68	82.69
293.91	76.69
294.141	90.69
294.372	75.69
294.603	94.69
294.833	81.69
295.064	83.69
295.295	83.69
295.525	75.69
295.756	85.69
295.987	70.69
296.217	80.69
296.448	79.69
296.679	84.69
296.909	87.69
297.14	83.69
297.37	73.69
297.601	77.69
297.831	86.69
298.062	83.69
298.292	73.69
298.523	90.69
298.753	77.69
298.984	88.69
299.214	83.69
299.445	72.69
299.675	78.69
299.905	93.69
300.136	79.69
300.366	75.69
300.597	83.69
300.827	91.69
301.057	89.69
301.288	89.69
301.518	90.69
301.748	95.69
301.979	92.69
302.209	71.69
302.439	81.69
302.669	78.69
302.9	92.69
303.13	90.69
303.36	85.69
303.59	98.69
303.82	65.69
304.051	66.69
304.281	88.69
304.511	96.69
304.741	95.69
304.971	93.69
305.201	100.69
305.431	96.69
305.661	71.69
305.891	84.69
306.121	85.69
306.352	99.69
306.582	76.69
306.812	80.69
307.042	89.69
307.272	76.69
307.502	82.69
307.731	75.69
307.961	75.69
308.191	89.69
308.421	76.69
308.651	73.69
308.881	96.69
309.111	73.69
309.341	87.69
309.571	79.69
309.8	84.69
310.03	80.69
310.26	84.69
310.49	82.69
310.72	85.69
310.949	77.69
311.179	83.69
311.409	85.69
311.639	88.69
311.868	80.69
312.098	88.69
312.328	69.69
312.557	81.69
312.787	80.69
313.017	88.69
313.246	81.69
313.476	89.69
313.706	75.69
313.935	91.69
314.165	76.69
314.394	96.69
314.624	77.69
314.853	90.69
315.083	83.69
315.312	86.69
315.542	79.69
315.771	81.69
316.001	91.69
316.23	73.69
316.46	93.69
316.689	77.69
316.919	81.69
317.148	85.69
317.377	80.69
317.607	72.69
317.836	83.69
318.065	77.69
318.295	74.69
318.524	77.69
318.753	82.69
318.983	75.69
319.212	89.69
319.441	93.69
319.67	87.69
319.9	83.69
320.129	91.69
320.358	86.69
320.587	80.69
320.816	76.69
321.046	83.69
321.275	91.69
321.504	68.69
321.733	86.69
321.962	85.69
322.191	77.69
322.42	73.69
322.649	91.69
322.878	81.69
323.108	86.69
323.337	78.69
323.566	79.69
323.795	90.69
324.024	69.69
324.253	68.69
324.482	77.69
324.71	84.69
324.939	91.69
325.168	82.69
325.397	79.69
325.626	88.69
325.855	87.69
326.084	89.69
326.313	65.69
326.542	85.69
326.77	85.69
326.999	71.69
327.228	84.69
327.457	69.69
327.686	90.69
327.914	75.69
328.143	75.69
328.372	78.69
328.6	88.69
328.829	87.69
329.058	83.69
329.287	85.69
329.515	106.69
329.744	89.69
329.972	73.69
330.201	88.69
330.43	70.69
330.658	83.69
330.887	88.69
331.115	72.69
331.344	79.69
331.572	88.69
331.801	87.69
332.03	89.69
332.258	67.69
332.486	85.69
332.715	92.69
332.943	72.69
333.172	85.69
333.4	83.69
333.629	86.69
333.857	99.69
334.085	90.69
334.314	89.69
334.542	87.69
334.771	91.69
334.999	78.69
335.227	96.69
335.455	89.69
335.684	69.69
335.912	80.69
336.14	77.69
336.369	82.69
336.597	83.69
336.825	87.69
337.053	74.69
337.281	77.69
337.51	69.69
337.738	85.69
337.966	63.69
338.194	78.69
338.422	93.69
338.65	68.69
338.878	76.69
339.106	88.69
339.334	94.69
339.562	81.69
339.79	88.69
340.018	87.69
340.246	93.69
340.474	79.69
340.702	80.69
340.93	90.69
341.158	79.69
341.386	82.69
341.614	87.69
341.842	91.69
342.07	73.69
342.298	87.69
342.526	77.69
342.754	78.69
342.981	83.69
343.209	94.69
343.437	100.69
343.665	90.69
343.893	92.69
344.12	75.69
344.348	84.69
344.576	79.69
344.804	73.69
345.031	68.69
345.259	71.69
345.487	86.69
345.714	95.69
345.942	81.69
346.17	76.69
346.397	84.69
346.625	69.69
346.853	83.69
347.08	77.69
347.308	85.69
347.535	86.69
347.763	83.69
347.99	83.69
348.218	95.69
348.445	86.69
348.673	67.69
348.9	70.69
349.128	71.69
349.355	68.69
349.583	66.69
349.81	77.69
350.037	70.69
350.265	88.69
350.492	80.69
350.72	63.69
350.947	79.69
351.174	79.69
351.402	76.69
351.629	91.69
351.856	72.69
352.083	81.69
352.311	74.69
352.538	79.69
352.765	78.69
352.992	92.69
353.22	87.69
353.447	81.69
353.674	77.69
353.901	85.69
354.128	80.69
354.355	93.69
354.583	87.69
354.81	93.69
355.037	83.69
355.264	79.69
355.491	72.69
355.718	101.69
355.945	83.69
356.172	91.69
356.399	82.69
356.626	91.69
356.853	86.69
357.08	104.69
357.307	66.69
357.534	65.69
357.761	70.69
357.988	72.69
358.215	88.69
358.441	85.69
358.668	87.69
358.895	80.69
359.122	85.69
359.349	84.69
359.576	75.69
359.802	76.69
360.029	84.69
360.256	86.69
360.483	85.69
360.709	71.69
360.936	92.69
361.163	85.69
361.39	67.69
361.616	72.69
361.843	90.69
362.07	82.69
362.296	84.69
362.523	71.69
362.749	73.69
362.976	90.69
363.203	87.69
363.429	91.69
363.656	85.69
363.882	72.69
364.109	87.69
364.335	91.69
364.562	101.69
364.788	84.69
365.015	69.69
365.241	74.69
365.468	84.69
365.694	81.69
365.92	85.69
366.147	89.69
366.373	85.69
366.599	75.69
366.826	85.69
367.052	69.69
367.278	84.69
367.505	73.69
367.731	84.69
367.957	75.69
368.184	88.69
368.41	87.69
368.636	71.69
368.862	79.69
369.089	49.69
369.315	80.69
369.541	60.69
369.767	81.69
369.993	92.69
370.219	83.69
370.445	89.69
370.672	94.69
370.898	82.69
371.124	80.69
371.35	83.69
371.576	79.69
371.802	85.69
372.028	87.69
372.254	77.69
372.48	76.69
372.706	93.69
372.932	78.69
373.158	87.69
373.384	85.69
373.61	77.69
373.835	84.69
374.061	70.69
374.287	79.69
374.513	86.69
374.739	88.69
374.965	74.69
375.191	79.69
375.416	90.69
375.642	97.69
375.868	86.69
376.094	71.69
376.319	69.69
376.545	71.69
376.771	78.69
376.997	76.69
377.222	77.69
377.448	85.69
377.674	88.69
377.899	92.69
378.125	81.69
378.35	93.69
378.576	77.69
378.802	94.69
379.027	91.69
379.253	95.69
379.478	80.69
379.704	75.69
379.929	83.69
380.155	86.69
380.38	72.69
380.606	71.69
380.831	74.69
381.057	83.69
381.282	77.69
381.507	89.69
381.733	51.69
381.958	88.69
382.184	84.69
382.409	90.69
382.634	80.69
382.86	84.69
383.085	79.69
383.31	92.69
383.535	73.69
383.761	75.69
383.986	84.69
384.211	90.69
384.436	78.69
384.662	77.69
384.887	77.69
385.112	79.69
385.337	79.69
385.562	75.69
385.787	74.69
386.013	68.69
386.238	88.69
386.463	89.69
386.688	93.69
386.913	80.69
387.138	77.69
387.363	75.69
387.588	89.69
387.813	89.69
388.038	81.69
388.263	88.69
388.488	96.69
388.713	72.69
388.938	76.69
389.163	91.69
389.387	63.69
389.612	69.69
389.837	55.69
390.062	77.69
390.287	81.69
390.512	78.69
390.736	68.69
390.961	83.69
391.186	77.69
391.411	87.69
391.636	78.69
391.86	70.69
392.085	76.69
392.31	73.69
392.534	79.69
392.759	90.69
392.984	78.69
393.208	88.69
393.433	81.69
393.658	81.69
393.882	63.69
394.107	76.69
394.331	83.69
394.556	75.69
394.78	77.69
395.005	77.69
395.229	78.69
395.454	85.69
395.678	81.69
395.903	76.69
396.127	80.69
396.352	90.69
396.576	84.69
396.801	72.69
397.025	74.69
397.249	80.69
397.474	71.69
397.698	89.69
397.922	80.69
398.147	80.69
398.371	66.69
398.595	83.69
398.82	77.69
399.044	88.69
399.268	73.69
399.492	73.69
399.717	87.69
399.941	80.69
400.165	72.69
400.389	84.69
400.613	75.69
400.837	72.69
401.062	87.69
401.286	88.69
401.51	79.69
401.734	67.69
401.958	69.69
402.182	91.69
402.406	90.69
402.63	79.69
402.854	75.69
403.078	83.69
403.302	71.69
403.526	75.69
403.75	76.69
403.974	63.69
404.198	89.69
404.422	82.69
404.645	87.69
404.869	84.69
405.093	89.69
405.317	71.69
405.541	67.69
405.765	80.69
405.988	64.69
406.212	69.69
406.436	83.69
406.66	84.69
406.883	75.69
407.107	80.69
407.331	74.69
407.555	79.69
407.778	75.69
408.002	71.69
408.226	61.69
408.449	85.69
408.673	71.69
408.896	89.69
409.12	71.69
409.344	80.69
409.567	83.69
409.791	89.69
410.014	76.69
410.238	72.69
410.461	83.69
410.685	88.69
410.908	72.69
411.132	89.69
411.355	91.69
411.578	83.69
411.802	73.69
412.025	76.69
412.249	90.69
412.472	82.69
412.695	72.69
412.919	87.69
413.142	78.69
413.365	84.69
413.589	93.69
413.812	75.69
414.035	68.69
414.258	73.69
414.482	84.69
414.705	89.69
414.928	70.69
415.151	76.69
415.374	75.69
415.597	67.69
415.821	83.69
416.044	82.69
416.267	74.69
416.49	92.69
416.713	71.69
416.936	83.69
417.159	78.69
417.382	81.69
417.605	76.69
417.828	75.69
418.051	77.69
418.274	78.69
418.497	83.69
418.72	75.69
418.943	78.69
419.166	85.69
419.389	82.69
419.611	77.69
419.834	77.69
420.057	75.69
420.28	73.69
420.503	75.69
420.726	72.69
420.948	76.69
421.171	82.69
421.394	87.69
421.617	85.69
421.839	88.69
422.062	74.69
422.285	71.69
422.507	59.69
422.73	87.69
422.953	85.69
423.175	76.69
423.398	77.69
423.621	78.69
423.843	81.69
424.066	88.69
424.288	66.69
424.511	67.69
424.733	93.69
424.956	81.69
425.178	80.69
425.401	77.69
425.623	81.69
425.846	78.69
426.068	61.69
426.291	75.69
426.513	89.69
426.735	97.69
426.958	84.69
427.18	88.69
427.402	62.69
427.625	88.69
427.847	74.69
428.069	76.69
428.292	80.69
428.514	84.69
428.736	80.69
428.958	87.69
429.181	78.69
429.403	80.69
429.625	80.69
429.847	75.69
430.069	72.69
430.292	100.69
430.514	72.69
430.736	86.69
430.958	85.69
431.18	72.69
431.402	69.69
431.624	91.69
431.846	87.69
432.068	91.69
432.29	78.69
432.512	83.69
432.734	75.69
432.956	71.69
433.178	109.69
433.4	87.69
433.622	80.69
433.844	79.69
434.066	68.69
434.287	80.69
434.509	76.69
434.731	91.69
434.953	95.69
435.175	84.69
435.397	73.69
435.618	79.69
435.84	79.69
436.062	79.69
436.284	82.69
436.505	77.69
436.727	70.69
436.949	87.69
437.17	82.69
437.392	80.69
437.614	73.69
437.835	84.69
438.057	66.69
438.278	89.69
438.5	80.69
438.721	84.69
438.943	74.69
439.165	81.69
439.386	79.69
439.608	86.69
439.829	78.69
440.05	90.69
440.272	71.69
440.493	78.69
440.715	76.69
440.936	91.69
441.158	89.69
441.379	86.69
441.6	68.69
441.822	71.69
442.043	69.69
442.264	83.69
442.486	73.69
442.707	76.69
442.928	79.69
443.149	89.69
443.371	83.69
443.592	83.69
443.813	87.69
444.034	81.69
444.255	83.69
444.476	78.69
444.698	82.69
444.919	71.69
445.14	153.69
445.361	125.69
445.582	85.69
445.803	84.69
446.024	70.69
446.245	74.69
446.466	73.69
446.687	76.69
446.908	83.69
447.129	91.69
447.35	86.69
447.571	86.69
447.792	85.69
448.013	71.69
448.234	86.69
448.455	92.69
448.675	73.69
448.896	81.69
449.117	80.69
449.338	67.69
449.559	83.69
449.779	87.69
450	71.69
450.221	64.69
450.442	77.69
450.662	77.69
450.883	91.69
451.104	70.69
451.324	69.69
451.545	79.69
451.766	88.69
451.986	74.69
452.207	67.69
452.428	57.69
452.648	75.69
452.869	89.69
453.089	77.69
453.31	76.69
453.53	93.69
453.751	75.69
453.971	77.69
454.192	85.69
454.412	73.69
454.633	74.69
454.853	88.69
455.073	80.69
455.294	81.69
455.514	72.69
455.734	72.69
455.955	80.69
456.175	79.69
456.395	76.69
456.616	79.69
456.836	75.69
457.056	75.69
457.276	79.69
457.497	78.69
457.717	78.69
457.937	57.69
458.157	73.69
458.377	80.69
458.598	79.69
458.818	79.69
459.038	87.69
459.258	79.69
459.478	79.69
459.698	77.69
459.918	81.69
460.138	76.69
460.358	79.69
460.578	78.69
460.798	77.69
461.018	77.69
461.238	72.69
461.458	76.69
461.678	79.69
461.898	68.69
462.118	76.69
462.338	62.69
462.558	89.69
462.777	86.69
462.997	89.69
463.217	73.69
463.437	78.69
463.657	65.69
463.876	69.69
464.096	84.69
464.316	73.69
464.536	102.69
464.755	80.69
464.975	77.69
465.195	89.69
465.414	80.69
465.634	80.69
465.854	73.69
466.073	79.69
466.293	85.69
466.512	91.69
466.732	78.69
466.951	85.69
467.171	81.69
467.391	72.69
467.61	78.69
467.829	81.69
468.049	78.69
468.268	90.69
468.488	83.69
468.707	80.69
468.927	79.69
469.146	79.69
469.365	70.69
469.585	81.69
469.804	66.69
470.023	81.69
470.243	85.69
470.462	79.69
470.681	69.69
470.901	91.69
471.12	79.69
471.339	97.69
471.558	78.69
471.777	69.69
471.997	75.69
472.216	87.69
472.435	81.69
472.654	83.69
472.873	91.69
473.092	97.69
473.311	92.69
473.53	73.69
473.749	76.69
473.968	90.69
474.187	73.69
474.406	87.69
474.625	104.69
474.844	83.69
475.063	85.69
475.282	88.69
475.501	80.69
475.72	73.69
475.939	90.69
476.158	76.69
476.377	86.69
476.596	75.69
476.814	81.69
477.033	81.69
477.252	73.69
477.471	96.69
477.69	74.69
477.908	75.69
478.127	70.69
478.346	85.69
478.564	87.69
478.783	81.69
479.002	78.69
479.22	80.69
479.439	75.69
479.658	72.69
479.876	78.69
480.095	89.69
480.313	79.69
480.532	84.69
480.751	87.69
480.969	91.69
481.188	84.69
481.406	82.69
481.624	79.69
481.843	74.69
482.061	77.69
482.28	80.69
482.498	94.69
482.717	85.69
482.935	87.69
483.153	88.69
483.372	80.69
483.59	79.69
483.808	84.69
484.027	86.69
484.245	83.69
484.463	71.69
484.681	79.69
484.9	101.69
485.118	77.69
485.336	69.69
485.554	85.69
485.772	84.69
485.99	100.69
486.209	85.69
486.427	95.69
486.645	84.69
486.863	88.69
487.081	86.69
487.299	84.69
487.517	71.69
487.735	80.69
487.953	78.69
488.171	83.69
488.389	78.69
488.607	82.69
488.825	72.69
489.043	87.69
489.261	84.69
489.479	80.69
489.696	83.69
489.914	77.69
490.132	105.69
490.35	99.69
490.568	73.69
490.786	98.69
491.003	90.69
491.221	82.69
491.439	94.69
491.657	88.69
491.874	87.69
492.092	77.69
492.31	73.69
492.527	84.69
492.745	79.69
492.963	88.69
493.18	88.69
493.398	78.69
493.615	96.69
493.833	72.69
494.05	80.69
494.268	90.69
494.485	85.69
494.703	83.69
494.92	92.69
495.138	90.69
495.355	75.69
495.573	90.69
495.79	80.69
496.008	73.69
496.225	89.69
496.442	92.69
496.66	79.69
496.877	86.69
497.094	85.69
497.312	91.69
497.529	96.69
497.746	84.69
497.963	85.69
498.181	76.69
498.398	78.69
498.615	78.69
498.832	80.69
499.049	92.69
499.267	89.69
499.484	93.69
499.701	109.69
499.918	89.69
500.135	75.69
500.352	77.69
500.569	82.69
500.786	89.69
501.003	79.69
501.22	81.69
501.437	81.69
501.654	80.69
501.871	97.69
502.088	70.69
502.305	72.69
502.522	74.69
502.739	79.69
502.956	89.69
503.172	79.69
503.389	73.69
503.606	81.69
503.823	75.69
504.04	89.69
504.256	78.69
504.473	79.69
504.69	76.69
504.907	83.69
505.123	76.69
505.34	89.69
505.557	86.69
505.773	72.69
505.99	83.69
506.207	82.69
506.423	80.69
506.64	82.69
506.856	79.69
507.073	78.69
507.289	87.69
507.506	78.69
507.722	85.69
507.939	84.69
508.155	89.69
508.372	99.69
508.588	93.69
508.805	84.69
509.021	77.69
509.238	68.69
509.454	78.69
509.67	93.69
509.887	80.69
510.103	78.69
510.319	92.69
510.536	85.69
510.752	81.69
510.968	102.69
511.184	87.69
511.401	80.69
511.617	87.69
511.833	93.69
512.049	85.69
512.265	83.69
512.481	82.69
512.698	92.69
512.914	84.69
513.13	80.69
513.346	67.69
513.562	79.69
513.778	87.69
513.994	83.69
514.21	89.69
514.426	87.69
514.642	81.69
514.858	78.69
515.074	88.69
515.29	93.69
515.506	84.69
515.721	87.69
515.937	88.69
516.153	93.69
516.369	87.69
516.585	80.69
516.801	76.69
517.016	86.69
517.232	70.69
517.448	84.69
517.664	71.69
517.879	88.69
518.095	83.69
518.311	101.69
518.527	79.69
518.742	80.69
518.958	93.69
519.173	87.69
519.389	72.69
519.605	77.69
519.82	83.69
520.036	89.69
520.251	75.69
520.467	87.69
520.682	89.69
520.898	74.69
521.113	88.69
521.329	89.69
521.544	79.69
521.76	77.69
521.975	80.69
522.19	84.69
522.406	76.69
522.621	87.69
522.836	77.69
523.052	83.69
523.267	81.69
523.482	84.69
523.698	87.69
523.913	79.69
524.128	82.69
524.343	85.69
524.559	76.69
524.774	87.69
524.989	59.69
525.204	80.69
525.419	85.69
525.634	89.69
525.849	80.69
526.064	86.69
526.28	94.69
526.495	108.69
526.71	105.69
526.925	90.69
527.14	69.69
527.355	88.69
527.57	72.69
527.785	85.69
527.999	78.69
528.214	84.69
528.429	79.69
528.644	86.69
528.859	71.69
529.074	72.69
529.289	87.69
529.503	85.69
529.718	77.69
529.933	92.69
530.148	85.69
530.363	77.69
530.577	86.69
530.792	74.69
531.007	96.69
531.221	86.69
531.436	88.69
531.651	101.69
531.865	79.69
532.08	85.69
532.295	78.69
532.509	78.69
532.724	75.69
532.938	64.69
533.153	83.69
533.367	80.69
533.582	79.69
533.796	102.69
534.011	101.69
534.225	94.69
534.44	81.69
534.654	84.69
534.868	76.69
535.083	87.69
535.297	75.69
535.511	85.69
535.726	83.69
535.94	87.69
536.154	84.69
536.369	94.69
536.583	78.69
536.797	78.69
537.011	96.69
537.225	86.69
537.44	77.69
537.654	87.69
537.868	96.69
538.082	88.69
538.296	79.69
538.51	91.69
538.724	76.69
538.938	103.69
539.153	79.69
539.367	83.69
539.581	89.69
539.795	86.69
540.009	73.69
540.222	82.69
540.436	102.69
540.65	76.69
540.864	76.69
541.078	71.69
541.292	80.69
541.506	73.69
541.72	85.69
541.934	89.69
542.147	80.69
542.361	86.69
542.575	83.69
542.789	77.69
543.002	77.69
543.216	93.69
543.43	73.69
543.644	85.69
543.857	90.69
544.071	72.69
544.285	84.69
544.498	80.69
544.712	81.69
544.925	75.69
545.139	74.69
545.352	85.69
545.566	79.69
545.779	78.69
545.993	85.69
546.206	87.69
546.42	87.69
546.633	102.69
546.847	90.69
547.06	72.69
547.274	86.69
547.487	77.69
547.7	80.69
547.914	77.69
548.127	63.69
548.34	59.69
548.554	69.69
548.767	88.69
548.98	81.69
549.193	68.69
549.407	77.69
549.62	75.69
549.833	74.69
550.046	77.69
550.259	89.69
550.473	86.69
550.686	88.69
550.899	91.69
551.112	97.69
551.325	92.69
551.538	84.69
551.751	77.69
551.964	73.69
552.177	76.69
552.39	88.69
552.603	88.69
552.816	93.69
553.029	93.69
553.242	88.69
553.455	89.69
553.667	81.69
553.88	86.69
554.093	76.69
554.306	79.69
554.519	88.69
554.732	90.69
554.944	105.69
555.157	87.69
555.37	79.69
555.583	80.69
555.795	75.69
556.008	92.69
556.221	94.69
556.433	93.69
556.646	85.69
556.859	78.69
557.071	69.69
557.284	78.69
557.496	84.69
557.709	88.69
557.921	76.69
558.134	83.69
558.346	83.69
558.559	87.69
558.771	70.69
558.984	75.69
559.196	91.69
559.409	86.69
559.621	80.69
559.833	80.69
560.046	76.69
560.258	81.69
560.47	90.69
560.683	77.69
560.895	80.69
561.107	75.69
561.32	91.69
561.532	94.69
561.744	82.69
561.956	81.69
562.168	76.69
562.381	90.69
562.593	87.69
562.805	85.69
563.017	72.69
563.229	75.69
563.441	88.69
563.653	79.69
563.865	109.69
564.077	87.69
564.289	86.69
564.501	79.69
564.713	89.69
564.925	77.69
565.137	88.69
565.349	73.69
565.561	88.69
565.773	99.69
565.985	85.69
566.197	91.69
566.408	89.69
566.62	85.69
566.832	80.69
567.044	89.69
567.255	83.69
567.467	101.69
567.679	88.69
567.891	73.69
568.102	85.69
568.314	76.69
568.526	69.69
568.737	81.69
568.949	91.69
569.161	75.69
569.372	84.69
569.584	89.69
569.795	91.69
570.007	79.69
570.218	84.69
570.43	77.69
570.641	71.69
570.853	87.69
571.064	96.69
571.276	72.69
571.487	86.69
571.698	85.69
571.91	68.69
572.121	79.69
572.333	92.69
572.544	84.69
572.755	74.69
572.966	81.69
573.178	75.69
573.389	84.69
573.6	69.69
573.811	88.69
574.023	81.69
574.234	84.69
574.445	86.69
574.656	92.69
574.867	86.69
575.078	79.69
575.289	81.69
575.501	99.69
575.712	83.69
575.923	86.69
576.134	95.69
576.345	81.69
576.556	89.69
576.767	91.69
576.978	95.69
577.188	91.69
577.399	86.69
577.61	83.69
577.821	79.69
578.032	91.69
578.243	72.69
578.454	90.69
578.665	83.69
578.875	68.69
579.086	83.69
579.297	68.69
579.508	79.69
579.718	79.69
579.929	83.69
580.14	79.69
580.35	77.69
580.561	69.69
580.772	84.69
580.982	89.69
581.193	91.69
581.403	91.69
581.614	94.69
581.825	79.69
582.035	80.69
582.246	79.69
582.456	75.69
582.667	89.69
582.877	71.69
583.087	75.69
583.298	87.69
583.508	81.69
583.719	69.69
583.929	72.69
584.139	83.69
584.35	83.69
584.56	87.69
584.77	85.69
584.981	85.69
585.191	76.69
585.401	81.69
585.611	77.69
585.821	84.69
586.032	82.69
586.242	79.69
586.452	87.69
586.662	79.69
586.872	76.69
587.082	85.69
587.292	88.69
587.502	83.69
587.713	89.69
587.923	85.69
588.133	70.69
588.343	88.69
588.553	96.69
588.762	84.69
588.972	76.69
589.182	83.69
589.392	80.69
589.602	75.69
589.812	73.69
590.022	89.69
590.232	78.69
590.441	85.69
590.651	82.69
590.861	78.69
591.071	87.69
591.281	73.69
591.49	83.69
591.7	83.69
591.91	83.69
592.119	85.69
592.329	91.69
592.539	97.69
592.748	102.69
592.958	73.69
593.167	92.69
593.377	87.69
593.587	102.69
593.796	76.69
594.006	83.69
594.215	77.69
594.424	79.69
594.634	77.69
594.843	99.69
595.053	80.69
595.262	87.69
595.472	73.69
595.681	74.69
595.89	73.69
596.1	86.69
596.309	90.69
596.518	73.69
596.727	83.69
596.937	70.69
597.146	92.69
597.355	81.69
597.564	82.69
597.774	80.69
597.983	89.69
598.192	73.69
598.401	79.69
598.61	74.69
598.819	83.69
599.028	82.69
599.237	87.69
599.446	67.69
599.655	89.69
599.864	77.69
600.073	77.69
600.282	80.69
600.491	87.69
600.7	76.69
600.909	71.69
601.118	71.69
601.327	76.69
601.536	79.69
601.745	88.69
601.953	80.69
602.162	86.69
602.371	80.69
602.58	94.69
602.789	75.69
602.997	93.69
603.206	76.69
603.415	65.69
603.623	79.69
603.832	93.69
604.041	84.69
604.249	82.69
604.458	72.69
604.666	75.69
604.875	83.69
605.084	86.69
605.292	91.69
605.501	76.69
605.709	90.69
605.918	71.69
606.126	87.69
606.334	93.69
606.543	94.69
606.751	88.69
606.96	83.69
607.168	64.69
607.376	73.69
607.585	77.69
607.793	87.69
608.001	92.69
608.21	93.69
608.418	78.69
608.626	97.69
608.834	79.69
609.043	91.69
609.251	76.69
609.459	79.69
609.667	94.69
609.875	75.69
610.083	81.69
610.291	70.69
610.499	91.69
610.707	81.69
610.916	75.69
611.124	81.69
611.332	79.69
611.54	78.69
611.748	74.69
611.955	81.69
612.163	88.69
612.371	77.69
612.579	74.69
612.787	85.69
612.995	70.69
613.203	80.69
613.411	76.69
613.618	86.69
613.826	69.69
614.034	86.69
614.242	84.69
614.449	88.69
614.657	87.69
614.865	83.69
615.072	72.69
615.28	88.69
615.488	87.69
615.695	82.69
615.903	77.69
616.111	91.69
616.318	82.69
616.526	76.69
616.733	74.69
616.941	68.69
617.148	88.69
617.356	91.69
617.563	72.69
617.771	79.69
617.978	76.69
618.185	77.69
618.393	77.69
618.6	81.69
618.807	83.69
619.015	79.69
619.222	79.69
619.429	79.69
619.637	81.69
619.844	83.69
620.051	89.69
620.258	81.69
620.466	81.69
620.673	88.69
620.88	85.69
621.087	70.69
621.294	76.69
621.501	72.69
621.708	89.69
621.915	70.69
622.122	81.69
622.329	72.69
622.536	67.69
622.743	83.69
622.95	85.69
623.157	76.69
623.364	78.69
623.571	81.69
623.778	87.69
623.985	80.69
624.192	87.69
624.399	94.69
624.606	80.69
624.812	84.69
625.019	76.69
625.226	87.69
625.433	86.69
625.639	96.69
625.846	86.69
626.053	95.69
626.259	87.69
626.466	88.69
626.673	79.69
626.879	83.69
627.086	77.69
627.293	86.69
627.499	78.69
627.706	81.69
627.912	79.69
628.119	78.69
628.325	88.69
628.532	90.69
628.738	83.69
628.945	78.69
629.151	90.69
629.357	80.69
629.564	84.69
629.77	82.69
629.976	100.69
630.183	76.69
630.389	73.69
630.595	91.69
630.802	73.69
631.008	65.69
631.214	71.69
631.42	78.69
631.627	83.69
631.833	80.69
632.039	87.69
632.245	86.69
632.451	85.69
632.657	94.69
632.863	77.69
633.069	79.69
633.275	77.69
633.481	80.69
633.688	77.69
633.893	87.69
634.099	87.69
634.305	83.69
634.511	68.69
634.717	83.69
634.923	77.69
635.129	87.69
635.335	81.69
635.541	78.69
635.747	73.69
635.952	71.69
636.158	83.69
636.364	101.69
636.57	85.69
636.775	95.69
636.981	84.69
637.187	85.69
637.392	77.69
637.598	76.69
637.804	88.69
638.009	81.69
638.215	83.69
638.421	73.69
638.626	77.69
638.832	79.69
639.037	69.69
639.243	72.69
639.448	72.69
639.654	72.69
639.859	74.69
640.065	79.69
640.27	95.69
640.475	91.69
640.681	78.69
640.886	78.69
641.091	76.69
641.297	76.69
641.502	72.69
641.707	81.69
641.913	84.69
642.118	69.69
642.323	71.69
642.528	91.69
642.733	78.69
642.939	70.69
643.144	80.69
643.349	77.69
643.554	92.69
643.759	80.69
643.964	83.69
644.169	77.69
644.374	70.69
644.579	83.69
644.784	81.69
644.989	81.69
645.194	89.69
645.399	88.69
645.604	68.69
645.809	85.69
646.014	76.69
646.219	88.69
646.423	90.69
646.628	77.69
646.833	82.69
647.038	78.69
647.243	79.69
647.447	88.69
647.652	78.69
647.857	87.69
648.062	80.69
648.266	64.69
648.471	73.69
648.676	89.69
648.88	97.69
649.085	80.69
649.289	87.69
649.494	81.69
649.698	84.69
649.903	70.69
650.107	75.69
650.312	88.69
650.516	83.69
650.721	83.69
650.925	68.69
651.13	83.69
651.334	81.69
651.539	75.69
651.743	82.69
651.947	98.69
652.152	92.69
652.356	70.69
652.56	88.69
652.764	82.69
652.969	90.69
653.173	80.69
653.377	89.69
653.581	81.69
653.785	94.69
653.99	80.69
654.194	79.69
654.398	99.69
654.602	87.69
654.806	85.69
655.01	84.69
655.214	93.69
655.418	85.69
655.622	77.69
655.826	86.69
656.03	77.69
656.234	88.69
656.438	76.69
656.642	83.69
656.846	69.69
657.049	64.69
657.253	84.69
657.457	83.69
657.661	80.69
657.865	81.69
658.068	85.69
658.272	88.69
658.476	82.69
658.68	78.69
658.883	83.69
659.087	83.69
659.291	80.69
659.494	87.69
659.698	86.69
659.901	78.69
660.105	83.69
660.309	73.69
660.512	74.69
660.716	85.69
660.919	99.69
661.123	87.69
661.326	70.69
661.53	76.69
661.733	69.69
661.936	85.69
662.14	84.69
662.343	79.69
662.546	69.69
662.75	85.69
662.953	78.69
663.156	88.69
663.36	74.69
663.563	83.69
663.766	76.69
663.969	78.69
664.173	68.69
664.376	68.69
664.579	83.69
664.782	86.69
664.985	72.69
665.188	91.69
665.391	83.69
665.594	81.69
665.797	72.69
666	77.69
666.203	92.69
666.406	79.69
666.609	87.69
666.812	87.69
667.015	79.69
667.218	79.69
667.421	82.69
667.624	86.69
667.827	80.69
668.03	71.69
668.232	74.69
668.435	81.69
668.638	84.69
668.841	87.69
669.043	73.69
669.246	85.69
669.449	72.69
669.651	85.69
669.854	71.69
670.057	77.69
670.259	77.69
670.462	82.69
670.665	76.69
670.867	90.69
671.07	84.69
671.272	52.69
671.475	78.69
671.677	99.69
671.88	79.69
672.082	88.69
672.284	72.69
672.487	85.69
672.689	86.69
672.892	79.69
