Data from KBr_1_HRD10591_00043.txt Node
Date: Mon Jan 19 13:11:20 EST 2026
User: Yrep
Spectrometer: HR+D1059
Trigger mode: 0
Integration Time (sec): 1.000000E-1
Scans to average: 1
Electric dark correction enabled: true
Nonlinearity correction enabled: false
Boxcar width: 0
XAxis mode: Wavelengths
Number of Pixels in Spectrum: 2048
>>>>>Begin Spectral Data<<<<<
223.165	-18.19
223.4	-18.19
223.635	-18.19
223.869	-19.19
224.104	-17.19
224.338	-20.19
224.573	-18.19
224.808	-16.19
225.042	-2.19
225.277	-8.19
225.511	-3.19
225.746	13.81
225.98	-10.19
226.215	21.81
226.449	5.81
226.683	18.81
226.918	29.81
227.152	42.81
227.387	33.81
227.621	22.81
227.856	37.81
228.09	30.81
228.324	54.81
228.559	48.81
228.793	51.81
229.027	84.81
229.262	75.81
229.496	79.81
229.73	77.81
229.964	83.81
230.199	87.81
230.433	84.81
230.667	77.81
230.901	80.81
231.136	76.81
231.37	81.81
231.604	71.81
231.838	67.81
232.072	72.81
232.306	65.81
232.541	85.81
232.775	88.81
233.009	90.81
233.243	96.81
233.477	69.81
233.711	89.81
233.945	80.81
234.179	86.81
234.413	92.81
234.647	90.81
234.881	76.81
235.115	89.81
235.349	84.81
235.583	91.81
235.817	97.81
236.051	90.81
236.285	89.81
236.519	79.81
236.753	100.81
236.987	65.81
237.221	87.81
237.455	81.81
237.689	76.81
237.922	90.81
238.156	79.81
238.39	76.81
238.624	101.81
238.858	96.81
239.091	103.81
239.325	91.81
239.559	91.81
239.793	79.81
240.027	98.81
240.26	82.81
240.494	83.81
240.728	90.81
240.961	86.81
241.195	88.81
241.429	91.81
241.662	97.81
241.896	85.81
242.13	92.81
242.363	96.81
242.597	100.81
242.83	97.81
243.064	87.81
243.298	92.81
243.531	98.81
243.765	111.81
243.998	98.81
244.232	104.81
244.465	92.81
244.699	115.81
244.932	102.81
245.166	108.81
245.399	91.81
245.633	87.81
245.866	91.81
246.099	109.81
246.333	101.81
246.566	89.81
246.8	89.81
247.033	92.81
247.266	95.81
247.5	96.81
247.733	99.81
247.966	90.81
248.2	93.81
248.433	102.81
248.666	95.81
248.899	103.81
249.133	112.81
249.366	103.81
249.599	112.81
249.832	105.81
250.066	122.81
250.299	116.81
250.532	93.81
250.765	102.81
250.998	113.81
251.231	113.81
251.465	118.81
251.698	105.81
251.931	129.81
252.164	127.81
252.397	107.81
252.63	103.81
252.863	124.81
253.096	116.81
253.329	101.81
253.562	120.81
253.795	121.81
254.028	105.81
254.261	97.81
254.494	115.81
254.727	110.81
254.96	108.81
255.193	121.81
255.426	120.81
255.659	113.81
255.892	118.81
256.124	119.81
256.357	120.81
256.59	125.81
256.823	132.81
257.056	121.81
257.289	116.81
257.521	118.81
257.754	123.81
257.987	119.81
258.22	109.81
258.452	109.81
258.685	122.81
258.918	126.81
259.151	122.81
259.383	111.81
259.616	107.81
259.849	126.81
260.081	131.81
260.314	125.81
260.547	131.81
260.779	128.81
261.012	129.81
261.244	127.81
261.477	123.81
261.71	125.81
261.942	138.81
262.175	128.81
262.407	122.81
262.64	122.81
262.872	133.81
263.105	135.81
263.337	127.81
263.57	123.81
263.802	135.81
264.035	139.81
264.267	128.81
264.499	145.81
264.732	115.81
264.964	133.81
265.197	129.81
265.429	127.81
265.661	137.81
265.894	119.81
266.126	129.81
266.358	140.81
266.591	145.81
266.823	129.81
267.055	135.81
267.287	140.81
267.52	132.81
267.752	140.81
267.984	139.81
268.216	137.81
268.448	145.81
268.681	154.81
268.913	156.81
269.145	143.81
269.377	136.81
269.609	130.81
269.841	139.81
270.073	136.81
270.306	134.81
270.538	138.81
270.77	136.81
271.002	147.81
271.234	132.81
271.466	154.81
271.698	141.81
271.93	149.81
272.162	151.81
272.394	154.81
272.626	137.81
272.858	153.81
273.09	151.81
273.322	153.81
273.553	139.81
273.785	157.81
274.017	158.81
274.249	147.81
274.481	139.81
274.713	150.81
274.945	143.81
275.176	159.81
275.408	152.81
275.64	152.81
275.872	160.81
276.104	153.81
276.335	143.81
276.567	161.81
276.799	157.81
277.031	163.81
277.262	154.81
277.494	159.81
277.726	172.81
277.957	164.81
278.189	153.81
278.421	151.81
278.652	173.81
278.884	161.81
279.115	168.81
279.347	184.81
279.579	176.81
279.81	174.81
280.042	171.81
280.273	162.81
280.505	182.81
280.736	194.81
280.968	164.81
281.199	168.81
281.431	149.81
281.662	169.81
281.894	169.81
282.125	179.81
282.356	167.81
282.588	173.81
282.819	166.81
283.051	180.81
283.282	191.81
283.513	161.81
283.745	164.81
283.976	175.81
284.207	165.81
284.439	177.81
284.67	186.81
284.901	175.81
285.132	184.81
285.364	184.81
285.595	187.81
285.826	189.81
286.057	183.81
286.288	166.81
286.52	186.81
286.751	187.81
286.982	187.81
287.213	193.81
287.444	172.81
287.675	211.81
287.906	206.81
288.138	193.81
288.369	195.81
288.6	186.81
288.831	194.81
289.062	195.81
289.293	202.81
289.524	198.81
289.755	199.81
289.986	191.81
290.217	187.81
290.448	203.81
290.679	185.81
290.91	186.81
291.141	191.81
291.371	207.81
291.602	199.81
291.833	187.81
292.064	188.81
292.295	202.81
292.526	211.81
292.757	186.81
292.987	202.81
293.218	210.81
293.449	199.81
293.68	195.81
293.91	182.81
294.141	195.81
294.372	200.81
294.603	212.81
294.833	197.81
295.064	197.81
295.295	194.81
295.525	207.81
295.756	209.81
295.987	185.81
296.217	184.81
296.448	214.81
296.679	214.81
296.909	207.81
297.14	216.81
297.37	219.81
297.601	218.81
297.831	200.81
298.062	207.81
298.292	217.81
298.523	216.81
298.753	232.81
298.984	218.81
299.214	214.81
299.445	218.81
299.675	211.81
299.905	225.81
300.136	207.81
300.366	196.81
300.597	199.81
300.827	210.81
301.057	229.81
301.288	235.81
301.518	221.81
301.748	231.81
301.979	252.81
302.209	220.81
302.439	219.81
302.669	220.81
302.9	233.81
303.13	234.81
303.36	242.81
303.59	225.81
303.82	211.81
304.051	232.81
304.281	240.81
304.511	218.81
304.741	219.81
304.971	224.81
305.201	217.81
305.431	219.81
305.661	211.81
305.891	219.81
306.121	212.81
306.352	229.81
306.582	226.81
306.812	219.81
307.042	226.81
307.272	232.81
307.502	224.81
307.731	237.81
307.961	224.81
308.191	229.81
308.421	240.81
308.651	219.81
308.881	237.81
309.111	221.81
309.341	237.81
309.571	246.81
309.8	241.81
310.03	231.81
310.26	235.81
310.49	226.81
310.72	233.81
310.949	229.81
311.179	229.81
311.409	224.81
311.639	263.81
311.868	243.81
312.098	247.81
312.328	241.81
312.557	221.81
312.787	229.81
313.017	241.81
313.246	247.81
313.476	238.81
313.706	246.81
313.935	247.81
314.165	255.81
314.394	258.81
314.624	257.81
314.853	230.81
315.083	256.81
315.312	246.81
315.542	252.81
315.771	265.81
316.001	247.81
316.23	247.81
316.46	265.81
316.689	236.81
316.919	238.81
317.148	254.81
317.377	252.81
317.607	245.81
317.836	249.81
318.065	257.81
318.295	237.81
318.524	249.81
318.753	255.81
318.983	254.81
319.212	260.81
319.441	262.81
319.67	245.81
319.9	262.81
320.129	258.81
320.358	271.81
320.587	260.81
320.816	251.81
321.046	259.81
321.275	261.81
321.504	266.81
321.733	252.81
321.962	271.81
322.191	250.81
322.42	249.81
322.649	284.81
322.878	262.81
323.108	261.81
323.337	263.81
323.566	253.81
323.795	279.81
324.024	260.81
324.253	261.81
324.482	269.81
324.71	273.81
324.939	263.81
325.168	268.81
325.397	256.81
325.626	251.81
325.855	267.81
326.084	268.81
326.313	258.81
326.542	259.81
326.77	267.81
326.999	267.81
327.228	265.81
327.457	292.81
327.686	279.81
327.914	276.81
328.143	288.81
328.372	285.81
328.6	282.81
328.829	284.81
329.058	282.81
329.287	271.81
329.515	257.81
329.744	295.81
329.972	296.81
330.201	331.81
330.43	331.81
330.658	312.81
330.887	287.81
331.115	281.81
331.344	280.81
331.572	303.81
331.801	313.81
332.03	307.81
332.258	294.81
332.486	305.81
332.715	315.81
332.943	328.81
333.172	324.81
333.4	325.81
333.629	325.81
333.857	308.81
334.085	330.81
334.314	332.81
334.542	323.81
334.771	332.81
334.999	346.81
335.227	331.81
335.455	321.81
335.684	317.81
335.912	323.81
336.14	331.81
336.369	323.81
336.597	325.81
336.825	338.81
337.053	316.81
337.281	319.81
337.51	298.81
337.738	313.81
337.966	305.81
338.194	319.81
338.422	324.81
338.65	323.81
338.878	339.81
339.106	310.81
339.334	315.81
339.562	324.81
339.79	321.81
340.018	303.81
340.246	303.81
340.474	309.81
340.702	316.81
340.93	284.81
341.158	313.81
341.386	301.81
341.614	297.81
341.842	301.81
342.07	309.81
342.298	304.81
342.526	306.81
342.754	290.81
342.981	298.81
343.209	296.81
343.437	316.81
343.665	316.81
343.893	328.81
344.12	326.81
344.348	351.81
344.576	361.81
344.804	352.81
345.031	343.81
345.259	315.81
345.487	297.81
345.714	301.81
345.942	286.81
346.17	307.81
346.397	303.81
346.625	305.81
346.853	300.81
347.08	304.81
347.308	311.81
347.535	277.81
347.763	289.81
347.99	301.81
348.218	297.81
348.445	292.81
348.673	287.81
348.9	279.81
349.128	281.81
349.355	277.81
349.583	281.81
349.81	278.81
350.037	291.81
350.265	313.81
350.492	293.81
350.72	259.81
350.947	295.81
351.174	276.81
351.402	291.81
351.629	288.81
351.856	281.81
352.083	296.81
352.311	305.81
352.538	286.81
352.765	285.81
352.992	294.81
353.22	290.81
353.447	294.81
353.674	291.81
353.901	290.81
354.128	280.81
354.355	282.81
354.583	282.81
354.81	290.81
355.037	287.81
355.264	285.81
355.491	303.81
355.718	295.81
355.945	299.81
356.172	278.81
356.399	295.81
356.626	290.81
356.853	299.81
357.08	288.81
357.307	280.81
357.534	299.81
357.761	296.81
357.988	289.81
358.215	293.81
358.441	275.81
358.668	303.81
358.895	287.81
359.122	298.81
359.349	298.81
359.576	281.81
359.802	297.81
360.029	307.81
360.256	305.81
360.483	301.81
360.709	295.81
360.936	307.81
361.163	299.81
361.39	297.81
361.616	295.81
361.843	291.81
362.07	280.81
362.296	281.81
362.523	290.81
362.749	291.81
362.976	275.81
363.203	297.81
363.429	291.81
363.656	301.81
363.882	284.81
364.109	303.81
364.335	292.81
364.562	298.81
364.788	281.81
365.015	297.81
365.241	287.81
365.468	293.81
365.694	289.81
365.92	305.81
366.147	279.81
366.373	289.81
366.599	295.81
366.826	293.81
367.052	282.81
367.278	289.81
367.505	288.81
367.731	303.81
367.957	294.81
368.184	315.81
368.41	306.81
368.636	291.81
368.862	313.81
369.089	299.81
369.315	290.81
369.541	301.81
369.767	287.81
369.993	295.81
370.219	299.81
370.445	297.81
370.672	306.81
370.898	297.81
371.124	313.81
371.35	311.81
371.576	312.81
371.802	311.81
372.028	315.81
372.254	298.81
372.48	324.81
372.706	316.81
372.932	309.81
373.158	338.81
373.384	336.81
373.61	331.81
373.835	308.81
374.061	302.81
374.287	301.81
374.513	320.81
374.739	317.81
374.965	334.81
375.191	329.81
375.416	313.81
375.642	314.81
375.868	318.81
376.094	305.81
376.319	301.81
376.545	311.81
376.771	307.81
376.997	328.81
377.222	325.81
377.448	316.81
377.674	304.81
377.899	321.81
378.125	306.81
378.35	318.81
378.576	321.81
378.802	306.81
379.027	309.81
379.253	327.81
379.478	313.81
379.704	321.81
379.929	326.81
380.155	319.81
380.38	311.81
380.606	333.81
380.831	307.81
381.057	317.81
381.282	324.81
381.507	321.81
381.733	326.81
381.958	313.81
382.184	300.81
382.409	316.81
382.634	321.81
382.86	330.81
383.085	347.81
383.31	322.81
383.535	341.81
383.761	331.81
383.986	331.81
384.211	360.81
384.436	337.81
384.662	340.81
384.887	348.81
385.112	343.81
385.337	351.81
385.562	365.81
385.787	358.81
386.013	364.81
386.238	371.81
386.463	368.81
386.688	379.81
386.913	360.81
387.138	367.81
387.363	369.81
387.588	374.81
387.813	367.81
388.038	357.81
388.263	380.81
388.488	369.81
388.713	361.81
388.938	368.81
389.163	373.81
389.387	385.81
389.612	396.81
389.837	360.81
390.062	387.81
390.287	381.81
390.512	350.81
390.736	369.81
390.961	393.81
391.186	370.81
391.411	380.81
391.636	387.81
391.86	378.81
392.085	395.81
392.31	400.81
392.534	391.81
392.759	404.81
392.984	394.81
393.208	409.81
393.433	408.81
393.658	401.81
393.882	379.81
394.107	391.81
394.331	397.81
394.556	394.81
394.78	394.81
395.005	397.81
395.229	405.81
395.454	415.81
395.678	398.81
395.903	396.81
396.127	417.81
396.352	412.81
396.576	404.81
396.801	413.81
397.025	425.81
397.249	400.81
397.474	411.81
397.698	411.81
397.922	416.81
398.147	415.81
398.371	415.81
398.595	452.81
398.82	440.81
399.044	471.81
399.268	468.81
399.492	476.81
399.717	520.81
399.941	509.81
400.165	515.81
400.389	458.81
400.613	489.81
400.837	460.81
401.062	448.81
401.286	452.81
401.51	458.81
401.734	437.81
401.958	453.81
402.182	448.81
402.406	444.81
402.63	437.81
402.854	451.81
403.078	458.81
403.302	456.81
403.526	465.81
403.75	519.81
403.974	540.81
404.198	668.81
404.422	967.81
404.645	1100.81
404.869	930.81
405.093	702.81
405.317	519.81
405.541	530.81
405.765	448.81
405.988	465.81
406.212	492.81
406.436	455.81
406.66	461.81
406.883	442.81
407.107	463.81
407.331	481.81
407.555	504.81
407.778	481.81
408.002	463.81
408.226	475.81
408.449	480.81
408.673	451.81
408.896	451.81
409.12	440.81
409.344	457.81
409.567	453.81
409.791	435.81
410.014	441.81
410.238	456.81
410.461	439.81
410.685	448.81
410.908	433.81
411.132	457.81
411.355	435.81
411.578	440.81
411.802	433.81
412.025	430.81
412.249	432.81
412.472	435.81
412.695	425.81
412.919	420.81
413.142	433.81
413.365	415.81
413.589	419.81
413.812	403.81
414.035	420.81
414.258	417.81
414.482	398.81
414.705	436.81
414.928	416.81
415.151	432.81
415.374	425.81
415.597	420.81
415.821	432.81
416.044	406.81
416.267	404.81
416.49	410.81
416.713	412.81
416.936	444.81
417.159	394.81
417.382	406.81
417.605	410.81
417.828	425.81
418.051	431.81
418.274	452.81
418.497	431.81
418.72	433.81
418.943	448.81
419.166	465.81
419.389	470.81
419.611	449.81
419.834	443.81
420.057	436.81
420.28	428.81
420.503	423.81
420.726	420.81
420.948	399.81
421.171	410.81
421.394	428.81
421.617	412.81
421.839	438.81
422.062	427.81
422.285	423.81
422.507	424.81
422.73	433.81
422.953	440.81
423.175	420.81
423.398	423.81
423.621	418.81
423.843	425.81
424.066	415.81
424.288	420.81
424.511	419.81
424.733	422.81
424.956	415.81
425.178	402.81
425.401	406.81
425.623	432.81
425.846	417.81
426.068	431.81
426.291	415.81
426.513	406.81
426.735	415.81
426.958	406.81
427.18	405.81
427.402	418.81
427.625	428.81
427.847	401.81
428.069	404.81
428.292	417.81
428.514	404.81
428.736	400.81
428.958	412.81
429.181	394.81
429.403	395.81
429.625	394.81
429.847	387.81
430.069	388.81
430.292	381.81
430.514	391.81
430.736	399.81
430.958	391.81
431.18	393.81
431.402	382.81
431.624	375.81
431.846	355.81
432.068	349.81
432.29	381.81
432.512	375.81
432.734	389.81
432.956	389.81
433.178	385.81
433.4	371.81
433.622	383.81
433.844	373.81
434.066	386.81
434.287	376.81
434.509	385.81
434.731	393.81
434.953	403.81
435.175	396.81
435.397	401.81
435.618	381.81
435.84	367.81
436.062	388.81
436.284	390.81
436.505	372.81
436.727	394.81
436.949	382.81
437.17	381.81
437.392	383.81
437.614	362.81
437.835	358.81
438.057	358.81
438.278	372.81
438.5	389.81
438.721	374.81
438.943	384.81
439.165	381.81
439.386	398.81
439.608	384.81
439.829	394.81
440.05	387.81
440.272	395.81
440.493	388.81
440.715	386.81
440.936	402.81
441.158	399.81
441.379	400.81
441.6	402.81
441.822	404.81
442.043	412.81
442.264	416.81
442.486	401.81
442.707	405.81
442.928	396.81
443.149	392.81
443.371	416.81
443.592	409.81
443.813	396.81
444.034	411.81
444.255	396.81
444.476	426.81
444.698	439.81
444.919	446.81
445.14	514.81
445.361	475.81
445.582	433.81
445.803	413.81
446.024	403.81
446.245	415.81
446.466	398.81
446.687	385.81
446.908	384.81
447.129	377.81
447.35	386.81
447.571	378.81
447.792	372.81
448.013	378.81
448.234	374.81
448.455	353.81
448.675	362.81
448.896	351.81
449.117	352.81
449.338	366.81
449.559	370.81
449.779	345.81
450	355.81
450.221	391.81
450.442	366.81
450.662	358.81
450.883	359.81
451.104	369.81
451.324	368.81
451.545	354.81
451.766	355.81
451.986	344.81
452.207	347.81
452.428	345.81
452.648	361.81
452.869	339.81
453.089	347.81
453.31	340.81
453.53	323.81
453.751	328.81
453.971	335.81
454.192	340.81
454.412	354.81
454.633	345.81
454.853	341.81
455.073	352.81
455.294	337.81
455.514	329.81
455.734	350.81
455.955	347.81
456.175	339.81
456.395	327.81
456.616	341.81
456.836	327.81
457.056	324.81
457.276	341.81
457.497	326.81
457.717	324.81
457.937	327.81
458.157	333.81
458.377	343.81
458.598	318.81
458.818	339.81
459.038	341.81
459.258	347.81
459.478	356.81
459.698	377.81
459.918	379.81
460.138	361.81
460.358	389.81
460.578	398.81
460.798	396.81
461.018	399.81
461.238	390.81
461.458	411.81
461.678	410.81
461.898	410.81
462.118	420.81
462.338	429.81
462.558	451.81
462.777	448.81
462.997	448.81
463.217	437.81
463.437	465.81
463.657	428.81
463.876	440.81
464.096	436.81
464.316	424.81
464.536	451.81
464.755	432.81
464.975	421.81
465.195	398.81
465.414	399.81
465.634	394.81
465.854	379.81
466.073	390.81
466.293	392.81
466.512	388.81
466.732	389.81
466.951	385.81
467.171	383.81
467.391	410.81
467.61	403.81
467.829	416.81
468.049	402.81
468.268	389.81
468.488	378.81
468.707	396.81
468.927	399.81
469.146	381.81
469.365	405.81
469.585	419.81
469.804	416.81
470.023	448.81
470.243	460.81
470.462	464.81
470.681	475.81
470.901	433.81
471.12	430.81
471.339	419.81
471.558	423.81
471.777	403.81
471.997	406.81
472.216	393.81
472.435	373.81
472.654	364.81
472.873	384.81
473.092	404.81
473.311	386.81
473.53	388.81
473.749	387.81
473.968	387.81
474.187	395.81
474.406	367.81
474.625	397.81
474.844	393.81
475.063	388.81
475.282	395.81
475.501	395.81
475.72	382.81
475.939	389.81
476.158	410.81
476.377	415.81
476.596	422.81
476.814	402.81
477.033	396.81
477.252	442.81
477.471	435.81
477.69	432.81
477.908	451.81
478.127	490.81
478.346	469.81
478.564	491.81
478.783	473.81
479.002	472.81
479.22	451.81
479.439	458.81
479.658	460.81
479.876	434.81
480.095	446.81
480.313	459.81
480.532	446.81
480.751	450.81
480.969	460.81
481.188	446.81
481.406	462.81
481.624	433.81
481.843	455.81
482.061	440.81
482.28	446.81
482.498	447.81
482.717	444.81
482.935	441.81
483.153	449.81
483.372	429.81
483.59	438.81
483.808	431.81
484.027	425.81
484.245	452.81
484.463	445.81
484.681	453.81
484.9	433.81
485.118	438.81
485.336	426.81
485.554	438.81
485.772	427.81
485.99	429.81
486.209	432.81
486.427	413.81
486.645	439.81
486.863	432.81
487.081	449.81
487.299	431.81
487.517	429.81
487.735	444.81
487.953	468.81
488.171	480.81
488.389	448.81
488.607	442.81
488.825	454.81
489.043	418.81
489.261	442.81
489.479	465.81
489.696	443.81
489.914	441.81
490.132	471.81
490.35	471.81
490.568	439.81
490.786	455.81
491.003	484.81
491.221	497.81
491.439	493.81
491.657	488.81
491.874	514.81
492.092	519.81
492.31	559.81
492.527	529.81
492.745	500.81
492.963	528.81
493.18	503.81
493.398	517.81
493.615	512.81
493.833	496.81
494.05	499.81
494.268	500.81
494.485	506.81
494.703	500.81
494.92	498.81
495.138	513.81
495.355	511.81
495.573	511.81
495.79	523.81
496.008	503.81
496.225	507.81
496.442	517.81
496.66	521.81
496.877	507.81
497.094	522.81
497.312	513.81
497.529	547.81
497.746	534.81
497.963	535.81
498.181	545.81
498.398	537.81
498.615	558.81
498.832	596.81
499.049	594.81
499.267	615.81
499.484	644.81
499.701	667.81
499.918	692.81
500.135	747.81
500.352	790.81
500.569	777.81
500.786	803.81
501.003	778.81
501.22	758.81
501.437	697.81
501.654	654.81
501.871	613.81
502.088	597.81
502.305	584.81
502.522	567.81
502.739	553.81
502.956	535.81
503.172	515.81
503.389	514.81
503.606	501.81
503.823	508.81
504.04	521.81
504.256	500.81
504.473	506.81
504.69	483.81
504.907	516.81
505.123	468.81
505.34	475.81
505.557	488.81
505.773	456.81
505.99	458.81
506.207	433.81
506.423	431.81
506.64	434.81
506.856	454.81
507.073	418.81
507.289	413.81
507.506	435.81
507.722	413.81
507.939	435.81
508.155	425.81
508.372	408.81
508.588	399.81
508.805	411.81
509.021	425.81
509.238	405.81
509.454	389.81
509.67	385.81
509.887	405.81
510.103	411.81
510.319	412.81
510.536	405.81
510.752	395.81
510.968	398.81
511.184	408.81
511.401	396.81
511.617	380.81
511.833	401.81
512.049	426.81
512.265	389.81
512.481	390.81
512.698	370.81
512.914	390.81
513.13	380.81
513.346	380.81
513.562	375.81
513.778	393.81
513.994	389.81
514.21	389.81
514.426	392.81
514.642	392.81
514.858	385.81
515.074	377.81
515.29	393.81
515.506	400.81
515.721	405.81
515.937	407.81
516.153	395.81
516.369	397.81
516.585	422.81
516.801	423.81
517.016	440.81
517.232	445.81
517.448	447.81
517.664	468.81
517.879	463.81
518.095	487.81
518.311	474.81
518.527	473.81
518.742	452.81
518.958	437.81
519.173	421.81
519.389	415.81
519.605	448.81
519.82	411.81
520.036	413.81
520.251	409.81
520.467	400.81
520.682	403.81
520.898	384.81
521.113	391.81
521.329	374.81
521.544	377.81
521.76	370.81
521.975	399.81
522.19	380.81
522.406	392.81
522.621	384.81
522.836	394.81
523.052	393.81
523.267	392.81
523.482	400.81
523.698	417.81
523.913	408.81
524.128	377.81
524.343	401.81
524.559	377.81
524.774	383.81
524.989	376.81
525.204	380.81
525.419	373.81
525.634	356.81
525.849	368.81
526.064	360.81
526.28	370.81
526.495	364.81
526.71	377.81
526.925	355.81
527.14	345.81
527.355	346.81
527.57	352.81
527.785	335.81
527.999	365.81
528.214	356.81
528.429	372.81
528.644	370.81
528.859	366.81
529.074	384.81
529.289	404.81
529.503	384.81
529.718	385.81
529.933	371.81
530.148	351.81
530.363	343.81
530.577	350.81
530.792	360.81
531.007	361.81
531.221	340.81
531.436	376.81
531.651	348.81
531.865	354.81
532.08	364.81
532.295	372.81
532.509	392.81
532.724	385.81
532.938	387.81
533.153	403.81
533.367	388.81
533.582	393.81
533.796	386.81
534.011	404.81
534.225	417.81
534.44	410.81
534.654	400.81
534.868	396.81
535.083	387.81
535.297	383.81
535.511	396.81
535.726	358.81
535.94	380.81
536.154	405.81
536.369	377.81
536.583	372.81
536.797	380.81
537.011	353.81
537.225	355.81
537.44	345.81
537.654	345.81
537.868	339.81
538.082	353.81
538.296	349.81
538.51	360.81
538.724	364.81
538.938	335.81
539.153	338.81
539.367	343.81
539.581	327.81
539.795	315.81
540.009	331.81
540.222	315.81
540.436	362.81
540.65	342.81
540.864	341.81
541.078	351.81
541.292	344.81
541.506	367.81
541.72	351.81
541.934	376.81
542.147	385.81
542.361	361.81
542.575	351.81
542.789	357.81
543.002	327.81
543.216	367.81
543.43	357.81
543.644	343.81
543.857	373.81
544.071	368.81
544.285	373.81
544.498	363.81
544.712	371.81
544.925	355.81
545.139	363.81
545.352	358.81
545.566	371.81
545.779	372.81
545.993	370.81
546.206	363.81
546.42	379.81
546.633	348.81
546.847	380.81
547.06	370.81
547.274	374.81
547.487	376.81
547.7	379.81
547.914	371.81
548.127	364.81
548.34	362.81
548.554	369.81
548.767	365.81
548.98	369.81
549.193	374.81
549.407	360.81
549.62	362.81
549.833	370.81
550.046	347.81
550.259	367.81
550.473	359.81
550.686	362.81
550.899	372.81
551.112	354.81
551.325	349.81
551.538	337.81
551.751	315.81
551.964	332.81
552.177	355.81
552.39	370.81
552.603	360.81
552.816	361.81
553.029	367.81
553.242	366.81
553.455	378.81
553.667	370.81
553.88	361.81
554.093	352.81
554.306	361.81
554.519	379.81
554.732	331.81
554.944	339.81
555.157	338.81
555.37	338.81
555.583	346.81
555.795	336.81
556.008	334.81
556.221	306.81
556.433	347.81
556.646	333.81
556.859	313.81
557.071	319.81
557.284	301.81
557.496	327.81
557.709	327.81
557.921	331.81
558.134	328.81
558.346	302.81
558.559	326.81
558.771	300.81
558.984	309.81
559.196	298.81
559.409	323.81
559.621	310.81
559.833	297.81
560.046	293.81
560.258	296.81
560.47	314.81
560.683	300.81
560.895	300.81
561.107	303.81
561.32	304.81
561.532	310.81
561.744	316.81
561.956	309.81
562.168	287.81
562.381	311.81
562.593	297.81
562.805	297.81
563.017	316.81
563.229	299.81
563.441	295.81
563.653	312.81
563.865	309.81
564.077	290.81
564.289	310.81
564.501	321.81
564.713	295.81
564.925	299.81
565.137	305.81
565.349	322.81
565.561	327.81
565.773	319.81
565.985	333.81
566.197	339.81
566.408	375.81
566.62	361.81
566.832	359.81
567.044	378.81
567.255	380.81
567.467	366.81
567.679	381.81
567.891	385.81
568.102	378.81
568.314	366.81
568.526	383.81
568.737	365.81
568.949	367.81
569.161	368.81
569.372	366.81
569.584	323.81
569.795	328.81
570.007	310.81
570.218	298.81
570.43	303.81
570.641	300.81
570.853	284.81
571.064	287.81
571.276	292.81
571.487	299.81
571.698	276.81
571.91	262.81
572.121	274.81
572.333	293.81
572.544	262.81
572.755	259.81
572.966	268.81
573.178	275.81
573.389	261.81
573.6	267.81
573.811	265.81
574.023	260.81
574.234	266.81
574.445	244.81
574.656	249.81
574.867	242.81
575.078	259.81
575.289	253.81
575.501	252.81
575.712	245.81
575.923	245.81
576.134	257.81
576.345	249.81
576.556	267.81
576.767	256.81
576.978	252.81
577.188	244.81
577.399	252.81
577.61	235.81
577.821	246.81
578.032	246.81
578.243	249.81
578.454	294.81
578.665	299.81
578.875	279.81
579.086	262.81
579.297	259.81
579.508	256.81
579.718	247.81
579.929	262.81
580.14	265.81
580.35	333.81
580.561	349.81
580.772	340.81
580.982	325.81
581.193	273.81
581.403	290.81
581.614	283.81
581.825	271.81
582.035	266.81
582.246	255.81
582.456	210.81
582.667	245.81
582.877	246.81
583.087	243.81
583.298	261.81
583.508	274.81
583.719	272.81
583.929	271.81
584.139	260.81
584.35	248.81
584.56	242.81
584.77	244.81
584.981	223.81
585.191	237.81
585.401	234.81
585.611	238.81
585.821	235.81
586.032	248.81
586.242	250.81
586.452	241.81
586.662	247.81
586.872	231.81
587.082	264.81
587.292	252.81
587.502	279.81
587.713	267.81
587.923	309.81
588.133	332.81
588.343	366.81
588.553	468.81
588.762	659.81
588.972	1425.81
589.182	3235.81
589.392	2359.81
589.602	1604.81
589.812	2725.81
590.022	1472.81
590.232	663.81
590.441	435.81
590.651	358.81
590.861	322.81
591.071	298.81
591.281	282.81
591.49	253.81
591.7	243.81
591.91	265.81
592.119	241.81
592.329	238.81
592.539	249.81
592.748	235.81
592.958	238.81
593.167	236.81
593.377	247.81
593.587	244.81
593.796	233.81
594.006	240.81
594.215	232.81
594.424	224.81
594.634	228.81
594.843	204.81
595.053	233.81
595.262	216.81
595.472	199.81
595.681	213.81
595.89	202.81
596.1	214.81
596.309	194.81
596.518	201.81
596.727	187.81
596.937	216.81
597.146	203.81
597.355	200.81
597.564	211.81
597.774	208.81
597.983	205.81
598.192	201.81
598.401	197.81
598.61	187.81
598.819	192.81
599.028	199.81
599.237	180.81
599.446	181.81
599.655	197.81
599.864	198.81
600.073	180.81
600.282	182.81
600.491	184.81
600.7	179.81
600.909	211.81
601.118	203.81
601.327	192.81
601.536	194.81
601.745	212.81
601.953	191.81
602.162	193.81
602.371	197.81
602.58	187.81
602.789	193.81
602.997	204.81
603.206	213.81
603.415	188.81
603.623	176.81
603.832	184.81
604.041	173.81
604.249	177.81
604.458	187.81
604.666	187.81
604.875	184.81
605.084	187.81
605.292	207.81
605.501	187.81
605.709	204.81
605.918	200.81
606.126	186.81
606.334	209.81
606.543	188.81
606.751	187.81
606.96	185.81
607.168	188.81
607.376	195.81
607.585	187.81
607.793	179.81
608.001	193.81
608.21	189.81
608.418	195.81
608.626	167.81
608.834	200.81
609.043	184.81
609.251	163.81
609.459	178.81
609.667	189.81
609.875	190.81
610.083	169.81
610.291	179.81
610.499	183.81
610.707	198.81
610.916	192.81
611.124	189.81
611.332	177.81
611.54	176.81
611.748	177.81
611.955	176.81
612.163	192.81
612.371	180.81
612.579	186.81
612.787	196.81
612.995	187.81
613.203	184.81
613.411	174.81
613.618	187.81
613.826	179.81
614.034	184.81
614.242	183.81
614.449	189.81
614.657	200.81
614.865	182.81
615.072	175.81
615.28	171.81
615.488	190.81
615.695	191.81
615.903	185.81
616.111	166.81
616.318	192.81
616.526	184.81
616.733	179.81
616.941	189.81
617.148	188.81
617.356	168.81
617.563	195.81
617.771	172.81
617.978	164.81
618.185	184.81
618.393	176.81
618.6	178.81
618.807	175.81
619.015	188.81
619.222	178.81
619.429	162.81
619.637	164.81
619.844	165.81
620.051	159.81
620.258	166.81
620.466	181.81
620.673	166.81
620.88	173.81
621.087	155.81
621.294	161.81
621.501	164.81
621.708	164.81
621.915	180.81
622.122	167.81
622.329	167.81
622.536	170.81
622.743	180.81
622.95	167.81
623.157	175.81
623.364	177.81
623.571	192.81
623.778	169.81
623.985	161.81
624.192	165.81
624.399	162.81
624.606	172.81
624.812	155.81
625.019	161.81
625.226	173.81
625.433	165.81
625.639	159.81
625.846	158.81
626.053	169.81
626.259	161.81
626.466	142.81
626.673	139.81
626.879	148.81
627.086	172.81
627.293	182.81
627.499	161.81
627.706	153.81
627.912	140.81
628.119	152.81
628.325	157.81
628.532	173.81
628.738	161.81
628.945	156.81
629.151	159.81
629.357	157.81
629.564	152.81
629.77	155.81
629.976	152.81
630.183	149.81
630.389	163.81
630.595	159.81
630.802	150.81
631.008	143.81
631.214	135.81
631.42	151.81
631.627	151.81
631.833	132.81
632.039	158.81
632.245	142.81
632.451	139.81
632.657	149.81
632.863	160.81
633.069	145.81
633.275	150.81
633.481	147.81
633.688	156.81
633.893	142.81
634.099	144.81
634.305	152.81
634.511	149.81
634.717	152.81
634.923	145.81
635.129	160.81
635.335	107.81
635.541	135.81
635.747	155.81
635.952	137.81
636.158	148.81
636.364	141.81
636.57	150.81
636.775	138.81
636.981	148.81
637.187	148.81
637.392	152.81
637.598	147.81
637.804	144.81
638.009	140.81
638.215	135.81
638.421	146.81
638.626	152.81
638.832	147.81
639.037	134.81
639.243	133.81
639.448	131.81
639.654	144.81
639.859	133.81
640.065	148.81
640.27	141.81
640.475	160.81
640.681	138.81
640.886	125.81
641.091	132.81
641.297	138.81
641.502	132.81
641.707	133.81
641.913	139.81
642.118	139.81
642.323	129.81
642.528	142.81
642.733	138.81
642.939	142.81
643.144	139.81
643.349	128.81
643.554	120.81
643.759	139.81
643.964	128.81
644.169	148.81
644.374	125.81
644.579	145.81
644.784	134.81
644.989	137.81
645.194	137.81
645.399	133.81
645.604	122.81
645.809	132.81
646.014	136.81
646.219	146.81
646.423	121.81
646.628	143.81
646.833	153.81
647.038	133.81
647.243	128.81
647.447	144.81
647.652	122.81
647.857	137.81
648.062	140.81
648.266	136.81
648.471	138.81
648.676	138.81
648.88	120.81
649.085	132.81
649.289	159.81
649.494	131.81
649.698	125.81
649.903	133.81
650.107	132.81
650.312	133.81
650.516	122.81
650.721	125.81
650.925	128.81
651.13	131.81
651.334	128.81
651.539	132.81
651.743	116.81
651.947	132.81
652.152	118.81
652.356	113.81
652.56	125.81
652.764	117.81
652.969	114.81
653.173	119.81
653.377	121.81
653.581	120.81
653.785	123.81
653.99	113.81
654.194	119.81
654.398	109.81
654.602	113.81
654.806	117.81
655.01	115.81
655.214	111.81
655.418	109.81
655.622	120.81
655.826	90.81
656.03	107.81
656.234	115.81
656.438	93.81
656.642	101.81
656.846	105.81
657.049	89.81
657.253	109.81
657.457	95.81
657.661	95.81
657.865	97.81
658.068	93.81
658.272	92.81
658.476	96.81
658.68	95.81
658.883	100.81
659.087	92.81
659.291	91.81
659.494	95.81
659.698	87.81
659.901	95.81
660.105	82.81
660.309	79.81
660.512	83.81
660.716	82.81
660.919	83.81
661.123	82.81
661.326	89.81
661.53	76.81
661.733	79.81
661.936	83.81
662.14	88.81
662.343	80.81
662.546	75.81
662.75	91.81
662.953	77.81
663.156	76.81
663.36	74.81
663.563	79.81
663.766	83.81
663.969	84.81
664.173	86.81
664.376	81.81
664.579	91.81
664.782	80.81
664.985	100.81
665.188	75.81
665.391	72.81
665.594	79.81
665.797	73.81
666	80.81
666.203	93.81
666.406	90.81
666.609	78.81
666.812	77.81
667.015	80.81
667.218	77.81
667.421	84.81
667.624	79.81
667.827	67.81
668.03	62.81
668.232	79.81
668.435	74.81
668.638	67.81
668.841	81.81
669.043	75.81
669.246	95.81
669.449	82.81
669.651	68.81
669.854	74.81
670.057	69.81
670.259	83.81
670.462	75.81
670.665	95.81
670.867	80.81
671.07	87.81
671.272	76.81
671.475	90.81
671.677	83.81
671.88	86.81
672.082	84.81
672.284	69.81
672.487	70.81
672.689	79.81
672.892	79.81
