Data from KBr_1_HRD10591_00033.txt Node
Date: Mon Jan 19 13:11:19 EST 2026
User: Yrep
Spectrometer: HR+D1059
Trigger mode: 0
Integration Time (sec): 1.000000E-1
Scans to average: 1
Electric dark correction enabled: true
Nonlinearity correction enabled: false
Boxcar width: 0
XAxis mode: Wavelengths
Number of Pixels in Spectrum: 2048
>>>>>Begin Spectral Data<<<<<
223.165	-30.12
223.4	-30.12
223.635	-30.12
223.869	-23.12
224.104	-18.12
224.338	-13.12
224.573	-13.12
224.808	-11.12
225.042	5.88
225.277	-2.12
225.511	-9.12
225.746	1.88
225.98	7.88
226.215	2.88
226.449	13.88
226.683	32.88
226.918	24.88
227.152	29.88
227.387	39.88
227.621	46.88
227.856	50.88
228.09	50.88
228.324	53.88
228.559	57.88
228.793	55.88
229.027	73.88
229.262	80.88
229.496	89.88
229.73	73.88
229.964	73.88
230.199	74.88
230.433	88.88
230.667	84.88
230.901	78.88
231.136	89.88
231.37	82.88
231.604	95.88
231.838	102.88
232.072	93.88
232.306	93.88
232.541	92.88
232.775	108.88
233.009	105.88
233.243	82.88
233.477	92.88
233.711	91.88
233.945	85.88
234.179	87.88
234.413	89.88
234.647	88.88
234.881	94.88
235.115	106.88
235.349	88.88
235.583	95.88
235.817	95.88
236.051	90.88
236.285	90.88
236.519	98.88
236.753	102.88
236.987	95.88
237.221	90.88
237.455	99.88
237.689	90.88
237.922	95.88
238.156	90.88
238.39	97.88
238.624	85.88
238.858	82.88
239.091	111.88
239.325	97.88
239.559	89.88
239.793	92.88
240.027	94.88
240.26	85.88
240.494	87.88
240.728	93.88
240.961	90.88
241.195	91.88
241.429	93.88
241.662	110.88
241.896	95.88
242.13	91.88
242.363	97.88
242.597	93.88
242.83	94.88
243.064	99.88
243.298	99.88
243.531	89.88
243.765	94.88
243.998	107.88
244.232	106.88
244.465	86.88
244.699	105.88
244.932	101.88
245.166	88.88
245.399	107.88
245.633	98.88
245.866	95.88
246.099	100.88
246.333	119.88
246.566	109.88
246.8	109.88
247.033	93.88
247.266	114.88
247.5	109.88
247.733	94.88
247.966	105.88
248.2	109.88
248.433	102.88
248.666	101.88
248.899	119.88
249.133	111.88
249.366	114.88
249.599	97.88
249.832	108.88
250.066	110.88
250.299	115.88
250.532	119.88
250.765	107.88
250.998	98.88
251.231	109.88
251.465	109.88
251.698	111.88
251.931	109.88
252.164	110.88
252.397	124.88
252.63	115.88
252.863	111.88
253.096	125.88
253.329	129.88
253.562	112.88
253.795	102.88
254.028	95.88
254.261	127.88
254.494	127.88
254.727	126.88
254.96	111.88
255.193	133.88
255.426	114.88
255.659	108.88
255.892	121.88
256.124	119.88
256.357	111.88
256.59	125.88
256.823	119.88
257.056	126.88
257.289	121.88
257.521	112.88
257.754	117.88
257.987	117.88
258.22	120.88
258.452	106.88
258.685	125.88
258.918	129.88
259.151	139.88
259.383	128.88
259.616	121.88
259.849	125.88
260.081	135.88
260.314	119.88
260.547	126.88
260.779	130.88
261.012	134.88
261.244	113.88
261.477	123.88
261.71	124.88
261.942	112.88
262.175	129.88
262.407	112.88
262.64	125.88
262.872	125.88
263.105	130.88
263.337	140.88
263.57	137.88
263.802	134.88
264.035	128.88
264.267	136.88
264.499	131.88
264.732	116.88
264.964	130.88
265.197	143.88
265.429	128.88
265.661	145.88
265.894	147.88
266.126	137.88
266.358	124.88
266.591	137.88
266.823	144.88
267.055	139.88
267.287	146.88
267.52	146.88
267.752	147.88
267.984	141.88
268.216	109.88
268.448	138.88
268.681	151.88
268.913	155.88
269.145	147.88
269.377	147.88
269.609	125.88
269.841	144.88
270.073	138.88
270.306	151.88
270.538	145.88
270.77	151.88
271.002	162.88
271.234	161.88
271.466	151.88
271.698	135.88
271.93	145.88
272.162	157.88
272.394	150.88
272.626	158.88
272.858	153.88
273.09	151.88
273.322	146.88
273.553	143.88
273.785	153.88
274.017	166.88
274.249	150.88
274.481	162.88
274.713	159.88
274.945	149.88
275.176	152.88
275.408	152.88
275.64	156.88
275.872	154.88
276.104	145.88
276.335	154.88
276.567	150.88
276.799	157.88
277.031	146.88
277.262	157.88
277.494	162.88
277.726	165.88
277.957	151.88
278.189	157.88
278.421	177.88
278.652	149.88
278.884	165.88
279.115	160.88
279.347	185.88
279.579	159.88
279.81	172.88
280.042	163.88
280.273	177.88
280.505	171.88
280.736	155.88
280.968	183.88
281.199	163.88
281.431	170.88
281.662	188.88
281.894	172.88
282.125	179.88
282.356	186.88
282.588	173.88
282.819	166.88
283.051	177.88
283.282	165.88
283.513	175.88
283.745	174.88
283.976	187.88
284.207	190.88
284.439	181.88
284.67	189.88
284.901	185.88
285.132	192.88
285.364	184.88
285.595	191.88
285.826	185.88
286.057	183.88
286.288	177.88
286.52	189.88
286.751	186.88
286.982	172.88
287.213	173.88
287.444	189.88
287.675	180.88
287.906	178.88
288.138	202.88
288.369	168.88
288.6	187.88
288.831	195.88
289.062	189.88
289.293	198.88
289.524	207.88
289.755	200.88
289.986	193.88
290.217	193.88
290.448	196.88
290.679	189.88
290.91	207.88
291.141	179.88
291.371	206.88
291.602	184.88
291.833	197.88
292.064	203.88
292.295	198.88
292.526	209.88
292.757	176.88
292.987	195.88
293.218	189.88
293.449	187.88
293.68	194.88
293.91	201.88
294.141	187.88
294.372	190.88
294.603	218.88
294.833	187.88
295.064	189.88
295.295	178.88
295.525	207.88
295.756	207.88
295.987	203.88
296.217	205.88
296.448	193.88
296.679	191.88
296.909	203.88
297.14	229.88
297.37	210.88
297.601	213.88
297.831	208.88
298.062	214.88
298.292	207.88
298.523	207.88
298.753	212.88
298.984	203.88
299.214	214.88
299.445	209.88
299.675	217.88
299.905	202.88
300.136	203.88
300.366	200.88
300.597	206.88
300.827	208.88
301.057	185.88
301.288	211.88
301.518	225.88
301.748	211.88
301.979	230.88
302.209	215.88
302.439	222.88
302.669	217.88
302.9	219.88
303.13	208.88
303.36	216.88
303.59	195.88
303.82	229.88
304.051	226.88
304.281	220.88
304.511	218.88
304.741	215.88
304.971	236.88
305.201	213.88
305.431	221.88
305.661	216.88
305.891	215.88
306.121	223.88
306.352	211.88
306.582	217.88
306.812	216.88
307.042	227.88
307.272	233.88
307.502	224.88
307.731	219.88
307.961	231.88
308.191	232.88
308.421	214.88
308.651	231.88
308.881	233.88
309.111	221.88
309.341	226.88
309.571	223.88
309.8	224.88
310.03	216.88
310.26	224.88
310.49	230.88
310.72	229.88
310.949	219.88
311.179	226.88
311.409	225.88
311.639	216.88
311.868	206.88
312.098	224.88
312.328	233.88
312.557	251.88
312.787	241.88
313.017	246.88
313.246	241.88
313.476	229.88
313.706	238.88
313.935	230.88
314.165	237.88
314.394	225.88
314.624	240.88
314.853	265.88
315.083	232.88
315.312	243.88
315.542	235.88
315.771	237.88
316.001	238.88
316.23	249.88
316.46	244.88
316.689	245.88
316.919	246.88
317.148	248.88
317.377	240.88
317.607	247.88
317.836	261.88
318.065	252.88
318.295	227.88
318.524	229.88
318.753	245.88
318.983	241.88
319.212	233.88
319.441	245.88
319.67	254.88
319.9	249.88
320.129	259.88
320.358	237.88
320.587	242.88
320.816	253.88
321.046	258.88
321.275	251.88
321.504	242.88
321.733	258.88
321.962	250.88
322.191	257.88
322.42	226.88
322.649	250.88
322.878	260.88
323.108	271.88
323.337	263.88
323.566	266.88
323.795	265.88
324.024	266.88
324.253	252.88
324.482	265.88
324.71	249.88
324.939	273.88
325.168	275.88
325.397	265.88
325.626	270.88
325.855	276.88
326.084	261.88
326.313	260.88
326.542	258.88
326.77	266.88
326.999	255.88
327.228	263.88
327.457	274.88
327.686	273.88
327.914	254.88
328.143	280.88
328.372	289.88
328.6	271.88
328.829	272.88
329.058	278.88
329.287	275.88
329.515	280.88
329.744	285.88
329.972	297.88
330.201	335.88
330.43	324.88
330.658	297.88
330.887	285.88
331.115	293.88
331.344	277.88
331.572	277.88
331.801	284.88
332.03	303.88
332.258	306.88
332.486	287.88
332.715	305.88
332.943	286.88
333.172	289.88
333.4	314.88
333.629	305.88
333.857	300.88
334.085	320.88
334.314	322.88
334.542	315.88
334.771	318.88
334.999	309.88
335.227	311.88
335.455	319.88
335.684	315.88
335.912	300.88
336.14	287.88
336.369	305.88
336.597	302.88
336.825	298.88
337.053	307.88
337.281	310.88
337.51	325.88
337.738	314.88
337.966	301.88
338.194	301.88
338.422	316.88
338.65	314.88
338.878	289.88
339.106	320.88
339.334	303.88
339.562	313.88
339.79	295.88
340.018	316.88
340.246	303.88
340.474	303.88
340.702	300.88
340.93	303.88
341.158	306.88
341.386	304.88
341.614	304.88
341.842	303.88
342.07	298.88
342.298	291.88
342.526	279.88
342.754	295.88
342.981	287.88
343.209	311.88
343.437	317.88
343.665	321.88
343.893	324.88
344.12	329.88
344.348	339.88
344.576	371.88
344.804	342.88
345.031	354.88
345.259	307.88
345.487	318.88
345.714	307.88
345.942	290.88
346.17	287.88
346.397	296.88
346.625	293.88
346.853	288.88
347.08	289.88
347.308	280.88
347.535	281.88
347.763	298.88
347.99	295.88
348.218	273.88
348.445	281.88
348.673	288.88
348.9	285.88
349.128	288.88
349.355	273.88
349.583	293.88
349.81	293.88
350.037	268.88
350.265	267.88
350.492	307.88
350.72	290.88
350.947	275.88
351.174	271.88
351.402	271.88
351.629	298.88
351.856	299.88
352.083	294.88
352.311	285.88
352.538	277.88
352.765	297.88
352.992	292.88
353.22	310.88
353.447	276.88
353.674	274.88
353.901	285.88
354.128	285.88
354.355	288.88
354.583	269.88
354.81	263.88
355.037	285.88
355.264	288.88
355.491	298.88
355.718	293.88
355.945	289.88
356.172	290.88
356.399	295.88
356.626	283.88
356.853	269.88
357.08	285.88
357.307	273.88
357.534	279.88
357.761	272.88
357.988	288.88
358.215	280.88
358.441	282.88
358.668	286.88
358.895	271.88
359.122	282.88
359.349	280.88
359.576	280.88
359.802	290.88
360.029	294.88
360.256	273.88
360.483	275.88
360.709	283.88
360.936	285.88
361.163	289.88
361.39	274.88
361.616	286.88
361.843	289.88
362.07	285.88
362.296	291.88
362.523	281.88
362.749	293.88
362.976	282.88
363.203	285.88
363.429	282.88
363.656	285.88
363.882	293.88
364.109	298.88
364.335	289.88
364.562	295.88
364.788	292.88
365.015	303.88
365.241	282.88
365.468	292.88
365.694	294.88
365.92	301.88
366.147	284.88
366.373	290.88
366.599	286.88
366.826	285.88
367.052	297.88
367.278	300.88
367.505	279.88
367.731	283.88
367.957	294.88
368.184	309.88
368.41	305.88
368.636	302.88
368.862	299.88
369.089	286.88
369.315	295.88
369.541	286.88
369.767	289.88
369.993	290.88
370.219	305.88
370.445	288.88
370.672	294.88
370.898	309.88
371.124	295.88
371.35	292.88
371.576	308.88
371.802	312.88
372.028	299.88
372.254	320.88
372.48	303.88
372.706	315.88
372.932	303.88
373.158	303.88
373.384	299.88
373.61	313.88
373.835	311.88
374.061	311.88
374.287	316.88
374.513	315.88
374.739	320.88
374.965	303.88
375.191	297.88
375.416	305.88
375.642	309.88
375.868	321.88
376.094	320.88
376.319	304.88
376.545	303.88
376.771	310.88
376.997	294.88
377.222	316.88
377.448	303.88
377.674	305.88
377.899	301.88
378.125	302.88
378.35	325.88
378.576	313.88
378.802	320.88
379.027	322.88
379.253	302.88
379.478	317.88
379.704	326.88
379.929	307.88
380.155	318.88
380.38	303.88
380.606	301.88
380.831	309.88
381.057	302.88
381.282	309.88
381.507	322.88
381.733	315.88
381.958	315.88
382.184	323.88
382.409	339.88
382.634	324.88
382.86	324.88
383.085	334.88
383.31	340.88
383.535	346.88
383.761	329.88
383.986	335.88
384.211	320.88
384.436	342.88
384.662	359.88
384.887	361.88
385.112	349.88
385.337	372.88
385.562	348.88
385.787	345.88
386.013	360.88
386.238	365.88
386.463	346.88
386.688	337.88
386.913	345.88
387.138	353.88
387.363	369.88
387.588	354.88
387.813	333.88
388.038	357.88
388.263	359.88
388.488	365.88
388.713	360.88
388.938	354.88
389.163	360.88
389.387	342.88
389.612	363.88
389.837	376.88
390.062	362.88
390.287	360.88
390.512	384.88
390.736	369.88
390.961	362.88
391.186	357.88
391.411	361.88
391.636	374.88
391.86	371.88
392.085	366.88
392.31	363.88
392.534	389.88
392.759	385.88
392.984	401.88
393.208	401.88
393.433	450.88
393.658	405.88
393.882	387.88
394.107	385.88
394.331	370.88
394.556	383.88
394.78	386.88
395.005	392.88
395.229	405.88
395.454	392.88
395.678	376.88
395.903	390.88
396.127	388.88
396.352	405.88
396.576	409.88
396.801	423.88
397.025	419.88
397.249	416.88
397.474	405.88
397.698	403.88
397.922	401.88
398.147	390.88
398.371	416.88
398.595	443.88
398.82	429.88
399.044	454.88
399.268	444.88
399.492	450.88
399.717	507.88
399.941	477.88
400.165	469.88
400.389	477.88
400.613	443.88
400.837	409.88
401.062	431.88
401.286	445.88
401.51	426.88
401.734	435.88
401.958	421.88
402.182	422.88
402.406	436.88
402.63	434.88
402.854	445.88
403.078	445.88
403.302	443.88
403.526	458.88
403.75	475.88
403.974	563.88
404.198	748.88
404.422	1101.88
404.645	1335.88
404.869	1112.88
405.093	784.88
405.317	547.88
405.541	497.88
405.765	465.88
405.988	438.88
406.212	457.88
406.436	446.88
406.66	470.88
406.883	423.88
407.107	446.88
407.331	455.88
407.555	467.88
407.778	430.88
408.002	456.88
408.226	457.88
408.449	448.88
408.673	447.88
408.896	462.88
409.12	427.88
409.344	426.88
409.567	422.88
409.791	423.88
410.014	440.88
410.238	409.88
410.461	436.88
410.685	427.88
410.908	436.88
411.132	408.88
411.355	419.88
411.578	436.88
411.802	425.88
412.025	411.88
412.249	413.88
412.472	396.88
412.695	425.88
412.919	414.88
413.142	418.88
413.365	405.88
413.589	402.88
413.812	433.88
414.035	422.88
414.258	402.88
414.482	421.88
414.705	413.88
414.928	411.88
415.151	401.88
415.374	419.88
415.597	417.88
415.821	400.88
416.044	391.88
416.267	394.88
416.49	397.88
416.713	388.88
416.936	401.88
417.159	417.88
417.382	416.88
417.605	387.88
417.828	407.88
418.051	415.88
418.274	421.88
418.497	425.88
418.72	429.88
418.943	405.88
419.166	415.88
419.389	454.88
419.611	455.88
419.834	430.88
420.057	438.88
420.28	405.88
420.503	392.88
420.726	402.88
420.948	398.88
421.171	421.88
421.394	421.88
421.617	404.88
421.839	410.88
422.062	418.88
422.285	400.88
422.507	445.88
422.73	481.88
422.953	466.88
423.175	395.88
423.398	406.88
423.621	413.88
423.843	393.88
424.066	433.88
424.288	410.88
424.511	431.88
424.733	394.88
424.956	433.88
425.178	426.88
425.401	414.88
425.623	423.88
425.846	378.88
426.068	375.88
426.291	395.88
426.513	420.88
426.735	418.88
426.958	398.88
427.18	389.88
427.402	397.88
427.625	415.88
427.847	375.88
428.069	377.88
428.292	391.88
428.514	379.88
428.736	383.88
428.958	362.88
429.181	382.88
429.403	359.88
429.625	395.88
429.847	373.88
430.069	391.88
430.292	381.88
430.514	383.88
430.736	405.88
430.958	382.88
431.18	377.88
431.402	385.88
431.624	377.88
431.846	353.88
432.068	360.88
432.29	368.88
432.512	369.88
432.734	388.88
432.956	377.88
433.178	387.88
433.4	386.88
433.622	396.88
433.844	389.88
434.066	367.88
434.287	368.88
434.509	354.88
434.731	381.88
434.953	369.88
435.175	390.88
435.397	393.88
435.618	368.88
435.84	368.88
436.062	371.88
436.284	368.88
436.505	375.88
436.727	380.88
436.949	396.88
437.17	364.88
437.392	369.88
437.614	353.88
437.835	374.88
438.057	361.88
438.278	362.88
438.5	374.88
438.721	354.88
438.943	381.88
439.165	363.88
439.386	376.88
439.608	376.88
439.829	387.88
440.05	389.88
440.272	384.88
440.493	387.88
440.715	380.88
440.936	381.88
441.158	376.88
441.379	388.88
441.6	398.88
441.822	390.88
442.043	395.88
442.264	392.88
442.486	397.88
442.707	404.88
442.928	392.88
443.149	410.88
443.371	392.88
443.592	397.88
443.813	417.88
444.034	406.88
444.255	408.88
444.476	403.88
444.698	409.88
444.919	414.88
445.14	472.88
445.361	462.88
445.582	416.88
445.803	410.88
446.024	392.88
446.245	409.88
446.466	387.88
446.687	394.88
446.908	386.88
447.129	401.88
447.35	370.88
447.571	385.88
447.792	362.88
448.013	361.88
448.234	378.88
448.455	351.88
448.675	373.88
448.896	365.88
449.117	362.88
449.338	372.88
449.559	362.88
449.779	353.88
450	349.88
450.221	355.88
450.442	367.88
450.662	375.88
450.883	349.88
451.104	368.88
451.324	331.88
451.545	343.88
451.766	375.88
451.986	365.88
452.207	355.88
452.428	343.88
452.648	364.88
452.869	349.88
453.089	333.88
453.31	346.88
453.53	315.88
453.751	303.88
453.971	342.88
454.192	346.88
454.412	327.88
454.633	338.88
454.853	353.88
455.073	330.88
455.294	339.88
455.514	328.88
455.734	340.88
455.955	309.88
456.175	337.88
456.395	310.88
456.616	341.88
456.836	346.88
457.056	343.88
457.276	326.88
457.497	320.88
457.717	337.88
457.937	343.88
458.157	349.88
458.377	348.88
458.598	338.88
458.818	336.88
459.038	339.88
459.258	342.88
459.478	360.88
459.698	352.88
459.918	374.88
460.138	376.88
460.358	382.88
460.578	386.88
460.798	388.88
461.018	394.88
461.238	370.88
461.458	412.88
461.678	403.88
461.898	393.88
462.118	386.88
462.338	412.88
462.558	418.88
462.777	431.88
462.997	424.88
463.217	437.88
463.437	433.88
463.657	421.88
463.876	427.88
464.096	410.88
464.316	410.88
464.536	417.88
464.755	395.88
464.975	384.88
465.195	399.88
465.414	394.88
465.634	389.88
465.854	393.88
466.073	367.88
466.293	386.88
466.512	371.88
466.732	401.88
466.951	390.88
467.171	383.88
467.391	383.88
467.61	375.88
467.829	390.88
468.049	409.88
468.268	399.88
468.488	396.88
468.707	401.88
468.927	392.88
469.146	394.88
469.365	419.88
469.585	418.88
469.804	411.88
470.023	413.88
470.243	425.88
470.462	439.88
470.681	422.88
470.901	420.88
471.12	410.88
471.339	415.88
471.558	397.88
471.777	406.88
471.997	403.88
472.216	397.88
472.435	393.88
472.654	358.88
472.873	363.88
473.092	377.88
473.311	366.88
473.53	370.88
473.749	378.88
473.968	399.88
474.187	386.88
474.406	397.88
474.625	389.88
474.844	393.88
475.063	372.88
475.282	408.88
475.501	377.88
475.72	413.88
475.939	403.88
476.158	422.88
476.377	432.88
476.596	398.88
476.814	405.88
477.033	412.88
477.252	422.88
477.471	442.88
477.69	459.88
477.908	439.88
478.127	451.88
478.346	490.88
478.564	471.88
478.783	488.88
479.002	477.88
479.22	475.88
479.439	464.88
479.658	437.88
479.876	444.88
480.095	432.88
480.313	444.88
480.532	444.88
480.751	453.88
480.969	440.88
481.188	447.88
481.406	422.88
481.624	436.88
481.843	454.88
482.061	431.88
482.28	444.88
482.498	425.88
482.717	422.88
482.935	446.88
483.153	465.88
483.372	446.88
483.59	447.88
483.808	433.88
484.027	425.88
484.245	426.88
484.463	433.88
484.681	434.88
484.9	437.88
485.118	454.88
485.336	425.88
485.554	419.88
485.772	419.88
485.99	413.88
486.209	423.88
486.427	418.88
486.645	445.88
486.863	421.88
487.081	438.88
487.299	436.88
487.517	443.88
487.735	452.88
487.953	462.88
488.171	466.88
488.389	461.88
488.607	455.88
488.825	431.88
489.043	434.88
489.261	421.88
489.479	445.88
489.696	437.88
489.914	433.88
490.132	456.88
490.35	463.88
490.568	454.88
490.786	485.88
491.003	485.88
491.221	479.88
491.439	495.88
491.657	493.88
491.874	523.88
492.092	519.88
492.31	533.88
492.527	520.88
492.745	502.88
492.963	529.88
493.18	491.88
493.398	527.88
493.615	504.88
493.833	497.88
494.05	491.88
494.268	489.88
494.485	478.88
494.703	512.88
494.92	481.88
495.138	500.88
495.355	511.88
495.573	503.88
495.79	503.88
496.008	487.88
496.225	498.88
496.442	509.88
496.66	509.88
496.877	512.88
497.094	515.88
497.312	503.88
497.529	523.88
497.746	537.88
497.963	514.88
498.181	511.88
498.398	530.88
498.615	539.88
498.832	544.88
499.049	581.88
499.267	585.88
499.484	610.88
499.701	639.88
499.918	662.88
500.135	693.88
500.352	737.88
500.569	731.88
500.786	711.88
501.003	731.88
501.22	705.88
501.437	654.88
501.654	618.88
501.871	605.88
502.088	566.88
502.305	555.88
502.522	563.88
502.739	533.88
502.956	537.88
503.172	519.88
503.389	514.88
503.606	501.88
503.823	497.88
504.04	479.88
504.256	459.88
504.473	485.88
504.69	479.88
504.907	467.88
505.123	460.88
505.34	474.88
505.557	461.88
505.773	445.88
505.99	444.88
506.207	436.88
506.423	425.88
506.64	456.88
506.856	451.88
507.073	431.88
507.289	414.88
507.506	420.88
507.722	425.88
507.939	395.88
508.155	409.88
508.372	421.88
508.588	394.88
508.805	409.88
509.021	393.88
509.238	393.88
509.454	402.88
509.67	397.88
509.887	402.88
510.103	406.88
510.319	402.88
510.536	398.88
510.752	386.88
510.968	387.88
511.184	396.88
511.401	407.88
511.617	396.88
511.833	394.88
512.049	370.88
512.265	383.88
512.481	370.88
512.698	395.88
512.914	390.88
513.13	385.88
513.346	393.88
513.562	370.88
513.778	383.88
513.994	384.88
514.21	384.88
514.426	372.88
514.642	384.88
514.858	403.88
515.074	389.88
515.29	412.88
515.506	403.88
515.721	390.88
515.937	391.88
516.153	415.88
516.369	394.88
516.585	400.88
516.801	412.88
517.016	426.88
517.232	430.88
517.448	435.88
517.664	440.88
517.879	443.88
518.095	458.88
518.311	459.88
518.527	444.88
518.742	444.88
518.958	416.88
519.173	411.88
519.389	425.88
519.605	410.88
519.82	399.88
520.036	414.88
520.251	395.88
520.467	388.88
520.682	393.88
520.898	376.88
521.113	386.88
521.329	386.88
521.544	375.88
521.76	380.88
521.975	371.88
522.19	355.88
522.406	360.88
522.621	374.88
522.836	370.88
523.052	384.88
523.267	385.88
523.482	382.88
523.698	374.88
523.913	379.88
524.128	395.88
524.343	396.88
524.559	408.88
524.774	378.88
524.989	391.88
525.204	389.88
525.419	392.88
525.634	350.88
525.849	386.88
526.064	348.88
526.28	363.88
526.495	366.88
526.71	353.88
526.925	359.88
527.14	343.88
527.355	381.88
527.57	354.88
527.785	361.88
527.999	362.88
528.214	370.88
528.429	347.88
528.644	365.88
528.859	362.88
529.074	378.88
529.289	370.88
529.503	375.88
529.718	378.88
529.933	382.88
530.148	362.88
530.363	372.88
530.577	357.88
530.792	334.88
531.007	376.88
531.221	380.88
531.436	359.88
531.651	365.88
531.865	339.88
532.08	370.88
532.295	370.88
532.509	376.88
532.724	405.88
532.938	397.88
533.153	387.88
533.367	395.88
533.582	398.88
533.796	397.88
534.011	383.88
534.225	413.88
534.44	399.88
534.654	430.88
534.868	426.88
535.083	387.88
535.297	398.88
535.511	397.88
535.726	388.88
535.94	399.88
536.154	406.88
536.369	401.88
536.583	386.88
536.797	391.88
537.011	375.88
537.225	357.88
537.44	377.88
537.654	359.88
537.868	338.88
538.082	347.88
538.296	347.88
538.51	333.88
538.724	354.88
538.938	365.88
539.153	336.88
539.367	340.88
539.581	339.88
539.795	343.88
540.009	336.88
540.222	337.88
540.436	342.88
540.65	337.88
540.864	339.88
541.078	368.88
541.292	352.88
541.506	361.88
541.72	373.88
541.934	370.88
542.147	381.88
542.361	390.88
542.575	357.88
542.789	362.88
543.002	333.88
543.216	352.88
543.43	313.88
543.644	331.88
543.857	335.88
544.071	334.88
544.285	362.88
544.498	362.88
544.712	346.88
544.925	358.88
545.139	361.88
545.352	357.88
545.566	363.88
545.779	374.88
545.993	353.88
546.206	371.88
546.42	337.88
546.633	373.88
546.847	360.88
547.06	360.88
547.274	353.88
547.487	375.88
547.7	369.88
547.914	362.88
548.127	372.88
548.34	373.88
548.554	362.88
548.767	370.88
548.98	374.88
549.193	369.88
549.407	359.88
549.62	330.88
549.833	354.88
550.046	345.88
550.259	354.88
550.473	358.88
550.686	366.88
550.899	355.88
551.112	353.88
551.325	363.88
551.538	343.88
551.751	321.88
551.964	336.88
552.177	343.88
552.39	369.88
552.603	350.88
552.816	354.88
553.029	363.88
553.242	377.88
553.455	370.88
553.667	365.88
553.88	361.88
554.093	328.88
554.306	360.88
554.519	350.88
554.732	346.88
554.944	330.88
555.157	323.88
555.37	343.88
555.583	316.88
555.795	346.88
556.008	351.88
556.221	320.88
556.433	308.88
556.646	327.88
556.859	342.88
557.071	325.88
557.284	317.88
557.496	319.88
557.709	305.88
557.921	311.88
558.134	306.88
558.346	305.88
558.559	315.88
558.771	320.88
558.984	334.88
559.196	333.88
559.409	310.88
559.621	290.88
559.833	322.88
560.046	296.88
560.258	324.88
560.47	300.88
560.683	308.88
560.895	298.88
561.107	301.88
561.32	290.88
561.532	318.88
561.744	313.88
561.956	296.88
562.168	302.88
562.381	322.88
562.593	312.88
562.805	285.88
563.017	315.88
563.229	319.88
563.441	302.88
563.653	310.88
563.865	298.88
564.077	310.88
564.289	314.88
564.501	327.88
564.713	303.88
564.925	314.88
565.137	307.88
565.349	298.88
565.561	319.88
565.773	330.88
565.985	334.88
566.197	349.88
566.408	344.88
566.62	374.88
566.832	373.88
567.044	370.88
567.255	377.88
567.467	386.88
567.679	365.88
567.891	372.88
568.102	368.88
568.314	377.88
568.526	353.88
568.737	377.88
568.949	356.88
569.161	377.88
569.372	363.88
569.584	320.88
569.795	335.88
570.007	301.88
570.218	316.88
570.43	313.88
570.641	299.88
570.853	298.88
571.064	301.88
571.276	293.88
571.487	281.88
571.698	269.88
571.91	283.88
572.121	267.88
572.333	277.88
572.544	266.88
572.755	238.88
572.966	278.88
573.178	254.88
573.389	247.88
573.6	254.88
573.811	265.88
574.023	257.88
574.234	263.88
574.445	263.88
574.656	263.88
574.867	257.88
575.078	235.88
575.289	263.88
575.501	250.88
575.712	232.88
575.923	243.88
576.134	229.88
576.345	254.88
576.556	258.88
576.767	262.88
576.978	241.88
577.188	249.88
577.399	251.88
577.61	257.88
577.821	231.88
578.032	254.88
578.243	281.88
578.454	312.88
578.665	341.88
578.875	313.88
579.086	299.88
579.297	268.88
579.508	257.88
579.718	277.88
579.929	289.88
580.14	301.88
580.35	334.88
580.561	406.88
580.772	396.88
580.982	336.88
581.193	316.88
581.403	325.88
581.614	315.88
581.825	306.88
582.035	287.88
582.246	279.88
582.456	255.88
582.667	256.88
582.877	251.88
583.087	278.88
583.298	285.88
583.508	304.88
583.719	301.88
583.929	297.88
584.139	274.88
584.35	279.88
584.56	257.88
584.77	258.88
584.981	263.88
585.191	261.88
585.401	250.88
585.611	255.88
585.821	238.88
586.032	266.88
586.242	245.88
586.452	244.88
586.662	261.88
586.872	259.88
587.082	265.88
587.292	259.88
587.502	294.88
587.713	298.88
587.923	317.88
588.133	378.88
588.343	420.88
588.553	562.88
588.762	815.88
588.972	1802.88
589.182	3725.88
589.392	2881.88
589.602	2050.88
589.812	3233.88
590.022	1910.88
590.232	841.88
590.441	522.88
590.651	400.88
590.861	340.88
591.071	333.88
591.281	310.88
591.49	289.88
591.7	265.88
591.91	268.88
592.119	252.88
592.329	258.88
592.539	263.88
592.748	258.88
592.958	263.88
593.167	247.88
593.377	234.88
593.587	247.88
593.796	227.88
594.006	234.88
594.215	245.88
594.424	216.88
594.634	230.88
594.843	220.88
595.053	226.88
595.262	241.88
595.472	205.88
595.681	200.88
595.89	215.88
596.1	215.88
596.309	224.88
596.518	217.88
596.727	221.88
596.937	195.88
597.146	206.88
597.355	212.88
597.564	203.88
597.774	210.88
597.983	183.88
598.192	198.88
598.401	201.88
598.61	197.88
598.819	188.88
599.028	203.88
599.237	194.88
599.446	209.88
599.655	200.88
599.864	186.88
600.073	203.88
600.282	185.88
600.491	202.88
600.7	189.88
600.909	195.88
601.118	192.88
601.327	193.88
601.536	195.88
601.745	199.88
601.953	206.88
602.162	200.88
602.371	203.88
602.58	204.88
602.789	186.88
602.997	187.88
603.206	199.88
603.415	185.88
603.623	191.88
603.832	190.88
604.041	192.88
604.249	176.88
604.458	183.88
604.666	194.88
604.875	183.88
605.084	189.88
605.292	167.88
605.501	205.88
605.709	196.88
605.918	186.88
606.126	194.88
606.334	187.88
606.543	208.88
606.751	180.88
606.96	188.88
607.168	193.88
607.376	196.88
607.585	195.88
607.793	172.88
608.001	182.88
608.21	183.88
608.418	196.88
608.626	197.88
608.834	182.88
609.043	202.88
609.251	188.88
609.459	186.88
609.667	200.88
609.875	193.88
610.083	193.88
610.291	186.88
610.499	186.88
610.707	200.88
610.916	197.88
611.124	190.88
611.332	188.88
611.54	191.88
611.748	183.88
611.955	201.88
612.163	189.88
612.371	190.88
612.579	182.88
612.787	174.88
612.995	186.88
613.203	190.88
613.411	182.88
613.618	179.88
613.826	191.88
614.034	189.88
614.242	192.88
614.449	194.88
614.657	187.88
614.865	173.88
615.072	200.88
615.28	192.88
615.488	186.88
615.695	194.88
615.903	205.88
616.111	193.88
616.318	202.88
616.526	196.88
616.733	211.88
616.941	186.88
617.148	185.88
617.356	181.88
617.563	192.88
617.771	180.88
617.978	185.88
618.185	185.88
618.393	170.88
618.6	182.88
618.807	190.88
619.015	192.88
619.222	193.88
619.429	187.88
619.637	150.88
619.844	162.88
620.051	153.88
620.258	166.88
620.466	176.88
620.673	185.88
620.88	182.88
621.087	176.88
621.294	153.88
621.501	175.88
621.708	169.88
621.915	177.88
622.122	153.88
622.329	162.88
622.536	173.88
622.743	166.88
622.95	180.88
623.157	169.88
623.364	170.88
623.571	159.88
623.778	170.88
623.985	180.88
624.192	181.88
624.399	166.88
624.606	162.88
624.812	166.88
625.019	173.88
625.226	156.88
625.433	173.88
625.639	160.88
625.846	131.88
626.053	156.88
626.259	151.88
626.466	147.88
626.673	139.88
626.879	151.88
627.086	154.88
627.293	167.88
627.499	153.88
627.706	157.88
627.912	151.88
628.119	176.88
628.325	159.88
628.532	169.88
628.738	163.88
628.945	161.88
629.151	143.88
629.357	171.88
629.564	139.88
629.77	165.88
629.976	145.88
630.183	153.88
630.389	157.88
630.595	157.88
630.802	155.88
631.008	149.88
631.214	154.88
631.42	149.88
631.627	167.88
631.833	156.88
632.039	155.88
632.245	160.88
632.451	154.88
632.657	142.88
632.863	137.88
633.069	156.88
633.275	157.88
633.481	150.88
633.688	143.88
633.893	144.88
634.099	156.88
634.305	148.88
634.511	138.88
634.717	150.88
634.923	149.88
635.129	150.88
635.335	162.88
635.541	137.88
635.747	135.88
635.952	149.88
636.158	158.88
636.364	146.88
636.57	136.88
636.775	138.88
636.981	135.88
637.187	147.88
637.392	129.88
637.598	139.88
637.804	158.88
638.009	157.88
638.215	151.88
638.421	141.88
638.626	149.88
638.832	133.88
639.037	126.88
639.243	142.88
639.448	129.88
639.654	155.88
639.859	148.88
640.065	128.88
640.27	166.88
640.475	150.88
640.681	136.88
640.886	148.88
641.091	141.88
641.297	141.88
641.502	137.88
641.707	149.88
641.913	136.88
642.118	134.88
642.323	135.88
642.528	144.88
642.733	130.88
642.939	143.88
643.144	143.88
643.349	153.88
643.554	134.88
643.759	152.88
643.964	144.88
644.169	144.88
644.374	136.88
644.579	133.88
644.784	128.88
644.989	143.88
645.194	144.88
645.399	152.88
645.604	138.88
645.809	137.88
646.014	137.88
646.219	123.88
646.423	152.88
646.628	144.88
646.833	150.88
647.038	154.88
647.243	131.88
647.447	136.88
647.652	131.88
647.857	131.88
648.062	148.88
648.266	145.88
648.471	147.88
648.676	152.88
648.88	151.88
649.085	149.88
649.289	131.88
649.494	120.88
649.698	134.88
649.903	134.88
650.107	141.88
650.312	134.88
650.516	137.88
650.721	118.88
650.925	136.88
651.13	126.88
651.334	130.88
651.539	137.88
651.743	132.88
651.947	117.88
652.152	133.88
652.356	119.88
652.56	124.88
652.764	126.88
652.969	120.88
653.173	127.88
653.377	106.88
653.581	103.88
653.785	104.88
653.99	110.88
654.194	124.88
654.398	119.88
654.602	122.88
654.806	120.88
655.01	106.88
655.214	122.88
655.418	115.88
655.622	108.88
655.826	103.88
656.03	112.88
656.234	96.88
656.438	111.88
656.642	113.88
656.846	114.88
657.049	110.88
657.253	116.88
657.457	104.88
657.661	98.88
657.865	109.88
658.068	107.88
658.272	104.88
658.476	89.88
658.68	94.88
658.883	96.88
659.087	81.88
659.291	91.88
659.494	106.88
659.698	82.88
659.901	78.88
660.105	90.88
660.309	96.88
660.512	95.88
660.716	92.88
660.919	79.88
661.123	101.88
661.326	88.88
661.53	91.88
661.733	98.88
661.936	89.88
662.14	90.88
662.343	83.88
662.546	79.88
662.75	82.88
662.953	89.88
663.156	97.88
663.36	107.88
663.563	74.88
663.766	82.88
663.969	75.88
664.173	75.88
664.376	73.88
664.579	76.88
664.782	79.88
664.985	100.88
665.188	85.88
665.391	90.88
665.594	82.88
665.797	67.88
666	72.88
666.203	93.88
666.406	69.88
666.609	82.88
666.812	101.88
667.015	86.88
667.218	91.88
667.421	88.88
667.624	74.88
667.827	90.88
668.03	69.88
668.232	86.88
668.435	81.88
668.638	92.88
668.841	81.88
669.043	74.88
669.246	87.88
669.449	81.88
669.651	83.88
669.854	91.88
670.057	78.88
670.259	86.88
670.462	87.88
670.665	82.88
670.867	89.88
671.07	90.88
671.272	93.88
671.475	83.88
671.677	72.88
671.88	82.88
672.082	81.88
672.284	87.88
672.487	86.88
672.689	82.88
672.892	88.88
