Data from SampB_HRD10591_00076.txt Node
Date: Mon Jan 19 11:33:54 EST 2026
User: Yrep
Spectrometer: HR+D1059
Trigger mode: 0
Integration Time (sec): 3.443000E-1
Scans to average: 1
Electric dark correction enabled: true
Nonlinearity correction enabled: false
Boxcar width: 0
XAxis mode: Wavelengths
Number of Pixels in Spectrum: 2048
>>>>>Begin Spectral Data<<<<<
223.165	-13.5
223.4	-13.5
223.635	-13.5
223.869	-13.5
224.104	-27.5
224.338	-4.5
224.573	-19.5
224.808	1.5
225.042	10.5
225.277	-23.5
225.511	-7.5
225.746	6.5
225.98	4.5
226.215	8.5
226.449	8.5
226.683	18.5
226.918	14.5
227.152	36.5
227.387	37.5
227.621	42.5
227.856	53.5
228.09	50.5
228.324	37.5
228.559	49.5
228.793	78.5
229.027	68.5
229.262	78.5
229.496	72.5
229.73	72.5
229.964	72.5
230.199	66.5
230.433	80.5
230.667	68.5
230.901	85.5
231.136	80.5
231.37	90.5
231.604	91.5
231.838	72.5
232.072	75.5
232.306	96.5
232.541	82.5
232.775	76.5
233.009	82.5
233.243	86.5
233.477	99.5
233.711	94.5
233.945	87.5
234.179	83.5
234.413	91.5
234.647	76.5
234.881	84.5
235.115	95.5
235.349	104.5
235.583	91.5
235.817	86.5
236.051	76.5
236.285	91.5
236.519	89.5
236.753	84.5
236.987	92.5
237.221	91.5
237.455	91.5
237.689	85.5
237.922	86.5
238.156	77.5
238.39	81.5
238.624	84.5
238.858	76.5
239.091	80.5
239.325	78.5
239.559	91.5
239.793	87.5
240.027	103.5
240.26	91.5
240.494	92.5
240.728	86.5
240.961	68.5
241.195	110.5
241.429	108.5
241.662	91.5
241.896	84.5
242.13	81.5
242.363	81.5
242.597	100.5
242.83	92.5
243.064	93.5
243.298	94.5
243.531	76.5
243.765	90.5
243.998	100.5
244.232	84.5
244.465	88.5
244.699	91.5
244.932	87.5
245.166	89.5
245.399	105.5
245.633	92.5
245.866	91.5
246.099	89.5
246.333	82.5
246.566	99.5
246.8	90.5
247.033	76.5
247.266	89.5
247.5	90.5
247.733	119.5
247.966	91.5
248.2	79.5
248.433	90.5
248.666	94.5
248.899	97.5
249.133	89.5
249.366	99.5
249.599	100.5
249.832	91.5
250.066	97.5
250.299	106.5
250.532	114.5
250.765	88.5
250.998	98.5
251.231	111.5
251.465	106.5
251.698	84.5
251.931	99.5
252.164	96.5
252.397	102.5
252.63	115.5
252.863	90.5
253.096	70.5
253.329	109.5
253.562	100.5
253.795	96.5
254.028	91.5
254.261	112.5
254.494	99.5
254.727	107.5
254.96	106.5
255.193	110.5
255.426	95.5
255.659	96.5
255.892	110.5
256.124	98.5
256.357	104.5
256.59	115.5
256.823	106.5
257.056	99.5
257.289	104.5
257.521	120.5
257.754	113.5
257.987	87.5
258.22	98.5
258.452	100.5
258.685	108.5
258.918	114.5
259.151	102.5
259.383	99.5
259.616	112.5
259.849	108.5
260.081	102.5
260.314	103.5
260.547	105.5
260.779	119.5
261.012	126.5
261.244	113.5
261.477	110.5
261.71	94.5
261.942	92.5
262.175	103.5
262.407	107.5
262.64	105.5
262.872	108.5
263.105	105.5
263.337	114.5
263.57	119.5
263.802	108.5
264.035	102.5
264.267	103.5
264.499	121.5
264.732	118.5
264.964	110.5
265.197	115.5
265.429	112.5
265.661	108.5
265.894	115.5
266.126	122.5
266.358	104.5
266.591	105.5
266.823	107.5
267.055	111.5
267.287	103.5
267.52	119.5
267.752	108.5
267.984	119.5
268.216	130.5
268.448	116.5
268.681	127.5
268.913	120.5
269.145	116.5
269.377	109.5
269.609	100.5
269.841	106.5
270.073	122.5
270.306	119.5
270.538	115.5
270.77	100.5
271.002	116.5
271.234	102.5
271.466	110.5
271.698	120.5
271.93	106.5
272.162	111.5
272.394	126.5
272.626	115.5
272.858	104.5
273.09	123.5
273.322	105.5
273.553	103.5
273.785	112.5
274.017	105.5
274.249	137.5
274.481	127.5
274.713	109.5
274.945	121.5
275.176	119.5
275.408	126.5
275.64	113.5
275.872	118.5
276.104	120.5
276.335	105.5
276.567	120.5
276.799	114.5
277.031	116.5
277.262	112.5
277.494	124.5
277.726	120.5
277.957	112.5
278.189	104.5
278.421	116.5
278.652	119.5
278.884	120.5
279.115	114.5
279.347	105.5
279.579	132.5
279.81	121.5
280.042	123.5
280.273	129.5
280.505	127.5
280.736	119.5
280.968	133.5
281.199	115.5
281.431	126.5
281.662	100.5
281.894	121.5
282.125	124.5
282.356	118.5
282.588	115.5
282.819	114.5
283.051	134.5
283.282	120.5
283.513	123.5
283.745	120.5
283.976	130.5
284.207	114.5
284.439	123.5
284.67	128.5
284.901	123.5
285.132	124.5
285.364	113.5
285.595	130.5
285.826	122.5
286.057	130.5
286.288	132.5
286.52	126.5
286.751	129.5
286.982	122.5
287.213	117.5
287.444	129.5
287.675	130.5
287.906	126.5
288.138	131.5
288.369	133.5
288.6	134.5
288.831	128.5
289.062	142.5
289.293	131.5
289.524	121.5
289.755	127.5
289.986	128.5
290.217	129.5
290.448	125.5
290.679	121.5
290.91	139.5
291.141	119.5
291.371	137.5
291.602	146.5
291.833	121.5
292.064	124.5
292.295	110.5
292.526	131.5
292.757	130.5
292.987	135.5
293.218	136.5
293.449	144.5
293.68	147.5
293.91	130.5
294.141	141.5
294.372	124.5
294.603	115.5
294.833	131.5
295.064	136.5
295.295	122.5
295.525	125.5
295.756	140.5
295.987	130.5
296.217	137.5
296.448	139.5
296.679	133.5
296.909	150.5
297.14	139.5
297.37	136.5
297.601	128.5
297.831	150.5
298.062	122.5
298.292	130.5
298.523	124.5
298.753	134.5
298.984	135.5
299.214	140.5
299.445	118.5
299.675	134.5
299.905	137.5
300.136	139.5
300.366	119.5
300.597	151.5
300.827	155.5
301.057	125.5
301.288	134.5
301.518	138.5
301.748	150.5
301.979	183.5
302.209	126.5
302.439	163.5
302.669	134.5
302.9	156.5
303.13	143.5
303.36	146.5
303.59	142.5
303.82	136.5
304.051	135.5
304.281	128.5
304.511	154.5
304.741	144.5
304.971	146.5
305.201	135.5
305.431	130.5
305.661	139.5
305.891	124.5
306.121	134.5
306.352	143.5
306.582	142.5
306.812	133.5
307.042	146.5
307.272	115.5
307.502	121.5
307.731	139.5
307.961	130.5
308.191	141.5
308.421	126.5
308.651	143.5
308.881	137.5
309.111	149.5
309.341	136.5
309.571	159.5
309.8	131.5
310.03	135.5
310.26	163.5
310.49	129.5
310.72	136.5
310.949	140.5
311.179	137.5
311.409	127.5
311.639	134.5
311.868	154.5
312.098	148.5
312.328	153.5
312.557	154.5
312.787	137.5
313.017	137.5
313.246	136.5
313.476	131.5
313.706	124.5
313.935	167.5
314.165	153.5
314.394	143.5
314.624	150.5
314.853	157.5
315.083	157.5
315.312	155.5
315.542	145.5
315.771	138.5
316.001	161.5
316.23	154.5
316.46	141.5
316.689	148.5
316.919	158.5
317.148	171.5
317.377	158.5
317.607	138.5
317.836	126.5
318.065	149.5
318.295	127.5
318.524	142.5
318.753	154.5
318.983	136.5
319.212	143.5
319.441	139.5
319.67	142.5
319.9	153.5
320.129	138.5
320.358	152.5
320.587	142.5
320.816	144.5
321.046	139.5
321.275	145.5
321.504	139.5
321.733	161.5
321.962	144.5
322.191	126.5
322.42	135.5
322.649	165.5
322.878	154.5
323.108	157.5
323.337	141.5
323.566	158.5
323.795	162.5
324.024	159.5
324.253	152.5
324.482	139.5
324.71	152.5
324.939	161.5
325.168	125.5
325.397	139.5
325.626	134.5
325.855	141.5
326.084	153.5
326.313	166.5
326.542	172.5
326.77	161.5
326.999	163.5
327.228	170.5
327.457	160.5
327.686	160.5
327.914	164.5
328.143	166.5
328.372	170.5
328.6	152.5
328.829	162.5
329.058	163.5
329.287	176.5
329.515	160.5
329.744	178.5
329.972	170.5
330.201	170.5
330.43	183.5
330.658	168.5
330.887	153.5
331.115	169.5
331.344	174.5
331.572	167.5
331.801	157.5
332.03	153.5
332.258	180.5
332.486	174.5
332.715	172.5
332.943	188.5
333.172	170.5
333.4	187.5
333.629	195.5
333.857	187.5
334.085	185.5
334.314	209.5
334.542	195.5
334.771	191.5
334.999	179.5
335.227	181.5
335.455	186.5
335.684	183.5
335.912	180.5
336.14	152.5
336.369	165.5
336.597	168.5
336.825	164.5
337.053	186.5
337.281	172.5
337.51	150.5
337.738	193.5
337.966	160.5
338.194	159.5
338.422	162.5
338.65	166.5
338.878	172.5
339.106	162.5
339.334	162.5
339.562	164.5
339.79	145.5
340.018	159.5
340.246	147.5
340.474	142.5
340.702	157.5
340.93	177.5
341.158	150.5
341.386	166.5
341.614	155.5
341.842	141.5
342.07	154.5
342.298	165.5
342.526	162.5
342.754	158.5
342.981	157.5
343.209	163.5
343.437	199.5
343.665	179.5
343.893	171.5
344.12	161.5
344.348	167.5
344.576	177.5
344.804	161.5
345.031	145.5
345.259	155.5
345.487	154.5
345.714	155.5
345.942	158.5
346.17	156.5
346.397	160.5
346.625	169.5
346.853	146.5
347.08	150.5
347.308	163.5
347.535	150.5
347.763	155.5
347.99	157.5
348.218	139.5
348.445	147.5
348.673	152.5
348.9	158.5
349.128	153.5
349.355	153.5
349.583	159.5
349.81	151.5
350.037	168.5
350.265	159.5
350.492	138.5
350.72	142.5
350.947	138.5
351.174	151.5
351.402	141.5
351.629	140.5
351.856	139.5
352.083	143.5
352.311	152.5
352.538	156.5
352.765	163.5
352.992	184.5
353.22	153.5
353.447	144.5
353.674	143.5
353.901	160.5
354.128	155.5
354.355	151.5
354.583	151.5
354.81	161.5
355.037	153.5
355.264	151.5
355.491	153.5
355.718	150.5
355.945	164.5
356.172	162.5
356.399	129.5
356.626	149.5
356.853	149.5
357.08	165.5
357.307	168.5
357.534	172.5
357.761	161.5
357.988	162.5
358.215	140.5
358.441	145.5
358.668	168.5
358.895	153.5
359.122	157.5
359.349	166.5
359.576	154.5
359.802	151.5
360.029	158.5
360.256	154.5
360.483	159.5
360.709	158.5
360.936	168.5
361.163	169.5
361.39	160.5
361.616	155.5
361.843	164.5
362.07	159.5
362.296	162.5
362.523	152.5
362.749	151.5
362.976	155.5
363.203	167.5
363.429	171.5
363.656	147.5
363.882	162.5
364.109	146.5
364.335	145.5
364.562	142.5
364.788	155.5
365.015	159.5
365.241	154.5
365.468	170.5
365.694	161.5
365.92	166.5
366.147	154.5
366.373	179.5
366.599	150.5
366.826	147.5
367.052	162.5
367.278	140.5
367.505	144.5
367.731	167.5
367.957	169.5
368.184	166.5
368.41	162.5
368.636	158.5
368.862	158.5
369.089	171.5
369.315	140.5
369.541	149.5
369.767	152.5
369.993	163.5
370.219	161.5
370.445	150.5
370.672	154.5
370.898	169.5
371.124	154.5
371.35	154.5
371.576	159.5
371.802	167.5
372.028	149.5
372.254	164.5
372.48	150.5
372.706	161.5
372.932	176.5
373.158	178.5
373.384	164.5
373.61	168.5
373.835	172.5
374.061	172.5
374.287	163.5
374.513	170.5
374.739	179.5
374.965	176.5
375.191	184.5
375.416	185.5
375.642	168.5
375.868	179.5
376.094	179.5
376.319	151.5
376.545	176.5
376.771	164.5
376.997	160.5
377.222	169.5
377.448	170.5
377.674	155.5
377.899	153.5
378.125	162.5
378.35	170.5
378.576	169.5
378.802	166.5
379.027	172.5
379.253	165.5
379.478	158.5
379.704	153.5
379.929	161.5
380.155	157.5
380.38	161.5
380.606	168.5
380.831	167.5
381.057	163.5
381.282	163.5
381.507	161.5
381.733	181.5
381.958	155.5
382.184	159.5
382.409	171.5
382.634	188.5
382.86	178.5
383.085	177.5
383.31	165.5
383.535	164.5
383.761	179.5
383.986	187.5
384.211	183.5
384.436	185.5
384.662	177.5
384.887	170.5
385.112	182.5
385.337	186.5
385.562	183.5
385.787	188.5
386.013	189.5
386.238	162.5
386.463	183.5
386.688	217.5
386.913	186.5
387.138	183.5
387.363	190.5
387.588	187.5
387.813	174.5
388.038	180.5
388.263	191.5
388.488	192.5
388.713	173.5
388.938	176.5
389.163	173.5
389.387	175.5
389.612	183.5
389.837	188.5
390.062	170.5
390.287	194.5
390.512	172.5
390.736	171.5
390.961	178.5
391.186	178.5
391.411	201.5
391.636	218.5
391.86	196.5
392.085	202.5
392.31	192.5
392.534	195.5
392.759	208.5
392.984	203.5
393.208	211.5
393.433	200.5
393.658	198.5
393.882	192.5
394.107	181.5
394.331	186.5
394.556	194.5
394.78	186.5
395.005	198.5
395.229	198.5
395.454	194.5
395.678	208.5
395.903	202.5
396.127	208.5
396.352	214.5
396.576	201.5
396.801	188.5
397.025	211.5
397.249	219.5
397.474	196.5
397.698	209.5
397.922	210.5
398.147	188.5
398.371	215.5
398.595	221.5
398.82	222.5
399.044	230.5
399.268	239.5
399.492	292.5
399.717	302.5
399.941	294.5
400.165	258.5
400.389	231.5
400.613	228.5
400.837	210.5
401.062	219.5
401.286	217.5
401.51	224.5
401.734	212.5
401.958	232.5
402.182	229.5
402.406	218.5
402.63	239.5
402.854	240.5
403.078	242.5
403.302	246.5
403.526	244.5
403.75	250.5
403.974	249.5
404.198	270.5
404.422	244.5
404.645	248.5
404.869	237.5
405.093	254.5
405.317	249.5
405.541	231.5
405.765	244.5
405.988	243.5
406.212	249.5
406.436	246.5
406.66	273.5
406.883	266.5
407.107	261.5
407.331	270.5
407.555	251.5
407.778	274.5
408.002	260.5
408.226	273.5
408.449	247.5
408.673	244.5
408.896	265.5
409.12	243.5
409.344	243.5
409.567	235.5
409.791	265.5
410.014	249.5
410.238	239.5
410.461	250.5
410.685	258.5
410.908	234.5
411.132	236.5
411.355	218.5
411.578	245.5
411.802	214.5
412.025	224.5
412.249	239.5
412.472	224.5
412.695	227.5
412.919	236.5
413.142	251.5
413.365	236.5
413.589	216.5
413.812	225.5
414.035	225.5
414.258	229.5
414.482	234.5
414.705	212.5
414.928	227.5
415.151	218.5
415.374	210.5
415.597	225.5
415.821	228.5
416.044	221.5
416.267	225.5
416.49	234.5
416.713	225.5
416.936	232.5
417.159	224.5
417.382	222.5
417.605	234.5
417.828	217.5
418.051	233.5
418.274	227.5
418.497	228.5
418.72	222.5
418.943	229.5
419.166	229.5
419.389	243.5
419.611	232.5
419.834	233.5
420.057	228.5
420.28	231.5
420.503	211.5
420.726	224.5
420.948	228.5
421.171	228.5
421.394	218.5
421.617	241.5
421.839	226.5
422.062	234.5
422.285	221.5
422.507	238.5
422.73	233.5
422.953	237.5
423.175	231.5
423.398	244.5
423.621	243.5
423.843	243.5
424.066	251.5
424.288	247.5
424.511	237.5
424.733	248.5
424.956	238.5
425.178	237.5
425.401	223.5
425.623	223.5
425.846	224.5
426.068	217.5
426.291	230.5
426.513	202.5
426.735	216.5
426.958	219.5
427.18	227.5
427.402	236.5
427.625	227.5
427.847	230.5
428.069	213.5
428.292	214.5
428.514	204.5
428.736	212.5
428.958	204.5
429.181	191.5
429.403	199.5
429.625	209.5
429.847	209.5
430.069	199.5
430.292	207.5
430.514	203.5
430.736	214.5
430.958	215.5
431.18	194.5
431.402	210.5
431.624	214.5
431.846	207.5
432.068	204.5
432.29	208.5
432.512	203.5
432.734	218.5
432.956	207.5
433.178	225.5
433.4	212.5
433.622	234.5
433.844	229.5
434.066	224.5
434.287	189.5
434.509	205.5
434.731	216.5
434.953	218.5
435.175	248.5
435.397	238.5
435.618	219.5
435.84	218.5
436.062	217.5
436.284	209.5
436.505	212.5
436.727	196.5
436.949	215.5
437.17	214.5
437.392	209.5
437.614	203.5
437.835	208.5
438.057	195.5
438.278	199.5
438.5	208.5
438.721	207.5
438.943	209.5
439.165	209.5
439.386	216.5
439.608	225.5
439.829	215.5
440.05	224.5
440.272	221.5
440.493	211.5
440.715	229.5
440.936	223.5
441.158	217.5
441.379	232.5
441.6	244.5
441.822	260.5
442.043	218.5
442.264	222.5
442.486	207.5
442.707	221.5
442.928	220.5
443.149	209.5
443.371	231.5
443.592	223.5
443.813	229.5
444.034	239.5
444.255	247.5
444.476	246.5
444.698	250.5
444.919	267.5
445.14	453.5
445.361	326.5
445.582	241.5
445.803	213.5
446.024	209.5
446.245	235.5
446.466	216.5
446.687	205.5
446.908	204.5
447.129	222.5
447.35	215.5
447.571	207.5
447.792	190.5
448.013	216.5
448.234	190.5
448.455	202.5
448.675	198.5
448.896	195.5
449.117	186.5
449.338	199.5
449.559	211.5
449.779	204.5
450	203.5
450.221	198.5
450.442	200.5
450.662	198.5
450.883	200.5
451.104	209.5
451.324	203.5
451.545	207.5
451.766	187.5
451.986	200.5
452.207	208.5
452.428	198.5
452.648	193.5
452.869	189.5
453.089	202.5
453.31	174.5
453.53	180.5
453.751	205.5
453.971	195.5
454.192	179.5
454.412	162.5
454.633	173.5
454.853	198.5
455.073	204.5
455.294	192.5
455.514	194.5
455.734	183.5
455.955	170.5
456.175	178.5
456.395	167.5
456.616	172.5
456.836	186.5
457.056	187.5
457.276	173.5
457.497	184.5
457.717	181.5
457.937	193.5
458.157	185.5
458.377	182.5
458.598	179.5
458.818	190.5
459.038	198.5
459.258	211.5
459.478	193.5
459.698	202.5
459.918	218.5
460.138	201.5
460.358	219.5
460.578	246.5
460.798	250.5
461.018	221.5
461.238	235.5
461.458	208.5
461.678	220.5
461.898	228.5
462.118	231.5
462.338	244.5
462.558	248.5
462.777	251.5
462.997	270.5
463.217	282.5
463.437	294.5
463.657	262.5
463.876	250.5
464.096	254.5
464.316	252.5
464.536	249.5
464.755	251.5
464.975	240.5
465.195	234.5
465.414	227.5
465.634	231.5
465.854	216.5
466.073	209.5
466.293	203.5
466.512	202.5
466.732	217.5
466.951	206.5
467.171	205.5
467.391	199.5
467.61	208.5
467.829	210.5
468.049	207.5
468.268	207.5
468.488	207.5
468.707	207.5
468.927	195.5
469.146	200.5
469.365	197.5
469.585	207.5
469.804	210.5
470.023	198.5
470.243	204.5
470.462	220.5
470.681	225.5
470.901	212.5
471.12	202.5
471.339	213.5
471.558	204.5
471.777	178.5
471.997	212.5
472.216	220.5
472.435	222.5
472.654	200.5
472.873	201.5
473.092	210.5
473.311	214.5
473.53	188.5
473.749	198.5
473.968	199.5
474.187	207.5
474.406	177.5
474.625	189.5
474.844	203.5
475.063	193.5
475.282	185.5
475.501	195.5
475.72	203.5
475.939	187.5
476.158	202.5
476.377	212.5
476.596	198.5
476.814	205.5
477.033	193.5
477.252	195.5
477.471	208.5
477.69	218.5
477.908	217.5
478.127	211.5
478.346	226.5
478.564	212.5
478.783	241.5
479.002	234.5
479.22	228.5
479.439	218.5
479.658	209.5
479.876	225.5
480.095	222.5
480.313	224.5
480.532	260.5
480.751	228.5
480.969	239.5
481.188	251.5
481.406	254.5
481.624	233.5
481.843	212.5
482.061	223.5
482.28	210.5
482.498	204.5
482.717	200.5
482.935	226.5
483.153	223.5
483.372	234.5
483.59	227.5
483.808	210.5
484.027	221.5
484.245	244.5
484.463	232.5
484.681	233.5
484.9	214.5
485.118	231.5
485.336	219.5
485.554	201.5
485.772	214.5
485.99	215.5
486.209	211.5
486.427	234.5
486.645	208.5
486.863	234.5
487.081	214.5
487.299	210.5
487.517	219.5
487.735	217.5
487.953	238.5
488.171	231.5
488.389	233.5
488.607	216.5
488.825	217.5
489.043	209.5
489.261	220.5
489.479	215.5
489.696	229.5
489.914	230.5
490.132	219.5
490.35	223.5
490.568	235.5
490.786	215.5
491.003	224.5
491.221	233.5
491.439	252.5
491.657	242.5
491.874	247.5
492.092	264.5
492.31	241.5
492.527	240.5
492.745	248.5
492.963	245.5
493.18	239.5
493.398	246.5
493.615	251.5
493.833	222.5
494.05	245.5
494.268	249.5
494.485	240.5
494.703	239.5
494.92	238.5
495.138	247.5
495.355	246.5
495.573	249.5
495.79	236.5
496.008	249.5
496.225	246.5
496.442	240.5
496.66	263.5
496.877	239.5
497.094	255.5
497.312	239.5
497.529	249.5
497.746	248.5
497.963	256.5
498.181	249.5
498.398	270.5
498.615	296.5
498.832	296.5
499.049	316.5
499.267	344.5
499.484	370.5
499.701	390.5
499.918	436.5
500.135	482.5
500.352	545.5
500.569	550.5
500.786	524.5
501.003	491.5
501.22	429.5
501.437	398.5
501.654	352.5
501.871	345.5
502.088	302.5
502.305	300.5
502.522	297.5
502.739	303.5
502.956	271.5
503.172	273.5
503.389	252.5
503.606	240.5
503.823	240.5
504.04	269.5
504.256	266.5
504.473	253.5
504.69	248.5
504.907	281.5
505.123	239.5
505.34	226.5
505.557	236.5
505.773	233.5
505.99	215.5
506.207	219.5
506.423	225.5
506.64	191.5
506.856	196.5
507.073	207.5
507.289	216.5
507.506	221.5
507.722	208.5
507.939	200.5
508.155	207.5
508.372	196.5
508.588	221.5
508.805	220.5
509.021	216.5
509.238	202.5
509.454	177.5
509.67	198.5
509.887	204.5
510.103	186.5
510.319	195.5
510.536	220.5
510.752	198.5
510.968	199.5
511.184	184.5
511.401	192.5
511.617	188.5
511.833	191.5
512.049	185.5
512.265	181.5
512.481	202.5
512.698	179.5
512.914	195.5
513.13	207.5
513.346	193.5
513.562	200.5
513.778	189.5
513.994	188.5
514.21	201.5
514.426	210.5
514.642	194.5
514.858	178.5
515.074	193.5
515.29	202.5
515.506	196.5
515.721	198.5
515.937	202.5
516.153	209.5
516.369	203.5
516.585	200.5
516.801	217.5
517.016	226.5
517.232	242.5
517.448	239.5
517.664	245.5
517.879	242.5
518.095	256.5
518.311	239.5
518.527	241.5
518.742	244.5
518.958	233.5
519.173	215.5
519.389	210.5
519.605	214.5
519.82	208.5
520.036	210.5
520.251	216.5
520.467	187.5
520.682	191.5
520.898	187.5
521.113	188.5
521.329	210.5
521.544	194.5
521.76	190.5
521.975	198.5
522.19	198.5
522.406	184.5
522.621	182.5
522.836	175.5
523.052	202.5
523.267	195.5
523.482	186.5
523.698	194.5
523.913	199.5
524.128	195.5
524.343	190.5
524.559	193.5
524.774	174.5
524.989	202.5
525.204	194.5
525.419	201.5
525.634	177.5
525.849	194.5
526.064	184.5
526.28	190.5
526.495	179.5
526.71	189.5
526.925	184.5
527.14	179.5
527.355	195.5
527.57	175.5
527.785	176.5
527.999	187.5
528.214	187.5
528.429	193.5
528.644	193.5
528.859	183.5
529.074	184.5
529.289	199.5
529.503	191.5
529.718	201.5
529.933	188.5
530.148	181.5
530.363	193.5
530.577	192.5
530.792	184.5
531.007	179.5
531.221	178.5
531.436	177.5
531.651	184.5
531.865	195.5
532.08	184.5
532.295	174.5
532.509	175.5
532.724	172.5
532.938	182.5
533.153	204.5
533.367	187.5
533.582	199.5
533.796	183.5
534.011	188.5
534.225	191.5
534.44	175.5
534.654	182.5
534.868	173.5
535.083	183.5
535.297	170.5
535.511	195.5
535.726	202.5
535.94	182.5
536.154	175.5
536.369	182.5
536.583	170.5
536.797	191.5
537.011	178.5
537.225	196.5
537.44	188.5
537.654	188.5
537.868	174.5
538.082	171.5
538.296	168.5
538.51	170.5
538.724	175.5
538.938	177.5
539.153	184.5
539.367	194.5
539.581	168.5
539.795	182.5
540.009	156.5
540.222	185.5
540.436	175.5
540.65	178.5
540.864	178.5
541.078	179.5
541.292	175.5
541.506	201.5
541.72	212.5
541.934	202.5
542.147	202.5
542.361	183.5
542.575	195.5
542.789	178.5
543.002	188.5
543.216	191.5
543.43	173.5
543.644	183.5
543.857	186.5
544.071	179.5
544.285	184.5
544.498	192.5
544.712	208.5
544.925	175.5
545.139	192.5
545.352	202.5
545.566	194.5
545.779	204.5
545.993	202.5
546.206	204.5
546.42	192.5
546.633	209.5
546.847	202.5
547.06	191.5
547.274	210.5
547.487	191.5
547.7	206.5
547.914	185.5
548.127	191.5
548.34	193.5
548.554	184.5
548.767	215.5
548.98	183.5
549.193	190.5
549.407	198.5
549.62	182.5
549.833	188.5
550.046	198.5
550.259	188.5
550.473	177.5
550.686	199.5
550.899	191.5
551.112	188.5
551.325	193.5
551.538	183.5
551.751	176.5
551.964	184.5
552.177	191.5
552.39	190.5
552.603	199.5
552.816	185.5
553.029	183.5
553.242	205.5
553.455	199.5
553.667	199.5
553.88	233.5
554.093	200.5
554.306	210.5
554.519	202.5
554.732	189.5
554.944	184.5
555.157	191.5
555.37	205.5
555.583	180.5
555.795	185.5
556.008	158.5
556.221	171.5
556.433	188.5
556.646	183.5
556.859	174.5
557.071	173.5
557.284	171.5
557.496	168.5
557.709	175.5
557.921	175.5
558.134	155.5
558.346	180.5
558.559	172.5
558.771	169.5
558.984	182.5
559.196	167.5
559.409	172.5
559.621	179.5
559.833	179.5
560.046	180.5
560.258	186.5
560.47	175.5
560.683	164.5
560.895	150.5
561.107	175.5
561.32	162.5
561.532	162.5
561.744	170.5
561.956	173.5
562.168	158.5
562.381	158.5
562.593	158.5
562.805	160.5
563.017	180.5
563.229	161.5
563.441	180.5
563.653	172.5
563.865	173.5
564.077	174.5
564.289	170.5
564.501	173.5
564.713	180.5
564.925	174.5
565.137	181.5
565.349	190.5
565.561	182.5
565.773	185.5
565.985	187.5
566.197	200.5
566.408	194.5
566.62	221.5
566.832	235.5
567.044	237.5
567.255	231.5
567.467	253.5
567.679	241.5
567.891	256.5
568.102	257.5
568.314	235.5
568.526	220.5
568.737	230.5
568.949	195.5
569.161	175.5
569.372	176.5
569.584	176.5
569.795	163.5
570.007	166.5
570.218	168.5
570.43	158.5
570.641	165.5
570.853	178.5
571.064	165.5
571.276	163.5
571.487	182.5
571.698	160.5
571.91	154.5
572.121	164.5
572.333	156.5
572.544	155.5
572.755	143.5
572.966	145.5
573.178	135.5
573.389	155.5
573.6	153.5
573.811	132.5
574.023	153.5
574.234	149.5
574.445	154.5
574.656	135.5
574.867	138.5
575.078	137.5
575.289	152.5
575.501	156.5
575.712	153.5
575.923	153.5
576.134	150.5
576.345	143.5
576.556	142.5
576.767	157.5
576.978	143.5
577.188	156.5
577.399	143.5
577.61	151.5
577.821	143.5
578.032	147.5
578.243	145.5
578.454	130.5
578.665	140.5
578.875	108.5
579.086	143.5
579.297	139.5
579.508	146.5
579.718	132.5
579.929	150.5
580.14	147.5
580.35	141.5
580.561	122.5
580.772	153.5
580.982	135.5
581.193	140.5
581.403	143.5
581.614	136.5
581.825	137.5
582.035	139.5
582.246	147.5
582.456	147.5
582.667	140.5
582.877	137.5
583.087	146.5
583.298	134.5
583.508	129.5
583.719	126.5
583.929	137.5
584.139	152.5
584.35	143.5
584.56	129.5
584.77	137.5
584.981	144.5
585.191	139.5
585.401	130.5
585.611	135.5
585.821	135.5
586.032	138.5
586.242	130.5
586.452	129.5
586.662	117.5
586.872	135.5
587.082	126.5
587.292	114.5
587.502	131.5
587.713	135.5
587.923	140.5
588.133	139.5
588.343	127.5
588.553	129.5
588.762	154.5
588.972	131.5
589.182	131.5
589.392	135.5
589.602	137.5
589.812	131.5
590.022	139.5
590.232	123.5
590.441	142.5
590.651	135.5
590.861	121.5
591.071	134.5
591.281	135.5
591.49	123.5
591.7	136.5
591.91	147.5
592.119	152.5
592.329	143.5
592.539	132.5
592.748	130.5
592.958	142.5
593.167	155.5
593.377	156.5
593.587	158.5
593.796	133.5
594.006	154.5
594.215	146.5
594.424	152.5
594.634	150.5
594.843	154.5
595.053	136.5
595.262	163.5
595.472	150.5
595.681	149.5
595.89	135.5
596.1	137.5
596.309	139.5
596.518	130.5
596.727	123.5
596.937	139.5
597.146	145.5
597.355	130.5
597.564	122.5
597.774	128.5
597.983	130.5
598.192	137.5
598.401	124.5
598.61	119.5
598.819	129.5
599.028	125.5
599.237	124.5
599.446	128.5
599.655	122.5
599.864	135.5
600.073	126.5
600.282	134.5
600.491	94.5
600.7	130.5
600.909	129.5
601.118	127.5
601.327	135.5
601.536	127.5
601.745	139.5
601.953	123.5
602.162	136.5
602.371	119.5
602.58	136.5
602.789	144.5
602.997	121.5
603.206	117.5
603.415	122.5
603.623	113.5
603.832	119.5
604.041	129.5
604.249	122.5
604.458	123.5
604.666	126.5
604.875	126.5
605.084	134.5
605.292	110.5
605.501	128.5
605.709	121.5
605.918	139.5
606.126	126.5
606.334	134.5
606.543	124.5
606.751	107.5
606.96	132.5
607.168	123.5
607.376	120.5
607.585	140.5
607.793	117.5
608.001	123.5
608.21	112.5
608.418	138.5
608.626	138.5
608.834	128.5
609.043	131.5
609.251	115.5
609.459	129.5
609.667	130.5
609.875	122.5
610.083	130.5
610.291	109.5
610.499	135.5
610.707	112.5
610.916	131.5
611.124	117.5
611.332	130.5
611.54	108.5
611.748	112.5
611.955	119.5
612.163	119.5
612.371	120.5
612.579	124.5
612.787	128.5
612.995	126.5
613.203	131.5
613.411	135.5
613.618	118.5
613.826	110.5
614.034	125.5
614.242	135.5
614.449	128.5
614.657	127.5
614.865	116.5
615.072	138.5
615.28	121.5
615.488	140.5
615.695	120.5
615.903	124.5
616.111	121.5
616.318	123.5
616.526	118.5
616.733	140.5
616.941	123.5
617.148	129.5
617.356	131.5
617.563	120.5
617.771	126.5
617.978	125.5
618.185	117.5
618.393	115.5
618.6	122.5
618.807	122.5
619.015	122.5
619.222	128.5
619.429	122.5
619.637	122.5
619.844	105.5
620.051	95.5
620.258	107.5
620.466	112.5
620.673	115.5
620.88	111.5
621.087	112.5
621.294	126.5
621.501	118.5
621.708	130.5
621.915	114.5
622.122	93.5
622.329	124.5
622.536	125.5
622.743	119.5
622.95	113.5
623.157	115.5
623.364	118.5
623.571	123.5
623.778	121.5
623.985	125.5
624.192	120.5
624.399	110.5
624.606	116.5
624.812	136.5
625.019	108.5
625.226	115.5
625.433	118.5
625.639	107.5
625.846	118.5
626.053	126.5
626.259	108.5
626.466	131.5
626.673	112.5
626.879	102.5
627.086	113.5
627.293	115.5
627.499	116.5
627.706	121.5
627.912	120.5
628.119	102.5
628.325	112.5
628.532	111.5
628.738	103.5
628.945	98.5
629.151	119.5
629.357	110.5
629.564	114.5
629.77	117.5
629.976	103.5
630.183	118.5
630.389	99.5
630.595	100.5
630.802	104.5
631.008	115.5
631.214	97.5
631.42	124.5
631.627	114.5
631.833	118.5
632.039	103.5
632.245	117.5
632.451	116.5
632.657	104.5
632.863	103.5
633.069	108.5
633.275	115.5
633.481	123.5
633.688	120.5
633.893	102.5
634.099	104.5
634.305	109.5
634.511	113.5
634.717	113.5
634.923	111.5
635.129	99.5
635.335	102.5
635.541	101.5
635.747	111.5
635.952	104.5
636.158	105.5
636.364	110.5
636.57	121.5
636.775	119.5
636.981	114.5
637.187	91.5
637.392	103.5
637.598	126.5
637.804	118.5
638.009	104.5
638.215	114.5
638.421	100.5
638.626	112.5
638.832	107.5
639.037	114.5
639.243	113.5
639.448	101.5
639.654	112.5
639.859	109.5
640.065	102.5
640.27	121.5
640.475	110.5
640.681	110.5
640.886	89.5
641.091	109.5
641.297	109.5
641.502	101.5
641.707	131.5
641.913	101.5
642.118	121.5
642.323	120.5
642.528	108.5
642.733	103.5
642.939	112.5
643.144	106.5
643.349	102.5
643.554	114.5
643.759	113.5
643.964	92.5
644.169	94.5
644.374	102.5
644.579	120.5
644.784	102.5
644.989	89.5
645.194	103.5
645.399	117.5
645.604	99.5
645.809	117.5
646.014	112.5
646.219	113.5
646.423	111.5
646.628	100.5
646.833	111.5
647.038	108.5
647.243	106.5
647.447	100.5
647.652	105.5
647.857	110.5
648.062	104.5
648.266	104.5
648.471	116.5
648.676	97.5
648.88	98.5
649.085	101.5
649.289	99.5
649.494	91.5
649.698	112.5
649.903	99.5
650.107	118.5
650.312	100.5
650.516	115.5
650.721	101.5
650.925	112.5
651.13	100.5
651.334	94.5
651.539	92.5
651.743	107.5
651.947	87.5
652.152	106.5
652.356	100.5
652.56	93.5
652.764	103.5
652.969	97.5
653.173	94.5
653.377	109.5
653.581	109.5
653.785	101.5
653.99	87.5
654.194	102.5
654.398	91.5
654.602	91.5
654.806	83.5
655.01	94.5
655.214	104.5
655.418	102.5
655.622	98.5
655.826	91.5
656.03	94.5
656.234	86.5
656.438	106.5
656.642	111.5
656.846	105.5
657.049	93.5
657.253	97.5
657.457	94.5
657.661	104.5
657.865	91.5
658.068	88.5
658.272	81.5
658.476	87.5
658.68	86.5
658.883	95.5
659.087	99.5
659.291	88.5
659.494	90.5
659.698	85.5
659.901	89.5
660.105	83.5
660.309	83.5
660.512	95.5
660.716	92.5
660.919	95.5
661.123	82.5
661.326	83.5
661.53	78.5
661.733	102.5
661.936	95.5
662.14	75.5
662.343	100.5
662.546	81.5
662.75	80.5
662.953	94.5
663.156	75.5
663.36	87.5
663.563	79.5
663.766	73.5
663.969	91.5
664.173	86.5
664.376	68.5
664.579	75.5
664.782	72.5
664.985	84.5
665.188	89.5
665.391	80.5
665.594	73.5
665.797	77.5
666	81.5
666.203	78.5
666.406	91.5
666.609	90.5
666.812	63.5
667.015	70.5
667.218	92.5
667.421	84.5
667.624	63.5
667.827	89.5
668.03	79.5
668.232	71.5
668.435	81.5
668.638	73.5
668.841	101.5
669.043	78.5
669.246	82.5
669.449	84.5
669.651	83.5
669.854	80.5
670.057	77.5
670.259	75.5
670.462	89.5
670.665	81.5
670.867	79.5
671.07	81.5
671.272	96.5
671.475	97.5
671.677	86.5
671.88	88.5
672.082	78.5
672.284	75.5
672.487	81.5
672.689	86.5
672.892	84.5
