Data from SampB_HRD10591_00020.txt Node
Date: Mon Jan 19 11:33:35 EST 2026
User: Yrep
Spectrometer: HR+D1059
Trigger mode: 0
Integration Time (sec): 3.443000E-1
Scans to average: 1
Electric dark correction enabled: true
Nonlinearity correction enabled: false
Boxcar width: 0
XAxis mode: Wavelengths
Number of Pixels in Spectrum: 2048
>>>>>Begin Spectral Data<<<<<
223.165	-21.62
223.4	-21.62
223.635	-21.62
223.869	-13.62
224.104	-8.62
224.338	-8.62
224.573	-13.62
224.808	-13.62
225.042	7.38
225.277	-7.62
225.511	-7.62
225.746	1.38
225.98	11.38
226.215	11.38
226.449	13.38
226.683	14.38
226.918	15.38
227.152	20.38
227.387	30.38
227.621	35.38
227.856	48.38
228.09	49.38
228.324	54.38
228.559	64.38
228.793	40.38
229.027	64.38
229.262	66.38
229.496	75.38
229.73	70.38
229.964	87.38
230.199	94.38
230.433	83.38
230.667	89.38
230.901	82.38
231.136	79.38
231.37	83.38
231.604	77.38
231.838	95.38
232.072	90.38
232.306	92.38
232.541	86.38
232.775	82.38
233.009	93.38
233.243	91.38
233.477	81.38
233.711	84.38
233.945	88.38
234.179	91.38
234.413	103.38
234.647	95.38
234.881	80.38
235.115	78.38
235.349	105.38
235.583	99.38
235.817	87.38
236.051	80.38
236.285	89.38
236.519	102.38
236.753	89.38
236.987	97.38
237.221	91.38
237.455	101.38
237.689	91.38
237.922	95.38
238.156	84.38
238.39	81.38
238.624	79.38
238.858	102.38
239.091	92.38
239.325	89.38
239.559	103.38
239.793	88.38
240.027	93.38
240.26	85.38
240.494	94.38
240.728	109.38
240.961	96.38
241.195	114.38
241.429	121.38
241.662	95.38
241.896	90.38
242.13	81.38
242.363	92.38
242.597	95.38
242.83	109.38
243.064	101.38
243.298	115.38
243.531	95.38
243.765	113.38
243.998	105.38
244.232	97.38
244.465	70.38
244.699	108.38
244.932	100.38
245.166	101.38
245.399	97.38
245.633	105.38
245.866	90.38
246.099	102.38
246.333	91.38
246.566	99.38
246.8	89.38
247.033	89.38
247.266	105.38
247.5	98.38
247.733	102.38
247.966	106.38
248.2	115.38
248.433	98.38
248.666	96.38
248.899	110.38
249.133	114.38
249.366	121.38
249.599	107.38
249.832	117.38
250.066	115.38
250.299	90.38
250.532	118.38
250.765	110.38
250.998	112.38
251.231	134.38
251.465	114.38
251.698	123.38
251.931	112.38
252.164	113.38
252.397	102.38
252.63	106.38
252.863	109.38
253.096	110.38
253.329	95.38
253.562	121.38
253.795	136.38
254.028	125.38
254.261	114.38
254.494	101.38
254.727	133.38
254.96	119.38
255.193	124.38
255.426	111.38
255.659	112.38
255.892	130.38
256.124	134.38
256.357	118.38
256.59	131.38
256.823	124.38
257.056	123.38
257.289	115.38
257.521	124.38
257.754	121.38
257.987	105.38
258.22	118.38
258.452	112.38
258.685	102.38
258.918	143.38
259.151	118.38
259.383	115.38
259.616	111.38
259.849	129.38
260.081	146.38
260.314	129.38
260.547	108.38
260.779	123.38
261.012	122.38
261.244	134.38
261.477	148.38
261.71	125.38
261.942	116.38
262.175	123.38
262.407	117.38
262.64	126.38
262.872	127.38
263.105	113.38
263.337	144.38
263.57	126.38
263.802	125.38
264.035	117.38
264.267	108.38
264.499	132.38
264.732	107.38
264.964	105.38
265.197	125.38
265.429	110.38
265.661	126.38
265.894	121.38
266.126	130.38
266.358	122.38
266.591	124.38
266.823	134.38
267.055	120.38
267.287	130.38
267.52	126.38
267.752	129.38
267.984	126.38
268.216	125.38
268.448	135.38
268.681	133.38
268.913	135.38
269.145	114.38
269.377	127.38
269.609	129.38
269.841	133.38
270.073	126.38
270.306	122.38
270.538	140.38
270.77	128.38
271.002	133.38
271.234	135.38
271.466	153.38
271.698	137.38
271.93	132.38
272.162	146.38
272.394	141.38
272.626	120.38
272.858	123.38
273.09	141.38
273.322	143.38
273.553	133.38
273.785	141.38
274.017	153.38
274.249	158.38
274.481	145.38
274.713	149.38
274.945	167.38
275.176	161.38
275.408	154.38
275.64	152.38
275.872	145.38
276.104	151.38
276.335	157.38
276.567	151.38
276.799	154.38
277.031	152.38
277.262	152.38
277.494	139.38
277.726	165.38
277.957	159.38
278.189	162.38
278.421	170.38
278.652	137.38
278.884	152.38
279.115	177.38
279.347	222.38
279.579	249.38
279.81	279.38
280.042	242.38
280.273	233.38
280.505	251.38
280.736	186.38
280.968	155.38
281.199	141.38
281.431	148.38
281.662	147.38
281.894	159.38
282.125	142.38
282.356	141.38
282.588	146.38
282.819	155.38
283.051	136.38
283.282	155.38
283.513	147.38
283.745	152.38
283.976	153.38
284.207	171.38
284.439	137.38
284.67	154.38
284.901	150.38
285.132	164.38
285.364	178.38
285.595	161.38
285.826	157.38
286.057	167.38
286.288	155.38
286.52	149.38
286.751	152.38
286.982	155.38
287.213	149.38
287.444	153.38
287.675	171.38
287.906	151.38
288.138	143.38
288.369	178.38
288.6	170.38
288.831	152.38
289.062	165.38
289.293	158.38
289.524	158.38
289.755	134.38
289.986	147.38
290.217	140.38
290.448	152.38
290.679	160.38
290.91	163.38
291.141	149.38
291.371	158.38
291.602	139.38
291.833	158.38
292.064	170.38
292.295	161.38
292.526	175.38
292.757	160.38
292.987	156.38
293.218	140.38
293.449	159.38
293.68	168.38
293.91	164.38
294.141	167.38
294.372	150.38
294.603	172.38
294.833	166.38
295.064	165.38
295.295	172.38
295.525	162.38
295.756	170.38
295.987	168.38
296.217	175.38
296.448	169.38
296.679	166.38
296.909	163.38
297.14	175.38
297.37	184.38
297.601	155.38
297.831	161.38
298.062	183.38
298.292	166.38
298.523	167.38
298.753	163.38
298.984	159.38
299.214	157.38
299.445	155.38
299.675	167.38
299.905	162.38
300.136	162.38
300.366	173.38
300.597	160.38
300.827	172.38
301.057	158.38
301.288	167.38
301.518	168.38
301.748	169.38
301.979	195.38
302.209	184.38
302.439	154.38
302.669	158.38
302.9	170.38
303.13	162.38
303.36	167.38
303.59	171.38
303.82	150.38
304.051	172.38
304.281	162.38
304.511	174.38
304.741	169.38
304.971	170.38
305.201	179.38
305.431	162.38
305.661	171.38
305.891	170.38
306.121	177.38
306.352	191.38
306.582	178.38
306.812	193.38
307.042	187.38
307.272	189.38
307.502	197.38
307.731	218.38
307.961	210.38
308.191	209.38
308.421	201.38
308.651	178.38
308.881	213.38
309.111	193.38
309.341	182.38
309.571	167.38
309.8	177.38
310.03	174.38
310.26	156.38
310.49	173.38
310.72	174.38
310.949	173.38
311.179	160.38
311.409	180.38
311.639	169.38
311.868	174.38
312.098	183.38
312.328	185.38
312.557	191.38
312.787	174.38
313.017	188.38
313.246	182.38
313.476	178.38
313.706	174.38
313.935	171.38
314.165	168.38
314.394	181.38
314.624	189.38
314.853	193.38
315.083	169.38
315.312	184.38
315.542	198.38
315.771	197.38
316.001	213.38
316.23	227.38
316.46	199.38
316.689	182.38
316.919	200.38
317.148	220.38
317.377	202.38
317.607	188.38
317.836	211.38
318.065	223.38
318.295	216.38
318.524	193.38
318.753	197.38
318.983	205.38
319.212	222.38
319.441	210.38
319.67	203.38
319.9	201.38
320.129	205.38
320.358	201.38
320.587	184.38
320.816	167.38
321.046	187.38
321.275	208.38
321.504	187.38
321.733	210.38
321.962	195.38
322.191	203.38
322.42	206.38
322.649	207.38
322.878	224.38
323.108	232.38
323.337	251.38
323.566	289.38
323.795	295.38
324.024	267.38
324.253	249.38
324.482	220.38
324.71	233.38
324.939	227.38
325.168	239.38
325.397	215.38
325.626	204.38
325.855	198.38
326.084	208.38
326.313	215.38
326.542	209.38
326.77	213.38
326.999	212.38
327.228	211.38
327.457	213.38
327.686	223.38
327.914	255.38
328.143	290.38
328.372	274.38
328.6	241.38
328.829	211.38
329.058	218.38
329.287	218.38
329.515	239.38
329.744	270.38
329.972	287.38
330.201	330.38
330.43	353.38
330.658	279.38
330.887	250.38
331.115	239.38
331.344	233.38
331.572	245.38
331.801	229.38
332.03	233.38
332.258	238.38
332.486	274.38
332.715	247.38
332.943	269.38
333.172	287.38
333.4	293.38
333.629	302.38
333.857	305.38
334.085	384.38
334.314	462.38
334.542	486.38
334.771	467.38
334.999	380.38
335.227	336.38
335.455	291.38
335.684	278.38
335.912	278.38
336.14	283.38
336.369	277.38
336.597	247.38
336.825	243.38
337.053	253.38
337.281	272.38
337.51	275.38
337.738	258.38
337.966	267.38
338.194	251.38
338.422	266.38
338.65	253.38
338.878	236.38
339.106	220.38
339.334	236.38
339.562	211.38
339.79	200.38
340.018	194.38
340.246	192.38
340.474	181.38
340.702	204.38
340.93	194.38
341.158	202.38
341.386	199.38
341.614	170.38
341.842	179.38
342.07	189.38
342.298	199.38
342.526	180.38
342.754	175.38
342.981	190.38
343.209	202.38
343.437	232.38
343.665	213.38
343.893	223.38
344.12	249.38
344.348	228.38
344.576	205.38
344.804	200.38
345.031	191.38
345.259	201.38
345.487	206.38
345.714	190.38
345.942	182.38
346.17	196.38
346.397	189.38
346.625	189.38
346.853	195.38
347.08	181.38
347.308	183.38
347.535	198.38
347.763	193.38
347.99	213.38
348.218	198.38
348.445	200.38
348.673	174.38
348.9	194.38
349.128	188.38
349.355	182.38
349.583	185.38
349.81	175.38
350.037	191.38
350.265	181.38
350.492	192.38
350.72	205.38
350.947	202.38
351.174	182.38
351.402	192.38
351.629	182.38
351.856	180.38
352.083	183.38
352.311	206.38
352.538	189.38
352.765	203.38
352.992	205.38
353.22	175.38
353.447	170.38
353.674	192.38
353.901	187.38
354.128	198.38
354.355	192.38
354.583	197.38
354.81	191.38
355.037	197.38
355.264	173.38
355.491	187.38
355.718	191.38
355.945	179.38
356.172	203.38
356.399	174.38
356.626	190.38
356.853	192.38
357.08	191.38
357.307	198.38
357.534	198.38
357.761	189.38
357.988	205.38
358.215	212.38
358.441	199.38
358.668	198.38
358.895	192.38
359.122	207.38
359.349	194.38
359.576	195.38
359.802	199.38
360.029	181.38
360.256	186.38
360.483	179.38
360.709	190.38
360.936	216.38
361.163	188.38
361.39	194.38
361.616	182.38
361.843	185.38
362.07	195.38
362.296	212.38
362.523	177.38
362.749	198.38
362.976	189.38
363.203	208.38
363.429	205.38
363.656	227.38
363.882	225.38
364.109	224.38
364.335	227.38
364.562	207.38
364.788	210.38
365.015	209.38
365.241	227.38
365.468	226.38
365.694	198.38
365.92	203.38
366.147	208.38
366.373	185.38
366.599	193.38
366.826	187.38
367.052	203.38
367.278	211.38
367.505	208.38
367.731	210.38
367.957	215.38
368.184	204.38
368.41	251.38
368.636	267.38
368.862	225.38
369.089	205.38
369.315	198.38
369.541	211.38
369.767	185.38
369.993	194.38
370.219	204.38
370.445	221.38
370.672	218.38
370.898	210.38
371.124	192.38
371.35	198.38
371.576	200.38
371.802	214.38
372.028	202.38
372.254	204.38
372.48	227.38
372.706	223.38
372.932	233.38
373.158	247.38
373.384	230.38
373.61	237.38
373.835	240.38
374.061	248.38
374.287	264.38
374.513	251.38
374.739	233.38
374.965	254.38
375.191	251.38
375.416	273.38
375.642	267.38
375.868	301.38
376.094	300.38
376.319	259.38
376.545	224.38
376.771	217.38
376.997	194.38
377.222	225.38
377.448	207.38
377.674	197.38
377.899	201.38
378.125	210.38
378.35	214.38
378.576	193.38
378.802	203.38
379.027	217.38
379.253	222.38
379.478	204.38
379.704	210.38
379.929	218.38
380.155	203.38
380.38	200.38
380.606	214.38
380.831	214.38
381.057	231.38
381.282	221.38
381.507	227.38
381.733	235.38
381.958	236.38
382.184	237.38
382.409	241.38
382.634	255.38
382.86	243.38
383.085	257.38
383.31	260.38
383.535	273.38
383.761	271.38
383.986	262.38
384.211	246.38
384.436	248.38
384.662	255.38
384.887	270.38
385.112	263.38
385.337	285.38
385.562	269.38
385.787	268.38
386.013	275.38
386.238	275.38
386.463	274.38
386.688	284.38
386.913	273.38
387.138	263.38
387.363	262.38
387.588	271.38
387.813	271.38
388.038	273.38
388.263	285.38
388.488	282.38
388.713	267.38
388.938	240.38
389.163	232.38
389.387	239.38
389.612	239.38
389.837	258.38
390.062	270.38
390.287	274.38
390.512	266.38
390.736	262.38
390.961	245.38
391.186	263.38
391.411	277.38
391.636	272.38
391.86	265.38
392.085	285.38
392.31	283.38
392.534	306.38
392.759	325.38
392.984	387.38
393.208	569.38
393.433	756.38
393.658	583.38
393.882	344.38
394.107	293.38
394.331	287.38
394.556	307.38
394.78	301.38
395.005	314.38
395.229	288.38
395.454	279.38
395.678	310.38
395.903	354.38
396.127	367.38
396.352	368.38
396.576	409.38
396.801	550.38
397.025	594.38
397.249	371.38
397.474	315.38
397.698	280.38
397.922	286.38
398.147	313.38
398.371	320.38
398.595	305.38
398.82	307.38
399.044	346.38
399.268	340.38
399.492	396.38
399.717	396.38
399.941	403.38
400.165	378.38
400.389	333.38
400.613	311.38
400.837	316.38
401.062	319.38
401.286	292.38
401.51	298.38
401.734	288.38
401.958	286.38
402.182	290.38
402.406	313.38
402.63	307.38
402.854	309.38
403.078	325.38
403.302	321.38
403.526	338.38
403.75	333.38
403.974	326.38
404.198	325.38
404.422	314.38
404.645	341.38
404.869	337.38
405.093	336.38
405.317	331.38
405.541	335.38
405.765	323.38
405.988	317.38
406.212	331.38
406.436	332.38
406.66	354.38
406.883	346.38
407.107	347.38
407.331	336.38
407.555	354.38
407.778	352.38
408.002	353.38
408.226	320.38
408.449	322.38
408.673	322.38
408.896	308.38
409.12	305.38
409.344	328.38
409.567	337.38
409.791	333.38
410.014	321.38
410.238	339.38
410.461	317.38
410.685	317.38
410.908	321.38
411.132	311.38
411.355	305.38
411.578	310.38
411.802	311.38
412.025	317.38
412.249	322.38
412.472	338.38
412.695	313.38
412.919	312.38
413.142	315.38
413.365	320.38
413.589	318.38
413.812	306.38
414.035	309.38
414.258	292.38
414.482	311.38
414.705	299.38
414.928	309.38
415.151	309.38
415.374	290.38
415.597	299.38
415.821	303.38
416.044	306.38
416.267	315.38
416.49	299.38
416.713	301.38
416.936	299.38
417.159	321.38
417.382	291.38
417.605	314.38
417.828	321.38
418.051	310.38
418.274	311.38
418.497	313.38
418.72	315.38
418.943	318.38
419.166	322.38
419.389	361.38
419.611	335.38
419.834	336.38
420.057	333.38
420.28	303.38
420.503	297.38
420.726	313.38
420.948	309.38
421.171	303.38
421.394	290.38
421.617	314.38
421.839	317.38
422.062	322.38
422.285	326.38
422.507	397.38
422.73	486.38
422.953	442.38
423.175	336.38
423.398	336.38
423.621	320.38
423.843	307.38
424.066	329.38
424.288	323.38
424.511	322.38
424.733	317.38
424.956	302.38
425.178	307.38
425.401	321.38
425.623	315.38
425.846	299.38
426.068	298.38
426.291	324.38
426.513	292.38
426.735	303.38
426.958	283.38
427.18	293.38
427.402	305.38
427.625	321.38
427.847	299.38
428.069	322.38
428.292	331.38
428.514	339.38
428.736	333.38
428.958	337.38
429.181	339.38
429.403	307.38
429.625	325.38
429.847	325.38
430.069	424.38
430.292	414.38
430.514	371.38
430.736	376.38
430.958	348.38
431.18	266.38
431.402	285.38
431.624	294.38
431.846	297.38
432.068	303.38
432.29	271.38
432.512	284.38
432.734	287.38
432.956	274.38
433.178	285.38
433.4	289.38
433.622	283.38
433.844	284.38
434.066	297.38
434.287	279.38
434.509	280.38
434.731	283.38
434.953	287.38
435.175	291.38
435.397	290.38
435.618	292.38
435.84	279.38
436.062	280.38
436.284	268.38
436.505	275.38
436.727	288.38
436.949	283.38
437.17	288.38
437.392	277.38
437.614	273.38
437.835	254.38
438.057	254.38
438.278	267.38
438.5	263.38
438.721	279.38
438.943	291.38
439.165	281.38
439.386	293.38
439.608	310.38
439.829	284.38
440.05	295.38
440.272	296.38
440.493	286.38
440.715	281.38
440.936	294.38
441.158	311.38
441.379	298.38
441.6	328.38
441.822	323.38
442.043	310.38
442.264	308.38
442.486	304.38
442.707	347.38
442.928	333.38
443.149	327.38
443.371	341.38
443.592	347.38
443.813	346.38
444.034	335.38
444.255	337.38
444.476	341.38
444.698	369.38
444.919	383.38
445.14	562.38
445.361	471.38
445.582	433.38
445.803	354.38
446.024	341.38
446.245	304.38
446.466	298.38
446.687	304.38
446.908	316.38
447.129	317.38
447.35	323.38
447.571	287.38
447.792	301.38
448.013	285.38
448.234	281.38
448.455	283.38
448.675	263.38
448.896	271.38
449.117	275.38
449.338	269.38
449.559	278.38
449.779	266.38
450	277.38
450.221	284.38
450.442	295.38
450.662	283.38
450.883	266.38
451.104	287.38
451.324	271.38
451.545	285.38
451.766	293.38
451.986	295.38
452.207	280.38
452.428	285.38
452.648	301.38
452.869	295.38
453.089	283.38
453.31	332.38
453.53	457.38
453.751	455.38
453.971	311.38
454.192	254.38
454.412	270.38
454.633	281.38
454.853	281.38
455.073	300.38
455.294	299.38
455.514	328.38
455.734	293.38
455.955	251.38
456.175	239.38
456.395	232.38
456.616	250.38
456.836	248.38
457.056	259.38
457.276	241.38
457.497	234.38
457.717	254.38
457.937	230.38
458.157	238.38
458.377	236.38
458.598	237.38
458.818	246.38
459.038	246.38
459.258	253.38
459.478	261.38
459.698	271.38
459.918	272.38
460.138	283.38
460.358	305.38
460.578	303.38
460.798	304.38
461.018	296.38
461.238	312.38
461.458	305.38
461.678	313.38
461.898	341.38
462.118	317.38
462.338	346.38
462.558	341.38
462.777	335.38
462.997	352.38
463.217	375.38
463.437	373.38
463.657	335.38
463.876	338.38
464.096	367.38
464.316	351.38
464.536	317.38
464.755	334.38
464.975	306.38
465.195	307.38
465.414	307.38
465.634	277.38
465.854	292.38
466.073	277.38
466.293	292.38
466.512	284.38
466.732	270.38
466.951	285.38
467.171	285.38
467.391	279.38
467.61	288.38
467.829	291.38
468.049	364.38
468.268	394.38
468.488	351.38
468.707	313.38
468.927	296.38
469.146	280.38
469.365	301.38
469.585	283.38
469.804	292.38
470.023	290.38
470.243	303.38
470.462	299.38
470.681	310.38
470.901	296.38
471.12	299.38
471.339	275.38
471.558	300.38
471.777	303.38
471.997	350.38
472.216	407.38
472.435	524.38
472.654	394.38
472.873	320.38
473.092	297.38
473.311	281.38
473.53	275.38
473.749	299.38
473.968	293.38
474.187	278.38
474.406	288.38
474.625	281.38
474.844	281.38
475.063	286.38
475.282	278.38
475.501	258.38
475.72	291.38
475.939	311.38
476.158	301.38
476.377	279.38
476.596	294.38
476.814	291.38
477.033	286.38
477.252	294.38
477.471	289.38
477.69	304.38
477.908	330.38
478.127	325.38
478.346	321.38
478.564	339.38
478.783	304.38
479.002	325.38
479.22	315.38
479.439	337.38
479.658	305.38
479.876	329.38
480.095	335.38
480.313	359.38
480.532	352.38
480.751	383.38
480.969	462.38
481.188	712.38
481.406	647.38
481.624	424.38
481.843	343.38
482.061	355.38
482.28	354.38
482.498	317.38
482.717	317.38
482.935	312.38
483.153	337.38
483.372	333.38
483.59	311.38
483.808	322.38
484.027	330.38
484.245	376.38
484.463	322.38
484.681	334.38
484.9	327.38
485.118	337.38
485.336	318.38
485.554	322.38
485.772	360.38
485.99	309.38
486.209	318.38
486.427	314.38
486.645	339.38
486.863	334.38
487.081	355.38
487.299	341.38
487.517	329.38
487.735	332.38
487.953	356.38
488.171	354.38
488.389	335.38
488.607	338.38
488.825	351.38
489.043	307.38
489.261	303.38
489.479	310.38
489.696	322.38
489.914	334.38
490.132	336.38
490.35	338.38
490.568	349.38
490.786	331.38
491.003	346.38
491.221	347.38
491.439	378.38
491.657	373.38
491.874	363.38
492.092	383.38
492.31	409.38
492.527	382.38
492.745	363.38
492.963	380.38
493.18	363.38
493.398	394.38
493.615	425.38
493.833	394.38
494.05	361.38
494.268	365.38
494.485	353.38
494.703	346.38
494.92	344.38
495.138	345.38
495.355	344.38
495.573	345.38
495.79	365.38
496.008	356.38
496.225	361.38
496.442	376.38
496.66	366.38
496.877	375.38
497.094	376.38
497.312	367.38
497.529	392.38
497.746	387.38
497.963	403.38
498.181	484.38
498.398	603.38
498.615	449.38
498.832	447.38
499.049	530.38
499.267	689.38
499.484	572.38
499.701	590.38
499.918	691.38
500.135	858.38
500.352	821.38
500.569	765.38
500.786	863.38
501.003	811.38
501.22	654.38
501.437	651.38
501.654	713.38
501.871	568.38
502.088	510.38
502.305	524.38
502.522	520.38
502.739	493.38
502.956	418.38
503.172	386.38
503.389	390.38
503.606	419.38
503.823	511.38
504.04	503.38
504.256	458.38
504.473	405.38
504.69	371.38
504.907	382.38
505.123	348.38
505.34	333.38
505.557	339.38
505.773	330.38
505.99	332.38
506.207	305.38
506.423	343.38
506.64	389.38
506.856	350.38
507.073	317.38
507.289	301.38
507.506	281.38
507.722	275.38
507.939	302.38
508.155	305.38
508.372	274.38
508.588	290.38
508.805	297.38
509.021	287.38
509.238	286.38
509.454	292.38
509.67	275.38
509.887	274.38
510.103	279.38
510.319	274.38
510.536	283.38
510.752	271.38
510.968	266.38
511.184	257.38
511.401	277.38
511.617	291.38
511.833	279.38
512.049	273.38
512.265	288.38
512.481	272.38
512.698	279.38
512.914	261.38
513.13	271.38
513.346	263.38
513.562	267.38
513.778	288.38
513.994	268.38
514.21	258.38
514.426	277.38
514.642	293.38
514.858	284.38
515.074	295.38
515.29	294.38
515.506	288.38
515.721	275.38
515.937	299.38
516.153	289.38
516.369	299.38
516.585	309.38
516.801	330.38
517.016	339.38
517.232	375.38
517.448	447.38
517.664	426.38
517.879	359.38
518.095	360.38
518.311	360.38
518.527	386.38
518.742	351.38
518.958	343.38
519.173	337.38
519.389	385.38
519.605	353.38
519.82	298.38
520.036	290.38
520.251	285.38
520.467	302.38
520.682	289.38
520.898	300.38
521.113	353.38
521.329	360.38
521.544	286.38
521.76	285.38
521.975	290.38
522.19	288.38
522.406	287.38
522.621	297.38
522.836	289.38
523.052	291.38
523.267	259.38
523.482	267.38
523.698	273.38
523.913	265.38
524.128	266.38
524.343	275.38
524.559	278.38
524.774	265.38
524.989	267.38
525.204	265.38
525.419	272.38
525.634	263.38
525.849	265.38
526.064	285.38
526.28	272.38
526.495	287.38
526.71	301.38
526.925	268.38
527.14	292.38
527.355	261.38
527.57	259.38
527.785	248.38
527.999	239.38
528.214	258.38
528.429	267.38
528.644	271.38
528.859	264.38
529.074	286.38
529.289	288.38
529.503	279.38
529.718	282.38
529.933	289.38
530.148	263.38
530.363	254.38
530.577	266.38
530.792	250.38
531.007	254.38
531.221	273.38
531.436	265.38
531.651	268.38
531.865	265.38
532.08	261.38
532.295	266.38
532.509	246.38
532.724	267.38
532.938	250.38
533.153	265.38
533.367	264.38
533.582	275.38
533.796	274.38
534.011	264.38
534.225	245.38
534.44	261.38
534.654	247.38
534.868	252.38
535.083	274.38
535.297	275.38
535.511	261.38
535.726	262.38
535.94	240.38
536.154	254.38
536.369	258.38
536.583	230.38
536.797	247.38
537.011	242.38
537.225	258.38
537.44	250.38
537.654	250.38
537.868	221.38
538.082	243.38
538.296	256.38
538.51	259.38
538.724	271.38
538.938	261.38
539.153	250.38
539.367	273.38
539.581	256.38
539.795	250.38
540.009	240.38
540.222	246.38
540.436	245.38
540.65	250.38
540.864	257.38
541.078	269.38
541.292	290.38
541.506	288.38
541.72	275.38
541.934	278.38
542.147	276.38
542.361	277.38
542.575	254.38
542.789	265.38
543.002	265.38
543.216	263.38
543.43	255.38
543.644	252.38
543.857	250.38
544.071	274.38
544.285	283.38
544.498	267.38
544.712	276.38
544.925	271.38
545.139	282.38
545.352	281.38
545.566	285.38
545.779	275.38
545.993	291.38
546.206	292.38
546.42	287.38
546.633	305.38
546.847	297.38
547.06	283.38
547.274	286.38
547.487	286.38
547.7	302.38
547.914	301.38
548.127	299.38
548.34	298.38
548.554	291.38
548.767	298.38
548.98	297.38
549.193	313.38
549.407	304.38
549.62	293.38
549.833	306.38
550.046	295.38
550.259	306.38
550.473	299.38
550.686	306.38
550.899	292.38
551.112	297.38
551.325	305.38
551.538	339.38
551.751	321.38
551.964	279.38
552.177	300.38
552.39	303.38
552.603	313.38
552.816	314.38
553.029	325.38
553.242	334.38
553.455	338.38
553.667	360.38
553.88	357.38
554.093	315.38
554.306	318.38
554.519	316.38
554.732	303.38
554.944	302.38
555.157	290.38
555.37	295.38
555.583	298.38
555.795	272.38
556.008	280.38
556.221	300.38
556.433	284.38
556.646	266.38
556.859	274.38
557.071	271.38
557.284	258.38
557.496	265.38
557.709	263.38
557.921	268.38
558.134	265.38
558.346	261.38
558.559	272.38
558.771	268.38
558.984	288.38
559.196	331.38
559.409	291.38
559.621	288.38
559.833	285.38
560.046	281.38
560.258	273.38
560.47	269.38
560.683	261.38
560.895	267.38
561.107	276.38
561.32	242.38
561.532	271.38
561.744	267.38
561.956	238.38
562.168	248.38
562.381	254.38
562.593	248.38
562.805	249.38
563.017	244.38
563.229	273.38
563.441	250.38
563.653	249.38
563.865	251.38
564.077	250.38
564.289	262.38
564.501	263.38
564.713	267.38
564.925	254.38
565.137	272.38
565.349	259.38
565.561	283.38
565.773	273.38
565.985	284.38
566.197	298.38
566.408	315.38
566.62	322.38
566.832	332.38
567.044	327.38
567.255	331.38
567.467	331.38
567.679	345.38
567.891	381.38
568.102	357.38
568.314	354.38
568.526	309.38
568.737	299.38
568.949	279.38
569.161	273.38
569.372	242.38
569.584	235.38
569.795	246.38
570.007	240.38
570.218	236.38
570.43	249.38
570.641	227.38
570.853	242.38
571.064	246.38
571.276	240.38
571.487	232.38
571.698	232.38
571.91	233.38
572.121	220.38
572.333	213.38
572.544	206.38
572.755	212.38
572.966	201.38
573.178	205.38
573.389	205.38
573.6	190.38
573.811	204.38
574.023	193.38
574.234	194.38
574.445	205.38
574.656	187.38
574.867	200.38
575.078	194.38
575.289	214.38
575.501	217.38
575.712	189.38
575.923	207.38
576.134	178.38
576.345	184.38
576.556	198.38
576.767	213.38
576.978	208.38
577.188	189.38
577.399	201.38
577.61	213.38
577.821	204.38
578.032	197.38
578.243	205.38
578.454	191.38
578.665	186.38
578.875	184.38
579.086	184.38
579.297	177.38
579.508	182.38
579.718	192.38
579.929	191.38
580.14	192.38
580.35	181.38
580.561	185.38
580.772	193.38
580.982	195.38
581.193	179.38
581.403	191.38
581.614	197.38
581.825	189.38
582.035	171.38
582.246	197.38
582.456	184.38
582.667	185.38
582.877	184.38
583.087	178.38
583.298	185.38
583.508	188.38
583.719	194.38
583.929	190.38
584.139	169.38
584.35	168.38
584.56	202.38
584.77	187.38
584.981	178.38
585.191	179.38
585.401	178.38
585.611	185.38
585.821	183.38
586.032	202.38
586.242	182.38
586.452	193.38
586.662	203.38
586.872	201.38
587.082	179.38
587.292	176.38
587.502	182.38
587.713	187.38
587.923	182.38
588.133	188.38
588.343	177.38
588.553	189.38
588.762	216.38
588.972	267.38
589.182	475.38
589.392	338.38
589.602	269.38
589.812	406.38
590.022	288.38
590.232	216.38
590.441	177.38
590.651	181.38
590.861	192.38
591.071	189.38
591.281	210.38
591.49	201.38
591.7	208.38
591.91	190.38
592.119	201.38
592.329	212.38
592.539	202.38
592.748	222.38
592.958	218.38
593.167	193.38
593.377	223.38
593.587	245.38
593.796	220.38
594.006	216.38
594.215	214.38
594.424	221.38
594.634	211.38
594.843	202.38
595.053	209.38
595.262	215.38
595.472	227.38
595.681	194.38
595.89	198.38
596.1	197.38
596.309	189.38
596.518	218.38
596.727	205.38
596.937	184.38
597.146	199.38
597.355	179.38
597.564	184.38
597.774	191.38
597.983	195.38
598.192	184.38
598.401	188.38
598.61	196.38
598.819	189.38
599.028	204.38
599.237	188.38
599.446	192.38
599.655	182.38
599.864	185.38
600.073	167.38
600.282	186.38
600.491	192.38
600.7	176.38
600.909	174.38
601.118	189.38
601.327	179.38
601.536	183.38
601.745	192.38
601.953	191.38
602.162	185.38
602.371	188.38
602.58	186.38
602.789	209.38
602.997	183.38
603.206	195.38
603.415	192.38
603.623	182.38
603.832	209.38
604.041	199.38
604.249	190.38
604.458	191.38
604.666	180.38
604.875	181.38
605.084	173.38
605.292	182.38
605.501	186.38
605.709	184.38
605.918	183.38
606.126	178.38
606.334	186.38
606.543	184.38
606.751	189.38
606.96	182.38
607.168	190.38
607.376	183.38
607.585	189.38
607.793	171.38
608.001	178.38
608.21	184.38
608.418	185.38
608.626	176.38
608.834	187.38
609.043	199.38
609.251	198.38
609.459	186.38
609.667	180.38
609.875	187.38
610.083	189.38
610.291	190.38
610.499	201.38
610.707	187.38
610.916	187.38
611.124	183.38
611.332	185.38
611.54	183.38
611.748	191.38
611.955	197.38
612.163	193.38
612.371	232.38
612.579	223.38
612.787	191.38
612.995	183.38
613.203	189.38
613.411	171.38
613.618	191.38
613.826	193.38
614.034	182.38
614.242	191.38
614.449	217.38
614.657	195.38
614.865	181.38
615.072	192.38
615.28	188.38
615.488	183.38
615.695	192.38
615.903	193.38
616.111	201.38
616.318	241.38
616.526	250.38
616.733	215.38
616.941	195.38
617.148	219.38
617.356	205.38
617.563	184.38
617.771	199.38
617.978	191.38
618.185	174.38
618.393	197.38
618.6	178.38
618.807	184.38
619.015	198.38
619.222	186.38
619.429	182.38
619.637	182.38
619.844	163.38
620.051	195.38
620.258	176.38
620.466	185.38
620.673	184.38
620.88	171.38
621.087	182.38
621.294	199.38
621.501	160.38
621.708	193.38
621.915	197.38
622.122	187.38
622.329	206.38
622.536	200.38
622.743	203.38
622.95	192.38
623.157	192.38
623.364	186.38
623.571	193.38
623.778	198.38
623.985	183.38
624.192	186.38
624.399	174.38
624.606	186.38
624.812	181.38
625.019	162.38
625.226	171.38
625.433	186.38
625.639	173.38
625.846	185.38
626.053	190.38
626.259	194.38
626.466	190.38
626.673	168.38
626.879	154.38
627.086	154.38
627.293	159.38
627.499	157.38
627.706	171.38
627.912	150.38
628.119	162.38
628.325	159.38
628.532	138.38
628.738	153.38
628.945	138.38
629.151	135.38
629.357	136.38
629.564	142.38
629.77	153.38
629.976	139.38
630.183	151.38
630.389	147.38
630.595	142.38
630.802	147.38
631.008	127.38
631.214	142.38
631.42	152.38
631.627	153.38
631.833	148.38
632.039	137.38
632.245	138.38
632.451	133.38
632.657	161.38
632.863	136.38
633.069	148.38
633.275	150.38
633.481	149.38
633.688	144.38
633.893	149.38
634.099	125.38
634.305	133.38
634.511	128.38
634.717	149.38
634.923	129.38
635.129	147.38
635.335	133.38
635.541	147.38
635.747	128.38
635.952	142.38
636.158	142.38
636.364	180.38
636.57	192.38
636.775	170.38
636.981	168.38
637.187	148.38
637.392	135.38
637.598	138.38
637.804	149.38
638.009	143.38
638.215	156.38
638.421	152.38
638.626	133.38
638.832	137.38
639.037	140.38
639.243	147.38
639.448	129.38
639.654	142.38
639.859	132.38
640.065	130.38
640.27	156.38
640.475	133.38
640.681	133.38
640.886	150.38
641.091	128.38
641.297	140.38
641.502	136.38
641.707	133.38
641.913	124.38
642.118	126.38
642.323	124.38
642.528	155.38
642.733	135.38
642.939	126.38
643.144	118.38
643.349	140.38
643.554	136.38
643.759	136.38
643.964	137.38
644.169	154.38
644.374	137.38
644.579	139.38
644.784	136.38
644.989	128.38
645.194	128.38
645.399	149.38
645.604	127.38
645.809	124.38
646.014	128.38
646.219	130.38
646.423	142.38
646.628	134.38
646.833	115.38
647.038	146.38
647.243	130.38
647.447	137.38
647.652	142.38
647.857	134.38
648.062	132.38
648.266	122.38
648.471	141.38
648.676	145.38
648.88	129.38
649.085	138.38
649.289	145.38
649.494	139.38
649.698	128.38
649.903	136.38
650.107	137.38
650.312	131.38
650.516	113.38
650.721	122.38
650.925	126.38
651.13	118.38
651.334	109.38
651.539	130.38
651.743	113.38
651.947	133.38
652.152	121.38
652.356	108.38
652.56	112.38
652.764	120.38
652.969	115.38
653.173	114.38
653.377	122.38
653.581	103.38
653.785	115.38
653.99	106.38
654.194	110.38
654.398	110.38
654.602	106.38
654.806	124.38
655.01	111.38
655.214	113.38
655.418	122.38
655.622	95.38
655.826	104.38
656.03	114.38
656.234	114.38
656.438	111.38
656.642	110.38
656.846	115.38
657.049	90.38
657.253	81.38
657.457	93.38
657.661	93.38
657.865	109.38
658.068	100.38
658.272	105.38
658.476	94.38
658.68	87.38
658.883	95.38
659.087	80.38
659.291	85.38
659.494	106.38
659.698	109.38
659.901	105.38
660.105	85.38
660.309	97.38
660.512	91.38
660.716	80.38
660.919	81.38
661.123	97.38
661.326	91.38
661.53	93.38
661.733	76.38
661.936	91.38
662.14	71.38
662.343	98.38
662.546	78.38
662.75	83.38
662.953	97.38
663.156	97.38
663.36	76.38
663.563	86.38
663.766	66.38
663.969	79.38
664.173	69.38
664.376	91.38
664.579	88.38
664.782	78.38
664.985	92.38
665.188	81.38
665.391	85.38
665.594	80.38
665.797	84.38
666	86.38
666.203	87.38
666.406	78.38
666.609	94.38
666.812	83.38
667.015	94.38
667.218	81.38
667.421	83.38
667.624	71.38
667.827	88.38
668.03	78.38
668.232	66.38
668.435	65.38
668.638	88.38
668.841	83.38
669.043	91.38
669.246	77.38
669.449	78.38
669.651	67.38
669.854	69.38
670.057	65.38
670.259	69.38
670.462	84.38
670.665	69.38
670.867	82.38
671.07	82.38
671.272	87.38
671.475	98.38
671.677	77.38
671.88	86.38
672.082	82.38
672.284	86.38
672.487	80.38
672.689	79.38
672.892	81.38
