Data from SampB_HRD10591_00064.txt Node
Date: Mon Jan 19 11:33:50 EST 2026
User: Yrep
Spectrometer: HR+D1059
Trigger mode: 0
Integration Time (sec): 3.443000E-1
Scans to average: 1
Electric dark correction enabled: true
Nonlinearity correction enabled: false
Boxcar width: 0
XAxis mode: Wavelengths
Number of Pixels in Spectrum: 2048
>>>>>Begin Spectral Data<<<<<
223.165	-18.38
223.4	-18.38
223.635	-18.38
223.869	-22.38
224.104	-16.38
224.338	-7.38
224.573	-18.38
224.808	-17.38
225.042	-0.38
225.277	-16.38
225.511	-2.38
225.746	-5.38
225.98	7.62
226.215	16.62
226.449	17.62
226.683	21.62
226.918	28.62
227.152	32.62
227.387	31.62
227.621	37.62
227.856	43.62
228.09	34.62
228.324	58.62
228.559	63.62
228.793	69.62
229.027	69.62
229.262	59.62
229.496	71.62
229.73	83.62
229.964	77.62
230.199	72.62
230.433	68.62
230.667	100.62
230.901	92.62
231.136	84.62
231.37	86.62
231.604	95.62
231.838	89.62
232.072	89.62
232.306	105.62
232.541	93.62
232.775	90.62
233.009	86.62
233.243	88.62
233.477	82.62
233.711	111.62
233.945	95.62
234.179	90.62
234.413	102.62
234.647	103.62
234.881	103.62
235.115	110.62
235.349	96.62
235.583	89.62
235.817	105.62
236.051	90.62
236.285	93.62
236.519	93.62
236.753	96.62
236.987	100.62
237.221	97.62
237.455	87.62
237.689	93.62
237.922	103.62
238.156	91.62
238.39	89.62
238.624	99.62
238.858	108.62
239.091	103.62
239.325	101.62
239.559	98.62
239.793	114.62
240.027	106.62
240.26	94.62
240.494	114.62
240.728	94.62
240.961	95.62
241.195	101.62
241.429	116.62
241.662	92.62
241.896	99.62
242.13	106.62
242.363	90.62
242.597	97.62
242.83	95.62
243.064	101.62
243.298	106.62
243.531	98.62
243.765	106.62
243.998	106.62
244.232	138.62
244.465	107.62
244.699	109.62
244.932	103.62
245.166	97.62
245.399	111.62
245.633	112.62
245.866	102.62
246.099	105.62
246.333	105.62
246.566	116.62
246.8	105.62
247.033	87.62
247.266	87.62
247.5	103.62
247.733	99.62
247.966	97.62
248.2	95.62
248.433	105.62
248.666	123.62
248.899	123.62
249.133	104.62
249.366	132.62
249.599	128.62
249.832	114.62
250.066	123.62
250.299	123.62
250.532	121.62
250.765	117.62
250.998	110.62
251.231	115.62
251.465	110.62
251.698	103.62
251.931	108.62
252.164	115.62
252.397	107.62
252.63	116.62
252.863	134.62
253.096	135.62
253.329	132.62
253.562	125.62
253.795	123.62
254.028	130.62
254.261	136.62
254.494	129.62
254.727	134.62
254.96	114.62
255.193	135.62
255.426	139.62
255.659	113.62
255.892	133.62
256.124	143.62
256.357	131.62
256.59	148.62
256.823	124.62
257.056	128.62
257.289	112.62
257.521	132.62
257.754	107.62
257.987	128.62
258.22	135.62
258.452	129.62
258.685	150.62
258.918	134.62
259.151	127.62
259.383	140.62
259.616	139.62
259.849	148.62
260.081	167.62
260.314	155.62
260.547	136.62
260.779	149.62
261.012	133.62
261.244	124.62
261.477	166.62
261.71	151.62
261.942	136.62
262.175	146.62
262.407	126.62
262.64	122.62
262.872	143.62
263.105	146.62
263.337	168.62
263.57	149.62
263.802	133.62
264.035	110.62
264.267	117.62
264.499	119.62
264.732	132.62
264.964	133.62
265.197	124.62
265.429	128.62
265.661	128.62
265.894	144.62
266.126	128.62
266.358	139.62
266.591	139.62
266.823	105.62
267.055	123.62
267.287	135.62
267.52	117.62
267.752	131.62
267.984	123.62
268.216	112.62
268.448	124.62
268.681	125.62
268.913	139.62
269.145	137.62
269.377	124.62
269.609	133.62
269.841	118.62
270.073	138.62
270.306	131.62
270.538	143.62
270.77	140.62
271.002	119.62
271.234	141.62
271.466	159.62
271.698	154.62
271.93	143.62
272.162	151.62
272.394	159.62
272.626	142.62
272.858	150.62
273.09	167.62
273.322	150.62
273.553	140.62
273.785	160.62
274.017	177.62
274.249	192.62
274.481	158.62
274.713	206.62
274.945	231.62
275.176	189.62
275.408	184.62
275.64	172.62
275.872	183.62
276.104	165.62
276.335	147.62
276.567	157.62
276.799	146.62
277.031	157.62
277.262	162.62
277.494	151.62
277.726	159.62
277.957	154.62
278.189	143.62
278.421	151.62
278.652	144.62
278.884	151.62
279.115	151.62
279.347	164.62
279.579	173.62
279.81	166.62
280.042	157.62
280.273	153.62
280.505	173.62
280.736	143.62
280.968	147.62
281.199	160.62
281.431	137.62
281.662	143.62
281.894	153.62
282.125	153.62
282.356	158.62
282.588	143.62
282.819	153.62
283.051	153.62
283.282	157.62
283.513	153.62
283.745	164.62
283.976	138.62
284.207	167.62
284.439	161.62
284.67	165.62
284.901	171.62
285.132	161.62
285.364	171.62
285.595	156.62
285.826	147.62
286.057	172.62
286.288	167.62
286.52	161.62
286.751	149.62
286.982	149.62
287.213	148.62
287.444	167.62
287.675	158.62
287.906	167.62
288.138	167.62
288.369	158.62
288.6	158.62
288.831	139.62
289.062	153.62
289.293	177.62
289.524	162.62
289.755	169.62
289.986	150.62
290.217	142.62
290.448	158.62
290.679	163.62
290.91	168.62
291.141	150.62
291.371	164.62
291.602	150.62
291.833	167.62
292.064	177.62
292.295	175.62
292.526	165.62
292.757	143.62
292.987	161.62
293.218	156.62
293.449	163.62
293.68	162.62
293.91	169.62
294.141	167.62
294.372	165.62
294.603	153.62
294.833	162.62
295.064	164.62
295.295	170.62
295.525	161.62
295.756	175.62
295.987	164.62
296.217	167.62
296.448	170.62
296.679	181.62
296.909	177.62
297.14	160.62
297.37	178.62
297.601	171.62
297.831	185.62
298.062	174.62
298.292	192.62
298.523	179.62
298.753	176.62
298.984	159.62
299.214	165.62
299.445	179.62
299.675	168.62
299.905	162.62
300.136	185.62
300.366	163.62
300.597	186.62
300.827	173.62
301.057	184.62
301.288	185.62
301.518	185.62
301.748	181.62
301.979	219.62
302.209	197.62
302.439	202.62
302.669	167.62
302.9	189.62
303.13	208.62
303.36	180.62
303.59	183.62
303.82	179.62
304.051	185.62
304.281	181.62
304.511	207.62
304.741	182.62
304.971	176.62
305.201	184.62
305.431	181.62
305.661	188.62
305.891	191.62
306.121	183.62
306.352	184.62
306.582	176.62
306.812	172.62
307.042	185.62
307.272	178.62
307.502	187.62
307.731	191.62
307.961	193.62
308.191	181.62
308.421	179.62
308.651	190.62
308.881	168.62
309.111	180.62
309.341	191.62
309.571	177.62
309.8	189.62
310.03	179.62
310.26	183.62
310.49	173.62
310.72	172.62
310.949	173.62
311.179	179.62
311.409	188.62
311.639	180.62
311.868	187.62
312.098	195.62
312.328	172.62
312.557	184.62
312.787	185.62
313.017	183.62
313.246	189.62
313.476	195.62
313.706	185.62
313.935	191.62
314.165	197.62
314.394	192.62
314.624	181.62
314.853	186.62
315.083	187.62
315.312	165.62
315.542	175.62
315.771	184.62
316.001	176.62
316.23	192.62
316.46	210.62
316.689	181.62
316.919	191.62
317.148	183.62
317.377	202.62
317.607	192.62
317.836	180.62
318.065	166.62
318.295	189.62
318.524	192.62
318.753	190.62
318.983	186.62
319.212	185.62
319.441	176.62
319.67	200.62
319.9	194.62
320.129	194.62
320.358	196.62
320.587	195.62
320.816	192.62
321.046	182.62
321.275	185.62
321.504	180.62
321.733	222.62
321.962	205.62
322.191	198.62
322.42	207.62
322.649	189.62
322.878	205.62
323.108	221.62
323.337	202.62
323.566	228.62
323.795	220.62
324.024	215.62
324.253	205.62
324.482	217.62
324.71	207.62
324.939	199.62
325.168	207.62
325.397	184.62
325.626	203.62
325.855	192.62
326.084	208.62
326.313	221.62
326.542	204.62
326.77	212.62
326.999	209.62
327.228	219.62
327.457	231.62
327.686	217.62
327.914	228.62
328.143	251.62
328.372	254.62
328.6	250.62
328.829	230.62
329.058	204.62
329.287	227.62
329.515	235.62
329.744	256.62
329.972	275.62
330.201	294.62
330.43	301.62
330.658	273.62
330.887	239.62
331.115	223.62
331.344	228.62
331.572	228.62
331.801	228.62
332.03	230.62
332.258	239.62
332.486	252.62
332.715	257.62
332.943	236.62
333.172	240.62
333.4	253.62
333.629	285.62
333.857	303.62
334.085	333.62
334.314	361.62
334.542	393.62
334.771	359.62
334.999	311.62
335.227	261.62
335.455	267.62
335.684	268.62
335.912	245.62
336.14	243.62
336.369	245.62
336.597	235.62
336.825	222.62
337.053	246.62
337.281	226.62
337.51	234.62
337.738	220.62
337.966	228.62
338.194	229.62
338.422	232.62
338.65	234.62
338.878	221.62
339.106	222.62
339.334	206.62
339.562	219.62
339.79	211.62
340.018	219.62
340.246	197.62
340.474	195.62
340.702	200.62
340.93	208.62
341.158	204.62
341.386	211.62
341.614	213.62
341.842	205.62
342.07	197.62
342.298	200.62
342.526	216.62
342.754	218.62
342.981	204.62
343.209	214.62
343.437	238.62
343.665	233.62
343.893	260.62
344.12	254.62
344.348	214.62
344.576	230.62
344.804	233.62
345.031	197.62
345.259	207.62
345.487	216.62
345.714	208.62
345.942	228.62
346.17	204.62
346.397	208.62
346.625	207.62
346.853	200.62
347.08	182.62
347.308	218.62
347.535	197.62
347.763	210.62
347.99	223.62
348.218	212.62
348.445	203.62
348.673	198.62
348.9	199.62
349.128	223.62
349.355	199.62
349.583	203.62
349.81	205.62
350.037	195.62
350.265	201.62
350.492	214.62
350.72	197.62
350.947	202.62
351.174	183.62
351.402	216.62
351.629	191.62
351.856	190.62
352.083	203.62
352.311	224.62
352.538	196.62
352.765	208.62
352.992	207.62
353.22	212.62
353.447	192.62
353.674	201.62
353.901	215.62
354.128	212.62
354.355	202.62
354.583	223.62
354.81	205.62
355.037	214.62
355.264	181.62
355.491	207.62
355.718	195.62
355.945	203.62
356.172	204.62
356.399	211.62
356.626	217.62
356.853	210.62
357.08	228.62
357.307	215.62
357.534	203.62
357.761	211.62
357.988	224.62
358.215	224.62
358.441	233.62
358.668	211.62
358.895	203.62
359.122	201.62
359.349	195.62
359.576	194.62
359.802	211.62
360.029	210.62
360.256	212.62
360.483	203.62
360.709	201.62
360.936	217.62
361.163	222.62
361.39	199.62
361.616	212.62
361.843	228.62
362.07	208.62
362.296	217.62
362.523	206.62
362.749	209.62
362.976	196.62
363.203	223.62
363.429	218.62
363.656	200.62
363.882	209.62
364.109	225.62
364.335	202.62
364.562	205.62
364.788	209.62
365.015	213.62
365.241	206.62
365.468	219.62
365.694	203.62
365.92	208.62
366.147	209.62
366.373	189.62
366.599	212.62
366.826	224.62
367.052	213.62
367.278	212.62
367.505	200.62
367.731	221.62
367.957	199.62
368.184	201.62
368.41	230.62
368.636	216.62
368.862	222.62
369.089	195.62
369.315	205.62
369.541	224.62
369.767	233.62
369.993	225.62
370.219	215.62
370.445	215.62
370.672	233.62
370.898	220.62
371.124	235.62
371.35	226.62
371.576	240.62
371.802	232.62
372.028	228.62
372.254	240.62
372.48	234.62
372.706	241.62
372.932	237.62
373.158	244.62
373.384	262.62
373.61	271.62
373.835	241.62
374.061	241.62
374.287	236.62
374.513	235.62
374.739	249.62
374.965	272.62
375.191	266.62
375.416	246.62
375.642	267.62
375.868	261.62
376.094	246.62
376.319	252.62
376.545	244.62
376.771	228.62
376.997	220.62
377.222	239.62
377.448	231.62
377.674	229.62
377.899	218.62
378.125	225.62
378.35	260.62
378.576	215.62
378.802	227.62
379.027	216.62
379.253	213.62
379.478	224.62
379.704	223.62
379.929	233.62
380.155	221.62
380.38	220.62
380.606	228.62
380.831	237.62
381.057	249.62
381.282	240.62
381.507	249.62
381.733	265.62
381.958	251.62
382.184	267.62
382.409	249.62
382.634	259.62
382.86	246.62
383.085	255.62
383.31	250.62
383.535	268.62
383.761	265.62
383.986	279.62
384.211	256.62
384.436	269.62
384.662	269.62
384.887	260.62
385.112	253.62
385.337	279.62
385.562	284.62
385.787	289.62
386.013	290.62
386.238	272.62
386.463	275.62
386.688	285.62
386.913	249.62
387.138	273.62
387.363	259.62
387.588	265.62
387.813	276.62
388.038	270.62
388.263	263.62
388.488	285.62
388.713	275.62
388.938	259.62
389.163	268.62
389.387	251.62
389.612	254.62
389.837	275.62
390.062	267.62
390.287	257.62
390.512	264.62
390.736	264.62
390.961	250.62
391.186	281.62
391.411	262.62
391.636	287.62
391.86	280.62
392.085	288.62
392.31	285.62
392.534	286.62
392.759	300.62
392.984	280.62
393.208	318.62
393.433	333.62
393.658	305.62
393.882	280.62
394.107	298.62
394.331	296.62
394.556	291.62
394.78	289.62
395.005	287.62
395.229	293.62
395.454	299.62
395.678	308.62
395.903	322.62
396.127	324.62
396.352	312.62
396.576	288.62
396.801	328.62
397.025	329.62
397.249	311.62
397.474	298.62
397.698	290.62
397.922	305.62
398.147	311.62
398.371	308.62
398.595	338.62
398.82	332.62
399.044	336.62
399.268	371.62
399.492	430.62
399.717	479.62
399.941	409.62
400.165	381.62
400.389	352.62
400.613	347.62
400.837	330.62
401.062	317.62
401.286	327.62
401.51	312.62
401.734	327.62
401.958	334.62
402.182	313.62
402.406	313.62
402.63	323.62
402.854	329.62
403.078	338.62
403.302	338.62
403.526	345.62
403.75	356.62
403.974	363.62
404.198	352.62
404.422	359.62
404.645	374.62
404.869	371.62
405.093	360.62
405.317	378.62
405.541	368.62
405.765	357.62
405.988	327.62
406.212	351.62
406.436	352.62
406.66	378.62
406.883	390.62
407.107	375.62
407.331	376.62
407.555	401.62
407.778	404.62
408.002	397.62
408.226	391.62
408.449	361.62
408.673	361.62
408.896	339.62
409.12	326.62
409.344	357.62
409.567	353.62
409.791	349.62
410.014	339.62
410.238	339.62
410.461	351.62
410.685	331.62
410.908	362.62
411.132	350.62
411.355	346.62
411.578	352.62
411.802	327.62
412.025	338.62
412.249	350.62
412.472	347.62
412.695	344.62
412.919	368.62
413.142	325.62
413.365	333.62
413.589	343.62
413.812	343.62
414.035	315.62
414.258	328.62
414.482	346.62
414.705	351.62
414.928	332.62
415.151	332.62
415.374	315.62
415.597	333.62
415.821	319.62
416.044	336.62
416.267	347.62
416.49	328.62
416.713	338.62
416.936	319.62
417.159	343.62
417.382	335.62
417.605	311.62
417.828	326.62
418.051	355.62
418.274	316.62
418.497	327.62
418.72	333.62
418.943	351.62
419.166	347.62
419.389	363.62
419.611	339.62
419.834	343.62
420.057	342.62
420.28	347.62
420.503	342.62
420.726	333.62
420.948	318.62
421.171	336.62
421.394	329.62
421.617	333.62
421.839	344.62
422.062	342.62
422.285	331.62
422.507	359.62
422.73	373.62
422.953	371.62
423.175	340.62
423.398	341.62
423.621	343.62
423.843	354.62
424.066	339.62
424.288	339.62
424.511	353.62
424.733	345.62
424.956	338.62
425.178	346.62
425.401	322.62
425.623	332.62
425.846	312.62
426.068	344.62
426.291	316.62
426.513	309.62
426.735	310.62
426.958	313.62
427.18	313.62
427.402	336.62
427.625	326.62
427.847	326.62
428.069	320.62
428.292	310.62
428.514	312.62
428.736	328.62
428.958	303.62
429.181	315.62
429.403	302.62
429.625	312.62
429.847	308.62
430.069	329.62
430.292	327.62
430.514	304.62
430.736	329.62
430.958	324.62
431.18	312.62
431.402	293.62
431.624	288.62
431.846	275.62
432.068	283.62
432.29	283.62
432.512	307.62
432.734	315.62
432.956	319.62
433.178	311.62
433.4	303.62
433.622	320.62
433.844	316.62
434.066	284.62
434.287	303.62
434.509	281.62
434.731	300.62
434.953	297.62
435.175	317.62
435.397	331.62
435.618	305.62
435.84	285.62
436.062	308.62
436.284	296.62
436.505	294.62
436.727	312.62
436.949	313.62
437.17	300.62
437.392	288.62
437.614	284.62
437.835	279.62
438.057	283.62
438.278	295.62
438.5	289.62
438.721	308.62
438.943	287.62
439.165	283.62
439.386	299.62
439.608	319.62
439.829	307.62
440.05	325.62
440.272	308.62
440.493	301.62
440.715	325.62
440.936	337.62
441.158	315.62
441.379	335.62
441.6	328.62
441.822	352.62
442.043	337.62
442.264	328.62
442.486	305.62
442.707	331.62
442.928	324.62
443.149	332.62
443.371	335.62
443.592	332.62
443.813	343.62
444.034	341.62
444.255	363.62
444.476	361.62
444.698	382.62
444.919	383.62
445.14	556.62
445.361	440.62
445.582	383.62
445.803	340.62
446.024	335.62
446.245	324.62
446.466	340.62
446.687	298.62
446.908	317.62
447.129	323.62
447.35	289.62
447.571	313.62
447.792	313.62
448.013	290.62
448.234	307.62
448.455	293.62
448.675	301.62
448.896	307.62
449.117	296.62
449.338	297.62
449.559	309.62
449.779	296.62
450	291.62
450.221	284.62
450.442	295.62
450.662	304.62
450.883	286.62
451.104	294.62
451.324	298.62
451.545	291.62
451.766	309.62
451.986	289.62
452.207	286.62
452.428	295.62
452.648	278.62
452.869	297.62
453.089	273.62
453.31	297.62
453.53	313.62
453.751	316.62
453.971	282.62
454.192	268.62
454.412	263.62
454.633	248.62
454.853	259.62
455.073	282.62
455.294	295.62
455.514	293.62
455.734	281.62
455.955	289.62
456.175	271.62
456.395	251.62
456.616	255.62
456.836	250.62
457.056	247.62
457.276	237.62
457.497	253.62
457.717	255.62
457.937	264.62
458.157	259.62
458.377	265.62
458.598	254.62
458.818	263.62
459.038	275.62
459.258	272.62
459.478	291.62
459.698	280.62
459.918	299.62
460.138	316.62
460.358	318.62
460.578	347.62
460.798	341.62
461.018	329.62
461.238	318.62
461.458	333.62
461.678	329.62
461.898	359.62
462.118	329.62
462.338	355.62
462.558	352.62
462.777	356.62
462.997	398.62
463.217	404.62
463.437	395.62
463.657	363.62
463.876	348.62
464.096	373.62
464.316	363.62
464.536	368.62
464.755	384.62
464.975	352.62
465.195	343.62
465.414	320.62
465.634	312.62
465.854	315.62
466.073	332.62
466.293	293.62
466.512	291.62
466.732	298.62
466.951	311.62
467.171	311.62
467.391	302.62
467.61	307.62
467.829	331.62
468.049	323.62
468.268	381.62
468.488	304.62
468.707	301.62
468.927	299.62
469.146	297.62
469.365	315.62
469.585	304.62
469.804	319.62
470.023	320.62
470.243	320.62
470.462	307.62
470.681	283.62
470.901	317.62
471.12	312.62
471.339	299.62
471.558	313.62
471.777	306.62
471.997	321.62
472.216	363.62
472.435	429.62
472.654	355.62
472.873	326.62
473.092	309.62
473.311	301.62
473.53	291.62
473.749	302.62
473.968	305.62
474.187	283.62
474.406	285.62
474.625	272.62
474.844	293.62
475.063	292.62
475.282	288.62
475.501	294.62
475.72	302.62
475.939	301.62
476.158	300.62
476.377	301.62
476.596	305.62
476.814	309.62
477.033	298.62
477.252	294.62
477.471	286.62
477.69	325.62
477.908	341.62
478.127	331.62
478.346	324.62
478.564	344.62
478.783	342.62
479.002	345.62
479.22	337.62
479.439	370.62
479.658	341.62
479.876	342.62
480.095	360.62
480.313	373.62
480.532	367.62
480.751	399.62
480.969	412.62
481.188	571.62
481.406	541.62
481.624	387.62
481.843	351.62
482.061	354.62
482.28	361.62
482.498	312.62
482.717	326.62
482.935	319.62
483.153	324.62
483.372	325.62
483.59	336.62
483.808	335.62
484.027	325.62
484.245	339.62
484.463	316.62
484.681	329.62
484.9	339.62
485.118	332.62
485.336	335.62
485.554	318.62
485.772	329.62
485.99	329.62
486.209	319.62
486.427	320.62
486.645	336.62
486.863	347.62
487.081	349.62
487.299	352.62
487.517	324.62
487.735	340.62
487.953	378.62
488.171	363.62
488.389	352.62
488.607	341.62
488.825	323.62
489.043	333.62
489.261	332.62
489.479	346.62
489.696	333.62
489.914	330.62
490.132	355.62
490.35	346.62
490.568	326.62
490.786	365.62
491.003	363.62
491.221	376.62
491.439	379.62
491.657	387.62
491.874	376.62
492.092	397.62
492.31	409.62
492.527	411.62
492.745	401.62
492.963	395.62
493.18	377.62
493.398	372.62
493.615	402.62
493.833	388.62
494.05	379.62
494.268	382.62
494.485	367.62
494.703	377.62
494.92	391.62
495.138	374.62
495.355	377.62
495.573	386.62
495.79	371.62
496.008	408.62
496.225	388.62
496.442	387.62
496.66	396.62
496.877	399.62
497.094	409.62
497.312	402.62
497.529	388.62
497.746	401.62
497.963	425.62
498.181	445.62
498.398	495.62
498.615	458.62
498.832	492.62
499.049	525.62
499.267	582.62
499.484	581.62
499.701	606.62
499.918	694.62
500.135	812.62
500.352	809.62
500.569	828.62
500.786	825.62
501.003	790.62
501.22	699.62
501.437	650.62
501.654	636.62
501.871	534.62
502.088	507.62
502.305	515.62
502.522	480.62
502.739	467.62
502.956	422.62
503.172	400.62
503.389	383.62
503.606	399.62
503.823	422.62
504.04	413.62
504.256	419.62
504.473	403.62
504.69	408.62
504.907	392.62
505.123	368.62
505.34	350.62
505.557	362.62
505.773	348.62
505.99	334.62
506.207	326.62
506.423	337.62
506.64	347.62
506.856	324.62
507.073	326.62
507.289	314.62
507.506	303.62
507.722	318.62
507.939	323.62
508.155	309.62
508.372	304.62
508.588	306.62
508.805	297.62
509.021	279.62
509.238	295.62
509.454	280.62
509.67	298.62
509.887	299.62
510.103	293.62
510.319	285.62
510.536	295.62
510.752	272.62
510.968	281.62
511.184	271.62
511.401	274.62
511.617	289.62
511.833	297.62
512.049	295.62
512.265	314.62
512.481	282.62
512.698	275.62
512.914	288.62
513.13	281.62
513.346	272.62
513.562	291.62
513.778	277.62
513.994	276.62
514.21	281.62
514.426	281.62
514.642	287.62
514.858	299.62
515.074	300.62
515.29	293.62
515.506	300.62
515.721	303.62
515.937	312.62
516.153	293.62
516.369	302.62
516.585	334.62
516.801	325.62
517.016	359.62
517.232	350.62
517.448	395.62
517.664	393.62
517.879	384.62
518.095	358.62
518.311	359.62
518.527	368.62
518.742	347.62
518.958	323.62
519.173	331.62
519.389	340.62
519.605	335.62
519.82	315.62
520.036	320.62
520.251	302.62
520.467	312.62
520.682	309.62
520.898	291.62
521.113	303.62
521.329	340.62
521.544	293.62
521.76	299.62
521.975	269.62
522.19	279.62
522.406	276.62
522.621	301.62
522.836	289.62
523.052	293.62
523.267	291.62
523.482	274.62
523.698	295.62
523.913	279.62
524.128	294.62
524.343	292.62
524.559	275.62
524.774	267.62
524.989	302.62
525.204	280.62
525.419	293.62
525.634	293.62
525.849	282.62
526.064	276.62
526.28	282.62
526.495	266.62
526.71	292.62
526.925	269.62
527.14	271.62
527.355	259.62
527.57	254.62
527.785	241.62
527.999	268.62
528.214	266.62
528.429	271.62
528.644	280.62
528.859	292.62
529.074	285.62
529.289	299.62
529.503	287.62
529.718	276.62
529.933	269.62
530.148	265.62
530.363	264.62
530.577	243.62
530.792	255.62
531.007	266.62
531.221	273.62
531.436	264.62
531.651	234.62
531.865	256.62
532.08	255.62
532.295	276.62
532.509	272.62
532.724	253.62
532.938	289.62
533.153	281.62
533.367	257.62
533.582	286.62
533.796	264.62
534.011	283.62
534.225	257.62
534.44	253.62
534.654	263.62
534.868	265.62
535.083	254.62
535.297	244.62
535.511	273.62
535.726	250.62
535.94	262.62
536.154	269.62
536.369	269.62
536.583	247.62
536.797	256.62
537.011	258.62
537.225	263.62
537.44	231.62
537.654	265.62
537.868	243.62
538.082	247.62
538.296	235.62
538.51	264.62
538.724	275.62
538.938	268.62
539.153	252.62
539.367	259.62
539.581	267.62
539.795	267.62
540.009	257.62
540.222	256.62
540.436	257.62
540.65	245.62
540.864	272.62
541.078	275.62
541.292	287.62
541.506	269.62
541.72	286.62
541.934	285.62
542.147	284.62
542.361	280.62
542.575	273.62
542.789	254.62
543.002	247.62
543.216	268.62
543.43	259.62
543.644	277.62
543.857	274.62
544.071	279.62
544.285	289.62
544.498	258.62
544.712	289.62
544.925	275.62
545.139	273.62
545.352	297.62
545.566	280.62
545.779	291.62
545.993	301.62
546.206	290.62
546.42	292.62
546.633	275.62
546.847	300.62
547.06	282.62
547.274	287.62
547.487	290.62
547.7	285.62
547.914	299.62
548.127	297.62
548.34	292.62
548.554	295.62
548.767	285.62
548.98	287.62
549.193	294.62
549.407	291.62
549.62	298.62
549.833	304.62
550.046	302.62
550.259	293.62
550.473	288.62
550.686	294.62
550.899	289.62
551.112	289.62
551.325	299.62
551.538	312.62
551.751	280.62
551.964	269.62
552.177	274.62
552.39	283.62
552.603	284.62
552.816	305.62
553.029	300.62
553.242	299.62
553.455	315.62
553.667	346.62
553.88	308.62
554.093	274.62
554.306	311.62
554.519	301.62
554.732	295.62
554.944	278.62
555.157	289.62
555.37	271.62
555.583	277.62
555.795	251.62
556.008	256.62
556.221	254.62
556.433	278.62
556.646	254.62
556.859	248.62
557.071	269.62
557.284	243.62
557.496	253.62
557.709	257.62
557.921	244.62
558.134	251.62
558.346	240.62
558.559	235.62
558.771	245.62
558.984	260.62
559.196	240.62
559.409	242.62
559.621	241.62
559.833	243.62
560.046	247.62
560.258	248.62
560.47	244.62
560.683	255.62
560.895	247.62
561.107	248.62
561.32	251.62
561.532	254.62
561.744	260.62
561.956	275.62
562.168	249.62
562.381	243.62
562.593	253.62
562.805	251.62
563.017	245.62
563.229	239.62
563.441	244.62
563.653	239.62
563.865	243.62
564.077	245.62
564.289	248.62
564.501	246.62
564.713	259.62
564.925	268.62
565.137	255.62
565.349	275.62
565.561	266.62
565.773	279.62
565.985	262.62
566.197	280.62
566.408	295.62
566.62	298.62
566.832	317.62
567.044	323.62
567.255	329.62
567.467	328.62
567.679	350.62
567.891	368.62
568.102	369.62
568.314	357.62
568.526	303.62
568.737	279.62
568.949	285.62
569.161	268.62
569.372	252.62
569.584	237.62
569.795	233.62
570.007	220.62
570.218	218.62
570.43	222.62
570.641	242.62
570.853	221.62
571.064	239.62
571.276	237.62
571.487	216.62
571.698	240.62
571.91	212.62
572.121	211.62
572.333	214.62
572.544	214.62
572.755	190.62
572.966	199.62
573.178	182.62
573.389	198.62
573.6	193.62
573.811	195.62
574.023	189.62
574.234	190.62
574.445	209.62
574.656	203.62
574.867	207.62
575.078	189.62
575.289	210.62
575.501	205.62
575.712	191.62
575.923	192.62
576.134	197.62
576.345	195.62
576.556	189.62
576.767	202.62
576.978	185.62
577.188	217.62
577.399	186.62
577.61	177.62
577.821	195.62
578.032	182.62
578.243	204.62
578.454	190.62
578.665	192.62
578.875	173.62
579.086	185.62
579.297	190.62
579.508	183.62
579.718	197.62
579.929	185.62
580.14	170.62
580.35	173.62
580.561	185.62
580.772	177.62
580.982	182.62
581.193	176.62
581.403	199.62
581.614	182.62
581.825	195.62
582.035	177.62
582.246	198.62
582.456	166.62
582.667	190.62
582.877	188.62
583.087	188.62
583.298	188.62
583.508	177.62
583.719	187.62
583.929	185.62
584.139	169.62
584.35	164.62
584.56	171.62
584.77	171.62
584.981	155.62
585.191	171.62
585.401	163.62
585.611	178.62
585.821	181.62
586.032	172.62
586.242	198.62
586.452	176.62
586.662	158.62
586.872	169.62
587.082	169.62
587.292	181.62
587.502	179.62
587.713	163.62
587.923	161.62
588.133	171.62
588.343	179.62
588.553	167.62
588.762	196.62
588.972	189.62
589.182	270.62
589.392	215.62
589.602	203.62
589.812	233.62
590.022	215.62
590.232	182.62
590.441	164.62
590.651	181.62
590.861	180.62
591.071	171.62
591.281	189.62
591.49	181.62
591.7	180.62
591.91	202.62
592.119	200.62
592.329	190.62
592.539	189.62
592.748	195.62
592.958	193.62
593.167	198.62
593.377	213.62
593.587	238.62
593.796	209.62
594.006	207.62
594.215	198.62
594.424	197.62
594.634	214.62
594.843	215.62
595.053	198.62
595.262	192.62
595.472	192.62
595.681	173.62
595.89	192.62
596.1	197.62
596.309	172.62
596.518	159.62
596.727	185.62
596.937	175.62
597.146	168.62
597.355	172.62
597.564	168.62
597.774	159.62
597.983	173.62
598.192	169.62
598.401	180.62
598.61	160.62
598.819	174.62
599.028	159.62
599.237	160.62
599.446	159.62
599.655	160.62
599.864	175.62
600.073	176.62
600.282	171.62
600.491	163.62
600.7	159.62
600.909	161.62
601.118	169.62
601.327	174.62
601.536	161.62
601.745	177.62
601.953	179.62
602.162	166.62
602.371	164.62
602.58	169.62
602.789	173.62
602.997	152.62
603.206	183.62
603.415	174.62
603.623	155.62
603.832	169.62
604.041	163.62
604.249	173.62
604.458	164.62
604.666	178.62
604.875	159.62
605.084	168.62
605.292	141.62
605.501	155.62
605.709	171.62
605.918	173.62
606.126	161.62
606.334	155.62
606.543	168.62
606.751	175.62
606.96	183.62
607.168	167.62
607.376	161.62
607.585	162.62
607.793	151.62
608.001	160.62
608.21	157.62
608.418	166.62
608.626	153.62
608.834	149.62
609.043	157.62
609.251	166.62
609.459	159.62
609.667	171.62
609.875	148.62
610.083	167.62
610.291	173.62
610.499	163.62
610.707	159.62
610.916	157.62
611.124	153.62
611.332	173.62
611.54	173.62
611.748	149.62
611.955	157.62
612.163	166.62
612.371	174.62
612.579	159.62
612.787	156.62
612.995	159.62
613.203	162.62
613.411	173.62
613.618	153.62
613.826	152.62
614.034	164.62
614.242	164.62
614.449	172.62
614.657	149.62
614.865	160.62
615.072	165.62
615.28	147.62
615.488	158.62
615.695	172.62
615.903	160.62
616.111	173.62
616.318	187.62
616.526	184.62
616.733	187.62
616.941	159.62
617.148	170.62
617.356	153.62
617.563	158.62
617.771	157.62
617.978	160.62
618.185	166.62
618.393	163.62
618.6	166.62
618.807	160.62
619.015	168.62
619.222	145.62
619.429	141.62
619.637	155.62
619.844	152.62
620.051	147.62
620.258	147.62
620.466	165.62
620.673	157.62
620.88	150.62
621.087	149.62
621.294	164.62
621.501	135.62
621.708	158.62
621.915	161.62
622.122	153.62
622.329	157.62
622.536	159.62
622.743	170.62
622.95	173.62
623.157	155.62
623.364	171.62
623.571	137.62
623.778	129.62
623.985	155.62
624.192	147.62
624.399	149.62
624.606	156.62
624.812	154.62
625.019	160.62
625.226	146.62
625.433	161.62
625.639	148.62
625.846	149.62
626.053	162.62
626.259	165.62
626.466	139.62
626.673	135.62
626.879	145.62
627.086	158.62
627.293	160.62
627.499	150.62
627.706	141.62
627.912	153.62
628.119	152.62
628.325	159.62
628.532	148.62
628.738	140.62
628.945	144.62
629.151	136.62
629.357	135.62
629.564	133.62
629.77	123.62
629.976	138.62
630.183	135.62
630.389	135.62
630.595	148.62
630.802	132.62
631.008	133.62
631.214	130.62
631.42	144.62
631.627	143.62
631.833	142.62
632.039	132.62
632.245	148.62
632.451	136.62
632.657	131.62
632.863	132.62
633.069	111.62
633.275	143.62
633.481	132.62
633.688	128.62
633.893	130.62
634.099	128.62
634.305	142.62
634.511	151.62
634.717	143.62
634.923	119.62
635.129	133.62
635.335	136.62
635.541	118.62
635.747	143.62
635.952	113.62
636.158	136.62
636.364	140.62
636.57	160.62
636.775	147.62
636.981	152.62
637.187	137.62
637.392	120.62
637.598	140.62
637.804	139.62
638.009	113.62
638.215	132.62
638.421	144.62
638.626	128.62
638.832	138.62
639.037	130.62
639.243	128.62
639.448	134.62
639.654	149.62
639.859	112.62
640.065	135.62
640.27	135.62
640.475	130.62
640.681	136.62
640.886	115.62
641.091	122.62
641.297	138.62
641.502	134.62
641.707	113.62
641.913	139.62
642.118	113.62
642.323	128.62
642.528	135.62
642.733	138.62
642.939	126.62
643.144	128.62
643.349	114.62
643.554	122.62
643.759	141.62
643.964	113.62
644.169	128.62
644.374	132.62
644.579	139.62
644.784	127.62
644.989	127.62
645.194	114.62
645.399	144.62
645.604	116.62
645.809	121.62
646.014	99.62
646.219	125.62
646.423	117.62
646.628	135.62
646.833	127.62
647.038	109.62
647.243	144.62
647.447	132.62
647.652	144.62
647.857	116.62
648.062	110.62
648.266	118.62
648.471	124.62
648.676	144.62
648.88	121.62
649.085	145.62
649.289	118.62
649.494	133.62
649.698	125.62
649.903	128.62
650.107	127.62
650.312	125.62
650.516	117.62
650.721	126.62
650.925	123.62
651.13	121.62
651.334	120.62
651.539	125.62
651.743	116.62
651.947	108.62
652.152	124.62
652.356	120.62
652.56	132.62
652.764	121.62
652.969	103.62
653.173	130.62
653.377	97.62
653.581	105.62
653.785	105.62
653.99	107.62
654.194	104.62
654.398	112.62
654.602	113.62
654.806	102.62
655.01	108.62
655.214	115.62
655.418	110.62
655.622	90.62
655.826	117.62
656.03	88.62
656.234	122.62
656.438	116.62
656.642	123.62
656.846	111.62
657.049	92.62
657.253	117.62
657.457	104.62
657.661	102.62
657.865	116.62
658.068	94.62
658.272	104.62
658.476	96.62
658.68	102.62
658.883	79.62
659.087	83.62
659.291	87.62
659.494	102.62
659.698	81.62
659.901	89.62
660.105	74.62
660.309	90.62
660.512	78.62
660.716	94.62
660.919	81.62
661.123	89.62
661.326	95.62
661.53	94.62
661.733	109.62
661.936	85.62
662.14	69.62
662.343	77.62
662.546	75.62
662.75	71.62
662.953	89.62
663.156	94.62
663.36	95.62
663.563	85.62
663.766	84.62
663.969	75.62
664.173	83.62
664.376	89.62
664.579	86.62
664.782	87.62
664.985	80.62
665.188	82.62
665.391	80.62
665.594	70.62
665.797	57.62
666	87.62
666.203	84.62
666.406	75.62
666.609	71.62
666.812	77.62
667.015	62.62
667.218	71.62
667.421	89.62
667.624	74.62
667.827	80.62
668.03	81.62
668.232	65.62
668.435	78.62
668.638	80.62
668.841	83.62
669.043	76.62
669.246	90.62
669.449	65.62
669.651	93.62
669.854	81.62
670.057	79.62
670.259	81.62
670.462	91.62
670.665	83.62
670.867	83.62
671.07	91.62
671.272	67.62
671.475	102.62
671.677	79.62
671.88	84.62
672.082	71.62
672.284	87.62
672.487	82.62
672.689	76.62
672.892	79.62
