Data from SampB_HRD10591_00005.txt Node
Date: Mon Jan 19 11:33:30 EST 2026
User: Yrep
Spectrometer: HR+D1059
Trigger mode: 0
Integration Time (sec): 3.443000E-1
Scans to average: 1
Electric dark correction enabled: true
Nonlinearity correction enabled: false
Boxcar width: 0
XAxis mode: Wavelengths
Number of Pixels in Spectrum: 2048
>>>>>Begin Spectral Data<<<<<
223.165	-25.31
223.4	-25.31
223.635	-25.31
223.869	-16.31
224.104	-22.31
224.338	-5.31
224.573	4.69
224.808	-9.31
225.042	-13.31
225.277	-0.31
225.511	0.69
225.746	2.69
225.98	0.69
226.215	6.69
226.449	-3.31
226.683	26.69
226.918	31.69
227.152	21.69
227.387	40.69
227.621	45.69
227.856	55.69
228.09	56.69
228.324	61.69
228.559	64.69
228.793	60.69
229.027	67.69
229.262	74.69
229.496	71.69
229.73	68.69
229.964	89.69
230.199	81.69
230.433	78.69
230.667	83.69
230.901	83.69
231.136	72.69
231.37	87.69
231.604	87.69
231.838	103.69
232.072	96.69
232.306	99.69
232.541	95.69
232.775	83.69
233.009	102.69
233.243	105.69
233.477	82.69
233.711	87.69
233.945	93.69
234.179	89.69
234.413	101.69
234.647	99.69
234.881	97.69
235.115	89.69
235.349	95.69
235.583	91.69
235.817	75.69
236.051	79.69
236.285	82.69
236.519	82.69
236.753	100.69
236.987	79.69
237.221	91.69
237.455	90.69
237.689	93.69
237.922	103.69
238.156	83.69
238.39	89.69
238.624	89.69
238.858	88.69
239.091	102.69
239.325	90.69
239.559	95.69
239.793	105.69
240.027	101.69
240.26	87.69
240.494	79.69
240.728	89.69
240.961	92.69
241.195	101.69
241.429	95.69
241.662	98.69
241.896	91.69
242.13	93.69
242.363	104.69
242.597	85.69
242.83	97.69
243.064	94.69
243.298	87.69
243.531	87.69
243.765	97.69
243.998	111.69
244.232	100.69
244.465	100.69
244.699	81.69
244.932	92.69
245.166	87.69
245.399	106.69
245.633	110.69
245.866	85.69
246.099	90.69
246.333	100.69
246.566	92.69
246.8	91.69
247.033	100.69
247.266	100.69
247.5	101.69
247.733	92.69
247.966	102.69
248.2	107.69
248.433	99.69
248.666	94.69
248.899	106.69
249.133	107.69
249.366	96.69
249.599	99.69
249.832	123.69
250.066	112.69
250.299	115.69
250.532	112.69
250.765	99.69
250.998	110.69
251.231	101.69
251.465	115.69
251.698	109.69
251.931	96.69
252.164	100.69
252.397	108.69
252.63	107.69
252.863	100.69
253.096	98.69
253.329	119.69
253.562	111.69
253.795	93.69
254.028	116.69
254.261	104.69
254.494	117.69
254.727	125.69
254.96	111.69
255.193	109.69
255.426	101.69
255.659	105.69
255.892	117.69
256.124	105.69
256.357	111.69
256.59	126.69
256.823	122.69
257.056	111.69
257.289	114.69
257.521	119.69
257.754	130.69
257.987	116.69
258.22	110.69
258.452	105.69
258.685	111.69
258.918	123.69
259.151	114.69
259.383	114.69
259.616	117.69
259.849	118.69
260.081	120.69
260.314	119.69
260.547	128.69
260.779	131.69
261.012	111.69
261.244	104.69
261.477	121.69
261.71	107.69
261.942	106.69
262.175	132.69
262.407	127.69
262.64	113.69
262.872	121.69
263.105	111.69
263.337	112.69
263.57	127.69
263.802	136.69
264.035	119.69
264.267	130.69
264.499	127.69
264.732	125.69
264.964	112.69
265.197	119.69
265.429	135.69
265.661	129.69
265.894	130.69
266.126	124.69
266.358	131.69
266.591	114.69
266.823	130.69
267.055	132.69
267.287	127.69
267.52	113.69
267.752	120.69
267.984	120.69
268.216	122.69
268.448	134.69
268.681	126.69
268.913	121.69
269.145	103.69
269.377	141.69
269.609	123.69
269.841	128.69
270.073	130.69
270.306	131.69
270.538	128.69
270.77	136.69
271.002	121.69
271.234	118.69
271.466	135.69
271.698	124.69
271.93	139.69
272.162	120.69
272.394	132.69
272.626	143.69
272.858	137.69
273.09	148.69
273.322	141.69
273.553	131.69
273.785	144.69
274.017	128.69
274.249	137.69
274.481	141.69
274.713	158.69
274.945	146.69
275.176	140.69
275.408	141.69
275.64	147.69
275.872	146.69
276.104	150.69
276.335	130.69
276.567	130.69
276.799	139.69
277.031	140.69
277.262	139.69
277.494	155.69
277.726	138.69
277.957	153.69
278.189	133.69
278.421	140.69
278.652	138.69
278.884	130.69
279.115	127.69
279.347	151.69
279.579	137.69
279.81	156.69
280.042	155.69
280.273	156.69
280.505	160.69
280.736	171.69
280.968	131.69
281.199	151.69
281.431	142.69
281.662	159.69
281.894	141.69
282.125	127.69
282.356	158.69
282.588	148.69
282.819	159.69
283.051	149.69
283.282	158.69
283.513	162.69
283.745	155.69
283.976	140.69
284.207	138.69
284.439	163.69
284.67	167.69
284.901	176.69
285.132	156.69
285.364	145.69
285.595	165.69
285.826	141.69
286.057	152.69
286.288	145.69
286.52	151.69
286.751	163.69
286.982	175.69
287.213	151.69
287.444	165.69
287.675	156.69
287.906	172.69
288.138	153.69
288.369	146.69
288.6	168.69
288.831	183.69
289.062	155.69
289.293	163.69
289.524	149.69
289.755	164.69
289.986	152.69
290.217	149.69
290.448	163.69
290.679	155.69
290.91	157.69
291.141	171.69
291.371	163.69
291.602	161.69
291.833	143.69
292.064	164.69
292.295	152.69
292.526	133.69
292.757	170.69
292.987	163.69
293.218	167.69
293.449	169.69
293.68	161.69
293.91	153.69
294.141	153.69
294.372	153.69
294.603	170.69
294.833	166.69
295.064	174.69
295.295	180.69
295.525	160.69
295.756	150.69
295.987	171.69
296.217	160.69
296.448	181.69
296.679	154.69
296.909	171.69
297.14	169.69
297.37	160.69
297.601	180.69
297.831	181.69
298.062	167.69
298.292	161.69
298.523	184.69
298.753	180.69
298.984	189.69
299.214	166.69
299.445	169.69
299.675	162.69
299.905	157.69
300.136	179.69
300.366	171.69
300.597	157.69
300.827	181.69
301.057	182.69
301.288	166.69
301.518	161.69
301.748	171.69
301.979	220.69
302.209	173.69
302.439	182.69
302.669	169.69
302.9	176.69
303.13	180.69
303.36	167.69
303.59	178.69
303.82	181.69
304.051	176.69
304.281	168.69
304.511	183.69
304.741	173.69
304.971	167.69
305.201	180.69
305.431	166.69
305.661	191.69
305.891	168.69
306.121	179.69
306.352	180.69
306.582	172.69
306.812	175.69
307.042	165.69
307.272	185.69
307.502	186.69
307.731	176.69
307.961	183.69
308.191	156.69
308.421	178.69
308.651	183.69
308.881	165.69
309.111	174.69
309.341	187.69
309.571	181.69
309.8	176.69
310.03	176.69
310.26	170.69
310.49	179.69
310.72	173.69
310.949	172.69
311.179	170.69
311.409	188.69
311.639	179.69
311.868	189.69
312.098	182.69
312.328	189.69
312.557	184.69
312.787	193.69
313.017	199.69
313.246	201.69
313.476	191.69
313.706	171.69
313.935	176.69
314.165	185.69
314.394	185.69
314.624	190.69
314.853	195.69
315.083	182.69
315.312	197.69
315.542	203.69
315.771	201.69
316.001	179.69
316.23	188.69
316.46	171.69
316.689	163.69
316.919	186.69
317.148	201.69
317.377	188.69
317.607	205.69
317.836	184.69
318.065	178.69
318.295	176.69
318.524	183.69
318.753	193.69
318.983	196.69
319.212	192.69
319.441	187.69
319.67	188.69
319.9	182.69
320.129	180.69
320.358	177.69
320.587	183.69
320.816	179.69
321.046	181.69
321.275	200.69
321.504	186.69
321.733	171.69
321.962	205.69
322.191	179.69
322.42	196.69
322.649	184.69
322.878	199.69
323.108	190.69
323.337	199.69
323.566	193.69
323.795	211.69
324.024	190.69
324.253	196.69
324.482	208.69
324.71	203.69
324.939	217.69
325.168	190.69
325.397	199.69
325.626	210.69
325.855	195.69
326.084	186.69
326.313	207.69
326.542	184.69
326.77	207.69
326.999	204.69
327.228	193.69
327.457	201.69
327.686	205.69
327.914	200.69
328.143	226.69
328.372	207.69
328.6	214.69
328.829	195.69
329.058	215.69
329.287	193.69
329.515	212.69
329.744	242.69
329.972	224.69
330.201	228.69
330.43	239.69
330.658	222.69
330.887	210.69
331.115	207.69
331.344	208.69
331.572	227.69
331.801	219.69
332.03	217.69
332.258	210.69
332.486	225.69
332.715	228.69
332.943	248.69
333.172	243.69
333.4	242.69
333.629	249.69
333.857	267.69
334.085	268.69
334.314	289.69
334.542	273.69
334.771	283.69
334.999	268.69
335.227	233.69
335.455	237.69
335.684	249.69
335.912	244.69
336.14	234.69
336.369	209.69
336.597	231.69
336.825	242.69
337.053	226.69
337.281	203.69
337.51	217.69
337.738	226.69
337.966	216.69
338.194	221.69
338.422	213.69
338.65	219.69
338.878	227.69
339.106	211.69
339.334	228.69
339.562	203.69
339.79	205.69
340.018	206.69
340.246	208.69
340.474	184.69
340.702	212.69
340.93	206.69
341.158	188.69
341.386	201.69
341.614	210.69
341.842	196.69
342.07	220.69
342.298	211.69
342.526	209.69
342.754	204.69
342.981	199.69
343.209	218.69
343.437	242.69
343.665	251.69
343.893	250.69
344.12	250.69
344.348	235.69
344.576	231.69
344.804	213.69
345.031	223.69
345.259	220.69
345.487	221.69
345.714	207.69
345.942	211.69
346.17	210.69
346.397	199.69
346.625	204.69
346.853	180.69
347.08	201.69
347.308	195.69
347.535	212.69
347.763	205.69
347.99	212.69
348.218	221.69
348.445	193.69
348.673	195.69
348.9	209.69
349.128	215.69
349.355	207.69
349.583	210.69
349.81	204.69
350.037	190.69
350.265	212.69
350.492	191.69
350.72	207.69
350.947	199.69
351.174	213.69
351.402	184.69
351.629	189.69
351.856	187.69
352.083	192.69
352.311	221.69
352.538	183.69
352.765	183.69
352.992	225.69
353.22	199.69
353.447	207.69
353.674	218.69
353.901	219.69
354.128	190.69
354.355	197.69
354.583	185.69
354.81	209.69
355.037	223.69
355.264	205.69
355.491	208.69
355.718	194.69
355.945	201.69
356.172	211.69
356.399	220.69
356.626	191.69
356.853	184.69
357.08	203.69
357.307	210.69
357.534	192.69
357.761	212.69
357.988	216.69
358.215	201.69
358.441	209.69
358.668	205.69
358.895	206.69
359.122	214.69
359.349	218.69
359.576	209.69
359.802	215.69
360.029	209.69
360.256	206.69
360.483	187.69
360.709	204.69
360.936	213.69
361.163	191.69
361.39	199.69
361.616	210.69
361.843	196.69
362.07	184.69
362.296	187.69
362.523	176.69
362.749	200.69
362.976	186.69
363.203	226.69
363.429	204.69
363.656	218.69
363.882	188.69
364.109	193.69
364.335	207.69
364.562	201.69
364.788	207.69
365.015	213.69
365.241	206.69
365.468	206.69
365.694	227.69
365.92	206.69
366.147	213.69
366.373	209.69
366.599	188.69
366.826	220.69
367.052	196.69
367.278	211.69
367.505	202.69
367.731	216.69
367.957	195.69
368.184	215.69
368.41	207.69
368.636	215.69
368.862	218.69
369.089	210.69
369.315	207.69
369.541	207.69
369.767	200.69
369.993	203.69
370.219	203.69
370.445	213.69
370.672	217.69
370.898	197.69
371.124	209.69
371.35	217.69
371.576	228.69
371.802	216.69
372.028	205.69
372.254	215.69
372.48	216.69
372.706	226.69
372.932	237.69
373.158	225.69
373.384	242.69
373.61	218.69
373.835	229.69
374.061	218.69
374.287	216.69
374.513	204.69
374.739	216.69
374.965	232.69
375.191	214.69
375.416	230.69
375.642	233.69
375.868	235.69
376.094	203.69
376.319	218.69
376.545	236.69
376.771	229.69
376.997	223.69
377.222	223.69
377.448	221.69
377.674	223.69
377.899	222.69
378.125	217.69
378.35	216.69
378.576	216.69
378.802	207.69
379.027	218.69
379.253	220.69
379.478	217.69
379.704	210.69
379.929	228.69
380.155	219.69
380.38	216.69
380.606	215.69
380.831	217.69
381.057	227.69
381.282	211.69
381.507	222.69
381.733	230.69
381.958	238.69
382.184	223.69
382.409	238.69
382.634	247.69
382.86	238.69
383.085	257.69
383.31	242.69
383.535	241.69
383.761	228.69
383.986	236.69
384.211	259.69
384.436	236.69
384.662	238.69
384.887	248.69
385.112	264.69
385.337	256.69
385.562	265.69
385.787	263.69
386.013	264.69
386.238	270.69
386.463	253.69
386.688	275.69
386.913	265.69
387.138	254.69
387.363	260.69
387.588	263.69
387.813	247.69
388.038	264.69
388.263	259.69
388.488	258.69
388.713	260.69
388.938	247.69
389.163	254.69
389.387	258.69
389.612	265.69
389.837	258.69
390.062	247.69
390.287	254.69
390.512	268.69
390.736	251.69
390.961	269.69
391.186	262.69
391.411	278.69
391.636	292.69
391.86	285.69
392.085	278.69
392.31	279.69
392.534	259.69
392.759	289.69
392.984	272.69
393.208	267.69
393.433	272.69
393.658	287.69
393.882	269.69
394.107	269.69
394.331	284.69
394.556	270.69
394.78	279.69
395.005	269.69
395.229	291.69
395.454	302.69
395.678	284.69
395.903	297.69
396.127	291.69
396.352	263.69
396.576	280.69
396.801	271.69
397.025	281.69
397.249	305.69
397.474	292.69
397.698	299.69
397.922	282.69
398.147	293.69
398.371	300.69
398.595	312.69
398.82	329.69
399.044	332.69
399.268	372.69
399.492	414.69
399.717	448.69
399.941	408.69
400.165	388.69
400.389	347.69
400.613	352.69
400.837	317.69
401.062	318.69
401.286	334.69
401.51	314.69
401.734	318.69
401.958	322.69
402.182	321.69
402.406	340.69
402.63	320.69
402.854	335.69
403.078	351.69
403.302	346.69
403.526	355.69
403.75	361.69
403.974	351.69
404.198	355.69
404.422	352.69
404.645	354.69
404.869	331.69
405.093	350.69
405.317	343.69
405.541	341.69
405.765	345.69
405.988	341.69
406.212	353.69
406.436	353.69
406.66	359.69
406.883	361.69
407.107	372.69
407.331	394.69
407.555	405.69
407.778	381.69
408.002	377.69
408.226	361.69
408.449	337.69
408.673	356.69
408.896	343.69
409.12	354.69
409.344	349.69
409.567	344.69
409.791	332.69
410.014	367.69
410.238	347.69
410.461	364.69
410.685	339.69
410.908	349.69
411.132	354.69
411.355	315.69
411.578	336.69
411.802	322.69
412.025	339.69
412.249	345.69
412.472	336.69
412.695	346.69
412.919	330.69
413.142	340.69
413.365	351.69
413.589	334.69
413.812	321.69
414.035	318.69
414.258	333.69
414.482	327.69
414.705	332.69
414.928	318.69
415.151	328.69
415.374	335.69
415.597	297.69
415.821	321.69
416.044	317.69
416.267	316.69
416.49	332.69
416.713	315.69
416.936	346.69
417.159	325.69
417.382	324.69
417.605	304.69
417.828	337.69
418.051	338.69
418.274	340.69
418.497	340.69
418.72	340.69
418.943	340.69
419.166	339.69
419.389	376.69
419.611	353.69
419.834	337.69
420.057	348.69
420.28	336.69
420.503	331.69
420.726	311.69
420.948	319.69
421.171	333.69
421.394	324.69
421.617	311.69
421.839	340.69
422.062	305.69
422.285	317.69
422.507	331.69
422.73	324.69
422.953	332.69
423.175	347.69
423.398	351.69
423.621	341.69
423.843	336.69
424.066	352.69
424.288	328.69
424.511	339.69
424.733	333.69
424.956	323.69
425.178	321.69
425.401	332.69
425.623	329.69
425.846	309.69
426.068	304.69
426.291	305.69
426.513	312.69
426.735	310.69
426.958	316.69
427.18	296.69
427.402	324.69
427.625	323.69
427.847	303.69
428.069	292.69
428.292	308.69
428.514	325.69
428.736	297.69
428.958	307.69
429.181	294.69
429.403	301.69
429.625	303.69
429.847	277.69
430.069	300.69
430.292	285.69
430.514	289.69
430.736	307.69
430.958	295.69
431.18	285.69
431.402	288.69
431.624	282.69
431.846	289.69
432.068	295.69
432.29	310.69
432.512	324.69
432.734	298.69
432.956	295.69
433.178	293.69
433.4	304.69
433.622	311.69
433.844	315.69
434.066	292.69
434.287	292.69
434.509	288.69
434.731	312.69
434.953	328.69
435.175	338.69
435.397	313.69
435.618	311.69
435.84	301.69
436.062	290.69
436.284	310.69
436.505	301.69
436.727	297.69
436.949	320.69
437.17	292.69
437.392	285.69
437.614	292.69
437.835	277.69
438.057	271.69
438.278	282.69
438.5	284.69
438.721	299.69
438.943	299.69
439.165	312.69
439.386	300.69
439.608	310.69
439.829	307.69
440.05	317.69
440.272	305.69
440.493	312.69
440.715	301.69
440.936	317.69
441.158	324.69
441.379	323.69
441.6	361.69
441.822	331.69
442.043	315.69
442.264	316.69
442.486	317.69
442.707	330.69
442.928	310.69
443.149	327.69
443.371	329.69
443.592	356.69
443.813	318.69
444.034	333.69
444.255	341.69
444.476	347.69
444.698	365.69
444.919	376.69
445.14	548.69
445.361	434.69
445.582	329.69
445.803	319.69
446.024	330.69
446.245	313.69
446.466	306.69
446.687	303.69
446.908	289.69
447.129	313.69
447.35	300.69
447.571	301.69
447.792	298.69
448.013	285.69
448.234	310.69
448.455	282.69
448.675	290.69
448.896	290.69
449.117	283.69
449.338	296.69
449.559	289.69
449.779	290.69
450	275.69
450.221	285.69
450.442	273.69
450.662	276.69
450.883	275.69
451.104	293.69
451.324	287.69
451.545	282.69
451.766	287.69
451.986	267.69
452.207	290.69
452.428	287.69
452.648	264.69
452.869	279.69
453.089	275.69
453.31	269.69
453.53	268.69
453.751	259.69
453.971	249.69
454.192	275.69
454.412	252.69
454.633	273.69
454.853	272.69
455.073	263.69
455.294	266.69
455.514	253.69
455.734	283.69
455.955	245.69
456.175	265.69
456.395	243.69
456.616	244.69
456.836	245.69
457.056	244.69
457.276	250.69
457.497	233.69
457.717	240.69
457.937	261.69
458.157	257.69
458.377	248.69
458.598	255.69
458.818	269.69
459.038	269.69
459.258	277.69
459.478	291.69
459.698	272.69
459.918	302.69
460.138	299.69
460.358	323.69
460.578	335.69
460.798	331.69
461.018	331.69
461.238	331.69
461.458	350.69
461.678	329.69
461.898	339.69
462.118	335.69
462.338	345.69
462.558	351.69
462.777	349.69
462.997	392.69
463.217	419.69
463.437	384.69
463.657	374.69
463.876	362.69
464.096	354.69
464.316	355.69
464.536	360.69
464.755	369.69
464.975	339.69
465.195	345.69
465.414	314.69
465.634	320.69
465.854	302.69
466.073	294.69
466.293	291.69
466.512	297.69
466.732	294.69
466.951	294.69
467.171	292.69
467.391	281.69
467.61	301.69
467.829	291.69
468.049	311.69
468.268	301.69
468.488	286.69
468.707	297.69
468.927	287.69
469.146	292.69
469.365	297.69
469.585	292.69
469.804	297.69
470.023	316.69
470.243	307.69
470.462	309.69
470.681	309.69
470.901	315.69
471.12	289.69
471.339	278.69
471.558	275.69
471.777	295.69
471.997	281.69
472.216	297.69
472.435	319.69
472.654	292.69
472.873	287.69
473.092	299.69
473.311	269.69
473.53	277.69
473.749	268.69
473.968	273.69
474.187	276.69
474.406	263.69
474.625	287.69
474.844	276.69
475.063	274.69
475.282	283.69
475.501	281.69
475.72	286.69
475.939	282.69
476.158	284.69
476.377	288.69
476.596	270.69
476.814	283.69
477.033	277.69
477.252	292.69
477.471	281.69
477.69	302.69
477.908	325.69
478.127	327.69
478.346	341.69
478.564	309.69
478.783	315.69
479.002	329.69
479.22	333.69
479.439	329.69
479.658	313.69
479.876	321.69
480.095	322.69
480.313	345.69
480.532	350.69
480.751	330.69
480.969	328.69
481.188	393.69
481.406	354.69
481.624	327.69
481.843	307.69
482.061	309.69
482.28	300.69
482.498	293.69
482.717	304.69
482.935	307.69
483.153	313.69
483.372	317.69
483.59	310.69
483.808	298.69
484.027	292.69
484.245	317.69
484.463	308.69
484.681	326.69
484.9	337.69
485.118	323.69
485.336	303.69
485.554	312.69
485.772	299.69
485.99	306.69
486.209	309.69
486.427	301.69
486.645	303.69
486.863	321.69
487.081	308.69
487.299	323.69
487.517	337.69
487.735	329.69
487.953	339.69
488.171	353.69
488.389	343.69
488.607	317.69
488.825	316.69
489.043	299.69
489.261	323.69
489.479	326.69
489.696	310.69
489.914	316.69
490.132	338.69
490.35	327.69
490.568	331.69
490.786	336.69
491.003	338.69
491.221	346.69
491.439	351.69
491.657	349.69
491.874	360.69
492.092	365.69
492.31	379.69
492.527	368.69
492.745	367.69
492.963	351.69
493.18	361.69
493.398	355.69
493.615	348.69
493.833	361.69
494.05	350.69
494.268	365.69
494.485	365.69
494.703	346.69
494.92	333.69
495.138	344.69
495.355	356.69
495.573	360.69
495.79	349.69
496.008	346.69
496.225	360.69
496.442	342.69
496.66	380.69
496.877	375.69
497.094	378.69
497.312	362.69
497.529	356.69
497.746	389.69
497.963	378.69
498.181	384.69
498.398	400.69
498.615	413.69
498.832	453.69
499.049	468.69
499.267	511.69
499.484	539.69
499.701	591.69
499.918	654.69
500.135	729.69
500.352	773.69
500.569	771.69
500.786	785.69
501.003	721.69
501.22	654.69
501.437	608.69
501.654	549.69
501.871	503.69
502.088	465.69
502.305	458.69
502.522	426.69
502.739	423.69
502.956	398.69
503.172	380.69
503.389	356.69
503.606	364.69
503.823	376.69
504.04	377.69
504.256	375.69
504.473	352.69
504.69	382.69
504.907	381.69
505.123	361.69
505.34	333.69
505.557	336.69
505.773	321.69
505.99	306.69
506.207	313.69
506.423	300.69
506.64	320.69
506.856	304.69
507.073	318.69
507.289	296.69
507.506	306.69
507.722	299.69
507.939	309.69
508.155	299.69
508.372	284.69
508.588	282.69
508.805	301.69
509.021	298.69
509.238	274.69
509.454	281.69
509.67	276.69
509.887	280.69
510.103	264.69
510.319	266.69
510.536	270.69
510.752	271.69
510.968	264.69
511.184	269.69
511.401	277.69
511.617	252.69
511.833	255.69
512.049	267.69
512.265	260.69
512.481	268.69
512.698	268.69
512.914	260.69
513.13	266.69
513.346	271.69
513.562	280.69
513.778	268.69
513.994	277.69
514.21	275.69
514.426	276.69
514.642	252.69
514.858	269.69
515.074	276.69
515.29	305.69
515.506	277.69
515.721	291.69
515.937	317.69
516.153	293.69
516.369	302.69
516.585	315.69
516.801	320.69
517.016	337.69
517.232	319.69
517.448	371.69
517.664	354.69
517.879	357.69
518.095	334.69
518.311	349.69
518.527	331.69
518.742	316.69
518.958	317.69
519.173	314.69
519.389	292.69
519.605	263.69
519.82	291.69
520.036	289.69
520.251	287.69
520.467	274.69
520.682	275.69
520.898	272.69
521.113	280.69
521.329	268.69
521.544	280.69
521.76	266.69
521.975	268.69
522.19	272.69
522.406	243.69
522.621	267.69
522.836	265.69
523.052	265.69
523.267	267.69
523.482	249.69
523.698	253.69
523.913	277.69
524.128	278.69
524.343	265.69
524.559	281.69
524.774	259.69
524.989	281.69
525.204	281.69
525.419	259.69
525.634	269.69
525.849	268.69
526.064	247.69
526.28	252.69
526.495	253.69
526.71	249.69
526.925	248.69
527.14	244.69
527.355	263.69
527.57	247.69
527.785	244.69
527.999	247.69
528.214	256.69
528.429	256.69
528.644	253.69
528.859	286.69
529.074	277.69
529.289	272.69
529.503	266.69
529.718	258.69
529.933	260.69
530.148	245.69
530.363	267.69
530.577	271.69
530.792	251.69
531.007	255.69
531.221	243.69
531.436	251.69
531.651	244.69
531.865	255.69
532.08	250.69
532.295	276.69
532.509	253.69
532.724	237.69
532.938	257.69
533.153	273.69
533.367	263.69
533.582	260.69
533.796	252.69
534.011	237.69
534.225	251.69
534.44	256.69
534.654	268.69
534.868	244.69
535.083	247.69
535.297	253.69
535.511	266.69
535.726	273.69
535.94	239.69
536.154	247.69
536.369	224.69
536.583	231.69
536.797	250.69
537.011	239.69
537.225	244.69
537.44	243.69
537.654	243.69
537.868	239.69
538.082	254.69
538.296	252.69
538.51	234.69
538.724	255.69
538.938	238.69
539.153	243.69
539.367	279.69
539.581	259.69
539.795	249.69
540.009	236.69
540.222	250.69
540.436	225.69
540.65	226.69
540.864	250.69
541.078	272.69
541.292	259.69
541.506	281.69
541.72	276.69
541.934	291.69
542.147	277.69
542.361	287.69
542.575	264.69
542.789	264.69
543.002	241.69
543.216	250.69
543.43	255.69
543.644	250.69
543.857	270.69
544.071	280.69
544.285	272.69
544.498	266.69
544.712	265.69
544.925	267.69
545.139	273.69
545.352	274.69
545.566	269.69
545.779	269.69
545.993	268.69
546.206	284.69
546.42	292.69
546.633	282.69
546.847	289.69
547.06	268.69
547.274	280.69
547.487	277.69
547.7	266.69
547.914	263.69
548.127	269.69
548.34	285.69
548.554	279.69
548.767	273.69
548.98	260.69
549.193	260.69
549.407	272.69
549.62	263.69
549.833	287.69
550.046	272.69
550.259	267.69
550.473	279.69
550.686	277.69
550.899	253.69
551.112	256.69
551.325	255.69
551.538	238.69
551.751	251.69
551.964	265.69
552.177	256.69
552.39	260.69
552.603	287.69
552.816	273.69
553.029	275.69
553.242	299.69
553.455	282.69
553.667	293.69
553.88	280.69
554.093	278.69
554.306	264.69
554.519	274.69
554.732	267.69
554.944	271.69
555.157	263.69
555.37	236.69
555.583	262.69
555.795	252.69
556.008	245.69
556.221	238.69
556.433	234.69
556.646	224.69
556.859	229.69
557.071	233.69
557.284	238.69
557.496	246.69
557.709	238.69
557.921	227.69
558.134	251.69
558.346	245.69
558.559	246.69
558.771	239.69
558.984	237.69
559.196	237.69
559.409	235.69
559.621	236.69
559.833	226.69
560.046	226.69
560.258	223.69
560.47	225.69
560.683	228.69
560.895	233.69
561.107	236.69
561.32	211.69
561.532	225.69
561.744	224.69
561.956	244.69
562.168	228.69
562.381	223.69
562.593	225.69
562.805	218.69
563.017	236.69
563.229	232.69
563.441	244.69
563.653	230.69
563.865	231.69
564.077	227.69
564.289	221.69
564.501	232.69
564.713	236.69
564.925	240.69
565.137	247.69
565.349	250.69
565.561	240.69
565.773	260.69
565.985	264.69
566.197	272.69
566.408	278.69
566.62	312.69
566.832	313.69
567.044	325.69
567.255	331.69
567.467	330.69
567.679	345.69
567.891	356.69
568.102	329.69
568.314	337.69
568.526	307.69
568.737	285.69
568.949	265.69
569.161	250.69
569.372	243.69
569.584	242.69
569.795	238.69
570.007	219.69
570.218	229.69
570.43	215.69
570.641	230.69
570.853	205.69
571.064	211.69
571.276	217.69
571.487	223.69
571.698	224.69
571.91	225.69
572.121	212.69
572.333	206.69
572.544	221.69
572.755	211.69
572.966	214.69
573.178	201.69
573.389	199.69
573.6	191.69
573.811	186.69
574.023	165.69
574.234	178.69
574.445	183.69
574.656	201.69
574.867	181.69
575.078	192.69
575.289	192.69
575.501	190.69
575.712	199.69
575.923	182.69
576.134	191.69
576.345	184.69
576.556	208.69
576.767	194.69
576.978	194.69
577.188	185.69
577.399	185.69
577.61	163.69
577.821	193.69
578.032	179.69
578.243	183.69
578.454	180.69
578.665	183.69
578.875	176.69
579.086	179.69
579.297	178.69
579.508	183.69
579.718	180.69
579.929	184.69
580.14	169.69
580.35	173.69
580.561	181.69
580.772	167.69
580.982	183.69
581.193	175.69
581.403	172.69
581.614	181.69
581.825	192.69
582.035	175.69
582.246	154.69
582.456	185.69
582.667	173.69
582.877	162.69
583.087	166.69
583.298	185.69
583.508	172.69
583.719	162.69
583.929	179.69
584.139	158.69
584.35	171.69
584.56	159.69
584.77	145.69
584.981	169.69
585.191	156.69
585.401	166.69
585.611	161.69
585.821	160.69
586.032	187.69
586.242	173.69
586.452	179.69
586.662	154.69
586.872	166.69
587.082	165.69
587.292	179.69
587.502	164.69
587.713	155.69
587.923	171.69
588.133	168.69
588.343	158.69
588.553	176.69
588.762	167.69
588.972	163.69
589.182	170.69
589.392	156.69
589.602	177.69
589.812	156.69
590.022	166.69
590.232	165.69
590.441	173.69
590.651	169.69
590.861	177.69
591.071	161.69
591.281	165.69
591.49	179.69
591.7	181.69
591.91	195.69
592.119	178.69
592.329	181.69
592.539	184.69
592.748	177.69
592.958	181.69
593.167	196.69
593.377	191.69
593.587	210.69
593.796	202.69
594.006	193.69
594.215	193.69
594.424	187.69
594.634	202.69
594.843	192.69
595.053	186.69
595.262	187.69
595.472	180.69
595.681	173.69
595.89	158.69
596.1	162.69
596.309	181.69
596.518	176.69
596.727	173.69
596.937	158.69
597.146	141.69
597.355	167.69
597.564	155.69
597.774	153.69
597.983	144.69
598.192	156.69
598.401	160.69
598.61	154.69
598.819	190.69
599.028	163.69
599.237	157.69
599.446	148.69
599.655	152.69
599.864	163.69
600.073	143.69
600.282	170.69
600.491	156.69
600.7	161.69
600.909	145.69
601.118	159.69
601.327	148.69
601.536	164.69
601.745	159.69
601.953	152.69
602.162	163.69
602.371	162.69
602.58	167.69
602.789	162.69
602.997	156.69
603.206	162.69
603.415	142.69
603.623	144.69
603.832	156.69
604.041	153.69
604.249	153.69
604.458	163.69
604.666	143.69
604.875	143.69
605.084	138.69
605.292	138.69
605.501	166.69
605.709	148.69
605.918	163.69
606.126	155.69
606.334	161.69
606.543	151.69
606.751	168.69
606.96	157.69
607.168	156.69
607.376	160.69
607.585	155.69
607.793	144.69
608.001	138.69
608.21	144.69
608.418	148.69
608.626	141.69
608.834	161.69
609.043	162.69
609.251	158.69
609.459	160.69
609.667	139.69
609.875	156.69
610.083	148.69
610.291	141.69
610.499	149.69
610.707	155.69
610.916	164.69
611.124	155.69
611.332	161.69
611.54	165.69
611.748	169.69
611.955	161.69
612.163	147.69
612.371	151.69
612.579	142.69
612.787	139.69
612.995	152.69
613.203	157.69
613.411	171.69
613.618	153.69
613.826	141.69
614.034	159.69
614.242	161.69
614.449	162.69
614.657	145.69
614.865	154.69
615.072	155.69
615.28	156.69
615.488	160.69
615.695	150.69
615.903	157.69
616.111	159.69
616.318	169.69
616.526	151.69
616.733	157.69
616.941	156.69
617.148	143.69
617.356	154.69
617.563	151.69
617.771	143.69
617.978	163.69
618.185	153.69
618.393	167.69
618.6	149.69
618.807	140.69
619.015	163.69
619.222	149.69
619.429	155.69
619.637	157.69
619.844	137.69
620.051	150.69
620.258	152.69
620.466	154.69
620.673	160.69
620.88	141.69
621.087	135.69
621.294	165.69
621.501	136.69
621.708	147.69
621.915	125.69
622.122	162.69
622.329	134.69
622.536	152.69
622.743	128.69
622.95	136.69
623.157	136.69
623.364	154.69
623.571	151.69
623.778	157.69
623.985	159.69
624.192	130.69
624.399	147.69
624.606	141.69
624.812	145.69
625.019	135.69
625.226	135.69
625.433	148.69
625.639	131.69
625.846	125.69
626.053	136.69
626.259	116.69
626.466	143.69
626.673	152.69
626.879	131.69
627.086	131.69
627.293	126.69
627.499	136.69
627.706	122.69
627.912	138.69
628.119	142.69
628.325	141.69
628.532	146.69
628.738	130.69
628.945	124.69
629.151	128.69
629.357	143.69
629.564	139.69
629.77	138.69
629.976	133.69
630.183	133.69
630.389	138.69
630.595	120.69
630.802	128.69
631.008	123.69
631.214	123.69
631.42	153.69
631.627	137.69
631.833	123.69
632.039	139.69
632.245	145.69
632.451	117.69
632.657	131.69
632.863	125.69
633.069	125.69
633.275	160.69
633.481	123.69
633.688	136.69
633.893	129.69
634.099	119.69
634.305	123.69
634.511	138.69
634.717	127.69
634.923	135.69
635.129	115.69
635.335	121.69
635.541	152.69
635.747	129.69
635.952	139.69
636.158	127.69
636.364	137.69
636.57	130.69
636.775	125.69
636.981	114.69
637.187	132.69
637.392	120.69
637.598	133.69
637.804	130.69
638.009	128.69
638.215	129.69
638.421	114.69
638.626	126.69
638.832	142.69
639.037	125.69
639.243	115.69
639.448	123.69
639.654	127.69
639.859	114.69
640.065	112.69
640.27	146.69
640.475	135.69
640.681	139.69
640.886	132.69
641.091	131.69
641.297	129.69
641.502	137.69
641.707	120.69
641.913	124.69
642.118	110.69
642.323	124.69
642.528	123.69
642.733	139.69
642.939	124.69
643.144	135.69
643.349	125.69
643.554	125.69
643.759	112.69
643.964	114.69
644.169	121.69
644.374	126.69
644.579	125.69
644.784	126.69
644.989	107.69
645.194	122.69
645.399	131.69
645.604	115.69
645.809	128.69
646.014	115.69
646.219	114.69
646.423	120.69
646.628	136.69
646.833	120.69
647.038	133.69
647.243	129.69
647.447	132.69
647.652	121.69
647.857	129.69
648.062	129.69
648.266	116.69
648.471	115.69
648.676	125.69
648.88	119.69
649.085	116.69
649.289	141.69
649.494	128.69
649.698	129.69
649.903	113.69
650.107	121.69
650.312	117.69
650.516	115.69
650.721	114.69
650.925	123.69
651.13	102.69
651.334	113.69
651.539	109.69
651.743	128.69
651.947	126.69
652.152	115.69
652.356	119.69
652.56	127.69
652.764	120.69
652.969	112.69
653.173	112.69
653.377	99.69
653.581	122.69
653.785	113.69
653.99	122.69
654.194	111.69
654.398	110.69
654.602	109.69
654.806	105.69
655.01	115.69
655.214	119.69
655.418	101.69
655.622	100.69
655.826	111.69
656.03	109.69
656.234	116.69
656.438	105.69
656.642	114.69
656.846	116.69
657.049	118.69
657.253	112.69
657.457	92.69
657.661	109.69
657.865	104.69
658.068	98.69
658.272	109.69
658.476	89.69
658.68	110.69
658.883	107.69
659.087	111.69
659.291	96.69
659.494	110.69
659.698	89.69
659.901	94.69
660.105	83.69
660.309	94.69
660.512	89.69
660.716	99.69
660.919	107.69
661.123	95.69
661.326	100.69
661.53	88.69
661.733	95.69
661.936	101.69
662.14	89.69
662.343	98.69
662.546	101.69
662.75	90.69
662.953	87.69
663.156	96.69
663.36	90.69
663.563	76.69
663.766	82.69
663.969	89.69
664.173	74.69
664.376	78.69
664.579	74.69
664.782	89.69
664.985	85.69
665.188	77.69
665.391	89.69
665.594	76.69
665.797	87.69
666	77.69
666.203	72.69
666.406	73.69
666.609	84.69
666.812	92.69
667.015	80.69
667.218	80.69
667.421	87.69
667.624	77.69
667.827	87.69
668.03	81.69
668.232	80.69
668.435	62.69
668.638	67.69
668.841	86.69
669.043	79.69
669.246	74.69
669.449	79.69
669.651	73.69
669.854	89.69
670.057	79.69
670.259	75.69
670.462	80.69
670.665	80.69
670.867	84.69
671.07	94.69
671.272	88.69
671.475	88.69
671.677	79.69
671.88	86.69
672.082	71.69
672.284	76.69
672.487	93.69
672.689	87.69
672.892	89.69
