Data from SampB_HRD10591_00043.txt Node
Date: Mon Jan 19 11:33:43 EST 2026
User: Yrep
Spectrometer: HR+D1059
Trigger mode: 0
Integration Time (sec): 3.443000E-1
Scans to average: 1
Electric dark correction enabled: true
Nonlinearity correction enabled: false
Boxcar width: 0
XAxis mode: Wavelengths
Number of Pixels in Spectrum: 2048
>>>>>Begin Spectral Data<<<<<
223.165	-9.88
223.4	-9.88
223.635	-9.88
223.869	-35.88
224.104	-40.88
224.338	-14.88
224.573	-22.88
224.808	-13.88
225.042	-7.88
225.277	-0.88
225.511	1.12
225.746	9.12
225.98	7.12
226.215	11.12
226.449	23.12
226.683	15.12
226.918	44.12
227.152	36.12
227.387	48.12
227.621	40.12
227.856	47.12
228.09	40.12
228.324	46.12
228.559	53.12
228.793	68.12
229.027	63.12
229.262	74.12
229.496	82.12
229.73	83.12
229.964	80.12
230.199	72.12
230.433	82.12
230.667	88.12
230.901	83.12
231.136	75.12
231.37	88.12
231.604	82.12
231.838	96.12
232.072	93.12
232.306	102.12
232.541	94.12
232.775	88.12
233.009	87.12
233.243	93.12
233.477	93.12
233.711	92.12
233.945	101.12
234.179	87.12
234.413	95.12
234.647	85.12
234.881	94.12
235.115	100.12
235.349	91.12
235.583	91.12
235.817	101.12
236.051	84.12
236.285	95.12
236.519	81.12
236.753	99.12
236.987	93.12
237.221	92.12
237.455	92.12
237.689	102.12
237.922	100.12
238.156	102.12
238.39	94.12
238.624	107.12
238.858	114.12
239.091	91.12
239.325	91.12
239.559	97.12
239.793	98.12
240.027	96.12
240.26	92.12
240.494	91.12
240.728	105.12
240.961	98.12
241.195	101.12
241.429	117.12
241.662	99.12
241.896	110.12
242.13	113.12
242.363	103.12
242.597	84.12
242.83	112.12
243.064	89.12
243.298	94.12
243.531	94.12
243.765	94.12
243.998	124.12
244.232	112.12
244.465	114.12
244.699	105.12
244.932	93.12
245.166	105.12
245.399	98.12
245.633	107.12
245.866	100.12
246.099	96.12
246.333	114.12
246.566	117.12
246.8	103.12
247.033	119.12
247.266	102.12
247.5	91.12
247.733	100.12
247.966	105.12
248.2	109.12
248.433	111.12
248.666	108.12
248.899	108.12
249.133	110.12
249.366	127.12
249.599	123.12
249.832	125.12
250.066	139.12
250.299	126.12
250.532	113.12
250.765	127.12
250.998	137.12
251.231	115.12
251.465	115.12
251.698	111.12
251.931	114.12
252.164	112.12
252.397	121.12
252.63	111.12
252.863	142.12
253.096	141.12
253.329	123.12
253.562	122.12
253.795	128.12
254.028	143.12
254.261	134.12
254.494	123.12
254.727	127.12
254.96	110.12
255.193	135.12
255.426	123.12
255.659	112.12
255.892	149.12
256.124	130.12
256.357	146.12
256.59	147.12
256.823	126.12
257.056	135.12
257.289	124.12
257.521	132.12
257.754	134.12
257.987	143.12
258.22	150.12
258.452	126.12
258.685	147.12
258.918	130.12
259.151	127.12
259.383	150.12
259.616	130.12
259.849	122.12
260.081	150.12
260.314	142.12
260.547	133.12
260.779	160.12
261.012	148.12
261.244	139.12
261.477	146.12
261.71	130.12
261.942	135.12
262.175	114.12
262.407	142.12
262.64	156.12
262.872	146.12
263.105	150.12
263.337	159.12
263.57	151.12
263.802	121.12
264.035	132.12
264.267	125.12
264.499	123.12
264.732	147.12
264.964	136.12
265.197	149.12
265.429	142.12
265.661	142.12
265.894	122.12
266.126	135.12
266.358	141.12
266.591	139.12
266.823	132.12
267.055	150.12
267.287	131.12
267.52	143.12
267.752	142.12
267.984	146.12
268.216	137.12
268.448	141.12
268.681	155.12
268.913	136.12
269.145	148.12
269.377	154.12
269.609	150.12
269.841	149.12
270.073	117.12
270.306	132.12
270.538	148.12
270.77	154.12
271.002	136.12
271.234	153.12
271.466	160.12
271.698	157.12
271.93	151.12
272.162	155.12
272.394	169.12
272.626	150.12
272.858	143.12
273.09	147.12
273.322	162.12
273.553	150.12
273.785	150.12
274.017	187.12
274.249	179.12
274.481	184.12
274.713	173.12
274.945	195.12
275.176	194.12
275.408	167.12
275.64	182.12
275.872	173.12
276.104	168.12
276.335	152.12
276.567	158.12
276.799	170.12
277.031	162.12
277.262	176.12
277.494	174.12
277.726	167.12
277.957	168.12
278.189	160.12
278.421	168.12
278.652	159.12
278.884	165.12
279.115	181.12
279.347	180.12
279.579	183.12
279.81	175.12
280.042	177.12
280.273	186.12
280.505	173.12
280.736	182.12
280.968	158.12
281.199	172.12
281.431	174.12
281.662	181.12
281.894	170.12
282.125	179.12
282.356	170.12
282.588	169.12
282.819	165.12
283.051	163.12
283.282	172.12
283.513	175.12
283.745	191.12
283.976	157.12
284.207	184.12
284.439	167.12
284.67	174.12
284.901	167.12
285.132	187.12
285.364	182.12
285.595	173.12
285.826	188.12
286.057	179.12
286.288	157.12
286.52	169.12
286.751	184.12
286.982	183.12
287.213	164.12
287.444	184.12
287.675	197.12
287.906	181.12
288.138	198.12
288.369	171.12
288.6	161.12
288.831	184.12
289.062	190.12
289.293	164.12
289.524	173.12
289.755	182.12
289.986	186.12
290.217	178.12
290.448	180.12
290.679	178.12
290.91	181.12
291.141	179.12
291.371	181.12
291.602	194.12
291.833	180.12
292.064	186.12
292.295	178.12
292.526	175.12
292.757	172.12
292.987	181.12
293.218	166.12
293.449	170.12
293.68	200.12
293.91	176.12
294.141	195.12
294.372	185.12
294.603	184.12
294.833	190.12
295.064	179.12
295.295	175.12
295.525	185.12
295.756	189.12
295.987	178.12
296.217	202.12
296.448	190.12
296.679	204.12
296.909	187.12
297.14	185.12
297.37	200.12
297.601	189.12
297.831	181.12
298.062	192.12
298.292	189.12
298.523	193.12
298.753	178.12
298.984	191.12
299.214	187.12
299.445	199.12
299.675	200.12
299.905	192.12
300.136	191.12
300.366	184.12
300.597	200.12
300.827	184.12
301.057	210.12
301.288	202.12
301.518	185.12
301.748	199.12
301.979	249.12
302.209	221.12
302.439	195.12
302.669	209.12
302.9	198.12
303.13	200.12
303.36	199.12
303.59	202.12
303.82	218.12
304.051	218.12
304.281	202.12
304.511	203.12
304.741	188.12
304.971	199.12
305.201	194.12
305.431	190.12
305.661	188.12
305.891	211.12
306.121	202.12
306.352	203.12
306.582	184.12
306.812	198.12
307.042	205.12
307.272	205.12
307.502	221.12
307.731	209.12
307.961	212.12
308.191	206.12
308.421	196.12
308.651	199.12
308.881	203.12
309.111	223.12
309.341	215.12
309.571	204.12
309.8	203.12
310.03	216.12
310.26	191.12
310.49	199.12
310.72	184.12
310.949	201.12
311.179	212.12
311.409	225.12
311.639	199.12
311.868	199.12
312.098	206.12
312.328	217.12
312.557	198.12
312.787	199.12
313.017	198.12
313.246	205.12
313.476	204.12
313.706	215.12
313.935	196.12
314.165	207.12
314.394	198.12
314.624	192.12
314.853	222.12
315.083	206.12
315.312	195.12
315.542	211.12
315.771	194.12
316.001	216.12
316.23	218.12
316.46	230.12
316.689	225.12
316.919	214.12
317.148	211.12
317.377	208.12
317.607	211.12
317.836	199.12
318.065	213.12
318.295	224.12
318.524	210.12
318.753	203.12
318.983	221.12
319.212	228.12
319.441	231.12
319.67	215.12
319.9	220.12
320.129	222.12
320.358	218.12
320.587	211.12
320.816	205.12
321.046	212.12
321.275	212.12
321.504	205.12
321.733	230.12
321.962	218.12
322.191	220.12
322.42	213.12
322.649	220.12
322.878	219.12
323.108	224.12
323.337	232.12
323.566	226.12
323.795	237.12
324.024	229.12
324.253	231.12
324.482	232.12
324.71	210.12
324.939	233.12
325.168	220.12
325.397	230.12
325.626	243.12
325.855	229.12
326.084	238.12
326.313	233.12
326.542	224.12
326.77	225.12
326.999	232.12
327.228	233.12
327.457	240.12
327.686	272.12
327.914	271.12
328.143	302.12
328.372	314.12
328.6	276.12
328.829	258.12
329.058	268.12
329.287	240.12
329.515	276.12
329.744	284.12
329.972	340.12
330.201	390.12
330.43	399.12
330.658	312.12
330.887	263.12
331.115	278.12
331.344	249.12
331.572	270.12
331.801	254.12
332.03	260.12
332.258	273.12
332.486	272.12
332.715	282.12
332.943	283.12
333.172	295.12
333.4	314.12
333.629	327.12
333.857	351.12
334.085	392.12
334.314	433.12
334.542	498.12
334.771	487.12
334.999	355.12
335.227	324.12
335.455	301.12
335.684	303.12
335.912	305.12
336.14	288.12
336.369	278.12
336.597	264.12
336.825	256.12
337.053	274.12
337.281	270.12
337.51	277.12
337.738	266.12
337.966	252.12
338.194	258.12
338.422	266.12
338.65	261.12
338.878	260.12
339.106	246.12
339.334	240.12
339.562	253.12
339.79	224.12
340.018	237.12
340.246	241.12
340.474	240.12
340.702	218.12
340.93	246.12
341.158	215.12
341.386	228.12
341.614	230.12
341.842	235.12
342.07	245.12
342.298	230.12
342.526	231.12
342.754	227.12
342.981	234.12
343.209	243.12
343.437	282.12
343.665	265.12
343.893	288.12
344.12	299.12
344.348	275.12
344.576	265.12
344.804	248.12
345.031	226.12
345.259	229.12
345.487	240.12
345.714	241.12
345.942	234.12
346.17	216.12
346.397	234.12
346.625	235.12
346.853	224.12
347.08	238.12
347.308	215.12
347.535	240.12
347.763	222.12
347.99	223.12
348.218	239.12
348.445	241.12
348.673	217.12
348.9	227.12
349.128	242.12
349.355	223.12
349.583	237.12
349.81	235.12
350.037	225.12
350.265	242.12
350.492	210.12
350.72	243.12
350.947	237.12
351.174	236.12
351.402	214.12
351.629	224.12
351.856	223.12
352.083	226.12
352.311	217.12
352.538	225.12
352.765	236.12
352.992	233.12
353.22	226.12
353.447	219.12
353.674	240.12
353.901	224.12
354.128	234.12
354.355	220.12
354.583	236.12
354.81	218.12
355.037	221.12
355.264	232.12
355.491	219.12
355.718	237.12
355.945	235.12
356.172	229.12
356.399	221.12
356.626	237.12
356.853	229.12
357.08	219.12
357.307	219.12
357.534	223.12
357.761	241.12
357.988	247.12
358.215	245.12
358.441	241.12
358.668	241.12
358.895	221.12
359.122	206.12
359.349	221.12
359.576	242.12
359.802	235.12
360.029	245.12
360.256	224.12
360.483	231.12
360.709	234.12
360.936	254.12
361.163	233.12
361.39	221.12
361.616	234.12
361.843	235.12
362.07	219.12
362.296	236.12
362.523	223.12
362.749	242.12
362.976	234.12
363.203	245.12
363.429	237.12
363.656	230.12
363.882	220.12
364.109	237.12
364.335	216.12
364.562	238.12
364.788	231.12
365.015	231.12
365.241	227.12
365.468	240.12
365.694	222.12
365.92	222.12
366.147	224.12
366.373	220.12
366.599	220.12
366.826	224.12
367.052	240.12
367.278	245.12
367.505	235.12
367.731	237.12
367.957	232.12
368.184	232.12
368.41	221.12
368.636	232.12
368.862	237.12
369.089	218.12
369.315	228.12
369.541	251.12
369.767	233.12
369.993	249.12
370.219	234.12
370.445	236.12
370.672	231.12
370.898	244.12
371.124	246.12
371.35	248.12
371.576	248.12
371.802	254.12
372.028	255.12
372.254	276.12
372.48	258.12
372.706	252.12
372.932	248.12
373.158	247.12
373.384	279.12
373.61	270.12
373.835	259.12
374.061	250.12
374.287	250.12
374.513	270.12
374.739	286.12
374.965	288.12
375.191	285.12
375.416	277.12
375.642	260.12
375.868	282.12
376.094	266.12
376.319	244.12
376.545	241.12
376.771	242.12
376.997	244.12
377.222	250.12
377.448	259.12
377.674	262.12
377.899	242.12
378.125	242.12
378.35	245.12
378.576	240.12
378.802	229.12
379.027	240.12
379.253	251.12
379.478	229.12
379.704	240.12
379.929	252.12
380.155	248.12
380.38	235.12
380.606	246.12
380.831	241.12
381.057	265.12
381.282	262.12
381.507	261.12
381.733	258.12
381.958	268.12
382.184	276.12
382.409	271.12
382.634	278.12
382.86	268.12
383.085	282.12
383.31	257.12
383.535	277.12
383.761	296.12
383.986	285.12
384.211	279.12
384.436	315.12
384.662	273.12
384.887	291.12
385.112	296.12
385.337	296.12
385.562	311.12
385.787	286.12
386.013	299.12
386.238	308.12
386.463	296.12
386.688	314.12
386.913	290.12
387.138	281.12
387.363	292.12
387.588	310.12
387.813	312.12
388.038	297.12
388.263	296.12
388.488	292.12
388.713	290.12
388.938	284.12
389.163	283.12
389.387	294.12
389.612	276.12
389.837	286.12
390.062	302.12
390.287	314.12
390.512	295.12
390.736	304.12
390.961	291.12
391.186	297.12
391.411	325.12
391.636	329.12
391.86	312.12
392.085	324.12
392.31	325.12
392.534	319.12
392.759	325.12
392.984	325.12
393.208	359.12
393.433	393.12
393.658	358.12
393.882	313.12
394.107	292.12
394.331	314.12
394.556	333.12
394.78	320.12
395.005	341.12
395.229	307.12
395.454	319.12
395.678	343.12
395.903	350.12
396.127	355.12
396.352	339.12
396.576	336.12
396.801	347.12
397.025	388.12
397.249	359.12
397.474	334.12
397.698	307.12
397.922	333.12
398.147	329.12
398.371	349.12
398.595	355.12
398.82	366.12
399.044	385.12
399.268	431.12
399.492	483.12
399.717	488.12
399.941	498.12
400.165	455.12
400.389	411.12
400.613	372.12
400.837	361.12
401.062	378.12
401.286	361.12
401.51	367.12
401.734	363.12
401.958	363.12
402.182	361.12
402.406	359.12
402.63	406.12
402.854	373.12
403.078	400.12
403.302	403.12
403.526	400.12
403.75	402.12
403.974	399.12
404.198	413.12
404.422	417.12
404.645	428.12
404.869	419.12
405.093	388.12
405.317	420.12
405.541	394.12
405.765	386.12
405.988	381.12
406.212	406.12
406.436	406.12
406.66	422.12
406.883	413.12
407.107	431.12
407.331	415.12
407.555	464.12
407.778	440.12
408.002	424.12
408.226	404.12
408.449	417.12
408.673	396.12
408.896	394.12
409.12	378.12
409.344	422.12
409.567	397.12
409.791	415.12
410.014	405.12
410.238	399.12
410.461	394.12
410.685	398.12
410.908	393.12
411.132	373.12
411.355	352.12
411.578	360.12
411.802	388.12
412.025	377.12
412.249	365.12
412.472	388.12
412.695	379.12
412.919	381.12
413.142	376.12
413.365	387.12
413.589	372.12
413.812	358.12
414.035	370.12
414.258	377.12
414.482	389.12
414.705	371.12
414.928	372.12
415.151	363.12
415.374	371.12
415.597	364.12
415.821	350.12
416.044	350.12
416.267	360.12
416.49	359.12
416.713	358.12
416.936	369.12
417.159	387.12
417.382	347.12
417.605	371.12
417.828	372.12
418.051	390.12
418.274	366.12
418.497	376.12
418.72	370.12
418.943	402.12
419.166	388.12
419.389	406.12
419.611	386.12
419.834	387.12
420.057	408.12
420.28	370.12
420.503	373.12
420.726	364.12
420.948	352.12
421.171	373.12
421.394	358.12
421.617	353.12
421.839	366.12
422.062	370.12
422.285	358.12
422.507	370.12
422.73	408.12
422.953	408.12
423.175	375.12
423.398	378.12
423.621	366.12
423.843	373.12
424.066	378.12
424.288	395.12
424.511	406.12
424.733	387.12
424.956	406.12
425.178	378.12
425.401	376.12
425.623	368.12
425.846	350.12
426.068	375.12
426.291	357.12
426.513	360.12
426.735	351.12
426.958	361.12
427.18	345.12
427.402	359.12
427.625	341.12
427.847	346.12
428.069	347.12
428.292	335.12
428.514	354.12
428.736	334.12
428.958	342.12
429.181	345.12
429.403	328.12
429.625	329.12
429.847	336.12
430.069	345.12
430.292	377.12
430.514	336.12
430.736	346.12
430.958	335.12
431.18	340.12
431.402	327.12
431.624	334.12
431.846	326.12
432.068	336.12
432.29	333.12
432.512	345.12
432.734	357.12
432.956	352.12
433.178	356.12
433.4	334.12
433.622	343.12
433.844	332.12
434.066	339.12
434.287	329.12
434.509	339.12
434.731	344.12
434.953	338.12
435.175	358.12
435.397	346.12
435.618	317.12
435.84	328.12
436.062	324.12
436.284	322.12
436.505	329.12
436.727	337.12
436.949	326.12
437.17	328.12
437.392	302.12
437.614	319.12
437.835	309.12
438.057	308.12
438.278	323.12
438.5	305.12
438.721	323.12
438.943	334.12
439.165	315.12
439.386	339.12
439.608	320.12
439.829	331.12
440.05	346.12
440.272	370.12
440.493	341.12
440.715	344.12
440.936	351.12
441.158	364.12
441.379	344.12
441.6	385.12
441.822	383.12
442.043	368.12
442.264	365.12
442.486	363.12
442.707	359.12
442.928	370.12
443.149	368.12
443.371	388.12
443.592	366.12
443.813	363.12
444.034	381.12
444.255	378.12
444.476	409.12
444.698	417.12
444.919	424.12
445.14	601.12
445.361	473.12
445.582	376.12
445.803	373.12
446.024	357.12
446.245	367.12
446.466	364.12
446.687	348.12
446.908	354.12
447.129	341.12
447.35	350.12
447.571	351.12
447.792	307.12
448.013	308.12
448.234	331.12
448.455	320.12
448.675	328.12
448.896	317.12
449.117	324.12
449.338	327.12
449.559	317.12
449.779	310.12
450	305.12
450.221	314.12
450.442	316.12
450.662	309.12
450.883	306.12
451.104	325.12
451.324	309.12
451.545	322.12
451.766	319.12
451.986	318.12
452.207	307.12
452.428	308.12
452.648	315.12
452.869	326.12
453.089	281.12
453.31	295.12
453.53	318.12
453.751	314.12
453.971	316.12
454.192	295.12
454.412	282.12
454.633	304.12
454.853	306.12
455.073	282.12
455.294	298.12
455.514	307.12
455.734	295.12
455.955	284.12
456.175	285.12
456.395	304.12
456.616	279.12
456.836	284.12
457.056	263.12
457.276	269.12
457.497	274.12
457.717	274.12
457.937	307.12
458.157	294.12
458.377	284.12
458.598	290.12
458.818	288.12
459.038	294.12
459.258	307.12
459.478	315.12
459.698	320.12
459.918	320.12
460.138	344.12
460.358	384.12
460.578	360.12
460.798	378.12
461.018	375.12
461.238	351.12
461.458	356.12
461.678	360.12
461.898	388.12
462.118	382.12
462.338	398.12
462.558	393.12
462.777	413.12
462.997	449.12
463.217	463.12
463.437	447.12
463.657	424.12
463.876	406.12
464.096	417.12
464.316	396.12
464.536	413.12
464.755	405.12
464.975	383.12
465.195	383.12
465.414	359.12
465.634	339.12
465.854	348.12
466.073	338.12
466.293	303.12
466.512	307.12
466.732	325.12
466.951	328.12
467.171	332.12
467.391	345.12
467.61	334.12
467.829	344.12
468.049	413.12
468.268	417.12
468.488	357.12
468.707	359.12
468.927	310.12
469.146	321.12
469.365	331.12
469.585	331.12
469.804	339.12
470.023	371.12
470.243	339.12
470.462	349.12
470.681	349.12
470.901	317.12
471.12	354.12
471.339	349.12
471.558	350.12
471.777	336.12
471.997	362.12
472.216	475.12
472.435	593.12
472.654	443.12
472.873	363.12
473.092	337.12
473.311	349.12
473.53	332.12
473.749	351.12
473.968	334.12
474.187	339.12
474.406	300.12
474.625	319.12
474.844	332.12
475.063	306.12
475.282	311.12
475.501	307.12
475.72	312.12
475.939	317.12
476.158	312.12
476.377	319.12
476.596	332.12
476.814	314.12
477.033	303.12
477.252	325.12
477.471	324.12
477.69	338.12
477.908	358.12
478.127	366.12
478.346	373.12
478.564	379.12
478.783	370.12
479.002	382.12
479.22	378.12
479.439	391.12
479.658	379.12
479.876	371.12
480.095	383.12
480.313	413.12
480.532	410.12
480.751	416.12
480.969	535.12
481.188	816.12
481.406	682.12
481.624	483.12
481.843	402.12
482.061	380.12
482.28	381.12
482.498	367.12
482.717	351.12
482.935	366.12
483.153	366.12
483.372	387.12
483.59	367.12
483.808	351.12
484.027	347.12
484.245	342.12
484.463	376.12
484.681	387.12
484.9	362.12
485.118	394.12
485.336	338.12
485.554	355.12
485.772	350.12
485.99	368.12
486.209	384.12
486.427	347.12
486.645	343.12
486.863	375.12
487.081	359.12
487.299	356.12
487.517	369.12
487.735	364.12
487.953	400.12
488.171	375.12
488.389	367.12
488.607	361.12
488.825	340.12
489.043	365.12
489.261	404.12
489.479	367.12
489.696	354.12
489.914	373.12
490.132	368.12
490.35	376.12
490.568	386.12
490.786	379.12
491.003	379.12
491.221	393.12
491.439	409.12
491.657	422.12
491.874	434.12
492.092	454.12
492.31	435.12
492.527	422.12
492.745	418.12
492.963	428.12
493.18	415.12
493.398	428.12
493.615	423.12
493.833	418.12
494.05	420.12
494.268	419.12
494.485	404.12
494.703	421.12
494.92	431.12
495.138	398.12
495.355	415.12
495.573	405.12
495.79	413.12
496.008	414.12
496.225	401.12
496.442	404.12
496.66	430.12
496.877	432.12
497.094	447.12
497.312	412.12
497.529	420.12
497.746	436.12
497.963	443.12
498.181	456.12
498.398	495.12
498.615	492.12
498.832	520.12
499.049	553.12
499.267	615.12
499.484	642.12
499.701	697.12
499.918	730.12
500.135	838.12
500.352	904.12
500.569	931.12
500.786	919.12
501.003	864.12
501.22	764.12
501.437	723.12
501.654	659.12
501.871	575.12
502.088	539.12
502.305	532.12
502.522	495.12
502.739	503.12
502.956	484.12
503.172	468.12
503.389	413.12
503.606	434.12
503.823	440.12
504.04	427.12
504.256	454.12
504.473	438.12
504.69	453.12
504.907	450.12
505.123	401.12
505.34	406.12
505.557	393.12
505.773	373.12
505.99	340.12
506.207	368.12
506.423	367.12
506.64	346.12
506.856	350.12
507.073	345.12
507.289	359.12
507.506	343.12
507.722	335.12
507.939	350.12
508.155	339.12
508.372	331.12
508.588	329.12
508.805	330.12
509.021	319.12
509.238	325.12
509.454	316.12
509.67	309.12
509.887	323.12
510.103	330.12
510.319	322.12
510.536	307.12
510.752	304.12
510.968	304.12
511.184	290.12
511.401	305.12
511.617	316.12
511.833	309.12
512.049	323.12
512.265	298.12
512.481	313.12
512.698	294.12
512.914	317.12
513.13	313.12
513.346	323.12
513.562	315.12
513.778	301.12
513.994	315.12
514.21	318.12
514.426	314.12
514.642	313.12
514.858	309.12
515.074	316.12
515.29	324.12
515.506	316.12
515.721	310.12
515.937	338.12
516.153	332.12
516.369	346.12
516.585	334.12
516.801	350.12
517.016	391.12
517.232	402.12
517.448	431.12
517.664	410.12
517.879	424.12
518.095	394.12
518.311	380.12
518.527	406.12
518.742	380.12
518.958	360.12
519.173	357.12
519.389	353.12
519.605	355.12
519.82	343.12
520.036	334.12
520.251	342.12
520.467	317.12
520.682	302.12
520.898	308.12
521.113	327.12
521.329	310.12
521.544	312.12
521.76	304.12
521.975	309.12
522.19	280.12
522.406	313.12
522.621	312.12
522.836	295.12
523.052	304.12
523.267	289.12
523.482	300.12
523.698	298.12
523.913	310.12
524.128	300.12
524.343	295.12
524.559	313.12
524.774	308.12
524.989	295.12
525.204	305.12
525.419	317.12
525.634	298.12
525.849	302.12
526.064	283.12
526.28	310.12
526.495	308.12
526.71	277.12
526.925	286.12
527.14	286.12
527.355	281.12
527.57	283.12
527.785	296.12
527.999	277.12
528.214	280.12
528.429	301.12
528.644	306.12
528.859	319.12
529.074	304.12
529.289	314.12
529.503	311.12
529.718	285.12
529.933	278.12
530.148	288.12
530.363	282.12
530.577	280.12
530.792	278.12
531.007	277.12
531.221	289.12
531.436	276.12
531.651	293.12
531.865	292.12
532.08	292.12
532.295	281.12
532.509	283.12
532.724	283.12
532.938	280.12
533.153	289.12
533.367	294.12
533.582	297.12
533.796	288.12
534.011	286.12
534.225	272.12
534.44	280.12
534.654	276.12
534.868	273.12
535.083	287.12
535.297	306.12
535.511	287.12
535.726	282.12
535.94	280.12
536.154	281.12
536.369	277.12
536.583	245.12
536.797	274.12
537.011	268.12
537.225	264.12
537.44	271.12
537.654	268.12
537.868	270.12
538.082	266.12
538.296	281.12
538.51	278.12
538.724	286.12
538.938	273.12
539.153	276.12
539.367	265.12
539.581	258.12
539.795	279.12
540.009	276.12
540.222	262.12
540.436	268.12
540.65	285.12
540.864	280.12
541.078	288.12
541.292	276.12
541.506	302.12
541.72	311.12
541.934	300.12
542.147	312.12
542.361	328.12
542.575	296.12
542.789	266.12
543.002	293.12
543.216	276.12
543.43	251.12
543.644	290.12
543.857	296.12
544.071	290.12
544.285	299.12
544.498	313.12
544.712	295.12
544.925	301.12
545.139	299.12
545.352	306.12
545.566	294.12
545.779	319.12
545.993	302.12
546.206	299.12
546.42	323.12
546.633	310.12
546.847	308.12
547.06	305.12
547.274	322.12
547.487	318.12
547.7	294.12
547.914	310.12
548.127	307.12
548.34	294.12
548.554	303.12
548.767	310.12
548.98	315.12
549.193	318.12
549.407	296.12
549.62	306.12
549.833	307.12
550.046	309.12
550.259	315.12
550.473	306.12
550.686	323.12
550.899	304.12
551.112	307.12
551.325	310.12
551.538	296.12
551.751	289.12
551.964	294.12
552.177	306.12
552.39	310.12
552.603	313.12
552.816	322.12
553.029	310.12
553.242	357.12
553.455	338.12
553.667	343.12
553.88	336.12
554.093	332.12
554.306	311.12
554.519	312.12
554.732	290.12
554.944	300.12
555.157	295.12
555.37	278.12
555.583	274.12
555.795	263.12
556.008	280.12
556.221	283.12
556.433	264.12
556.646	280.12
556.859	279.12
557.071	282.12
557.284	279.12
557.496	283.12
557.709	274.12
557.921	269.12
558.134	264.12
558.346	250.12
558.559	260.12
558.771	255.12
558.984	266.12
559.196	274.12
559.409	264.12
559.621	264.12
559.833	256.12
560.046	244.12
560.258	269.12
560.47	258.12
560.683	249.12
560.895	259.12
561.107	263.12
561.32	264.12
561.532	246.12
561.744	244.12
561.956	270.12
562.168	250.12
562.381	262.12
562.593	246.12
562.805	256.12
563.017	256.12
563.229	268.12
563.441	253.12
563.653	242.12
563.865	270.12
564.077	253.12
564.289	276.12
564.501	271.12
564.713	260.12
564.925	263.12
565.137	279.12
565.349	266.12
565.561	265.12
565.773	299.12
565.985	294.12
566.197	292.12
566.408	313.12
566.62	364.12
566.832	360.12
567.044	364.12
567.255	351.12
567.467	348.12
567.679	367.12
567.891	416.12
568.102	398.12
568.314	388.12
568.526	361.12
568.737	333.12
568.949	298.12
569.161	271.12
569.372	287.12
569.584	269.12
569.795	237.12
570.007	250.12
570.218	242.12
570.43	264.12
570.641	254.12
570.853	250.12
571.064	251.12
571.276	248.12
571.487	242.12
571.698	250.12
571.91	236.12
572.121	216.12
572.333	232.12
572.544	223.12
572.755	212.12
572.966	215.12
573.178	199.12
573.389	205.12
573.6	210.12
573.811	205.12
574.023	196.12
574.234	199.12
574.445	227.12
574.656	218.12
574.867	211.12
575.078	198.12
575.289	203.12
575.501	223.12
575.712	234.12
575.923	195.12
576.134	199.12
576.345	197.12
576.556	192.12
576.767	210.12
576.978	222.12
577.188	221.12
577.399	204.12
577.61	197.12
577.821	203.12
578.032	199.12
578.243	206.12
578.454	210.12
578.665	210.12
578.875	190.12
579.086	203.12
579.297	198.12
579.508	188.12
579.718	198.12
579.929	190.12
580.14	198.12
580.35	185.12
580.561	192.12
580.772	198.12
580.982	191.12
581.193	186.12
581.403	205.12
581.614	173.12
581.825	198.12
582.035	180.12
582.246	196.12
582.456	169.12
582.667	176.12
582.877	191.12
583.087	190.12
583.298	198.12
583.508	183.12
583.719	188.12
583.929	182.12
584.139	171.12
584.35	180.12
584.56	186.12
584.77	181.12
584.981	185.12
585.191	195.12
585.401	185.12
585.611	175.12
585.821	185.12
586.032	185.12
586.242	181.12
586.452	199.12
586.662	166.12
586.872	182.12
587.082	187.12
587.292	182.12
587.502	182.12
587.713	183.12
587.923	198.12
588.133	166.12
588.343	200.12
588.553	179.12
588.762	205.12
588.972	212.12
589.182	254.12
589.392	234.12
589.602	197.12
589.812	244.12
590.022	225.12
590.232	169.12
590.441	174.12
590.651	171.12
590.861	174.12
591.071	191.12
591.281	178.12
591.49	183.12
591.7	181.12
591.91	194.12
592.119	184.12
592.329	202.12
592.539	195.12
592.748	217.12
592.958	229.12
593.167	214.12
593.377	223.12
593.587	224.12
593.796	232.12
594.006	215.12
594.215	224.12
594.424	225.12
594.634	220.12
594.843	216.12
595.053	224.12
595.262	189.12
595.472	197.12
595.681	181.12
595.89	184.12
596.1	186.12
596.309	188.12
596.518	184.12
596.727	182.12
596.937	155.12
597.146	177.12
597.355	190.12
597.564	176.12
597.774	178.12
597.983	172.12
598.192	168.12
598.401	170.12
598.61	164.12
598.819	167.12
599.028	176.12
599.237	171.12
599.446	174.12
599.655	180.12
599.864	182.12
600.073	162.12
600.282	173.12
600.491	167.12
600.7	171.12
600.909	175.12
601.118	175.12
601.327	170.12
601.536	183.12
601.745	179.12
601.953	180.12
602.162	193.12
602.371	164.12
602.58	170.12
602.789	178.12
602.997	164.12
603.206	166.12
603.415	175.12
603.623	163.12
603.832	164.12
604.041	179.12
604.249	155.12
604.458	169.12
604.666	162.12
604.875	183.12
605.084	169.12
605.292	172.12
605.501	160.12
605.709	159.12
605.918	169.12
606.126	179.12
606.334	178.12
606.543	169.12
606.751	180.12
606.96	171.12
607.168	177.12
607.376	166.12
607.585	168.12
607.793	168.12
608.001	164.12
608.21	156.12
608.418	165.12
608.626	164.12
608.834	174.12
609.043	188.12
609.251	158.12
609.459	161.12
609.667	174.12
609.875	171.12
610.083	183.12
610.291	169.12
610.499	172.12
610.707	168.12
610.916	148.12
611.124	175.12
611.332	166.12
611.54	171.12
611.748	159.12
611.955	169.12
612.163	173.12
612.371	180.12
612.579	172.12
612.787	184.12
612.995	163.12
613.203	159.12
613.411	172.12
613.618	150.12
613.826	163.12
614.034	172.12
614.242	155.12
614.449	159.12
614.657	149.12
614.865	178.12
615.072	172.12
615.28	170.12
615.488	168.12
615.695	159.12
615.903	165.12
616.111	171.12
616.318	177.12
616.526	194.12
616.733	181.12
616.941	154.12
617.148	175.12
617.356	168.12
617.563	171.12
617.771	180.12
617.978	174.12
618.185	164.12
618.393	169.12
618.6	167.12
618.807	165.12
619.015	170.12
619.222	180.12
619.429	158.12
619.637	152.12
619.844	156.12
620.051	169.12
620.258	155.12
620.466	157.12
620.673	147.12
620.88	180.12
621.087	151.12
621.294	154.12
621.501	164.12
621.708	147.12
621.915	166.12
622.122	155.12
622.329	168.12
622.536	166.12
622.743	169.12
622.95	161.12
623.157	148.12
623.364	161.12
623.571	154.12
623.778	171.12
623.985	161.12
624.192	162.12
624.399	149.12
624.606	178.12
624.812	145.12
625.019	153.12
625.226	147.12
625.433	158.12
625.639	152.12
625.846	155.12
626.053	146.12
626.259	131.12
626.466	148.12
626.673	141.12
626.879	142.12
627.086	146.12
627.293	159.12
627.499	142.12
627.706	134.12
627.912	128.12
628.119	146.12
628.325	150.12
628.532	128.12
628.738	152.12
628.945	154.12
629.151	130.12
629.357	142.12
629.564	133.12
629.77	127.12
629.976	139.12
630.183	159.12
630.389	136.12
630.595	132.12
630.802	145.12
631.008	154.12
631.214	132.12
631.42	142.12
631.627	150.12
631.833	127.12
632.039	126.12
632.245	133.12
632.451	130.12
632.657	142.12
632.863	135.12
633.069	120.12
633.275	131.12
633.481	133.12
633.688	125.12
633.893	142.12
634.099	144.12
634.305	135.12
634.511	138.12
634.717	143.12
634.923	124.12
635.129	136.12
635.335	135.12
635.541	132.12
635.747	152.12
635.952	134.12
636.158	147.12
636.364	168.12
636.57	183.12
636.775	159.12
636.981	152.12
637.187	144.12
637.392	134.12
637.598	148.12
637.804	139.12
638.009	135.12
638.215	146.12
638.421	141.12
638.626	153.12
638.832	125.12
639.037	128.12
639.243	127.12
639.448	132.12
639.654	146.12
639.859	115.12
640.065	118.12
640.27	134.12
640.475	134.12
640.681	134.12
640.886	117.12
641.091	124.12
641.297	131.12
641.502	123.12
641.707	126.12
641.913	119.12
642.118	115.12
642.323	123.12
642.528	135.12
642.733	135.12
642.939	140.12
643.144	112.12
643.349	114.12
643.554	151.12
643.759	129.12
643.964	134.12
644.169	123.12
644.374	120.12
644.579	122.12
644.784	126.12
644.989	121.12
645.194	127.12
645.399	119.12
645.604	134.12
645.809	124.12
646.014	125.12
646.219	129.12
646.423	130.12
646.628	125.12
646.833	131.12
647.038	125.12
647.243	123.12
647.447	127.12
647.652	126.12
647.857	125.12
648.062	133.12
648.266	120.12
648.471	133.12
648.676	134.12
648.88	127.12
649.085	133.12
649.289	126.12
649.494	125.12
649.698	133.12
649.903	130.12
650.107	119.12
650.312	144.12
650.516	139.12
650.721	110.12
650.925	118.12
651.13	119.12
651.334	135.12
651.539	124.12
651.743	117.12
651.947	119.12
652.152	117.12
652.356	117.12
652.56	123.12
652.764	119.12
652.969	106.12
653.173	100.12
653.377	93.12
653.581	104.12
653.785	119.12
653.99	112.12
654.194	104.12
654.398	113.12
654.602	110.12
654.806	106.12
655.01	107.12
655.214	92.12
655.418	102.12
655.622	105.12
655.826	113.12
656.03	118.12
656.234	110.12
656.438	115.12
656.642	118.12
656.846	114.12
657.049	103.12
657.253	100.12
657.457	104.12
657.661	103.12
657.865	102.12
658.068	96.12
658.272	85.12
658.476	87.12
658.68	82.12
658.883	90.12
659.087	80.12
659.291	104.12
659.494	91.12
659.698	94.12
659.901	90.12
660.105	85.12
660.309	91.12
660.512	83.12
660.716	91.12
660.919	89.12
661.123	94.12
661.326	96.12
661.53	100.12
661.733	105.12
661.936	85.12
662.14	76.12
662.343	77.12
662.546	85.12
662.75	76.12
662.953	82.12
663.156	93.12
663.36	94.12
663.563	99.12
663.766	70.12
663.969	82.12
664.173	94.12
664.376	74.12
664.579	76.12
664.782	76.12
664.985	69.12
665.188	87.12
665.391	77.12
665.594	92.12
665.797	77.12
666	74.12
666.203	69.12
666.406	69.12
666.609	68.12
666.812	85.12
667.015	77.12
667.218	82.12
667.421	79.12
667.624	81.12
667.827	74.12
668.03	70.12
668.232	88.12
668.435	80.12
668.638	74.12
668.841	87.12
669.043	85.12
669.246	68.12
669.449	66.12
669.651	70.12
669.854	63.12
670.057	90.12
670.259	74.12
670.462	77.12
670.665	72.12
670.867	73.12
671.07	74.12
671.272	85.12
671.475	84.12
671.677	85.12
671.88	77.12
672.082	70.12
672.284	73.12
672.487	67.12
672.689	76.12
672.892	74.12
