Data from Uncirc_1989_H10_HRD10591_00095.txt Node
Date: Wed Jan 03 11:57:54 EST 2024
User: Yrep
Spectrometer: HR+D1059
Trigger mode: 1
Integration Time (sec): 1.000000E-1
Scans to average: 1
Electric dark correction enabled: true
Nonlinearity correction enabled: false
Boxcar width: 0
XAxis mode: Wavelengths
Number of Pixels in Spectrum: 2048
>>>>>Begin Spectral Data<<<<<
223.165	-20.94
223.4	-20.94
223.635	-20.94
223.869	-17.94
224.104	-21.94
224.338	-6.94
224.573	-16.94
224.808	-19.94
225.042	-3.94
225.277	-10.94
225.511	0.06
225.746	7.06
225.98	7.06
226.215	18.06
226.449	5.06
226.683	16.06
226.918	31.06
227.152	35.06
227.387	31.06
227.621	48.06
227.856	50.06
228.09	57.06
228.324	48.06
228.559	59.06
228.793	67.06
229.027	56.06
229.262	69.06
229.496	81.06
229.73	89.06
229.964	84.06
230.199	67.06
230.433	85.06
230.667	88.06
230.901	72.06
231.136	73.06
231.37	76.06
231.604	83.06
231.838	78.06
232.072	92.06
232.306	88.06
232.541	90.06
232.775	91.06
233.009	88.06
233.243	76.06
233.477	87.06
233.711	87.06
233.945	67.06
234.179	87.06
234.413	79.06
234.647	87.06
234.881	86.06
235.115	84.06
235.349	70.06
235.583	83.06
235.817	88.06
236.051	84.06
236.285	86.06
236.519	81.06
236.753	82.06
236.987	87.06
237.221	79.06
237.455	69.06
237.689	81.06
237.922	72.06
238.156	83.06
238.39	91.06
238.624	80.06
238.858	69.06
239.091	80.06
239.325	73.06
239.559	92.06
239.793	69.06
240.027	83.06
240.26	87.06
240.494	91.06
240.728	70.06
240.961	71.06
241.195	84.06
241.429	75.06
241.662	74.06
241.896	84.06
242.13	85.06
242.363	76.06
242.597	76.06
242.83	84.06
243.064	86.06
243.298	97.06
243.531	68.06
243.765	86.06
243.998	83.06
244.232	87.06
244.465	86.06
244.699	90.06
244.932	67.06
245.166	74.06
245.399	80.06
245.633	78.06
245.866	80.06
246.099	74.06
246.333	73.06
246.566	57.06
246.8	97.06
247.033	87.06
247.266	86.06
247.5	76.06
247.733	81.06
247.966	73.06
248.2	83.06
248.433	75.06
248.666	101.06
248.899	90.06
249.133	84.06
249.366	104.06
249.599	102.06
249.832	83.06
250.066	87.06
250.299	80.06
250.532	80.06
250.765	84.06
250.998	94.06
251.231	81.06
251.465	87.06
251.698	79.06
251.931	87.06
252.164	76.06
252.397	67.06
252.63	91.06
252.863	87.06
253.096	83.06
253.329	89.06
253.562	86.06
253.795	81.06
254.028	89.06
254.261	97.06
254.494	94.06
254.727	77.06
254.96	89.06
255.193	92.06
255.426	80.06
255.659	80.06
255.892	71.06
256.124	91.06
256.357	85.06
256.59	87.06
256.823	100.06
257.056	83.06
257.289	71.06
257.521	75.06
257.754	75.06
257.987	97.06
258.22	92.06
258.452	73.06
258.685	87.06
258.918	82.06
259.151	73.06
259.383	71.06
259.616	86.06
259.849	85.06
260.081	84.06
260.314	90.06
260.547	86.06
260.779	89.06
261.012	89.06
261.244	97.06
261.477	104.06
261.71	79.06
261.942	104.06
262.175	101.06
262.407	93.06
262.64	81.06
262.872	95.06
263.105	90.06
263.337	81.06
263.57	75.06
263.802	79.06
264.035	79.06
264.267	78.06
264.499	85.06
264.732	85.06
264.964	79.06
265.197	87.06
265.429	100.06
265.661	86.06
265.894	81.06
266.126	93.06
266.358	87.06
266.591	90.06
266.823	84.06
267.055	91.06
267.287	90.06
267.52	77.06
267.752	74.06
267.984	97.06
268.216	87.06
268.448	78.06
268.681	93.06
268.913	96.06
269.145	75.06
269.377	89.06
269.609	75.06
269.841	83.06
270.073	80.06
270.306	81.06
270.538	95.06
270.77	97.06
271.002	97.06
271.234	85.06
271.466	83.06
271.698	82.06
271.93	83.06
272.162	81.06
272.394	92.06
272.626	91.06
272.858	100.06
273.09	85.06
273.322	77.06
273.553	90.06
273.785	81.06
274.017	96.06
274.249	91.06
274.481	73.06
274.713	93.06
274.945	89.06
275.176	84.06
275.408	102.06
275.64	93.06
275.872	84.06
276.104	82.06
276.335	106.06
276.567	83.06
276.799	101.06
277.031	101.06
277.262	92.06
277.494	100.06
277.726	90.06
277.957	93.06
278.189	106.06
278.421	84.06
278.652	87.06
278.884	82.06
279.115	90.06
279.347	84.06
279.579	93.06
279.81	87.06
280.042	94.06
280.273	98.06
280.505	99.06
280.736	87.06
280.968	96.06
281.199	79.06
281.431	96.06
281.662	83.06
281.894	81.06
282.125	90.06
282.356	119.06
282.588	137.06
282.819	104.06
283.051	91.06
283.282	79.06
283.513	90.06
283.745	91.06
283.976	90.06
284.207	91.06
284.439	82.06
284.67	89.06
284.901	89.06
285.132	96.06
285.364	91.06
285.595	92.06
285.826	96.06
286.057	89.06
286.288	75.06
286.52	86.06
286.751	92.06
286.982	100.06
287.213	88.06
287.444	84.06
287.675	87.06
287.906	83.06
288.138	89.06
288.369	95.06
288.6	90.06
288.831	76.06
289.062	96.06
289.293	92.06
289.524	97.06
289.755	79.06
289.986	93.06
290.217	93.06
290.448	92.06
290.679	86.06
290.91	88.06
291.141	81.06
291.371	97.06
291.602	81.06
291.833	84.06
292.064	91.06
292.295	89.06
292.526	87.06
292.757	93.06
292.987	89.06
293.218	81.06
293.449	104.06
293.68	87.06
293.91	86.06
294.141	89.06
294.372	86.06
294.603	100.06
294.833	101.06
295.064	99.06
295.295	99.06
295.525	97.06
295.756	92.06
295.987	96.06
296.217	119.06
296.448	118.06
296.679	105.06
296.909	97.06
297.14	85.06
297.37	85.06
297.601	99.06
297.831	77.06
298.062	94.06
298.292	97.06
298.523	88.06
298.753	91.06
298.984	97.06
299.214	79.06
299.445	97.06
299.675	94.06
299.905	65.06
300.136	89.06
300.366	92.06
300.597	95.06
300.827	95.06
301.057	100.06
301.288	94.06
301.518	93.06
301.748	81.06
301.979	104.06
302.209	82.06
302.439	100.06
302.669	90.06
302.9	91.06
303.13	96.06
303.36	82.06
303.59	87.06
303.82	81.06
304.051	102.06
304.281	96.06
304.511	90.06
304.741	91.06
304.971	88.06
305.201	95.06
305.431	94.06
305.661	95.06
305.891	95.06
306.121	88.06
306.352	86.06
306.582	88.06
306.812	97.06
307.042	92.06
307.272	95.06
307.502	97.06
307.731	107.06
307.961	106.06
308.191	88.06
308.421	97.06
308.651	90.06
308.881	92.06
309.111	96.06
309.341	98.06
309.571	99.06
309.8	88.06
310.03	87.06
310.26	85.06
310.49	92.06
310.72	90.06
310.949	87.06
311.179	92.06
311.409	71.06
311.639	82.06
311.868	105.06
312.098	87.06
312.328	91.06
312.557	98.06
312.787	96.06
313.017	111.06
313.246	113.06
313.476	104.06
313.706	82.06
313.935	79.06
314.165	93.06
314.394	101.06
314.624	104.06
314.853	97.06
315.083	107.06
315.312	99.06
315.542	99.06
315.771	92.06
316.001	90.06
316.23	109.06
316.46	88.06
316.689	77.06
316.919	95.06
317.148	103.06
317.377	95.06
317.607	95.06
317.836	97.06
318.065	90.06
318.295	88.06
318.524	107.06
318.753	99.06
318.983	91.06
319.212	114.06
319.441	95.06
319.67	116.06
319.9	94.06
320.129	97.06
320.358	92.06
320.587	75.06
320.816	95.06
321.046	107.06
321.275	107.06
321.504	93.06
321.733	96.06
321.962	107.06
322.191	88.06
322.42	111.06
322.649	121.06
322.878	114.06
323.108	116.06
323.337	102.06
323.566	125.06
323.795	136.06
324.024	168.06
324.253	314.06
324.482	650.06
324.71	1373.06
324.939	1764.06
325.168	647.06
325.397	216.06
325.626	143.06
325.855	129.06
326.084	125.06
326.313	124.06
326.542	155.06
326.77	207.06
326.999	372.06
327.228	749.06
327.457	1416.06
327.686	1101.06
327.914	320.06
328.143	196.06
328.372	195.06
328.6	150.06
328.829	106.06
329.058	117.06
329.287	132.06
329.515	132.06
329.744	129.06
329.972	155.06
330.201	226.06
330.43	271.06
330.658	182.06
330.887	142.06
331.115	130.06
331.344	102.06
331.572	108.06
331.801	99.06
332.03	99.06
332.258	103.06
332.486	96.06
332.715	90.06
332.943	95.06
333.172	97.06
333.4	103.06
333.629	117.06
333.857	122.06
334.085	130.06
334.314	207.06
334.542	285.06
334.771	297.06
334.999	147.06
335.227	109.06
335.455	102.06
335.684	98.06
335.912	99.06
336.14	92.06
336.369	100.06
336.597	99.06
336.825	99.06
337.053	99.06
337.281	84.06
337.51	95.06
337.738	106.06
337.966	95.06
338.194	86.06
338.422	93.06
338.65	83.06
338.878	99.06
339.106	97.06
339.334	90.06
339.562	93.06
339.79	87.06
340.018	83.06
340.246	93.06
340.474	98.06
340.702	105.06
340.93	100.06
341.158	102.06
341.386	92.06
341.614	94.06
341.842	101.06
342.07	101.06
342.298	91.06
342.526	89.06
342.754	87.06
342.981	98.06
343.209	99.06
343.437	89.06
343.665	106.06
343.893	97.06
344.12	97.06
344.348	103.06
344.576	94.06
344.804	99.06
345.031	103.06
345.259	103.06
345.487	86.06
345.714	112.06
345.942	94.06
346.17	93.06
346.397	93.06
346.625	86.06
346.853	93.06
347.08	100.06
347.308	88.06
347.535	92.06
347.763	93.06
347.99	96.06
348.218	97.06
348.445	100.06
348.673	101.06
348.9	104.06
349.128	97.06
349.355	85.06
349.583	82.06
349.81	98.06
350.037	99.06
350.265	104.06
350.492	89.06
350.72	95.06
350.947	104.06
351.174	94.06
351.402	94.06
351.629	109.06
351.856	100.06
352.083	100.06
352.311	107.06
352.538	108.06
352.765	107.06
352.992	113.06
353.22	109.06
353.447	117.06
353.674	118.06
353.901	97.06
354.128	97.06
354.355	95.06
354.583	92.06
354.81	91.06
355.037	99.06
355.264	93.06
355.491	104.06
355.718	92.06
355.945	79.06
356.172	87.06
356.399	98.06
356.626	100.06
356.853	87.06
357.08	100.06
357.307	116.06
357.534	90.06
357.761	83.06
357.988	93.06
358.215	97.06
358.441	112.06
358.668	99.06
358.895	95.06
359.122	92.06
359.349	98.06
359.576	73.06
359.802	83.06
360.029	108.06
360.256	90.06
360.483	102.06
360.709	87.06
360.936	95.06
361.163	108.06
361.39	91.06
361.616	89.06
361.843	99.06
362.07	97.06
362.296	87.06
362.523	99.06
362.749	85.06
362.976	90.06
363.203	107.06
363.429	87.06
363.656	83.06
363.882	80.06
364.109	96.06
364.335	77.06
364.562	96.06
364.788	88.06
365.015	93.06
365.241	110.06
365.468	106.06
365.694	105.06
365.92	93.06
366.147	90.06
366.373	75.06
366.599	101.06
366.826	105.06
367.052	88.06
367.278	96.06
367.505	91.06
367.731	92.06
367.957	75.06
368.184	97.06
368.41	99.06
368.636	109.06
368.862	108.06
369.089	98.06
369.315	92.06
369.541	90.06
369.767	91.06
369.993	95.06
370.219	93.06
370.445	85.06
370.672	87.06
370.898	100.06
371.124	83.06
371.35	85.06
371.576	79.06
371.802	101.06
372.028	84.06
372.254	90.06
372.48	85.06
372.706	87.06
372.932	81.06
373.158	88.06
373.384	103.06
373.61	93.06
373.835	95.06
374.061	102.06
374.287	102.06
374.513	99.06
374.739	75.06
374.965	83.06
375.191	87.06
375.416	103.06
375.642	102.06
375.868	92.06
376.094	75.06
376.319	85.06
376.545	93.06
376.771	97.06
376.997	95.06
377.222	96.06
377.448	93.06
377.674	98.06
377.899	85.06
378.125	87.06
378.35	99.06
378.576	93.06
378.802	91.06
379.027	101.06
379.253	115.06
379.478	108.06
379.704	100.06
379.929	110.06
380.155	96.06
380.38	89.06
380.606	97.06
380.831	92.06
381.057	108.06
381.282	96.06
381.507	87.06
381.733	74.06
381.958	92.06
382.184	95.06
382.409	89.06
382.634	98.06
382.86	79.06
383.085	96.06
383.31	96.06
383.535	112.06
383.761	96.06
383.986	95.06
384.211	108.06
384.436	104.06
384.662	111.06
384.887	88.06
385.112	97.06
385.337	99.06
385.562	117.06
385.787	107.06
386.013	99.06
386.238	111.06
386.463	110.06
386.688	111.06
386.913	116.06
387.138	105.06
387.363	91.06
387.588	95.06
387.813	95.06
388.038	111.06
388.263	107.06
388.488	96.06
388.713	103.06
388.938	94.06
389.163	103.06
389.387	104.06
389.612	96.06
389.837	85.06
390.062	96.06
390.287	87.06
390.512	97.06
390.736	89.06
390.961	105.06
391.186	91.06
391.411	91.06
391.636	87.06
391.86	93.06
392.085	78.06
392.31	101.06
392.534	92.06
392.759	99.06
392.984	97.06
393.208	85.06
393.433	105.06
393.658	86.06
393.882	89.06
394.107	82.06
394.331	100.06
394.556	87.06
394.78	99.06
395.005	95.06
395.229	91.06
395.454	97.06
395.678	93.06
395.903	83.06
396.127	108.06
396.352	98.06
396.576	96.06
396.801	93.06
397.025	96.06
397.249	83.06
397.474	92.06
397.698	87.06
397.922	97.06
398.147	91.06
398.371	85.06
398.595	98.06
398.82	74.06
399.044	81.06
399.268	87.06
399.492	83.06
399.717	89.06
399.941	90.06
400.165	115.06
400.389	101.06
400.613	81.06
400.837	107.06
401.062	105.06
401.286	94.06
401.51	92.06
401.734	95.06
401.958	94.06
402.182	121.06
402.406	141.06
402.63	122.06
402.854	83.06
403.078	79.06
403.302	87.06
403.526	91.06
403.75	81.06
403.974	87.06
404.198	92.06
404.422	99.06
404.645	83.06
404.869	101.06
405.093	92.06
405.317	83.06
405.541	95.06
405.765	111.06
405.988	100.06
406.212	148.06
406.436	210.06
406.66	119.06
406.883	84.06
407.107	92.06
407.331	94.06
407.555	80.06
407.778	97.06
408.002	101.06
408.226	85.06
408.449	87.06
408.673	84.06
408.896	95.06
409.12	93.06
409.344	91.06
409.567	93.06
409.791	92.06
410.014	96.06
410.238	88.06
410.461	99.06
410.685	100.06
410.908	112.06
411.132	99.06
411.355	97.06
411.578	85.06
411.802	89.06
412.025	98.06
412.249	93.06
412.472	97.06
412.695	104.06
412.919	107.06
413.142	96.06
413.365	93.06
413.589	100.06
413.812	91.06
414.035	86.06
414.258	90.06
414.482	92.06
414.705	95.06
414.928	90.06
415.151	80.06
415.374	108.06
415.597	95.06
415.821	107.06
416.044	101.06
416.267	96.06
416.49	95.06
416.713	81.06
416.936	96.06
417.159	89.06
417.382	93.06
417.605	92.06
417.828	88.06
418.051	95.06
418.274	98.06
418.497	82.06
418.72	89.06
418.943	97.06
419.166	92.06
419.389	91.06
419.611	80.06
419.834	85.06
420.057	95.06
420.28	88.06
420.503	83.06
420.726	105.06
420.948	83.06
421.171	86.06
421.394	97.06
421.617	93.06
421.839	115.06
422.062	99.06
422.285	93.06
422.507	92.06
422.73	100.06
422.953	98.06
423.175	88.06
423.398	104.06
423.621	96.06
423.843	89.06
424.066	90.06
424.288	99.06
424.511	69.06
424.733	104.06
424.956	91.06
425.178	92.06
425.401	97.06
425.623	112.06
425.846	87.06
426.068	108.06
426.291	92.06
426.513	98.06
426.735	93.06
426.958	97.06
427.18	110.06
427.402	103.06
427.625	157.06
427.847	131.06
428.069	136.06
428.292	98.06
428.514	97.06
428.736	86.06
428.958	89.06
429.181	82.06
429.403	86.06
429.625	85.06
429.847	82.06
430.069	112.06
430.292	93.06
430.514	108.06
430.736	88.06
430.958	98.06
431.18	76.06
431.402	85.06
431.624	85.06
431.846	97.06
432.068	92.06
432.29	96.06
432.512	93.06
432.734	87.06
432.956	91.06
433.178	82.06
433.4	102.06
433.622	104.06
433.844	82.06
434.066	107.06
434.287	92.06
434.509	83.06
434.731	86.06
434.953	81.06
435.175	96.06
435.397	96.06
435.618	101.06
435.84	99.06
436.062	100.06
436.284	108.06
436.505	108.06
436.727	99.06
436.949	96.06
437.17	74.06
437.392	87.06
437.614	104.06
437.835	99.06
438.057	103.06
438.278	100.06
438.5	94.06
438.721	98.06
438.943	100.06
439.165	82.06
439.386	96.06
439.608	112.06
439.829	94.06
440.05	124.06
440.272	125.06
440.493	94.06
440.715	96.06
440.936	86.06
441.158	94.06
441.379	88.06
441.6	97.06
441.822	87.06
442.043	91.06
442.264	107.06
442.486	103.06
442.707	74.06
442.928	101.06
443.149	121.06
443.371	119.06
443.592	113.06
443.813	109.06
444.034	101.06
444.255	88.06
444.476	85.06
444.698	104.06
444.919	99.06
445.14	150.06
445.361	127.06
445.582	95.06
445.803	141.06
446.024	126.06
446.245	115.06
446.466	93.06
446.687	91.06
446.908	98.06
447.129	79.06
447.35	92.06
447.571	88.06
447.792	95.06
448.013	102.06
448.234	103.06
448.455	90.06
448.675	99.06
448.896	110.06
449.117	96.06
449.338	94.06
449.559	112.06
449.779	104.06
450	86.06
450.221	85.06
450.442	88.06
450.662	88.06
450.883	100.06
451.104	111.06
451.324	99.06
451.545	92.06
451.766	91.06
451.986	90.06
452.207	90.06
452.428	95.06
452.648	98.06
452.869	100.06
453.089	105.06
453.31	106.06
453.53	100.06
453.751	90.06
453.971	96.06
454.192	93.06
454.412	92.06
454.633	97.06
454.853	89.06
455.073	96.06
455.294	93.06
455.514	107.06
455.734	83.06
455.955	82.06
456.175	83.06
456.395	91.06
456.616	83.06
456.836	87.06
457.056	79.06
457.276	93.06
457.497	80.06
457.717	89.06
457.937	99.06
458.157	86.06
458.377	102.06
458.598	115.06
458.818	131.06
459.038	130.06
459.258	112.06
459.478	80.06
459.698	75.06
459.918	96.06
460.138	67.06
460.358	75.06
460.578	97.06
460.798	100.06
461.018	96.06
461.238	99.06
461.458	86.06
461.678	96.06
461.898	85.06
462.118	87.06
462.338	81.06
462.558	88.06
462.777	97.06
462.997	87.06
463.217	93.06
463.437	96.06
463.657	91.06
463.876	102.06
464.096	95.06
464.316	108.06
464.536	87.06
464.755	92.06
464.975	114.06
465.195	129.06
465.414	151.06
465.634	97.06
465.854	102.06
466.073	103.06
466.293	101.06
466.512	88.06
466.732	89.06
466.951	86.06
467.171	103.06
467.391	88.06
467.61	97.06
467.829	106.06
468.049	150.06
468.268	186.06
468.488	99.06
468.707	104.06
468.927	96.06
469.146	92.06
469.365	89.06
469.585	68.06
469.804	102.06
470.023	97.06
470.243	98.06
470.462	98.06
470.681	88.06
470.901	91.06
471.12	98.06
471.339	108.06
471.558	85.06
471.777	99.06
471.997	128.06
472.216	263.06
472.435	425.06
472.654	163.06
472.873	113.06
473.092	89.06
473.311	93.06
473.53	88.06
473.749	96.06
473.968	95.06
474.187	81.06
474.406	98.06
474.625	87.06
474.844	83.06
475.063	91.06
475.282	99.06
475.501	85.06
475.72	95.06
475.939	91.06
476.158	80.06
476.377	103.06
476.596	108.06
476.814	83.06
477.033	103.06
477.252	91.06
477.471	83.06
477.69	94.06
477.908	95.06
478.127	83.06
478.346	90.06
478.564	104.06
478.783	95.06
479.002	98.06
479.22	84.06
479.439	109.06
479.658	100.06
479.876	92.06
480.095	89.06
480.313	88.06
480.532	111.06
480.751	118.06
480.969	245.06
481.188	699.06
481.406	401.06
481.624	123.06
481.843	79.06
482.061	97.06
482.28	91.06
482.498	100.06
482.717	100.06
482.935	90.06
483.153	90.06
483.372	99.06
483.59	103.06
483.808	107.06
484.027	90.06
484.245	105.06
484.463	103.06
484.681	98.06
484.9	90.06
485.118	84.06
485.336	98.06
485.554	89.06
485.772	108.06
485.99	105.06
486.209	106.06
486.427	87.06
486.645	100.06
486.863	118.06
487.081	93.06
487.299	87.06
487.517	102.06
487.735	90.06
487.953	104.06
488.171	95.06
488.389	87.06
488.607	86.06
488.825	85.06
489.043	93.06
489.261	100.06
489.479	72.06
489.696	101.06
489.914	81.06
490.132	109.06
490.35	98.06
490.568	88.06
490.786	105.06
491.003	85.06
491.221	90.06
491.439	104.06
491.657	92.06
491.874	97.06
492.092	105.06
492.31	97.06
492.527	86.06
492.745	87.06
492.963	109.06
493.18	104.06
493.398	80.06
493.615	95.06
493.833	108.06
494.05	106.06
494.268	93.06
494.485	91.06
494.703	83.06
494.92	99.06
495.138	93.06
495.355	92.06
495.573	104.06
495.79	95.06
496.008	92.06
496.225	99.06
496.442	75.06
496.66	103.06
496.877	98.06
497.094	90.06
497.312	104.06
497.529	95.06
497.746	94.06
497.963	80.06
498.181	94.06
498.398	95.06
498.615	109.06
498.832	101.06
499.049	92.06
499.267	100.06
499.484	85.06
499.701	99.06
499.918	83.06
500.135	107.06
500.352	94.06
500.569	96.06
500.786	89.06
501.003	91.06
501.22	108.06
501.437	94.06
501.654	85.06
501.871	102.06
502.088	89.06
502.305	92.06
502.522	98.06
502.739	89.06
502.956	99.06
503.172	95.06
503.389	98.06
503.606	103.06
503.823	90.06
504.04	99.06
504.256	91.06
504.473	97.06
504.69	87.06
504.907	113.06
505.123	84.06
505.34	107.06
505.557	85.06
505.773	105.06
505.99	95.06
506.207	95.06
506.423	90.06
506.64	95.06
506.856	93.06
507.073	84.06
507.289	99.06
507.506	98.06
507.722	109.06
507.939	105.06
508.155	109.06
508.372	70.06
508.588	92.06
508.805	100.06
509.021	95.06
509.238	91.06
509.454	88.06
509.67	96.06
509.887	107.06
510.103	123.06
510.319	179.06
510.536	572.06
510.752	1734.06
510.968	481.06
511.184	149.06
511.401	89.06
511.617	91.06
511.833	93.06
512.049	98.06
512.265	95.06
512.481	105.06
512.698	91.06
512.914	85.06
513.13	81.06
513.346	90.06
513.562	98.06
513.778	94.06
513.994	108.06
514.21	105.06
514.426	117.06
514.642	127.06
514.858	118.06
515.074	147.06
515.29	351.06
515.506	1049.06
515.721	399.06
515.937	130.06
516.153	111.06
516.369	91.06
516.585	95.06
516.801	94.06
517.016	96.06
517.232	84.06
517.448	90.06
517.664	86.06
517.879	87.06
518.095	101.06
518.311	85.06
518.527	88.06
518.742	92.06
518.958	92.06
519.173	96.06
519.389	89.06
519.605	93.06
519.82	84.06
520.036	113.06
520.251	123.06
520.467	98.06
520.682	92.06
520.898	107.06
521.113	121.06
521.329	121.06
521.544	166.06
521.76	427.06
521.975	1762.06
522.19	1031.06
522.406	260.06
522.621	109.06
522.836	95.06
523.052	96.06
523.267	105.06
523.482	103.06
523.698	100.06
523.913	122.06
524.128	111.06
524.343	85.06
524.559	90.06
524.774	87.06
524.989	96.06
525.204	110.06
525.419	91.06
525.634	89.06
525.849	92.06
526.064	92.06
526.28	103.06
526.495	89.06
526.71	103.06
526.925	93.06
527.14	98.06
527.355	97.06
527.57	94.06
527.785	105.06
527.999	97.06
528.214	97.06
528.429	99.06
528.644	88.06
528.859	76.06
529.074	105.06
529.289	121.06
529.503	153.06
529.718	101.06
529.933	89.06
530.148	85.06
530.363	93.06
530.577	93.06
530.792	88.06
531.007	87.06
531.221	88.06
531.436	88.06
531.651	97.06
531.865	94.06
532.08	84.06
532.295	89.06
532.509	77.06
532.724	88.06
532.938	95.06
533.153	101.06
533.367	88.06
533.582	90.06
533.796	102.06
534.011	84.06
534.225	89.06
534.44	100.06
534.654	103.06
534.868	85.06
535.083	91.06
535.297	90.06
535.511	107.06
535.726	100.06
535.94	100.06
536.154	89.06
536.369	85.06
536.583	102.06
536.797	92.06
537.011	98.06
537.225	90.06
537.44	92.06
537.654	85.06
537.868	95.06
538.082	98.06
538.296	99.06
538.51	99.06
538.724	97.06
538.938	92.06
539.153	89.06
539.367	99.06
539.581	86.06
539.795	110.06
540.009	100.06
540.222	97.06
540.436	95.06
540.65	102.06
540.864	98.06
541.078	95.06
541.292	88.06
541.506	100.06
541.72	90.06
541.934	91.06
542.147	104.06
542.361	101.06
542.575	99.06
542.789	93.06
543.002	96.06
543.216	77.06
543.43	103.06
543.644	99.06
543.857	83.06
544.071	102.06
544.285	92.06
544.498	99.06
544.712	99.06
544.925	98.06
545.139	85.06
545.352	95.06
545.566	94.06
545.779	96.06
545.993	99.06
546.206	95.06
546.42	96.06
546.633	106.06
546.847	86.06
547.06	81.06
547.274	92.06
547.487	102.06
547.7	101.06
547.914	84.06
548.127	100.06
548.34	98.06
548.554	98.06
548.767	81.06
548.98	108.06
549.193	101.06
549.407	92.06
549.62	91.06
549.833	91.06
550.046	84.06
550.259	89.06
550.473	95.06
550.686	93.06
550.899	96.06
551.112	89.06
551.325	90.06
551.538	85.06
551.751	99.06
551.964	94.06
552.177	93.06
552.39	100.06
552.603	92.06
552.816	98.06
553.029	95.06
553.242	104.06
553.455	95.06
553.667	109.06
553.88	107.06
554.093	89.06
554.306	91.06
554.519	104.06
554.732	96.06
554.944	89.06
555.157	99.06
555.37	92.06
555.583	110.06
555.795	99.06
556.008	92.06
556.221	92.06
556.433	96.06
556.646	101.06
556.859	96.06
557.071	96.06
557.284	115.06
557.496	94.06
557.709	80.06
557.921	77.06
558.134	89.06
558.346	81.06
558.559	105.06
558.771	93.06
558.984	101.06
559.196	76.06
559.409	86.06
559.621	95.06
559.833	99.06
560.046	96.06
560.258	91.06
560.47	103.06
560.683	76.06
560.895	99.06
561.107	94.06
561.32	92.06
561.532	96.06
561.744	100.06
561.956	102.06
562.168	106.06
562.381	104.06
562.593	89.06
562.805	97.06
563.017	99.06
563.229	85.06
563.441	105.06
563.653	96.06
563.865	88.06
564.077	91.06
564.289	84.06
564.501	88.06
564.713	106.06
564.925	86.06
565.137	104.06
565.349	93.06
565.561	97.06
565.773	96.06
565.985	87.06
566.197	85.06
566.408	84.06
566.62	105.06
566.832	72.06
567.044	79.06
567.255	84.06
567.467	98.06
567.679	93.06
567.891	83.06
568.102	80.06
568.314	92.06
568.526	97.06
568.737	88.06
568.949	87.06
569.161	94.06
569.372	92.06
569.584	77.06
569.795	88.06
570.007	106.06
570.218	202.06
570.43	127.06
570.641	104.06
570.853	83.06
571.064	101.06
571.276	99.06
571.487	98.06
571.698	84.06
571.91	82.06
572.121	102.06
572.333	85.06
572.544	94.06
572.755	100.06
572.966	83.06
573.178	98.06
573.389	104.06
573.6	97.06
573.811	70.06
574.023	108.06
574.234	100.06
574.445	95.06
574.656	88.06
574.867	79.06
575.078	97.06
575.289	91.06
575.501	85.06
575.712	93.06
575.923	93.06
576.134	84.06
576.345	89.06
576.556	101.06
576.767	87.06
576.978	87.06
577.188	94.06
577.399	85.06
577.61	92.06
577.821	104.06
578.032	109.06
578.243	233.06
578.454	579.06
578.665	183.06
578.875	104.06
579.086	100.06
579.297	73.06
579.508	92.06
579.718	100.06
579.929	79.06
580.14	97.06
580.35	95.06
580.561	88.06
580.772	74.06
580.982	88.06
581.193	90.06
581.403	89.06
581.614	87.06
581.825	86.06
582.035	91.06
582.246	92.06
582.456	83.06
582.667	85.06
582.877	98.06
583.087	91.06
583.298	93.06
583.508	91.06
583.719	76.06
583.929	84.06
584.139	103.06
584.35	96.06
584.56	99.06
584.77	91.06
584.981	87.06
585.191	97.06
585.401	100.06
585.611	93.06
585.821	67.06
586.032	99.06
586.242	81.06
586.452	96.06
586.662	79.06
586.872	81.06
587.082	91.06
587.292	90.06
587.502	92.06
587.713	79.06
587.923	106.06
588.133	75.06
588.343	88.06
588.553	95.06
588.762	97.06
588.972	106.06
589.182	83.06
589.392	93.06
589.602	88.06
589.812	84.06
590.022	95.06
590.232	96.06
590.441	76.06
590.651	86.06
590.861	85.06
591.071	85.06
591.281	96.06
591.49	87.06
591.7	89.06
591.91	94.06
592.119	95.06
592.329	79.06
592.539	99.06
592.748	96.06
592.958	87.06
593.167	87.06
593.377	82.06
593.587	92.06
593.796	90.06
594.006	84.06
594.215	91.06
594.424	75.06
594.634	88.06
594.843	87.06
595.053	100.06
595.262	90.06
595.472	100.06
595.681	93.06
595.89	96.06
596.1	83.06
596.309	84.06
596.518	88.06
596.727	103.06
596.937	95.06
597.146	82.06
597.355	91.06
597.564	87.06
597.774	92.06
597.983	98.06
598.192	90.06
598.401	89.06
598.61	93.06
598.819	98.06
599.028	95.06
599.237	95.06
599.446	87.06
599.655	95.06
599.864	86.06
600.073	81.06
600.282	98.06
600.491	98.06
600.7	96.06
600.909	96.06
601.118	79.06
601.327	95.06
601.536	103.06
601.745	96.06
601.953	105.06
602.162	95.06
602.371	93.06
602.58	102.06
602.789	94.06
602.997	96.06
603.206	87.06
603.415	81.06
603.623	94.06
603.832	103.06
604.041	90.06
604.249	97.06
604.458	98.06
604.666	81.06
604.875	98.06
605.084	103.06
605.292	75.06
605.501	85.06
605.709	82.06
605.918	79.06
606.126	84.06
606.334	81.06
606.543	95.06
606.751	96.06
606.96	105.06
607.168	70.06
607.376	74.06
607.585	92.06
607.793	86.06
608.001	87.06
608.21	80.06
608.418	82.06
608.626	68.06
608.834	81.06
609.043	81.06
609.251	79.06
609.459	82.06
609.667	65.06
609.875	88.06
610.083	89.06
610.291	90.06
610.499	99.06
610.707	100.06
610.916	81.06
611.124	85.06
611.332	97.06
611.54	91.06
611.748	87.06
611.955	81.06
612.163	91.06
612.371	77.06
612.579	89.06
612.787	89.06
612.995	77.06
613.203	79.06
613.411	84.06
613.618	88.06
613.826	97.06
614.034	91.06
614.242	92.06
614.449	84.06
614.657	94.06
614.865	75.06
615.072	89.06
615.28	93.06
615.488	100.06
615.695	75.06
615.903	102.06
616.111	92.06
616.318	103.06
616.526	95.06
616.733	95.06
616.941	100.06
617.148	90.06
617.356	95.06
617.563	98.06
617.771	91.06
617.978	97.06
618.185	88.06
618.393	81.06
618.6	98.06
618.807	79.06
619.015	85.06
619.222	76.06
619.429	88.06
619.637	93.06
619.844	88.06
620.051	91.06
620.258	83.06
620.466	83.06
620.673	100.06
620.88	72.06
621.087	93.06
621.294	76.06
621.501	87.06
621.708	103.06
621.915	74.06
622.122	85.06
622.329	103.06
622.536	83.06
622.743	109.06
622.95	96.06
623.157	76.06
623.364	80.06
623.571	87.06
623.778	93.06
623.985	88.06
624.192	92.06
624.399	91.06
624.606	100.06
624.812	92.06
625.019	77.06
625.226	92.06
625.433	72.06
625.639	80.06
625.846	96.06
626.053	87.06
626.259	84.06
626.466	92.06
626.673	89.06
626.879	96.06
627.086	84.06
627.293	88.06
627.499	88.06
627.706	92.06
627.912	74.06
628.119	91.06
628.325	80.06
628.532	90.06
628.738	86.06
628.945	90.06
629.151	87.06
629.357	77.06
629.564	87.06
629.77	91.06
629.976	83.06
630.183	95.06
630.389	73.06
630.595	83.06
630.802	87.06
631.008	80.06
631.214	94.06
631.42	76.06
631.627	85.06
631.833	92.06
632.039	91.06
632.245	84.06
632.451	84.06
632.657	91.06
632.863	82.06
633.069	93.06
633.275	87.06
633.481	88.06
633.688	93.06
633.893	97.06
634.099	92.06
634.305	84.06
634.511	92.06
634.717	88.06
634.923	98.06
635.129	95.06
635.335	89.06
635.541	99.06
635.747	80.06
635.952	87.06
636.158	104.06
636.364	119.06
636.57	108.06
636.775	84.06
636.981	107.06
637.187	99.06
637.392	85.06
637.598	84.06
637.804	82.06
638.009	87.06
638.215	84.06
638.421	92.06
638.626	82.06
638.832	92.06
639.037	72.06
639.243	87.06
639.448	82.06
639.654	94.06
639.859	92.06
640.065	79.06
640.27	89.06
640.475	86.06
640.681	82.06
640.886	88.06
641.091	77.06
641.297	91.06
641.502	95.06
641.707	91.06
641.913	90.06
642.118	91.06
642.323	106.06
642.528	85.06
642.733	79.06
642.939	95.06
643.144	96.06
643.349	97.06
643.554	88.06
643.759	83.06
643.964	89.06
644.169	101.06
644.374	87.06
644.579	97.06
644.784	84.06
644.989	85.06
645.194	86.06
645.399	98.06
645.604	93.06
645.809	81.06
646.014	87.06
646.219	84.06
646.423	105.06
646.628	66.06
646.833	89.06
647.038	74.06
647.243	79.06
647.447	88.06
647.652	100.06
647.857	93.06
648.062	85.06
648.266	88.06
648.471	92.06
648.676	92.06
648.88	83.06
649.085	80.06
649.289	84.06
649.494	104.06
649.698	126.06
649.903	102.06
650.107	90.06
650.312	78.06
650.516	87.06
650.721	93.06
650.925	93.06
651.13	88.06
651.334	81.06
651.539	87.06
651.743	91.06
651.947	77.06
652.152	94.06
652.356	103.06
652.56	89.06
652.764	93.06
652.969	82.06
653.173	83.06
653.377	83.06
653.581	88.06
653.785	73.06
653.99	80.06
654.194	93.06
654.398	93.06
654.602	97.06
654.806	93.06
655.01	111.06
655.214	88.06
655.418	80.06
655.622	103.06
655.826	92.06
656.03	93.06
656.234	76.06
656.438	98.06
656.642	84.06
656.846	96.06
657.049	98.06
657.253	82.06
657.457	91.06
657.661	88.06
657.865	88.06
658.068	92.06
658.272	97.06
658.476	86.06
658.68	80.06
658.883	89.06
659.087	88.06
659.291	80.06
659.494	79.06
659.698	80.06
659.901	81.06
660.105	88.06
660.309	95.06
660.512	86.06
660.716	82.06
660.919	88.06
661.123	91.06
661.326	85.06
661.53	88.06
661.733	107.06
661.936	100.06
662.14	72.06
662.343	99.06
662.546	80.06
662.75	108.06
662.953	85.06
663.156	95.06
663.36	90.06
663.563	78.06
663.766	92.06
663.969	75.06
664.173	81.06
664.376	63.06
664.579	79.06
664.782	84.06
664.985	83.06
665.188	85.06
665.391	83.06
665.594	82.06
665.797	85.06
666	77.06
666.203	76.06
666.406	88.06
666.609	96.06
666.812	83.06
667.015	79.06
667.218	81.06
667.421	74.06
667.624	93.06
667.827	84.06
668.03	90.06
668.232	85.06
668.435	64.06
668.638	80.06
668.841	92.06
669.043	76.06
669.246	87.06
669.449	83.06
669.651	82.06
669.854	83.06
670.057	80.06
670.259	75.06
670.462	95.06
670.665	71.06
670.867	85.06
671.07	79.06
671.272	97.06
671.475	92.06
671.677	90.06
671.88	89.06
672.082	80.06
672.284	96.06
672.487	79.06
672.689	88.06
672.892	98.06
