Data from Uncirc_1989_H10_HRD10591_00031.txt Node
Date: Wed Jan 03 11:57:41 EST 2024
User: Yrep
Spectrometer: HR+D1059
Trigger mode: 1
Integration Time (sec): 1.000000E-1
Scans to average: 1
Electric dark correction enabled: true
Nonlinearity correction enabled: false
Boxcar width: 0
XAxis mode: Wavelengths
Number of Pixels in Spectrum: 2048
>>>>>Begin Spectral Data<<<<<
223.165	-14.38
223.4	-14.38
223.635	-14.38
223.869	-8.38
224.104	-21.38
224.338	-24.38
224.573	-15.38
224.808	-25.38
225.042	-12.38
225.277	-12.38
225.511	-0.38
225.746	-1.38
225.98	23.62
226.215	23.62
226.449	24.62
226.683	22.62
226.918	20.62
227.152	20.62
227.387	28.62
227.621	44.62
227.856	45.62
228.09	52.62
228.324	50.62
228.559	59.62
228.793	58.62
229.027	67.62
229.262	64.62
229.496	79.62
229.73	85.62
229.964	68.62
230.199	82.62
230.433	63.62
230.667	86.62
230.901	82.62
231.136	86.62
231.37	81.62
231.604	86.62
231.838	83.62
232.072	85.62
232.306	79.62
232.541	70.62
232.775	65.62
233.009	76.62
233.243	82.62
233.477	72.62
233.711	85.62
233.945	84.62
234.179	84.62
234.413	75.62
234.647	73.62
234.881	81.62
235.115	83.62
235.349	72.62
235.583	80.62
235.817	79.62
236.051	77.62
236.285	87.62
236.519	81.62
236.753	82.62
236.987	66.62
237.221	86.62
237.455	94.62
237.689	81.62
237.922	83.62
238.156	75.62
238.39	78.62
238.624	80.62
238.858	88.62
239.091	78.62
239.325	81.62
239.559	76.62
239.793	78.62
240.027	76.62
240.26	70.62
240.494	84.62
240.728	70.62
240.961	87.62
241.195	83.62
241.429	82.62
241.662	88.62
241.896	82.62
242.13	78.62
242.363	81.62
242.597	66.62
242.83	81.62
243.064	89.62
243.298	90.62
243.531	70.62
243.765	84.62
243.998	68.62
244.232	66.62
244.465	99.62
244.699	82.62
244.932	94.62
245.166	88.62
245.399	82.62
245.633	89.62
245.866	82.62
246.099	91.62
246.333	80.62
246.566	78.62
246.8	88.62
247.033	80.62
247.266	82.62
247.5	73.62
247.733	75.62
247.966	92.62
248.2	74.62
248.433	84.62
248.666	90.62
248.899	79.62
249.133	79.62
249.366	90.62
249.599	115.62
249.832	75.62
250.066	86.62
250.299	78.62
250.532	90.62
250.765	79.62
250.998	82.62
251.231	80.62
251.465	71.62
251.698	82.62
251.931	98.62
252.164	88.62
252.397	88.62
252.63	80.62
252.863	72.62
253.096	73.62
253.329	81.62
253.562	75.62
253.795	80.62
254.028	88.62
254.261	86.62
254.494	91.62
254.727	83.62
254.96	78.62
255.193	84.62
255.426	79.62
255.659	89.62
255.892	75.62
256.124	67.62
256.357	92.62
256.59	88.62
256.823	74.62
257.056	82.62
257.289	86.62
257.521	84.62
257.754	94.62
257.987	72.62
258.22	84.62
258.452	83.62
258.685	85.62
258.918	87.62
259.151	79.62
259.383	85.62
259.616	70.62
259.849	83.62
260.081	75.62
260.314	101.62
260.547	91.62
260.779	89.62
261.012	89.62
261.244	65.62
261.477	95.62
261.71	87.62
261.942	103.62
262.175	114.62
262.407	99.62
262.64	91.62
262.872	80.62
263.105	83.62
263.337	84.62
263.57	91.62
263.802	86.62
264.035	80.62
264.267	82.62
264.499	99.62
264.732	82.62
264.964	88.62
265.197	71.62
265.429	87.62
265.661	101.62
265.894	88.62
266.126	94.62
266.358	95.62
266.591	90.62
266.823	80.62
267.055	94.62
267.287	70.62
267.52	71.62
267.752	86.62
267.984	88.62
268.216	74.62
268.448	78.62
268.681	86.62
268.913	89.62
269.145	90.62
269.377	84.62
269.609	88.62
269.841	73.62
270.073	86.62
270.306	93.62
270.538	90.62
270.77	97.62
271.002	89.62
271.234	80.62
271.466	86.62
271.698	79.62
271.93	96.62
272.162	88.62
272.394	103.62
272.626	84.62
272.858	91.62
273.09	100.62
273.322	92.62
273.553	79.62
273.785	86.62
274.017	108.62
274.249	103.62
274.481	91.62
274.713	98.62
274.945	89.62
275.176	95.62
275.408	92.62
275.64	87.62
275.872	87.62
276.104	96.62
276.335	99.62
276.567	105.62
276.799	94.62
277.031	88.62
277.262	91.62
277.494	106.62
277.726	85.62
277.957	78.62
278.189	93.62
278.421	83.62
278.652	74.62
278.884	82.62
279.115	99.62
279.347	88.62
279.579	98.62
279.81	86.62
280.042	92.62
280.273	101.62
280.505	92.62
280.736	86.62
280.968	85.62
281.199	96.62
281.431	96.62
281.662	80.62
281.894	84.62
282.125	82.62
282.356	113.62
282.588	135.62
282.819	104.62
283.051	98.62
283.282	91.62
283.513	88.62
283.745	79.62
283.976	91.62
284.207	90.62
284.439	82.62
284.67	87.62
284.901	94.62
285.132	97.62
285.364	95.62
285.595	102.62
285.826	80.62
286.057	88.62
286.288	88.62
286.52	92.62
286.751	84.62
286.982	80.62
287.213	88.62
287.444	92.62
287.675	89.62
287.906	79.62
288.138	90.62
288.369	75.62
288.6	84.62
288.831	86.62
289.062	99.62
289.293	92.62
289.524	94.62
289.755	98.62
289.986	88.62
290.217	89.62
290.448	90.62
290.679	82.62
290.91	88.62
291.141	95.62
291.371	95.62
291.602	92.62
291.833	92.62
292.064	86.62
292.295	92.62
292.526	87.62
292.757	89.62
292.987	74.62
293.218	83.62
293.449	105.62
293.68	89.62
293.91	98.62
294.141	86.62
294.372	97.62
294.603	104.62
294.833	76.62
295.064	65.62
295.295	91.62
295.525	94.62
295.756	106.62
295.987	110.62
296.217	133.62
296.448	122.62
296.679	98.62
296.909	97.62
297.14	84.62
297.37	91.62
297.601	96.62
297.831	94.62
298.062	98.62
298.292	84.62
298.523	85.62
298.753	86.62
298.984	94.62
299.214	88.62
299.445	102.62
299.675	80.62
299.905	88.62
300.136	95.62
300.366	106.62
300.597	95.62
300.827	94.62
301.057	86.62
301.288	107.62
301.518	82.62
301.748	97.62
301.979	98.62
302.209	93.62
302.439	96.62
302.669	86.62
302.9	85.62
303.13	98.62
303.36	81.62
303.59	91.62
303.82	105.62
304.051	112.62
304.281	91.62
304.511	89.62
304.741	82.62
304.971	91.62
305.201	103.62
305.431	82.62
305.661	73.62
305.891	95.62
306.121	104.62
306.352	96.62
306.582	86.62
306.812	97.62
307.042	83.62
307.272	96.62
307.502	101.62
307.731	108.62
307.961	89.62
308.191	87.62
308.421	95.62
308.651	90.62
308.881	98.62
309.111	99.62
309.341	103.62
309.571	100.62
309.8	92.62
310.03	103.62
310.26	102.62
310.49	97.62
310.72	103.62
310.949	105.62
311.179	103.62
311.409	111.62
311.639	97.62
311.868	91.62
312.098	94.62
312.328	92.62
312.557	89.62
312.787	98.62
313.017	112.62
313.246	104.62
313.476	79.62
313.706	99.62
313.935	97.62
314.165	100.62
314.394	96.62
314.624	100.62
314.853	90.62
315.083	107.62
315.312	97.62
315.542	105.62
315.771	93.62
316.001	92.62
316.23	89.62
316.46	94.62
316.689	94.62
316.919	96.62
317.148	95.62
317.377	90.62
317.607	92.62
317.836	108.62
318.065	96.62
318.295	83.62
318.524	85.62
318.753	105.62
318.983	80.62
319.212	94.62
319.441	105.62
319.67	110.62
319.9	100.62
320.129	103.62
320.358	86.62
320.587	92.62
320.816	104.62
321.046	102.62
321.275	98.62
321.504	99.62
321.733	103.62
321.962	107.62
322.191	93.62
322.42	103.62
322.649	101.62
322.878	100.62
323.108	105.62
323.337	100.62
323.566	129.62
323.795	135.62
324.024	183.62
324.253	330.62
324.482	734.62
324.71	1424.62
324.939	1859.62
325.168	675.62
325.397	219.62
325.626	149.62
325.855	132.62
326.084	127.62
326.313	127.62
326.542	147.62
326.77	230.62
326.999	408.62
327.228	818.62
327.457	1480.62
327.686	1174.62
327.914	322.62
328.143	174.62
328.372	133.62
328.6	140.62
328.829	124.62
329.058	128.62
329.287	135.62
329.515	103.62
329.744	107.62
329.972	115.62
330.201	142.62
330.43	150.62
330.658	135.62
330.887	131.62
331.115	116.62
331.344	99.62
331.572	111.62
331.801	96.62
332.03	104.62
332.258	80.62
332.486	78.62
332.715	99.62
332.943	104.62
333.172	94.62
333.4	105.62
333.629	99.62
333.857	112.62
334.085	123.62
334.314	156.62
334.542	182.62
334.771	179.62
334.999	118.62
335.227	94.62
335.455	90.62
335.684	96.62
335.912	97.62
336.14	89.62
336.369	108.62
336.597	104.62
336.825	102.62
337.053	107.62
337.281	93.62
337.51	105.62
337.738	94.62
337.966	104.62
338.194	93.62
338.422	88.62
338.65	104.62
338.878	103.62
339.106	97.62
339.334	87.62
339.562	102.62
339.79	109.62
340.018	94.62
340.246	89.62
340.474	97.62
340.702	97.62
340.93	103.62
341.158	112.62
341.386	95.62
341.614	94.62
341.842	103.62
342.07	104.62
342.298	97.62
342.526	98.62
342.754	95.62
342.981	88.62
343.209	90.62
343.437	115.62
343.665	75.62
343.893	87.62
344.12	89.62
344.348	99.62
344.576	102.62
344.804	91.62
345.031	84.62
345.259	99.62
345.487	94.62
345.714	102.62
345.942	97.62
346.17	85.62
346.397	94.62
346.625	95.62
346.853	83.62
347.08	102.62
347.308	108.62
347.535	101.62
347.763	101.62
347.99	107.62
348.218	108.62
348.445	100.62
348.673	91.62
348.9	103.62
349.128	99.62
349.355	100.62
349.583	91.62
349.81	96.62
350.037	94.62
350.265	104.62
350.492	87.62
350.72	108.62
350.947	98.62
351.174	106.62
351.402	102.62
351.629	110.62
351.856	100.62
352.083	92.62
352.311	90.62
352.538	116.62
352.765	111.62
352.992	125.62
353.22	113.62
353.447	100.62
353.674	96.62
353.901	101.62
354.128	98.62
354.355	100.62
354.583	107.62
354.81	96.62
355.037	85.62
355.264	94.62
355.491	87.62
355.718	92.62
355.945	95.62
356.172	97.62
356.399	94.62
356.626	91.62
356.853	84.62
357.08	99.62
357.307	98.62
357.534	92.62
357.761	99.62
357.988	108.62
358.215	100.62
358.441	98.62
358.668	99.62
358.895	90.62
359.122	84.62
359.349	88.62
359.576	95.62
359.802	104.62
360.029	106.62
360.256	104.62
360.483	110.62
360.709	92.62
360.936	87.62
361.163	105.62
361.39	107.62
361.616	90.62
361.843	103.62
362.07	99.62
362.296	98.62
362.523	98.62
362.749	92.62
362.976	85.62
363.203	107.62
363.429	100.62
363.656	99.62
363.882	85.62
364.109	75.62
364.335	98.62
364.562	98.62
364.788	85.62
365.015	100.62
365.241	94.62
365.468	96.62
365.694	102.62
365.92	103.62
366.147	92.62
366.373	86.62
366.599	90.62
366.826	89.62
367.052	78.62
367.278	82.62
367.505	93.62
367.731	96.62
367.957	90.62
368.184	87.62
368.41	95.62
368.636	107.62
368.862	109.62
369.089	108.62
369.315	91.62
369.541	96.62
369.767	82.62
369.993	106.62
370.219	90.62
370.445	92.62
370.672	80.62
370.898	90.62
371.124	98.62
371.35	85.62
371.576	98.62
371.802	113.62
372.028	75.62
372.254	86.62
372.48	73.62
372.706	88.62
372.932	89.62
373.158	88.62
373.384	107.62
373.61	94.62
373.835	94.62
374.061	84.62
374.287	96.62
374.513	99.62
374.739	86.62
374.965	112.62
375.191	107.62
375.416	80.62
375.642	90.62
375.868	94.62
376.094	109.62
376.319	91.62
376.545	80.62
376.771	95.62
376.997	91.62
377.222	94.62
377.448	105.62
377.674	98.62
377.899	109.62
378.125	87.62
378.35	94.62
378.576	86.62
378.802	92.62
379.027	96.62
379.253	86.62
379.478	106.62
379.704	97.62
379.929	98.62
380.155	91.62
380.38	93.62
380.606	85.62
380.831	83.62
381.057	115.62
381.282	111.62
381.507	106.62
381.733	94.62
381.958	93.62
382.184	100.62
382.409	110.62
382.634	97.62
382.86	106.62
383.085	107.62
383.31	112.62
383.535	108.62
383.761	94.62
383.986	94.62
384.211	102.62
384.436	88.62
384.662	114.62
384.887	108.62
385.112	94.62
385.337	109.62
385.562	95.62
385.787	107.62
386.013	99.62
386.238	108.62
386.463	98.62
386.688	114.62
386.913	118.62
387.138	92.62
387.363	104.62
387.588	116.62
387.813	111.62
388.038	105.62
388.263	112.62
388.488	104.62
388.713	102.62
388.938	89.62
389.163	97.62
389.387	98.62
389.612	99.62
389.837	89.62
390.062	88.62
390.287	92.62
390.512	119.62
390.736	105.62
390.961	98.62
391.186	103.62
391.411	103.62
391.636	76.62
391.86	91.62
392.085	87.62
392.31	90.62
392.534	97.62
392.759	100.62
392.984	94.62
393.208	99.62
393.433	124.62
393.658	109.62
393.882	87.62
394.107	97.62
394.331	99.62
394.556	98.62
394.78	76.62
395.005	85.62
395.229	90.62
395.454	80.62
395.678	91.62
395.903	93.62
396.127	96.62
396.352	85.62
396.576	72.62
396.801	96.62
397.025	108.62
397.249	87.62
397.474	90.62
397.698	98.62
397.922	85.62
398.147	81.62
398.371	99.62
398.595	89.62
398.82	92.62
399.044	86.62
399.268	78.62
399.492	90.62
399.717	98.62
399.941	76.62
400.165	109.62
400.389	88.62
400.613	89.62
400.837	96.62
401.062	82.62
401.286	80.62
401.51	94.62
401.734	83.62
401.958	97.62
402.182	118.62
402.406	129.62
402.63	109.62
402.854	92.62
403.078	96.62
403.302	89.62
403.526	86.62
403.75	86.62
403.974	85.62
404.198	98.62
404.422	81.62
404.645	95.62
404.869	88.62
405.093	100.62
405.317	94.62
405.541	110.62
405.765	96.62
405.988	121.62
406.212	161.62
406.436	199.62
406.66	139.62
406.883	95.62
407.107	91.62
407.331	76.62
407.555	100.62
407.778	97.62
408.002	85.62
408.226	81.62
408.449	84.62
408.673	83.62
408.896	100.62
409.12	94.62
409.344	98.62
409.567	96.62
409.791	85.62
410.014	84.62
410.238	81.62
410.461	86.62
410.685	102.62
410.908	91.62
411.132	97.62
411.355	106.62
411.578	91.62
411.802	83.62
412.025	66.62
412.249	98.62
412.472	93.62
412.695	96.62
412.919	101.62
413.142	87.62
413.365	81.62
413.589	89.62
413.812	76.62
414.035	89.62
414.258	92.62
414.482	112.62
414.705	96.62
414.928	83.62
415.151	102.62
415.374	103.62
415.597	90.62
415.821	99.62
416.044	101.62
416.267	88.62
416.49	91.62
416.713	98.62
416.936	82.62
417.159	96.62
417.382	84.62
417.605	89.62
417.828	97.62
418.051	78.62
418.274	80.62
418.497	90.62
418.72	94.62
418.943	87.62
419.166	94.62
419.389	80.62
419.611	100.62
419.834	96.62
420.057	80.62
420.28	81.62
420.503	82.62
420.726	99.62
420.948	84.62
421.171	98.62
421.394	93.62
421.617	93.62
421.839	95.62
422.062	98.62
422.285	96.62
422.507	95.62
422.73	94.62
422.953	81.62
423.175	108.62
423.398	90.62
423.621	94.62
423.843	94.62
424.066	94.62
424.288	96.62
424.511	103.62
424.733	112.62
424.956	95.62
425.178	100.62
425.401	102.62
425.623	95.62
425.846	83.62
426.068	89.62
426.291	97.62
426.513	84.62
426.735	101.62
426.958	87.62
427.18	94.62
427.402	121.62
427.625	156.62
427.847	126.62
428.069	121.62
428.292	87.62
428.514	102.62
428.736	98.62
428.958	96.62
429.181	82.62
429.403	81.62
429.625	85.62
429.847	83.62
430.069	105.62
430.292	92.62
430.514	88.62
430.736	90.62
430.958	87.62
431.18	88.62
431.402	83.62
431.624	92.62
431.846	83.62
432.068	82.62
432.29	80.62
432.512	91.62
432.734	92.62
432.956	98.62
433.178	98.62
433.4	86.62
433.622	87.62
433.844	74.62
434.066	103.62
434.287	86.62
434.509	102.62
434.731	95.62
434.953	72.62
435.175	87.62
435.397	107.62
435.618	84.62
435.84	103.62
436.062	118.62
436.284	107.62
436.505	107.62
436.727	99.62
436.949	84.62
437.17	90.62
437.392	94.62
437.614	81.62
437.835	99.62
438.057	121.62
438.278	108.62
438.5	90.62
438.721	99.62
438.943	95.62
439.165	95.62
439.386	99.62
439.608	90.62
439.829	106.62
440.05	127.62
440.272	137.62
440.493	96.62
440.715	95.62
440.936	78.62
441.158	88.62
441.379	79.62
441.6	96.62
441.822	112.62
442.043	97.62
442.264	101.62
442.486	97.62
442.707	94.62
442.928	116.62
443.149	115.62
443.371	127.62
443.592	107.62
443.813	98.62
444.034	99.62
444.255	92.62
444.476	99.62
444.698	85.62
444.919	80.62
445.14	122.62
445.361	118.62
445.582	119.62
445.803	126.62
446.024	117.62
446.245	121.62
446.466	111.62
446.687	90.62
446.908	85.62
447.129	97.62
447.35	78.62
447.571	90.62
447.792	84.62
448.013	107.62
448.234	105.62
448.455	114.62
448.675	87.62
448.896	104.62
449.117	81.62
449.338	89.62
449.559	109.62
449.779	112.62
450	90.62
450.221	94.62
450.442	93.62
450.662	100.62
450.883	98.62
451.104	114.62
451.324	90.62
451.545	108.62
451.766	91.62
451.986	81.62
452.207	92.62
452.428	84.62
452.648	105.62
452.869	102.62
453.089	111.62
453.31	111.62
453.53	88.62
453.751	88.62
453.971	102.62
454.192	117.62
454.412	86.62
454.633	81.62
454.853	83.62
455.073	87.62
455.294	105.62
455.514	100.62
455.734	95.62
455.955	87.62
456.175	88.62
456.395	88.62
456.616	91.62
456.836	86.62
457.056	78.62
457.276	78.62
457.497	84.62
457.717	90.62
457.937	79.62
458.157	95.62
458.377	107.62
458.598	90.62
458.818	124.62
459.038	141.62
459.258	113.62
459.478	95.62
459.698	100.62
459.918	97.62
460.138	73.62
460.358	84.62
460.578	89.62
460.798	91.62
461.018	86.62
461.238	87.62
461.458	83.62
461.678	83.62
461.898	81.62
462.118	85.62
462.338	83.62
462.558	82.62
462.777	89.62
462.997	94.62
463.217	92.62
463.437	86.62
463.657	84.62
463.876	91.62
464.096	89.62
464.316	84.62
464.536	86.62
464.755	92.62
464.975	94.62
465.195	138.62
465.414	153.62
465.634	99.62
465.854	94.62
466.073	70.62
466.293	84.62
466.512	74.62
466.732	90.62
466.951	88.62
467.171	90.62
467.391	98.62
467.61	102.62
467.829	107.62
468.049	112.62
468.268	116.62
468.488	78.62
468.707	78.62
468.927	100.62
469.146	75.62
469.365	97.62
469.585	89.62
469.804	101.62
470.023	96.62
470.243	90.62
470.462	98.62
470.681	98.62
470.901	95.62
471.12	91.62
471.339	99.62
471.558	73.62
471.777	87.62
471.997	119.62
472.216	138.62
472.435	209.62
472.654	98.62
472.873	76.62
473.092	92.62
473.311	80.62
473.53	75.62
473.749	76.62
473.968	95.62
474.187	80.62
474.406	79.62
474.625	87.62
474.844	91.62
475.063	82.62
475.282	93.62
475.501	82.62
475.72	89.62
475.939	89.62
476.158	88.62
476.377	92.62
476.596	85.62
476.814	83.62
477.033	92.62
477.252	91.62
477.471	94.62
477.69	104.62
477.908	90.62
478.127	103.62
478.346	87.62
478.564	102.62
478.783	106.62
479.002	103.62
479.22	96.62
479.439	108.62
479.658	104.62
479.876	99.62
480.095	85.62
480.313	95.62
480.532	89.62
480.751	98.62
480.969	165.62
481.188	343.62
481.406	239.62
481.624	102.62
481.843	98.62
482.061	97.62
482.28	111.62
482.498	89.62
482.717	81.62
482.935	101.62
483.153	90.62
483.372	86.62
483.59	94.62
483.808	93.62
484.027	89.62
484.245	84.62
484.463	73.62
484.681	86.62
484.9	88.62
485.118	83.62
485.336	80.62
485.554	88.62
485.772	94.62
485.99	108.62
486.209	111.62
486.427	101.62
486.645	108.62
486.863	111.62
487.081	99.62
487.299	103.62
487.517	86.62
487.735	91.62
487.953	98.62
488.171	94.62
488.389	92.62
488.607	98.62
488.825	94.62
489.043	100.62
489.261	89.62
489.479	90.62
489.696	96.62
489.914	88.62
490.132	95.62
490.35	95.62
490.568	92.62
490.786	92.62
491.003	84.62
491.221	77.62
491.439	82.62
491.657	96.62
491.874	93.62
492.092	97.62
492.31	97.62
492.527	73.62
492.745	90.62
492.963	95.62
493.18	90.62
493.398	112.62
493.615	94.62
493.833	103.62
494.05	92.62
494.268	94.62
494.485	99.62
494.703	84.62
494.92	88.62
495.138	81.62
495.355	82.62
495.573	89.62
495.79	103.62
496.008	94.62
496.225	81.62
496.442	99.62
496.66	99.62
496.877	89.62
497.094	82.62
497.312	90.62
497.529	100.62
497.746	82.62
497.963	94.62
498.181	87.62
498.398	89.62
498.615	106.62
498.832	89.62
499.049	95.62
499.267	80.62
499.484	81.62
499.701	92.62
499.918	84.62
500.135	102.62
500.352	91.62
500.569	94.62
500.786	96.62
501.003	78.62
501.22	97.62
501.437	90.62
501.654	95.62
501.871	96.62
502.088	95.62
502.305	96.62
502.522	95.62
502.739	99.62
502.956	90.62
503.172	90.62
503.389	114.62
503.606	99.62
503.823	95.62
504.04	99.62
504.256	88.62
504.473	84.62
504.69	84.62
504.907	89.62
505.123	80.62
505.34	81.62
505.557	104.62
505.773	91.62
505.99	98.62
506.207	89.62
506.423	93.62
506.64	83.62
506.856	101.62
507.073	90.62
507.289	99.62
507.506	102.62
507.722	119.62
507.939	93.62
508.155	82.62
508.372	95.62
508.588	98.62
508.805	93.62
509.021	99.62
509.238	91.62
509.454	90.62
509.67	114.62
509.887	111.62
510.103	112.62
510.319	193.62
510.536	620.62
510.752	1880.62
510.968	518.62
511.184	150.62
511.401	115.62
511.617	96.62
511.833	100.62
512.049	99.62
512.265	95.62
512.481	92.62
512.698	99.62
512.914	89.62
513.13	97.62
513.346	100.62
513.562	95.62
513.778	106.62
513.994	99.62
514.21	87.62
514.426	113.62
514.642	131.62
514.858	122.62
515.074	156.62
515.29	385.62
515.506	1195.62
515.721	438.62
515.937	152.62
516.153	102.62
516.369	96.62
516.585	100.62
516.801	86.62
517.016	98.62
517.232	102.62
517.448	98.62
517.664	108.62
517.879	84.62
518.095	96.62
518.311	96.62
518.527	89.62
518.742	95.62
518.958	91.62
519.173	88.62
519.389	95.62
519.605	98.62
519.82	104.62
520.036	92.62
520.251	118.62
520.467	127.62
520.682	103.62
520.898	104.62
521.113	107.62
521.329	117.62
521.544	198.62
521.76	476.62
521.975	1992.62
522.19	1191.62
522.406	267.62
522.621	126.62
522.836	103.62
523.052	102.62
523.267	85.62
523.482	103.62
523.698	113.62
523.913	128.62
524.128	99.62
524.343	104.62
524.559	105.62
524.774	86.62
524.989	95.62
525.204	100.62
525.419	80.62
525.634	85.62
525.849	91.62
526.064	91.62
526.28	90.62
526.495	98.62
526.71	98.62
526.925	94.62
527.14	86.62
527.355	66.62
527.57	91.62
527.785	104.62
527.999	100.62
528.214	87.62
528.429	106.62
528.644	88.62
528.859	93.62
529.074	102.62
529.289	123.62
529.503	150.62
529.718	107.62
529.933	95.62
530.148	87.62
530.363	97.62
530.577	82.62
530.792	103.62
531.007	82.62
531.221	102.62
531.436	84.62
531.651	102.62
531.865	98.62
532.08	96.62
532.295	105.62
532.509	109.62
532.724	102.62
532.938	108.62
533.153	103.62
533.367	95.62
533.582	96.62
533.796	100.62
534.011	87.62
534.225	90.62
534.44	86.62
534.654	88.62
534.868	106.62
535.083	93.62
535.297	95.62
535.511	88.62
535.726	110.62
535.94	106.62
536.154	104.62
536.369	97.62
536.583	97.62
536.797	97.62
537.011	98.62
537.225	88.62
537.44	95.62
537.654	90.62
537.868	97.62
538.082	97.62
538.296	87.62
538.51	68.62
538.724	100.62
538.938	99.62
539.153	95.62
539.367	111.62
539.581	98.62
539.795	83.62
540.009	94.62
540.222	110.62
540.436	91.62
540.65	80.62
540.864	88.62
541.078	101.62
541.292	106.62
541.506	97.62
541.72	96.62
541.934	92.62
542.147	87.62
542.361	81.62
542.575	96.62
542.789	89.62
543.002	93.62
543.216	99.62
543.43	112.62
543.644	83.62
543.857	98.62
544.071	87.62
544.285	104.62
544.498	105.62
544.712	86.62
544.925	85.62
545.139	85.62
545.352	88.62
545.566	93.62
545.779	79.62
545.993	88.62
546.206	94.62
546.42	96.62
546.633	87.62
546.847	101.62
547.06	100.62
547.274	90.62
547.487	93.62
547.7	86.62
547.914	89.62
548.127	80.62
548.34	89.62
548.554	96.62
548.767	97.62
548.98	98.62
549.193	86.62
549.407	104.62
549.62	88.62
549.833	73.62
550.046	107.62
550.259	81.62
550.473	88.62
550.686	106.62
550.899	89.62
551.112	91.62
551.325	90.62
551.538	88.62
551.751	90.62
551.964	96.62
552.177	101.62
552.39	97.62
552.603	97.62
552.816	88.62
553.029	94.62
553.242	93.62
553.455	102.62
553.667	98.62
553.88	105.62
554.093	90.62
554.306	97.62
554.519	104.62
554.732	98.62
554.944	106.62
555.157	100.62
555.37	79.62
555.583	96.62
555.795	102.62
556.008	101.62
556.221	97.62
556.433	93.62
556.646	96.62
556.859	91.62
557.071	103.62
557.284	92.62
557.496	84.62
557.709	102.62
557.921	84.62
558.134	100.62
558.346	82.62
558.559	104.62
558.771	105.62
558.984	107.62
559.196	90.62
559.409	87.62
559.621	89.62
559.833	92.62
560.046	86.62
560.258	85.62
560.47	97.62
560.683	85.62
560.895	97.62
561.107	97.62
561.32	87.62
561.532	89.62
561.744	104.62
561.956	105.62
562.168	96.62
562.381	100.62
562.593	92.62
562.805	92.62
563.017	99.62
563.229	87.62
563.441	70.62
563.653	100.62
563.865	83.62
564.077	93.62
564.289	96.62
564.501	108.62
564.713	98.62
564.925	113.62
565.137	111.62
565.349	90.62
565.561	108.62
565.773	98.62
565.985	98.62
566.197	87.62
566.408	90.62
566.62	90.62
566.832	95.62
567.044	82.62
567.255	91.62
567.467	97.62
567.679	96.62
567.891	95.62
568.102	84.62
568.314	87.62
568.526	72.62
568.737	83.62
568.949	90.62
569.161	89.62
569.372	82.62
569.584	90.62
569.795	108.62
570.007	112.62
570.218	218.62
570.43	127.62
570.641	79.62
570.853	93.62
571.064	102.62
571.276	95.62
571.487	80.62
571.698	87.62
571.91	96.62
572.121	105.62
572.333	91.62
572.544	91.62
572.755	85.62
572.966	107.62
573.178	85.62
573.389	103.62
573.6	59.62
573.811	83.62
574.023	98.62
574.234	85.62
574.445	86.62
574.656	98.62
574.867	94.62
575.078	84.62
575.289	90.62
575.501	95.62
575.712	107.62
575.923	79.62
576.134	94.62
576.345	86.62
576.556	91.62
576.767	93.62
576.978	98.62
577.188	87.62
577.399	106.62
577.61	81.62
577.821	96.62
578.032	102.62
578.243	248.62
578.454	641.62
578.665	188.62
578.875	110.62
579.086	84.62
579.297	90.62
579.508	102.62
579.718	93.62
579.929	112.62
580.14	89.62
580.35	94.62
580.561	90.62
580.772	89.62
580.982	91.62
581.193	95.62
581.403	99.62
581.614	102.62
581.825	79.62
582.035	100.62
582.246	99.62
582.456	84.62
582.667	90.62
582.877	90.62
583.087	98.62
583.298	85.62
583.508	87.62
583.719	83.62
583.929	95.62
584.139	101.62
584.35	95.62
584.56	95.62
584.77	87.62
584.981	91.62
585.191	86.62
585.401	90.62
585.611	93.62
585.821	101.62
586.032	104.62
586.242	87.62
586.452	95.62
586.662	89.62
586.872	79.62
587.082	85.62
587.292	87.62
587.502	79.62
587.713	88.62
587.923	89.62
588.133	88.62
588.343	92.62
588.553	94.62
588.762	97.62
588.972	84.62
589.182	106.62
589.392	98.62
589.602	98.62
589.812	83.62
590.022	94.62
590.232	89.62
590.441	88.62
590.651	94.62
590.861	83.62
591.071	87.62
591.281	78.62
591.49	99.62
591.7	82.62
591.91	85.62
592.119	88.62
592.329	102.62
592.539	75.62
592.748	91.62
592.958	84.62
593.167	94.62
593.377	79.62
593.587	85.62
593.796	86.62
594.006	85.62
594.215	80.62
594.424	83.62
594.634	97.62
594.843	81.62
595.053	86.62
595.262	94.62
595.472	105.62
595.681	94.62
595.89	87.62
596.1	88.62
596.309	102.62
596.518	91.62
596.727	95.62
596.937	90.62
597.146	75.62
597.355	99.62
597.564	83.62
597.774	89.62
597.983	97.62
598.192	68.62
598.401	102.62
598.61	86.62
598.819	105.62
599.028	80.62
599.237	99.62
599.446	95.62
599.655	82.62
599.864	99.62
600.073	87.62
600.282	86.62
600.491	84.62
600.7	92.62
600.909	116.62
601.118	94.62
601.327	75.62
601.536	78.62
601.745	95.62
601.953	83.62
602.162	110.62
602.371	87.62
602.58	100.62
602.789	85.62
602.997	94.62
603.206	83.62
603.415	94.62
603.623	67.62
603.832	73.62
604.041	90.62
604.249	96.62
604.458	97.62
604.666	90.62
604.875	101.62
605.084	87.62
605.292	86.62
605.501	92.62
605.709	82.62
605.918	87.62
606.126	95.62
606.334	96.62
606.543	100.62
606.751	90.62
606.96	82.62
607.168	81.62
607.376	98.62
607.585	88.62
607.793	90.62
608.001	85.62
608.21	98.62
608.418	98.62
608.626	89.62
608.834	96.62
609.043	85.62
609.251	109.62
609.459	89.62
609.667	90.62
609.875	94.62
610.083	85.62
610.291	88.62
610.499	89.62
610.707	86.62
610.916	79.62
611.124	87.62
611.332	86.62
611.54	80.62
611.748	85.62
611.955	94.62
612.163	97.62
612.371	86.62
612.579	88.62
612.787	84.62
612.995	90.62
613.203	84.62
613.411	100.62
613.618	70.62
613.826	96.62
614.034	94.62
614.242	91.62
614.449	83.62
614.657	85.62
614.865	86.62
615.072	98.62
615.28	101.62
615.488	100.62
615.695	98.62
615.903	100.62
616.111	95.62
616.318	105.62
616.526	93.62
616.733	103.62
616.941	98.62
617.148	79.62
617.356	83.62
617.563	95.62
617.771	96.62
617.978	90.62
618.185	97.62
618.393	89.62
618.6	97.62
618.807	82.62
619.015	88.62
619.222	92.62
619.429	99.62
619.637	97.62
619.844	75.62
620.051	83.62
620.258	91.62
620.466	88.62
620.673	91.62
620.88	88.62
621.087	98.62
621.294	90.62
621.501	106.62
621.708	87.62
621.915	78.62
622.122	75.62
622.329	94.62
622.536	94.62
622.743	89.62
622.95	88.62
623.157	90.62
623.364	80.62
623.571	85.62
623.778	90.62
623.985	87.62
624.192	83.62
624.399	96.62
624.606	92.62
624.812	86.62
625.019	96.62
625.226	81.62
625.433	78.62
625.639	94.62
625.846	78.62
626.053	88.62
626.259	79.62
626.466	86.62
626.673	94.62
626.879	101.62
627.086	84.62
627.293	80.62
627.499	76.62
627.706	87.62
627.912	94.62
628.119	95.62
628.325	80.62
628.532	83.62
628.738	75.62
628.945	93.62
629.151	70.62
629.357	99.62
629.564	83.62
629.77	93.62
629.976	78.62
630.183	100.62
630.389	87.62
630.595	100.62
630.802	89.62
631.008	87.62
631.214	92.62
631.42	87.62
631.627	88.62
631.833	96.62
632.039	90.62
632.245	88.62
632.451	91.62
632.657	89.62
632.863	82.62
633.069	66.62
633.275	99.62
633.481	81.62
633.688	88.62
633.893	97.62
634.099	81.62
634.305	87.62
634.511	85.62
634.717	88.62
634.923	80.62
635.129	73.62
635.335	91.62
635.541	81.62
635.747	83.62
635.952	86.62
636.158	91.62
636.364	105.62
636.57	91.62
636.775	80.62
636.981	90.62
637.187	82.62
637.392	91.62
637.598	95.62
637.804	78.62
638.009	83.62
638.215	88.62
638.421	88.62
638.626	85.62
638.832	95.62
639.037	80.62
639.243	91.62
639.448	104.62
639.654	86.62
639.859	87.62
640.065	92.62
640.27	91.62
640.475	95.62
640.681	96.62
640.886	85.62
641.091	105.62
641.297	102.62
641.502	105.62
641.707	92.62
641.913	93.62
642.118	81.62
642.323	91.62
642.528	90.62
642.733	85.62
642.939	78.62
643.144	82.62
643.349	69.62
643.554	92.62
643.759	103.62
643.964	86.62
644.169	98.62
644.374	84.62
644.579	81.62
644.784	90.62
644.989	92.62
645.194	76.62
645.399	78.62
645.604	82.62
645.809	96.62
646.014	88.62
646.219	93.62
646.423	93.62
646.628	82.62
646.833	82.62
647.038	101.62
647.243	96.62
647.447	90.62
647.652	95.62
647.857	74.62
648.062	88.62
648.266	101.62
648.471	88.62
648.676	80.62
648.88	87.62
649.085	77.62
649.289	84.62
649.494	89.62
649.698	134.62
649.903	94.62
650.107	96.62
650.312	90.62
650.516	81.62
650.721	81.62
650.925	85.62
651.13	87.62
651.334	87.62
651.539	79.62
651.743	80.62
651.947	94.62
652.152	89.62
652.356	79.62
652.56	86.62
652.764	71.62
652.969	81.62
653.173	80.62
653.377	87.62
653.581	70.62
653.785	81.62
653.99	82.62
654.194	85.62
654.398	81.62
654.602	90.62
654.806	80.62
655.01	100.62
655.214	87.62
655.418	90.62
655.622	77.62
655.826	87.62
656.03	82.62
656.234	101.62
656.438	101.62
656.642	95.62
656.846	106.62
657.049	87.62
657.253	106.62
657.457	86.62
657.661	96.62
657.865	83.62
658.068	93.62
658.272	82.62
658.476	72.62
658.68	91.62
658.883	90.62
659.087	81.62
659.291	89.62
659.494	82.62
659.698	88.62
659.901	103.62
660.105	86.62
660.309	83.62
660.512	82.62
660.716	87.62
660.919	96.62
661.123	102.62
661.326	85.62
661.53	68.62
661.733	78.62
661.936	78.62
662.14	95.62
662.343	78.62
662.546	90.62
662.75	92.62
662.953	89.62
663.156	86.62
663.36	95.62
663.563	84.62
663.766	78.62
663.969	77.62
664.173	88.62
664.376	79.62
664.579	73.62
664.782	108.62
664.985	80.62
665.188	87.62
665.391	84.62
665.594	97.62
665.797	87.62
666	90.62
666.203	80.62
666.406	83.62
666.609	89.62
666.812	89.62
667.015	80.62
667.218	74.62
667.421	87.62
667.624	89.62
667.827	87.62
668.03	80.62
668.232	87.62
668.435	96.62
668.638	91.62
668.841	86.62
669.043	75.62
669.246	89.62
669.449	78.62
669.651	89.62
669.854	86.62
670.057	83.62
670.259	99.62
670.462	89.62
670.665	85.62
670.867	82.62
671.07	83.62
671.272	79.62
671.475	105.62
671.677	82.62
671.88	98.62
672.082	78.62
672.284	95.62
672.487	94.62
672.689	87.62
672.892	91.62
