Data from Uncirc_1989_H10_HRD10591_00075.txt Node
Date: Wed Jan 03 11:57:50 EST 2024
User: Yrep
Spectrometer: HR+D1059
Trigger mode: 1
Integration Time (sec): 1.000000E-1
Scans to average: 1
Electric dark correction enabled: true
Nonlinearity correction enabled: false
Boxcar width: 0
XAxis mode: Wavelengths
Number of Pixels in Spectrum: 2048
>>>>>Begin Spectral Data<<<<<
223.165	-25.25
223.4	-25.25
223.635	-25.25
223.869	-28.25
224.104	-22.25
224.338	-22.25
224.573	-13.25
224.808	-6.25
225.042	-11.25
225.277	-8.25
225.511	-3.25
225.746	11.75
225.98	21.75
226.215	1.75
226.449	5.75
226.683	30.75
226.918	31.75
227.152	36.75
227.387	31.75
227.621	36.75
227.856	49.75
228.09	50.75
228.324	54.75
228.559	67.75
228.793	58.75
229.027	54.75
229.262	53.75
229.496	81.75
229.73	86.75
229.964	86.75
230.199	83.75
230.433	66.75
230.667	86.75
230.901	77.75
231.136	87.75
231.37	91.75
231.604	75.75
231.838	87.75
232.072	79.75
232.306	74.75
232.541	66.75
232.775	79.75
233.009	81.75
233.243	82.75
233.477	59.75
233.711	75.75
233.945	79.75
234.179	76.75
234.413	73.75
234.647	91.75
234.881	71.75
235.115	78.75
235.349	77.75
235.583	78.75
235.817	88.75
236.051	74.75
236.285	66.75
236.519	74.75
236.753	69.75
236.987	72.75
237.221	88.75
237.455	77.75
237.689	70.75
237.922	79.75
238.156	89.75
238.39	80.75
238.624	64.75
238.858	78.75
239.091	74.75
239.325	75.75
239.559	81.75
239.793	97.75
240.027	81.75
240.26	80.75
240.494	86.75
240.728	60.75
240.961	76.75
241.195	72.75
241.429	72.75
241.662	74.75
241.896	85.75
242.13	85.75
242.363	70.75
242.597	72.75
242.83	79.75
243.064	63.75
243.298	71.75
243.531	86.75
243.765	84.75
243.998	79.75
244.232	89.75
244.465	81.75
244.699	61.75
244.932	74.75
245.166	87.75
245.399	76.75
245.633	91.75
245.866	79.75
246.099	81.75
246.333	74.75
246.566	63.75
246.8	83.75
247.033	86.75
247.266	70.75
247.5	84.75
247.733	79.75
247.966	86.75
248.2	66.75
248.433	69.75
248.666	76.75
248.899	76.75
249.133	82.75
249.366	104.75
249.599	101.75
249.832	81.75
250.066	77.75
250.299	74.75
250.532	86.75
250.765	77.75
250.998	85.75
251.231	80.75
251.465	86.75
251.698	75.75
251.931	65.75
252.164	71.75
252.397	74.75
252.63	80.75
252.863	76.75
253.096	87.75
253.329	91.75
253.562	79.75
253.795	91.75
254.028	81.75
254.261	85.75
254.494	77.75
254.727	85.75
254.96	67.75
255.193	72.75
255.426	100.75
255.659	79.75
255.892	106.75
256.124	63.75
256.357	69.75
256.59	85.75
256.823	88.75
257.056	72.75
257.289	76.75
257.521	76.75
257.754	85.75
257.987	82.75
258.22	92.75
258.452	85.75
258.685	72.75
258.918	69.75
259.151	85.75
259.383	82.75
259.616	84.75
259.849	76.75
260.081	80.75
260.314	78.75
260.547	70.75
260.779	78.75
261.012	90.75
261.244	76.75
261.477	83.75
261.71	85.75
261.942	109.75
262.175	108.75
262.407	85.75
262.64	79.75
262.872	90.75
263.105	99.75
263.337	84.75
263.57	80.75
263.802	84.75
264.035	96.75
264.267	91.75
264.499	84.75
264.732	74.75
264.964	94.75
265.197	76.75
265.429	78.75
265.661	89.75
265.894	86.75
266.126	91.75
266.358	91.75
266.591	94.75
266.823	83.75
267.055	87.75
267.287	92.75
267.52	84.75
267.752	80.75
267.984	90.75
268.216	84.75
268.448	86.75
268.681	77.75
268.913	71.75
269.145	69.75
269.377	82.75
269.609	80.75
269.841	88.75
270.073	85.75
270.306	84.75
270.538	90.75
270.77	63.75
271.002	84.75
271.234	85.75
271.466	94.75
271.698	66.75
271.93	82.75
272.162	83.75
272.394	98.75
272.626	70.75
272.858	92.75
273.09	76.75
273.322	71.75
273.553	100.75
273.785	84.75
274.017	82.75
274.249	92.75
274.481	92.75
274.713	94.75
274.945	77.75
275.176	87.75
275.408	87.75
275.64	80.75
275.872	70.75
276.104	79.75
276.335	84.75
276.567	96.75
276.799	96.75
277.031	92.75
277.262	90.75
277.494	86.75
277.726	80.75
277.957	79.75
278.189	91.75
278.421	81.75
278.652	97.75
278.884	79.75
279.115	87.75
279.347	86.75
279.579	88.75
279.81	78.75
280.042	82.75
280.273	93.75
280.505	93.75
280.736	78.75
280.968	89.75
281.199	98.75
281.431	92.75
281.662	90.75
281.894	103.75
282.125	99.75
282.356	97.75
282.588	119.75
282.819	108.75
283.051	91.75
283.282	93.75
283.513	88.75
283.745	90.75
283.976	83.75
284.207	78.75
284.439	74.75
284.67	91.75
284.901	93.75
285.132	87.75
285.364	78.75
285.595	87.75
285.826	76.75
286.057	91.75
286.288	79.75
286.52	86.75
286.751	82.75
286.982	91.75
287.213	98.75
287.444	90.75
287.675	78.75
287.906	95.75
288.138	84.75
288.369	81.75
288.6	102.75
288.831	80.75
289.062	78.75
289.293	89.75
289.524	94.75
289.755	97.75
289.986	86.75
290.217	88.75
290.448	92.75
290.679	90.75
290.91	86.75
291.141	82.75
291.371	71.75
291.602	78.75
291.833	82.75
292.064	91.75
292.295	89.75
292.526	88.75
292.757	99.75
292.987	77.75
293.218	82.75
293.449	77.75
293.68	83.75
293.91	93.75
294.141	97.75
294.372	84.75
294.603	87.75
294.833	78.75
295.064	76.75
295.295	84.75
295.525	89.75
295.756	99.75
295.987	127.75
296.217	118.75
296.448	99.75
296.679	91.75
296.909	78.75
297.14	85.75
297.37	87.75
297.601	107.75
297.831	92.75
298.062	86.75
298.292	97.75
298.523	90.75
298.753	87.75
298.984	86.75
299.214	90.75
299.445	83.75
299.675	91.75
299.905	88.75
300.136	95.75
300.366	83.75
300.597	82.75
300.827	88.75
301.057	90.75
301.288	88.75
301.518	95.75
301.748	86.75
301.979	97.75
302.209	89.75
302.439	96.75
302.669	75.75
302.9	87.75
303.13	80.75
303.36	87.75
303.59	97.75
303.82	106.75
304.051	96.75
304.281	100.75
304.511	91.75
304.741	96.75
304.971	84.75
305.201	86.75
305.431	91.75
305.661	100.75
305.891	84.75
306.121	94.75
306.352	96.75
306.582	97.75
306.812	92.75
307.042	86.75
307.272	84.75
307.502	98.75
307.731	115.75
307.961	92.75
308.191	82.75
308.421	95.75
308.651	91.75
308.881	88.75
309.111	76.75
309.341	83.75
309.571	89.75
309.8	98.75
310.03	87.75
310.26	107.75
310.49	76.75
310.72	102.75
310.949	109.75
311.179	96.75
311.409	101.75
311.639	79.75
311.868	99.75
312.098	88.75
312.328	99.75
312.557	90.75
312.787	97.75
313.017	100.75
313.246	94.75
313.476	99.75
313.706	91.75
313.935	82.75
314.165	89.75
314.394	96.75
314.624	85.75
314.853	95.75
315.083	97.75
315.312	87.75
315.542	91.75
315.771	86.75
316.001	86.75
316.23	90.75
316.46	92.75
316.689	82.75
316.919	90.75
317.148	93.75
317.377	91.75
317.607	88.75
317.836	90.75
318.065	90.75
318.295	91.75
318.524	82.75
318.753	87.75
318.983	100.75
319.212	118.75
319.441	97.75
319.67	105.75
319.9	87.75
320.129	83.75
320.358	91.75
320.587	98.75
320.816	81.75
321.046	80.75
321.275	100.75
321.504	91.75
321.733	98.75
321.962	96.75
322.191	88.75
322.42	80.75
322.649	101.75
322.878	112.75
323.108	110.75
323.337	109.75
323.566	130.75
323.795	148.75
324.024	191.75
324.253	356.75
324.482	714.75
324.71	1462.75
324.939	1965.75
325.168	716.75
325.397	218.75
325.626	140.75
325.855	123.75
326.084	118.75
326.313	114.75
326.542	154.75
326.77	206.75
326.999	386.75
327.228	826.75
327.457	1506.75
327.686	1198.75
327.914	337.75
328.143	187.75
328.372	168.75
328.6	138.75
328.829	116.75
329.058	112.75
329.287	118.75
329.515	108.75
329.744	122.75
329.972	152.75
330.201	188.75
330.43	231.75
330.658	156.75
330.887	133.75
331.115	106.75
331.344	107.75
331.572	102.75
331.801	102.75
332.03	102.75
332.258	119.75
332.486	103.75
332.715	93.75
332.943	95.75
333.172	98.75
333.4	94.75
333.629	94.75
333.857	106.75
334.085	131.75
334.314	196.75
334.542	277.75
334.771	277.75
334.999	138.75
335.227	97.75
335.455	94.75
335.684	91.75
335.912	103.75
336.14	84.75
336.369	97.75
336.597	87.75
336.825	110.75
337.053	103.75
337.281	96.75
337.51	85.75
337.738	87.75
337.966	87.75
338.194	92.75
338.422	93.75
338.65	91.75
338.878	74.75
339.106	100.75
339.334	108.75
339.562	89.75
339.79	96.75
340.018	90.75
340.246	98.75
340.474	75.75
340.702	95.75
340.93	102.75
341.158	89.75
341.386	91.75
341.614	98.75
341.842	90.75
342.07	93.75
342.298	100.75
342.526	92.75
342.754	94.75
342.981	86.75
343.209	101.75
343.437	77.75
343.665	90.75
343.893	79.75
344.12	94.75
344.348	86.75
344.576	79.75
344.804	98.75
345.031	102.75
345.259	97.75
345.487	89.75
345.714	82.75
345.942	94.75
346.17	90.75
346.397	92.75
346.625	93.75
346.853	79.75
347.08	93.75
347.308	84.75
347.535	98.75
347.763	79.75
347.99	86.75
348.218	103.75
348.445	99.75
348.673	114.75
348.9	105.75
349.128	96.75
349.355	95.75
349.583	92.75
349.81	87.75
350.037	86.75
350.265	105.75
350.492	104.75
350.72	91.75
350.947	110.75
351.174	107.75
351.402	92.75
351.629	103.75
351.856	96.75
352.083	83.75
352.311	112.75
352.538	92.75
352.765	77.75
352.992	104.75
353.22	96.75
353.447	103.75
353.674	112.75
353.901	90.75
354.128	97.75
354.355	100.75
354.583	98.75
354.81	97.75
355.037	94.75
355.264	91.75
355.491	99.75
355.718	93.75
355.945	91.75
356.172	84.75
356.399	107.75
356.626	83.75
356.853	80.75
357.08	77.75
357.307	96.75
357.534	81.75
357.761	95.75
357.988	90.75
358.215	86.75
358.441	92.75
358.668	96.75
358.895	93.75
359.122	83.75
359.349	92.75
359.576	96.75
359.802	94.75
360.029	93.75
360.256	94.75
360.483	100.75
360.709	106.75
360.936	90.75
361.163	93.75
361.39	93.75
361.616	91.75
361.843	100.75
362.07	87.75
362.296	104.75
362.523	84.75
362.749	97.75
362.976	82.75
363.203	108.75
363.429	89.75
363.656	79.75
363.882	90.75
364.109	90.75
364.335	99.75
364.562	92.75
364.788	83.75
365.015	94.75
365.241	95.75
365.468	91.75
365.694	112.75
365.92	88.75
366.147	77.75
366.373	94.75
366.599	73.75
366.826	96.75
367.052	89.75
367.278	84.75
367.505	92.75
367.731	83.75
367.957	76.75
368.184	81.75
368.41	102.75
368.636	107.75
368.862	120.75
369.089	108.75
369.315	86.75
369.541	89.75
369.767	94.75
369.993	93.75
370.219	85.75
370.445	97.75
370.672	94.75
370.898	90.75
371.124	96.75
371.35	78.75
371.576	90.75
371.802	90.75
372.028	73.75
372.254	90.75
372.48	86.75
372.706	84.75
372.932	85.75
373.158	87.75
373.384	88.75
373.61	91.75
373.835	87.75
374.061	88.75
374.287	84.75
374.513	94.75
374.739	76.75
374.965	99.75
375.191	60.75
375.416	84.75
375.642	93.75
375.868	87.75
376.094	87.75
376.319	79.75
376.545	89.75
376.771	86.75
376.997	98.75
377.222	87.75
377.448	91.75
377.674	84.75
377.899	95.75
378.125	91.75
378.35	95.75
378.576	92.75
378.802	84.75
379.027	84.75
379.253	98.75
379.478	88.75
379.704	93.75
379.929	86.75
380.155	94.75
380.38	99.75
380.606	74.75
380.831	93.75
381.057	91.75
381.282	90.75
381.507	88.75
381.733	90.75
381.958	92.75
382.184	101.75
382.409	98.75
382.634	105.75
382.86	84.75
383.085	86.75
383.31	90.75
383.535	88.75
383.761	112.75
383.986	88.75
384.211	90.75
384.436	96.75
384.662	87.75
384.887	94.75
385.112	101.75
385.337	89.75
385.562	103.75
385.787	93.75
386.013	112.75
386.238	112.75
386.463	85.75
386.688	104.75
386.913	100.75
387.138	106.75
387.363	98.75
387.588	106.75
387.813	98.75
388.038	90.75
388.263	107.75
388.488	104.75
388.713	92.75
388.938	88.75
389.163	98.75
389.387	106.75
389.612	100.75
389.837	86.75
390.062	99.75
390.287	98.75
390.512	85.75
390.736	99.75
390.961	75.75
391.186	96.75
391.411	94.75
391.636	91.75
391.86	83.75
392.085	93.75
392.31	86.75
392.534	78.75
392.759	83.75
392.984	85.75
393.208	93.75
393.433	101.75
393.658	100.75
393.882	82.75
394.107	83.75
394.331	88.75
394.556	88.75
394.78	93.75
395.005	82.75
395.229	82.75
395.454	90.75
395.678	78.75
395.903	87.75
396.127	82.75
396.352	95.75
396.576	83.75
396.801	102.75
397.025	87.75
397.249	90.75
397.474	89.75
397.698	83.75
397.922	97.75
398.147	78.75
398.371	79.75
398.595	89.75
398.82	87.75
399.044	91.75
399.268	81.75
399.492	63.75
399.717	87.75
399.941	89.75
400.165	79.75
400.389	96.75
400.613	93.75
400.837	95.75
401.062	77.75
401.286	67.75
401.51	76.75
401.734	93.75
401.958	102.75
402.182	116.75
402.406	133.75
402.63	115.75
402.854	96.75
403.078	87.75
403.302	98.75
403.526	94.75
403.75	92.75
403.974	83.75
404.198	93.75
404.422	106.75
404.645	84.75
404.869	92.75
405.093	112.75
405.317	108.75
405.541	106.75
405.765	92.75
405.988	113.75
406.212	160.75
406.436	194.75
406.66	126.75
406.883	111.75
407.107	78.75
407.331	98.75
407.555	98.75
407.778	90.75
408.002	92.75
408.226	84.75
408.449	94.75
408.673	87.75
408.896	75.75
409.12	84.75
409.344	80.75
409.567	92.75
409.791	74.75
410.014	94.75
410.238	87.75
410.461	84.75
410.685	85.75
410.908	92.75
411.132	96.75
411.355	100.75
411.578	100.75
411.802	98.75
412.025	72.75
412.249	83.75
412.472	101.75
412.695	108.75
412.919	95.75
413.142	85.75
413.365	69.75
413.589	94.75
413.812	84.75
414.035	91.75
414.258	86.75
414.482	99.75
414.705	97.75
414.928	80.75
415.151	95.75
415.374	88.75
415.597	68.75
415.821	79.75
416.044	86.75
416.267	91.75
416.49	94.75
416.713	73.75
416.936	78.75
417.159	82.75
417.382	83.75
417.605	91.75
417.828	101.75
418.051	90.75
418.274	87.75
418.497	90.75
418.72	78.75
418.943	102.75
419.166	95.75
419.389	69.75
419.611	77.75
419.834	91.75
420.057	92.75
420.28	99.75
420.503	86.75
420.726	89.75
420.948	93.75
421.171	91.75
421.394	96.75
421.617	96.75
421.839	94.75
422.062	96.75
422.285	101.75
422.507	98.75
422.73	85.75
422.953	95.75
423.175	92.75
423.398	85.75
423.621	84.75
423.843	89.75
424.066	97.75
424.288	96.75
424.511	81.75
424.733	85.75
424.956	93.75
425.178	93.75
425.401	101.75
425.623	89.75
425.846	92.75
426.068	75.75
426.291	103.75
426.513	82.75
426.735	92.75
426.958	98.75
427.18	100.75
427.402	119.75
427.625	139.75
427.847	108.75
428.069	119.75
428.292	100.75
428.514	86.75
428.736	78.75
428.958	79.75
429.181	76.75
429.403	98.75
429.625	91.75
429.847	86.75
430.069	79.75
430.292	92.75
430.514	86.75
430.736	82.75
430.958	88.75
431.18	89.75
431.402	82.75
431.624	87.75
431.846	82.75
432.068	98.75
432.29	93.75
432.512	95.75
432.734	97.75
432.956	103.75
433.178	103.75
433.4	97.75
433.622	91.75
433.844	88.75
434.066	88.75
434.287	95.75
434.509	83.75
434.731	96.75
434.953	85.75
435.175	84.75
435.397	86.75
435.618	99.75
435.84	87.75
436.062	120.75
436.284	102.75
436.505	100.75
436.727	99.75
436.949	85.75
437.17	82.75
437.392	76.75
437.614	82.75
437.835	99.75
438.057	98.75
438.278	92.75
438.5	95.75
438.721	108.75
438.943	95.75
439.165	64.75
439.386	88.75
439.608	83.75
439.829	107.75
440.05	112.75
440.272	121.75
440.493	96.75
440.715	90.75
440.936	75.75
441.158	90.75
441.379	80.75
441.6	86.75
441.822	85.75
442.043	83.75
442.264	102.75
442.486	98.75
442.707	84.75
442.928	104.75
443.149	117.75
443.371	120.75
443.592	90.75
443.813	108.75
444.034	105.75
444.255	86.75
444.476	81.75
444.698	91.75
444.919	84.75
445.14	127.75
445.361	89.75
445.582	94.75
445.803	109.75
446.024	107.75
446.245	114.75
446.466	91.75
446.687	89.75
446.908	86.75
447.129	87.75
447.35	84.75
447.571	81.75
447.792	98.75
448.013	98.75
448.234	96.75
448.455	94.75
448.675	113.75
448.896	102.75
449.117	86.75
449.338	87.75
449.559	116.75
449.779	116.75
450	98.75
450.221	101.75
450.442	84.75
450.662	85.75
450.883	106.75
451.104	91.75
451.324	97.75
451.545	80.75
451.766	87.75
451.986	96.75
452.207	92.75
452.428	96.75
452.648	91.75
452.869	100.75
453.089	94.75
453.31	108.75
453.53	80.75
453.751	80.75
453.971	99.75
454.192	106.75
454.412	93.75
454.633	79.75
454.853	84.75
455.073	79.75
455.294	89.75
455.514	79.75
455.734	87.75
455.955	86.75
456.175	78.75
456.395	72.75
456.616	81.75
456.836	80.75
457.056	84.75
457.276	84.75
457.497	78.75
457.717	98.75
457.937	91.75
458.157	81.75
458.377	85.75
458.598	100.75
458.818	123.75
459.038	140.75
459.258	102.75
459.478	79.75
459.698	85.75
459.918	92.75
460.138	88.75
460.358	78.75
460.578	95.75
460.798	99.75
461.018	94.75
461.238	95.75
461.458	93.75
461.678	101.75
461.898	96.75
462.118	81.75
462.338	96.75
462.558	96.75
462.777	71.75
462.997	83.75
463.217	90.75
463.437	81.75
463.657	82.75
463.876	83.75
464.096	88.75
464.316	91.75
464.536	79.75
464.755	101.75
464.975	106.75
465.195	153.75
465.414	138.75
465.634	97.75
465.854	88.75
466.073	87.75
466.293	95.75
466.512	91.75
466.732	79.75
466.951	81.75
467.171	79.75
467.391	93.75
467.61	108.75
467.829	110.75
468.049	140.75
468.268	154.75
468.488	92.75
468.707	76.75
468.927	71.75
469.146	86.75
469.365	103.75
469.585	89.75
469.804	90.75
470.023	101.75
470.243	92.75
470.462	101.75
470.681	97.75
470.901	83.75
471.12	69.75
471.339	94.75
471.558	97.75
471.777	99.75
471.997	124.75
472.216	228.75
472.435	349.75
472.654	154.75
472.873	91.75
473.092	92.75
473.311	90.75
473.53	80.75
473.749	93.75
473.968	86.75
474.187	96.75
474.406	93.75
474.625	59.75
474.844	83.75
475.063	74.75
475.282	86.75
475.501	91.75
475.72	83.75
475.939	98.75
476.158	85.75
476.377	86.75
476.596	93.75
476.814	91.75
477.033	91.75
477.252	85.75
477.471	76.75
477.69	96.75
477.908	93.75
478.127	83.75
478.346	82.75
478.564	101.75
478.783	98.75
479.002	91.75
479.22	88.75
479.439	83.75
479.658	98.75
479.876	89.75
480.095	89.75
480.313	95.75
480.532	92.75
480.751	124.75
480.969	218.75
481.188	600.75
481.406	366.75
481.624	130.75
481.843	85.75
482.061	91.75
482.28	94.75
482.498	98.75
482.717	90.75
482.935	87.75
483.153	74.75
483.372	94.75
483.59	85.75
483.808	88.75
484.027	82.75
484.245	84.75
484.463	71.75
484.681	91.75
484.9	108.75
485.118	96.75
485.336	84.75
485.554	85.75
485.772	93.75
485.99	88.75
486.209	90.75
486.427	91.75
486.645	86.75
486.863	94.75
487.081	100.75
487.299	95.75
487.517	75.75
487.735	100.75
487.953	90.75
488.171	97.75
488.389	82.75
488.607	92.75
488.825	85.75
489.043	94.75
489.261	85.75
489.479	90.75
489.696	90.75
489.914	93.75
490.132	93.75
490.35	71.75
490.568	99.75
490.786	74.75
491.003	88.75
491.221	93.75
491.439	84.75
491.657	86.75
491.874	113.75
492.092	84.75
492.31	99.75
492.527	83.75
492.745	87.75
492.963	84.75
493.18	77.75
493.398	86.75
493.615	99.75
493.833	101.75
494.05	96.75
494.268	93.75
494.485	90.75
494.703	94.75
494.92	96.75
495.138	96.75
495.355	97.75
495.573	82.75
495.79	87.75
496.008	76.75
496.225	86.75
496.442	84.75
496.66	94.75
496.877	87.75
497.094	85.75
497.312	78.75
497.529	90.75
497.746	77.75
497.963	102.75
498.181	78.75
498.398	92.75
498.615	93.75
498.832	102.75
499.049	99.75
499.267	99.75
499.484	90.75
499.701	93.75
499.918	93.75
500.135	94.75
500.352	92.75
500.569	79.75
500.786	84.75
501.003	87.75
501.22	92.75
501.437	84.75
501.654	86.75
501.871	102.75
502.088	83.75
502.305	93.75
502.522	99.75
502.739	94.75
502.956	80.75
503.172	83.75
503.389	91.75
503.606	96.75
503.823	103.75
504.04	81.75
504.256	95.75
504.473	83.75
504.69	99.75
504.907	94.75
505.123	77.75
505.34	78.75
505.557	88.75
505.773	101.75
505.99	83.75
506.207	78.75
506.423	100.75
506.64	88.75
506.856	79.75
507.073	88.75
507.289	81.75
507.506	85.75
507.722	116.75
507.939	114.75
508.155	112.75
508.372	78.75
508.588	95.75
508.805	92.75
509.021	70.75
509.238	93.75
509.454	99.75
509.67	115.75
509.887	117.75
510.103	107.75
510.319	173.75
510.536	598.75
510.752	1826.75
510.968	516.75
511.184	125.75
511.401	106.75
511.617	100.75
511.833	84.75
512.049	81.75
512.265	82.75
512.481	91.75
512.698	88.75
512.914	106.75
513.13	94.75
513.346	100.75
513.562	87.75
513.778	91.75
513.994	101.75
514.21	112.75
514.426	98.75
514.642	114.75
514.858	122.75
515.074	155.75
515.29	388.75
515.506	1198.75
515.721	448.75
515.937	164.75
516.153	115.75
516.369	101.75
516.585	76.75
516.801	94.75
517.016	92.75
517.232	79.75
517.448	93.75
517.664	90.75
517.879	96.75
518.095	95.75
518.311	93.75
518.527	83.75
518.742	95.75
518.958	90.75
519.173	90.75
519.389	93.75
519.605	83.75
519.82	96.75
520.036	101.75
520.251	119.75
520.467	115.75
520.682	95.75
520.898	96.75
521.113	129.75
521.329	119.75
521.544	183.75
521.76	471.75
521.975	1936.75
522.19	1147.75
522.406	266.75
522.621	118.75
522.836	95.75
523.052	90.75
523.267	94.75
523.482	83.75
523.698	102.75
523.913	112.75
524.128	95.75
524.343	96.75
524.559	97.75
524.774	87.75
524.989	88.75
525.204	103.75
525.419	90.75
525.634	91.75
525.849	79.75
526.064	100.75
526.28	95.75
526.495	89.75
526.71	89.75
526.925	101.75
527.14	91.75
527.355	92.75
527.57	74.75
527.785	91.75
527.999	90.75
528.214	90.75
528.429	90.75
528.644	80.75
528.859	84.75
529.074	90.75
529.289	102.75
529.503	153.75
529.718	86.75
529.933	100.75
530.148	91.75
530.363	102.75
530.577	95.75
530.792	85.75
531.007	94.75
531.221	93.75
531.436	72.75
531.651	87.75
531.865	98.75
532.08	84.75
532.295	83.75
532.509	77.75
532.724	86.75
532.938	95.75
533.153	95.75
533.367	90.75
533.582	96.75
533.796	95.75
534.011	82.75
534.225	76.75
534.44	87.75
534.654	86.75
534.868	101.75
535.083	92.75
535.297	86.75
535.511	84.75
535.726	89.75
535.94	95.75
536.154	104.75
536.369	89.75
536.583	87.75
536.797	89.75
537.011	84.75
537.225	83.75
537.44	92.75
537.654	99.75
537.868	81.75
538.082	80.75
538.296	94.75
538.51	88.75
538.724	90.75
538.938	100.75
539.153	80.75
539.367	102.75
539.581	105.75
539.795	90.75
540.009	91.75
540.222	85.75
540.436	84.75
540.65	77.75
540.864	87.75
541.078	90.75
541.292	94.75
541.506	92.75
541.72	90.75
541.934	91.75
542.147	93.75
542.361	71.75
542.575	88.75
542.789	82.75
543.002	98.75
543.216	82.75
543.43	96.75
543.644	99.75
543.857	103.75
544.071	93.75
544.285	101.75
544.498	81.75
544.712	81.75
544.925	94.75
545.139	94.75
545.352	95.75
545.566	93.75
545.779	84.75
545.993	94.75
546.206	91.75
546.42	81.75
546.633	86.75
546.847	103.75
547.06	84.75
547.274	92.75
547.487	94.75
547.7	95.75
547.914	86.75
548.127	100.75
548.34	87.75
548.554	98.75
548.767	86.75
548.98	96.75
549.193	89.75
549.407	86.75
549.62	93.75
549.833	90.75
550.046	99.75
550.259	91.75
550.473	86.75
550.686	94.75
550.899	97.75
551.112	90.75
551.325	92.75
551.538	88.75
551.751	94.75
551.964	93.75
552.177	93.75
552.39	89.75
552.603	82.75
552.816	78.75
553.029	87.75
553.242	104.75
553.455	100.75
553.667	84.75
553.88	100.75
554.093	94.75
554.306	102.75
554.519	89.75
554.732	97.75
554.944	101.75
555.157	98.75
555.37	91.75
555.583	99.75
555.795	86.75
556.008	95.75
556.221	101.75
556.433	90.75
556.646	90.75
556.859	86.75
557.071	99.75
557.284	98.75
557.496	92.75
557.709	80.75
557.921	88.75
558.134	94.75
558.346	86.75
558.559	78.75
558.771	97.75
558.984	81.75
559.196	84.75
559.409	76.75
559.621	86.75
559.833	85.75
560.046	81.75
560.258	81.75
560.47	91.75
560.683	88.75
560.895	91.75
561.107	85.75
561.32	84.75
561.532	95.75
561.744	82.75
561.956	98.75
562.168	88.75
562.381	85.75
562.593	95.75
562.805	73.75
563.017	95.75
563.229	86.75
563.441	83.75
563.653	110.75
563.865	68.75
564.077	100.75
564.289	86.75
564.501	85.75
564.713	92.75
564.925	87.75
565.137	88.75
565.349	76.75
565.561	82.75
565.773	67.75
565.985	79.75
566.197	110.75
566.408	87.75
566.62	87.75
566.832	101.75
567.044	69.75
567.255	99.75
567.467	95.75
567.679	79.75
567.891	92.75
568.102	89.75
568.314	100.75
568.526	78.75
568.737	82.75
568.949	86.75
569.161	92.75
569.372	70.75
569.584	78.75
569.795	94.75
570.007	117.75
570.218	206.75
570.43	122.75
570.641	100.75
570.853	106.75
571.064	78.75
571.276	86.75
571.487	69.75
571.698	91.75
571.91	94.75
572.121	92.75
572.333	81.75
572.544	89.75
572.755	71.75
572.966	82.75
573.178	82.75
573.389	80.75
573.6	87.75
573.811	87.75
574.023	79.75
574.234	86.75
574.445	79.75
574.656	74.75
574.867	71.75
575.078	90.75
575.289	82.75
575.501	82.75
575.712	90.75
575.923	90.75
576.134	90.75
576.345	82.75
576.556	80.75
576.767	93.75
576.978	100.75
577.188	97.75
577.399	105.75
577.61	95.75
577.821	83.75
578.032	97.75
578.243	247.75
578.454	636.75
578.665	180.75
578.875	95.75
579.086	96.75
579.297	101.75
579.508	79.75
579.718	85.75
579.929	79.75
580.14	84.75
580.35	81.75
580.561	99.75
580.772	87.75
580.982	92.75
581.193	84.75
581.403	79.75
581.614	85.75
581.825	90.75
582.035	84.75
582.246	93.75
582.456	86.75
582.667	71.75
582.877	95.75
583.087	79.75
583.298	97.75
583.508	98.75
583.719	86.75
583.929	94.75
584.139	84.75
584.35	78.75
584.56	80.75
584.77	95.75
584.981	78.75
585.191	91.75
585.401	90.75
585.611	96.75
585.821	84.75
586.032	96.75
586.242	93.75
586.452	83.75
586.662	77.75
586.872	90.75
587.082	78.75
587.292	84.75
587.502	91.75
587.713	91.75
587.923	90.75
588.133	92.75
588.343	81.75
588.553	75.75
588.762	86.75
588.972	92.75
589.182	87.75
589.392	81.75
589.602	80.75
589.812	80.75
590.022	91.75
590.232	85.75
590.441	83.75
590.651	67.75
590.861	73.75
591.071	85.75
591.281	88.75
591.49	76.75
591.7	82.75
591.91	82.75
592.119	72.75
592.329	94.75
592.539	85.75
592.748	88.75
592.958	98.75
593.167	75.75
593.377	76.75
593.587	92.75
593.796	75.75
594.006	94.75
594.215	82.75
594.424	77.75
594.634	76.75
594.843	91.75
595.053	72.75
595.262	91.75
595.472	88.75
595.681	92.75
595.89	92.75
596.1	79.75
596.309	82.75
596.518	91.75
596.727	83.75
596.937	87.75
597.146	95.75
597.355	88.75
597.564	83.75
597.774	98.75
597.983	73.75
598.192	97.75
598.401	91.75
598.61	79.75
598.819	80.75
599.028	70.75
599.237	93.75
599.446	86.75
599.655	82.75
599.864	81.75
600.073	80.75
600.282	85.75
600.491	93.75
600.7	80.75
600.909	86.75
601.118	104.75
601.327	82.75
601.536	85.75
601.745	77.75
601.953	98.75
602.162	86.75
602.371	91.75
602.58	88.75
602.789	82.75
602.997	74.75
603.206	69.75
603.415	80.75
603.623	66.75
603.832	88.75
604.041	83.75
604.249	71.75
604.458	96.75
604.666	80.75
604.875	79.75
605.084	82.75
605.292	90.75
605.501	86.75
605.709	93.75
605.918	100.75
606.126	83.75
606.334	84.75
606.543	91.75
606.751	88.75
606.96	98.75
607.168	79.75
607.376	69.75
607.585	94.75
607.793	85.75
608.001	95.75
608.21	98.75
608.418	74.75
608.626	84.75
608.834	81.75
609.043	80.75
609.251	84.75
609.459	77.75
609.667	90.75
609.875	81.75
610.083	87.75
610.291	97.75
610.499	95.75
610.707	91.75
610.916	91.75
611.124	87.75
611.332	89.75
611.54	84.75
611.748	84.75
611.955	84.75
612.163	94.75
612.371	84.75
612.579	78.75
612.787	89.75
612.995	79.75
613.203	87.75
613.411	98.75
613.618	80.75
613.826	83.75
614.034	83.75
614.242	82.75
614.449	66.75
614.657	89.75
614.865	83.75
615.072	89.75
615.28	76.75
615.488	95.75
615.695	95.75
615.903	92.75
616.111	88.75
616.318	109.75
616.526	86.75
616.733	96.75
616.941	84.75
617.148	99.75
617.356	90.75
617.563	88.75
617.771	97.75
617.978	76.75
618.185	84.75
618.393	100.75
618.6	80.75
618.807	79.75
619.015	87.75
619.222	86.75
619.429	87.75
619.637	78.75
619.844	85.75
620.051	72.75
620.258	96.75
620.466	82.75
620.673	82.75
620.88	89.75
621.087	93.75
621.294	84.75
621.501	88.75
621.708	80.75
621.915	82.75
622.122	86.75
622.329	81.75
622.536	92.75
622.743	101.75
622.95	90.75
623.157	87.75
623.364	84.75
623.571	78.75
623.778	95.75
623.985	70.75
624.192	74.75
624.399	93.75
624.606	76.75
624.812	88.75
625.019	83.75
625.226	81.75
625.433	87.75
625.639	69.75
625.846	77.75
626.053	88.75
626.259	88.75
626.466	90.75
626.673	84.75
626.879	89.75
627.086	91.75
627.293	86.75
627.499	86.75
627.706	80.75
627.912	92.75
628.119	87.75
628.325	74.75
628.532	82.75
628.738	83.75
628.945	82.75
629.151	85.75
629.357	83.75
629.564	93.75
629.77	88.75
629.976	82.75
630.183	84.75
630.389	95.75
630.595	92.75
630.802	79.75
631.008	84.75
631.214	90.75
631.42	83.75
631.627	82.75
631.833	87.75
632.039	80.75
632.245	83.75
632.451	87.75
632.657	86.75
632.863	96.75
633.069	93.75
633.275	99.75
633.481	83.75
633.688	94.75
633.893	86.75
634.099	76.75
634.305	79.75
634.511	93.75
634.717	91.75
634.923	89.75
635.129	87.75
635.335	77.75
635.541	93.75
635.747	87.75
635.952	83.75
636.158	90.75
636.364	129.75
636.57	113.75
636.775	72.75
636.981	92.75
637.187	82.75
637.392	76.75
637.598	75.75
637.804	71.75
638.009	75.75
638.215	82.75
638.421	94.75
638.626	59.75
638.832	83.75
639.037	98.75
639.243	84.75
639.448	89.75
639.654	90.75
639.859	97.75
640.065	74.75
640.27	96.75
640.475	92.75
640.681	74.75
640.886	85.75
641.091	82.75
641.297	91.75
641.502	89.75
641.707	76.75
641.913	71.75
642.118	68.75
642.323	93.75
642.528	94.75
642.733	103.75
642.939	103.75
643.144	73.75
643.349	76.75
643.554	82.75
643.759	78.75
643.964	77.75
644.169	90.75
644.374	82.75
644.579	81.75
644.784	82.75
644.989	77.75
645.194	83.75
645.399	83.75
645.604	74.75
645.809	91.75
646.014	85.75
646.219	75.75
646.423	84.75
646.628	89.75
646.833	84.75
647.038	91.75
647.243	100.75
647.447	77.75
647.652	82.75
647.857	106.75
648.062	78.75
648.266	96.75
648.471	98.75
648.676	92.75
648.88	93.75
649.085	80.75
649.289	83.75
649.494	101.75
649.698	121.75
649.903	90.75
650.107	83.75
650.312	92.75
650.516	94.75
650.721	84.75
650.925	76.75
651.13	75.75
651.334	72.75
651.539	76.75
651.743	78.75
651.947	81.75
652.152	88.75
652.356	86.75
652.56	92.75
652.764	106.75
652.969	84.75
653.173	72.75
653.377	102.75
653.581	77.75
653.785	81.75
653.99	89.75
654.194	86.75
654.398	80.75
654.602	79.75
654.806	95.75
655.01	106.75
655.214	100.75
655.418	103.75
655.622	81.75
655.826	81.75
656.03	83.75
656.234	91.75
656.438	92.75
656.642	100.75
656.846	85.75
657.049	95.75
657.253	91.75
657.457	72.75
657.661	75.75
657.865	69.75
658.068	82.75
658.272	81.75
658.476	81.75
658.68	86.75
658.883	65.75
659.087	90.75
659.291	86.75
659.494	87.75
659.698	82.75
659.901	68.75
660.105	86.75
660.309	80.75
660.512	79.75
660.716	88.75
660.919	70.75
661.123	75.75
661.326	69.75
661.53	78.75
661.733	84.75
661.936	86.75
662.14	82.75
662.343	91.75
662.546	88.75
662.75	96.75
662.953	76.75
663.156	99.75
663.36	90.75
663.563	70.75
663.766	86.75
663.969	74.75
664.173	71.75
664.376	91.75
664.579	94.75
664.782	72.75
664.985	69.75
665.188	75.75
665.391	79.75
665.594	85.75
665.797	89.75
666	71.75
666.203	78.75
666.406	83.75
666.609	92.75
666.812	94.75
667.015	91.75
667.218	88.75
667.421	82.75
667.624	82.75
667.827	82.75
668.03	92.75
668.232	68.75
668.435	77.75
668.638	77.75
668.841	78.75
669.043	81.75
669.246	76.75
669.449	87.75
669.651	78.75
669.854	80.75
670.057	93.75
670.259	76.75
670.462	78.75
670.665	79.75
670.867	74.75
671.07	70.75
671.272	84.75
671.475	88.75
671.677	75.75
671.88	76.75
672.082	75.75
672.284	63.75
672.487	87.75
672.689	80.75
672.892	91.75
