Data from Uncirc_1989_H10_HRD10591_00100.txt Node
Date: Wed Jan 03 11:57:55 EST 2024
User: Yrep
Spectrometer: HR+D1059
Trigger mode: 1
Integration Time (sec): 1.000000E-1
Scans to average: 1
Electric dark correction enabled: true
Nonlinearity correction enabled: false
Boxcar width: 0
XAxis mode: Wavelengths
Number of Pixels in Spectrum: 2048
>>>>>Begin Spectral Data<<<<<
223.165	-14.62
223.4	-14.62
223.635	-14.62
223.869	-13.62
224.104	-16.62
224.338	-18.62
224.573	-22.62
224.808	-14.62
225.042	-17.62
225.277	-5.62
225.511	0.38
225.746	6.38
225.98	11.38
226.215	16.38
226.449	16.38
226.683	31.38
226.918	19.38
227.152	22.38
227.387	27.38
227.621	40.38
227.856	47.38
228.09	47.38
228.324	43.38
228.559	46.38
228.793	58.38
229.027	64.38
229.262	66.38
229.496	72.38
229.73	83.38
229.964	92.38
230.199	67.38
230.433	72.38
230.667	78.38
230.901	71.38
231.136	74.38
231.37	68.38
231.604	79.38
231.838	85.38
232.072	92.38
232.306	71.38
232.541	76.38
232.775	88.38
233.009	73.38
233.243	87.38
233.477	76.38
233.711	86.38
233.945	76.38
234.179	91.38
234.413	79.38
234.647	68.38
234.881	67.38
235.115	78.38
235.349	66.38
235.583	90.38
235.817	81.38
236.051	89.38
236.285	85.38
236.519	87.38
236.753	78.38
236.987	87.38
237.221	87.38
237.455	83.38
237.689	64.38
237.922	82.38
238.156	76.38
238.39	72.38
238.624	79.38
238.858	84.38
239.091	89.38
239.325	78.38
239.559	102.38
239.793	83.38
240.027	80.38
240.26	80.38
240.494	77.38
240.728	85.38
240.961	74.38
241.195	80.38
241.429	78.38
241.662	75.38
241.896	64.38
242.13	92.38
242.363	80.38
242.597	72.38
242.83	80.38
243.064	80.38
243.298	85.38
243.531	79.38
243.765	67.38
243.998	92.38
244.232	90.38
244.465	80.38
244.699	80.38
244.932	59.38
245.166	69.38
245.399	76.38
245.633	74.38
245.866	74.38
246.099	74.38
246.333	70.38
246.566	82.38
246.8	67.38
247.033	70.38
247.266	73.38
247.5	93.38
247.733	86.38
247.966	91.38
248.2	86.38
248.433	85.38
248.666	83.38
248.899	86.38
249.133	82.38
249.366	90.38
249.599	91.38
249.832	80.38
250.066	83.38
250.299	90.38
250.532	75.38
250.765	80.38
250.998	75.38
251.231	98.38
251.465	80.38
251.698	69.38
251.931	70.38
252.164	86.38
252.397	80.38
252.63	85.38
252.863	77.38
253.096	80.38
253.329	77.38
253.562	78.38
253.795	60.38
254.028	88.38
254.261	65.38
254.494	74.38
254.727	75.38
254.96	80.38
255.193	81.38
255.426	79.38
255.659	67.38
255.892	78.38
256.124	80.38
256.357	73.38
256.59	68.38
256.823	84.38
257.056	83.38
257.289	70.38
257.521	79.38
257.754	72.38
257.987	83.38
258.22	82.38
258.452	88.38
258.685	78.38
258.918	70.38
259.151	80.38
259.383	82.38
259.616	83.38
259.849	77.38
260.081	83.38
260.314	78.38
260.547	76.38
260.779	74.38
261.012	77.38
261.244	99.38
261.477	85.38
261.71	95.38
261.942	111.38
262.175	105.38
262.407	92.38
262.64	87.38
262.872	81.38
263.105	87.38
263.337	83.38
263.57	82.38
263.802	77.38
264.035	71.38
264.267	63.38
264.499	78.38
264.732	74.38
264.964	82.38
265.197	91.38
265.429	75.38
265.661	98.38
265.894	81.38
266.126	85.38
266.358	77.38
266.591	84.38
266.823	98.38
267.055	84.38
267.287	88.38
267.52	93.38
267.752	86.38
267.984	81.38
268.216	83.38
268.448	82.38
268.681	87.38
268.913	77.38
269.145	77.38
269.377	90.38
269.609	84.38
269.841	96.38
270.073	92.38
270.306	82.38
270.538	83.38
270.77	72.38
271.002	68.38
271.234	99.38
271.466	81.38
271.698	66.38
271.93	80.38
272.162	87.38
272.394	70.38
272.626	68.38
272.858	88.38
273.09	76.38
273.322	81.38
273.553	87.38
273.785	80.38
274.017	80.38
274.249	83.38
274.481	93.38
274.713	70.38
274.945	84.38
275.176	75.38
275.408	80.38
275.64	96.38
275.872	73.38
276.104	79.38
276.335	86.38
276.567	80.38
276.799	81.38
277.031	94.38
277.262	108.38
277.494	85.38
277.726	98.38
277.957	90.38
278.189	96.38
278.421	92.38
278.652	83.38
278.884	83.38
279.115	71.38
279.347	74.38
279.579	95.38
279.81	74.38
280.042	98.38
280.273	102.38
280.505	96.38
280.736	103.38
280.968	87.38
281.199	81.38
281.431	95.38
281.662	98.38
281.894	94.38
282.125	94.38
282.356	111.38
282.588	122.38
282.819	95.38
283.051	77.38
283.282	78.38
283.513	94.38
283.745	80.38
283.976	82.38
284.207	83.38
284.439	79.38
284.67	86.38
284.901	88.38
285.132	89.38
285.364	94.38
285.595	79.38
285.826	84.38
286.057	79.38
286.288	81.38
286.52	87.38
286.751	86.38
286.982	90.38
287.213	98.38
287.444	83.38
287.675	78.38
287.906	87.38
288.138	95.38
288.369	87.38
288.6	88.38
288.831	67.38
289.062	92.38
289.293	78.38
289.524	72.38
289.755	84.38
289.986	83.38
290.217	82.38
290.448	94.38
290.679	94.38
290.91	83.38
291.141	92.38
291.371	80.38
291.602	75.38
291.833	93.38
292.064	84.38
292.295	88.38
292.526	89.38
292.757	84.38
292.987	95.38
293.218	100.38
293.449	82.38
293.68	94.38
293.91	82.38
294.141	99.38
294.372	90.38
294.603	93.38
294.833	70.38
295.064	80.38
295.295	90.38
295.525	99.38
295.756	79.38
295.987	104.38
296.217	127.38
296.448	108.38
296.679	86.38
296.909	88.38
297.14	93.38
297.37	80.38
297.601	85.38
297.831	87.38
298.062	77.38
298.292	95.38
298.523	81.38
298.753	85.38
298.984	82.38
299.214	92.38
299.445	83.38
299.675	90.38
299.905	110.38
300.136	77.38
300.366	88.38
300.597	84.38
300.827	70.38
301.057	90.38
301.288	106.38
301.518	90.38
301.748	97.38
301.979	110.38
302.209	92.38
302.439	104.38
302.669	83.38
302.9	66.38
303.13	85.38
303.36	90.38
303.59	95.38
303.82	107.38
304.051	107.38
304.281	93.38
304.511	77.38
304.741	84.38
304.971	88.38
305.201	87.38
305.431	71.38
305.661	78.38
305.891	94.38
306.121	86.38
306.352	93.38
306.582	92.38
306.812	106.38
307.042	100.38
307.272	92.38
307.502	96.38
307.731	103.38
307.961	94.38
308.191	88.38
308.421	80.38
308.651	94.38
308.881	94.38
309.111	91.38
309.341	79.38
309.571	93.38
309.8	96.38
310.03	79.38
310.26	87.38
310.49	97.38
310.72	90.38
310.949	92.38
311.179	102.38
311.409	85.38
311.639	92.38
311.868	90.38
312.098	68.38
312.328	96.38
312.557	84.38
312.787	99.38
313.017	112.38
313.246	86.38
313.476	94.38
313.706	108.38
313.935	87.38
314.165	104.38
314.394	98.38
314.624	94.38
314.853	103.38
315.083	101.38
315.312	77.38
315.542	101.38
315.771	103.38
316.001	77.38
316.23	90.38
316.46	86.38
316.689	72.38
316.919	76.38
317.148	106.38
317.377	98.38
317.607	90.38
317.836	81.38
318.065	87.38
318.295	93.38
318.524	92.38
318.753	100.38
318.983	82.38
319.212	96.38
319.441	93.38
319.67	108.38
319.9	96.38
320.129	99.38
320.358	83.38
320.587	84.38
320.816	79.38
321.046	101.38
321.275	94.38
321.504	90.38
321.733	100.38
321.962	82.38
322.191	94.38
322.42	105.38
322.649	97.38
322.878	110.38
323.108	108.38
323.337	123.38
323.566	114.38
323.795	144.38
324.024	192.38
324.253	319.38
324.482	680.38
324.71	1406.38
324.939	1859.38
325.168	675.38
325.397	215.38
325.626	134.38
325.855	104.38
326.084	117.38
326.313	118.38
326.542	141.38
326.77	203.38
326.999	403.38
327.228	794.38
327.457	1462.38
327.686	1134.38
327.914	328.38
328.143	211.38
328.372	176.38
328.6	136.38
328.829	111.38
329.058	119.38
329.287	112.38
329.515	111.38
329.744	117.38
329.972	147.38
330.201	204.38
330.43	270.38
330.658	175.38
330.887	130.38
331.115	114.38
331.344	99.38
331.572	98.38
331.801	111.38
332.03	73.38
332.258	101.38
332.486	90.38
332.715	92.38
332.943	82.38
333.172	102.38
333.4	86.38
333.629	102.38
333.857	117.38
334.085	147.38
334.314	206.38
334.542	319.38
334.771	288.38
334.999	140.38
335.227	110.38
335.455	96.38
335.684	84.38
335.912	86.38
336.14	104.38
336.369	108.38
336.597	102.38
336.825	92.38
337.053	81.38
337.281	89.38
337.51	76.38
337.738	94.38
337.966	89.38
338.194	92.38
338.422	94.38
338.65	85.38
338.878	82.38
339.106	97.38
339.334	92.38
339.562	90.38
339.79	103.38
340.018	80.38
340.246	83.38
340.474	90.38
340.702	95.38
340.93	92.38
341.158	69.38
341.386	90.38
341.614	96.38
341.842	89.38
342.07	99.38
342.298	92.38
342.526	90.38
342.754	94.38
342.981	82.38
343.209	90.38
343.437	87.38
343.665	87.38
343.893	91.38
344.12	98.38
344.348	67.38
344.576	99.38
344.804	95.38
345.031	80.38
345.259	92.38
345.487	89.38
345.714	87.38
345.942	94.38
346.17	88.38
346.397	103.38
346.625	97.38
346.853	96.38
347.08	95.38
347.308	103.38
347.535	93.38
347.763	100.38
347.99	86.38
348.218	91.38
348.445	94.38
348.673	90.38
348.9	91.38
349.128	101.38
349.355	96.38
349.583	86.38
349.81	98.38
350.037	99.38
350.265	82.38
350.492	98.38
350.72	92.38
350.947	88.38
351.174	94.38
351.402	97.38
351.629	96.38
351.856	89.38
352.083	88.38
352.311	98.38
352.538	94.38
352.765	101.38
352.992	106.38
353.22	112.38
353.447	114.38
353.674	90.38
353.901	98.38
354.128	94.38
354.355	90.38
354.583	79.38
354.81	103.38
355.037	75.38
355.264	95.38
355.491	90.38
355.718	94.38
355.945	94.38
356.172	90.38
356.399	103.38
356.626	87.38
356.853	88.38
357.08	89.38
357.307	89.38
357.534	71.38
357.761	94.38
357.988	83.38
358.215	100.38
358.441	98.38
358.668	96.38
358.895	95.38
359.122	91.38
359.349	80.38
359.576	103.38
359.802	90.38
360.029	100.38
360.256	116.38
360.483	83.38
360.709	104.38
360.936	97.38
361.163	90.38
361.39	93.38
361.616	98.38
361.843	95.38
362.07	97.38
362.296	99.38
362.523	95.38
362.749	103.38
362.976	88.38
363.203	95.38
363.429	79.38
363.656	98.38
363.882	76.38
364.109	97.38
364.335	104.38
364.562	82.38
364.788	86.38
365.015	78.38
365.241	83.38
365.468	92.38
365.694	101.38
365.92	92.38
366.147	86.38
366.373	74.38
366.599	77.38
366.826	88.38
367.052	110.38
367.278	86.38
367.505	79.38
367.731	82.38
367.957	88.38
368.184	82.38
368.41	109.38
368.636	119.38
368.862	87.38
369.089	101.38
369.315	98.38
369.541	102.38
369.767	93.38
369.993	89.38
370.219	103.38
370.445	92.38
370.672	96.38
370.898	107.38
371.124	78.38
371.35	102.38
371.576	90.38
371.802	89.38
372.028	95.38
372.254	84.38
372.48	90.38
372.706	74.38
372.932	79.38
373.158	92.38
373.384	91.38
373.61	84.38
373.835	75.38
374.061	95.38
374.287	92.38
374.513	73.38
374.739	75.38
374.965	76.38
375.191	87.38
375.416	91.38
375.642	90.38
375.868	85.38
376.094	98.38
376.319	87.38
376.545	83.38
376.771	92.38
376.997	88.38
377.222	101.38
377.448	79.38
377.674	100.38
377.899	79.38
378.125	88.38
378.35	74.38
378.576	92.38
378.802	83.38
379.027	80.38
379.253	95.38
379.478	88.38
379.704	83.38
379.929	91.38
380.155	103.38
380.38	99.38
380.606	80.38
380.831	71.38
381.057	91.38
381.282	97.38
381.507	100.38
381.733	105.38
381.958	97.38
382.184	93.38
382.409	99.38
382.634	93.38
382.86	96.38
383.085	107.38
383.31	96.38
383.535	92.38
383.761	98.38
383.986	90.38
384.211	102.38
384.436	99.38
384.662	103.38
384.887	98.38
385.112	104.38
385.337	92.38
385.562	112.38
385.787	108.38
386.013	106.38
386.238	101.38
386.463	90.38
386.688	110.38
386.913	102.38
387.138	104.38
387.363	90.38
387.588	99.38
387.813	98.38
388.038	91.38
388.263	104.38
388.488	101.38
388.713	91.38
388.938	94.38
389.163	114.38
389.387	98.38
389.612	105.38
389.837	102.38
390.062	95.38
390.287	89.38
390.512	87.38
390.736	84.38
390.961	84.38
391.186	94.38
391.411	91.38
391.636	76.38
391.86	82.38
392.085	98.38
392.31	86.38
392.534	93.38
392.759	89.38
392.984	87.38
393.208	80.38
393.433	93.38
393.658	90.38
393.882	84.38
394.107	77.38
394.331	74.38
394.556	77.38
394.78	80.38
395.005	85.38
395.229	85.38
395.454	85.38
395.678	89.38
395.903	86.38
396.127	90.38
396.352	76.38
396.576	79.38
396.801	74.38
397.025	100.38
397.249	85.38
397.474	74.38
397.698	93.38
397.922	81.38
398.147	81.38
398.371	80.38
398.595	93.38
398.82	81.38
399.044	97.38
399.268	94.38
399.492	107.38
399.717	92.38
399.941	82.38
400.165	100.38
400.389	86.38
400.613	90.38
400.837	84.38
401.062	88.38
401.286	91.38
401.51	82.38
401.734	93.38
401.958	99.38
402.182	123.38
402.406	154.38
402.63	116.38
402.854	80.38
403.078	98.38
403.302	86.38
403.526	87.38
403.75	87.38
403.974	94.38
404.198	90.38
404.422	87.38
404.645	82.38
404.869	80.38
405.093	98.38
405.317	98.38
405.541	101.38
405.765	88.38
405.988	118.38
406.212	150.38
406.436	195.38
406.66	119.38
406.883	103.38
407.107	91.38
407.331	95.38
407.555	98.38
407.778	78.38
408.002	82.38
408.226	88.38
408.449	90.38
408.673	90.38
408.896	84.38
409.12	94.38
409.344	67.38
409.567	76.38
409.791	91.38
410.014	97.38
410.238	91.38
410.461	83.38
410.685	83.38
410.908	103.38
411.132	107.38
411.355	91.38
411.578	89.38
411.802	88.38
412.025	85.38
412.249	98.38
412.472	86.38
412.695	103.38
412.919	83.38
413.142	96.38
413.365	84.38
413.589	95.38
413.812	82.38
414.035	83.38
414.258	84.38
414.482	100.38
414.705	92.38
414.928	79.38
415.151	82.38
415.374	86.38
415.597	99.38
415.821	96.38
416.044	104.38
416.267	81.38
416.49	81.38
416.713	81.38
416.936	95.38
417.159	101.38
417.382	82.38
417.605	82.38
417.828	92.38
418.051	93.38
418.274	93.38
418.497	97.38
418.72	78.38
418.943	82.38
419.166	82.38
419.389	88.38
419.611	92.38
419.834	86.38
420.057	94.38
420.28	79.38
420.503	94.38
420.726	74.38
420.948	85.38
421.171	89.38
421.394	82.38
421.617	75.38
421.839	77.38
422.062	69.38
422.285	87.38
422.507	80.38
422.73	99.38
422.953	86.38
423.175	94.38
423.398	76.38
423.621	86.38
423.843	79.38
424.066	89.38
424.288	82.38
424.511	94.38
424.733	100.38
424.956	92.38
425.178	76.38
425.401	90.38
425.623	96.38
425.846	83.38
426.068	89.38
426.291	88.38
426.513	90.38
426.735	83.38
426.958	94.38
427.18	107.38
427.402	110.38
427.625	144.38
427.847	130.38
428.069	120.38
428.292	76.38
428.514	72.38
428.736	80.38
428.958	79.38
429.181	84.38
429.403	79.38
429.625	79.38
429.847	89.38
430.069	84.38
430.292	86.38
430.514	84.38
430.736	78.38
430.958	90.38
431.18	85.38
431.402	100.38
431.624	78.38
431.846	86.38
432.068	87.38
432.29	100.38
432.512	86.38
432.734	77.38
432.956	87.38
433.178	111.38
433.4	111.38
433.622	92.38
433.844	82.38
434.066	102.38
434.287	86.38
434.509	95.38
434.731	91.38
434.953	87.38
435.175	84.38
435.397	86.38
435.618	106.38
435.84	107.38
436.062	98.38
436.284	97.38
436.505	100.38
436.727	95.38
436.949	93.38
437.17	80.38
437.392	86.38
437.614	77.38
437.835	102.38
438.057	108.38
438.278	97.38
438.5	97.38
438.721	116.38
438.943	92.38
439.165	86.38
439.386	90.38
439.608	89.38
439.829	91.38
440.05	106.38
440.272	117.38
440.493	104.38
440.715	97.38
440.936	90.38
441.158	80.38
441.379	96.38
441.6	77.38
441.822	97.38
442.043	87.38
442.264	101.38
442.486	89.38
442.707	104.38
442.928	91.38
443.149	107.38
443.371	104.38
443.592	90.38
443.813	94.38
444.034	100.38
444.255	102.38
444.476	86.38
444.698	95.38
444.919	91.38
445.14	132.38
445.361	131.38
445.582	104.38
445.803	114.38
446.024	111.38
446.245	131.38
446.466	101.38
446.687	93.38
446.908	81.38
447.129	76.38
447.35	83.38
447.571	104.38
447.792	86.38
448.013	87.38
448.234	111.38
448.455	91.38
448.675	107.38
448.896	100.38
449.117	85.38
449.338	84.38
449.559	103.38
449.779	106.38
450	95.38
450.221	101.38
450.442	85.38
450.662	83.38
450.883	93.38
451.104	102.38
451.324	85.38
451.545	69.38
451.766	84.38
451.986	96.38
452.207	85.38
452.428	86.38
452.648	94.38
452.869	101.38
453.089	99.38
453.31	100.38
453.53	89.38
453.751	93.38
453.971	93.38
454.192	113.38
454.412	76.38
454.633	101.38
454.853	92.38
455.073	89.38
455.294	83.38
455.514	94.38
455.734	69.38
455.955	95.38
456.175	86.38
456.395	76.38
456.616	94.38
456.836	87.38
457.056	80.38
457.276	94.38
457.497	88.38
457.717	79.38
457.937	94.38
458.157	96.38
458.377	80.38
458.598	96.38
458.818	136.38
459.038	142.38
459.258	107.38
459.478	87.38
459.698	72.38
459.918	86.38
460.138	78.38
460.358	86.38
460.578	87.38
460.798	85.38
461.018	93.38
461.238	92.38
461.458	98.38
461.678	88.38
461.898	90.38
462.118	97.38
462.338	97.38
462.558	75.38
462.777	85.38
462.997	97.38
463.217	92.38
463.437	81.38
463.657	86.38
463.876	91.38
464.096	96.38
464.316	95.38
464.536	99.38
464.755	87.38
464.975	99.38
465.195	127.38
465.414	124.38
465.634	90.38
465.854	86.38
466.073	89.38
466.293	79.38
466.512	97.38
466.732	91.38
466.951	84.38
467.171	94.38
467.391	94.38
467.61	98.38
467.829	101.38
468.049	158.38
468.268	173.38
468.488	87.38
468.707	91.38
468.927	74.38
469.146	86.38
469.365	110.38
469.585	86.38
469.804	88.38
470.023	91.38
470.243	93.38
470.462	68.38
470.681	102.38
470.901	76.38
471.12	73.38
471.339	98.38
471.558	97.38
471.777	82.38
471.997	113.38
472.216	260.38
472.435	427.38
472.654	173.38
472.873	86.38
473.092	88.38
473.311	91.38
473.53	88.38
473.749	101.38
473.968	100.38
474.187	95.38
474.406	83.38
474.625	77.38
474.844	87.38
475.063	80.38
475.282	90.38
475.501	80.38
475.72	93.38
475.939	85.38
476.158	69.38
476.377	82.38
476.596	82.38
476.814	82.38
477.033	84.38
477.252	85.38
477.471	74.38
477.69	85.38
477.908	90.38
478.127	89.38
478.346	86.38
478.564	84.38
478.783	103.38
479.002	94.38
479.22	79.38
479.439	98.38
479.658	90.38
479.876	94.38
480.095	99.38
480.313	78.38
480.532	94.38
480.751	110.38
480.969	230.38
481.188	729.38
481.406	453.38
481.624	132.38
481.843	97.38
482.061	80.38
482.28	90.38
482.498	87.38
482.717	83.38
482.935	88.38
483.153	81.38
483.372	95.38
483.59	89.38
483.808	87.38
484.027	78.38
484.245	92.38
484.463	83.38
484.681	90.38
484.9	96.38
485.118	83.38
485.336	93.38
485.554	96.38
485.772	87.38
485.99	108.38
486.209	92.38
486.427	96.38
486.645	103.38
486.863	110.38
487.081	107.38
487.299	99.38
487.517	109.38
487.735	88.38
487.953	90.38
488.171	100.38
488.389	101.38
488.607	100.38
488.825	92.38
489.043	83.38
489.261	91.38
489.479	75.38
489.696	88.38
489.914	86.38
490.132	90.38
490.35	84.38
490.568	90.38
490.786	87.38
491.003	97.38
491.221	83.38
491.439	86.38
491.657	91.38
491.874	81.38
492.092	76.38
492.31	103.38
492.527	88.38
492.745	85.38
492.963	85.38
493.18	85.38
493.398	86.38
493.615	91.38
493.833	89.38
494.05	90.38
494.268	88.38
494.485	95.38
494.703	92.38
494.92	92.38
495.138	83.38
495.355	89.38
495.573	88.38
495.79	78.38
496.008	82.38
496.225	95.38
496.442	82.38
496.66	101.38
496.877	78.38
497.094	97.38
497.312	91.38
497.529	90.38
497.746	89.38
497.963	106.38
498.181	88.38
498.398	99.38
498.615	98.38
498.832	98.38
499.049	89.38
499.267	90.38
499.484	85.38
499.701	94.38
499.918	92.38
500.135	76.38
500.352	99.38
500.569	84.38
500.786	93.38
501.003	81.38
501.22	81.38
501.437	90.38
501.654	82.38
501.871	91.38
502.088	97.38
502.305	83.38
502.522	96.38
502.739	89.38
502.956	88.38
503.172	90.38
503.389	91.38
503.606	100.38
503.823	101.38
504.04	95.38
504.256	90.38
504.473	94.38
504.69	91.38
504.907	74.38
505.123	98.38
505.34	105.38
505.557	99.38
505.773	92.38
505.99	84.38
506.207	76.38
506.423	75.38
506.64	91.38
506.856	89.38
507.073	92.38
507.289	100.38
507.506	103.38
507.722	102.38
507.939	107.38
508.155	92.38
508.372	96.38
508.588	93.38
508.805	103.38
509.021	98.38
509.238	94.38
509.454	92.38
509.67	90.38
509.887	99.38
510.103	94.38
510.319	178.38
510.536	616.38
510.752	1812.38
510.968	511.38
511.184	134.38
511.401	96.38
511.617	95.38
511.833	96.38
512.049	99.38
512.265	103.38
512.481	84.38
512.698	82.38
512.914	100.38
513.13	98.38
513.346	88.38
513.562	91.38
513.778	94.38
513.994	96.38
514.21	98.38
514.426	98.38
514.642	114.38
514.858	116.38
515.074	157.38
515.29	354.38
515.506	1125.38
515.721	419.38
515.937	127.38
516.153	103.38
516.369	100.38
516.585	89.38
516.801	84.38
517.016	88.38
517.232	95.38
517.448	83.38
517.664	93.38
517.879	69.38
518.095	86.38
518.311	78.38
518.527	108.38
518.742	88.38
518.958	97.38
519.173	92.38
519.389	92.38
519.605	96.38
519.82	100.38
520.036	103.38
520.251	94.38
520.467	88.38
520.682	109.38
520.898	105.38
521.113	107.38
521.329	127.38
521.544	171.38
521.76	468.38
521.975	1850.38
522.19	1096.38
522.406	268.38
522.621	109.38
522.836	95.38
523.052	99.38
523.267	101.38
523.482	104.38
523.698	104.38
523.913	110.38
524.128	91.38
524.343	97.38
524.559	94.38
524.774	95.38
524.989	101.38
525.204	117.38
525.419	94.38
525.634	80.38
525.849	79.38
526.064	90.38
526.28	85.38
526.495	72.38
526.71	82.38
526.925	88.38
527.14	85.38
527.355	82.38
527.57	90.38
527.785	77.38
527.999	92.38
528.214	95.38
528.429	87.38
528.644	103.38
528.859	86.38
529.074	82.38
529.289	117.38
529.503	140.38
529.718	87.38
529.933	90.38
530.148	89.38
530.363	99.38
530.577	92.38
530.792	95.38
531.007	90.38
531.221	89.38
531.436	93.38
531.651	102.38
531.865	87.38
532.08	86.38
532.295	80.38
532.509	91.38
532.724	87.38
532.938	93.38
533.153	95.38
533.367	92.38
533.582	99.38
533.796	88.38
534.011	92.38
534.225	97.38
534.44	102.38
534.654	99.38
534.868	92.38
535.083	88.38
535.297	97.38
535.511	87.38
535.726	102.38
535.94	87.38
536.154	92.38
536.369	90.38
536.583	93.38
536.797	93.38
537.011	92.38
537.225	107.38
537.44	82.38
537.654	86.38
537.868	93.38
538.082	92.38
538.296	90.38
538.51	78.38
538.724	98.38
538.938	96.38
539.153	91.38
539.367	93.38
539.581	95.38
539.795	76.38
540.009	94.38
540.222	83.38
540.436	92.38
540.65	78.38
540.864	91.38
541.078	84.38
541.292	90.38
541.506	103.38
541.72	95.38
541.934	103.38
542.147	99.38
542.361	91.38
542.575	81.38
542.789	81.38
543.002	99.38
543.216	93.38
543.43	100.38
543.644	96.38
543.857	103.38
544.071	94.38
544.285	91.38
544.498	103.38
544.712	89.38
544.925	91.38
545.139	95.38
545.352	77.38
545.566	80.38
545.779	87.38
545.993	87.38
546.206	95.38
546.42	85.38
546.633	84.38
546.847	78.38
547.06	80.38
547.274	97.38
547.487	93.38
547.7	87.38
547.914	87.38
548.127	102.38
548.34	91.38
548.554	99.38
548.767	89.38
548.98	74.38
549.193	76.38
549.407	87.38
549.62	85.38
549.833	85.38
550.046	94.38
550.259	93.38
550.473	73.38
550.686	90.38
550.899	92.38
551.112	90.38
551.325	91.38
551.538	99.38
551.751	83.38
551.964	84.38
552.177	82.38
552.39	87.38
552.603	91.38
552.816	94.38
553.029	91.38
553.242	100.38
553.455	94.38
553.667	94.38
553.88	94.38
554.093	100.38
554.306	94.38
554.519	104.38
554.732	91.38
554.944	84.38
555.157	84.38
555.37	93.38
555.583	82.38
555.795	95.38
556.008	93.38
556.221	93.38
556.433	99.38
556.646	88.38
556.859	105.38
557.071	83.38
557.284	99.38
557.496	91.38
557.709	90.38
557.921	79.38
558.134	93.38
558.346	78.38
558.559	90.38
558.771	107.38
558.984	92.38
559.196	98.38
559.409	90.38
559.621	75.38
559.833	76.38
560.046	86.38
560.258	78.38
560.47	91.38
560.683	77.38
560.895	82.38
561.107	80.38
561.32	89.38
561.532	82.38
561.744	90.38
561.956	96.38
562.168	89.38
562.381	81.38
562.593	69.38
562.805	100.38
563.017	80.38
563.229	98.38
563.441	87.38
563.653	90.38
563.865	82.38
564.077	95.38
564.289	86.38
564.501	99.38
564.713	95.38
564.925	87.38
565.137	89.38
565.349	87.38
565.561	94.38
565.773	88.38
565.985	95.38
566.197	81.38
566.408	91.38
566.62	92.38
566.832	81.38
567.044	95.38
567.255	94.38
567.467	104.38
567.679	82.38
567.891	92.38
568.102	101.38
568.314	90.38
568.526	77.38
568.737	76.38
568.949	75.38
569.161	76.38
569.372	84.38
569.584	90.38
569.795	95.38
570.007	112.38
570.218	205.38
570.43	121.38
570.641	96.38
570.853	88.38
571.064	82.38
571.276	93.38
571.487	86.38
571.698	79.38
571.91	71.38
572.121	79.38
572.333	87.38
572.544	81.38
572.755	84.38
572.966	90.38
573.178	79.38
573.389	93.38
573.6	85.38
573.811	78.38
574.023	84.38
574.234	100.38
574.445	90.38
574.656	83.38
574.867	94.38
575.078	81.38
575.289	90.38
575.501	90.38
575.712	97.38
575.923	79.38
576.134	90.38
576.345	80.38
576.556	107.38
576.767	95.38
576.978	89.38
577.188	102.38
577.399	92.38
577.61	82.38
577.821	88.38
578.032	115.38
578.243	218.38
578.454	588.38
578.665	172.38
578.875	101.38
579.086	96.38
579.297	86.38
579.508	74.38
579.718	95.38
579.929	87.38
580.14	81.38
580.35	94.38
580.561	91.38
580.772	84.38
580.982	92.38
581.193	79.38
581.403	76.38
581.614	83.38
581.825	89.38
582.035	84.38
582.246	103.38
582.456	81.38
582.667	85.38
582.877	86.38
583.087	86.38
583.298	87.38
583.508	83.38
583.719	85.38
583.929	87.38
584.139	78.38
584.35	80.38
584.56	111.38
584.77	98.38
584.981	94.38
585.191	96.38
585.401	86.38
585.611	87.38
585.821	78.38
586.032	90.38
586.242	102.38
586.452	91.38
586.662	84.38
586.872	81.38
587.082	85.38
587.292	87.38
587.502	80.38
587.713	93.38
587.923	93.38
588.133	79.38
588.343	70.38
588.553	81.38
588.762	85.38
588.972	81.38
589.182	91.38
589.392	83.38
589.602	91.38
589.812	68.38
590.022	92.38
590.232	75.38
590.441	87.38
590.651	90.38
590.861	74.38
591.071	85.38
591.281	99.38
591.49	70.38
591.7	78.38
591.91	87.38
592.119	90.38
592.329	85.38
592.539	103.38
592.748	85.38
592.958	75.38
593.167	87.38
593.377	86.38
593.587	91.38
593.796	92.38
594.006	78.38
594.215	84.38
594.424	76.38
594.634	85.38
594.843	89.38
595.053	81.38
595.262	93.38
595.472	93.38
595.681	98.38
595.89	90.38
596.1	92.38
596.309	84.38
596.518	64.38
596.727	86.38
596.937	78.38
597.146	84.38
597.355	94.38
597.564	82.38
597.774	91.38
597.983	81.38
598.192	96.38
598.401	90.38
598.61	88.38
598.819	82.38
599.028	85.38
599.237	90.38
599.446	87.38
599.655	88.38
599.864	94.38
600.073	87.38
600.282	79.38
600.491	91.38
600.7	64.38
600.909	85.38
601.118	86.38
601.327	85.38
601.536	83.38
601.745	91.38
601.953	95.38
602.162	87.38
602.371	82.38
602.58	82.38
602.789	100.38
602.997	95.38
603.206	78.38
603.415	89.38
603.623	74.38
603.832	94.38
604.041	92.38
604.249	88.38
604.458	83.38
604.666	85.38
604.875	86.38
605.084	105.38
605.292	92.38
605.501	79.38
605.709	91.38
605.918	83.38
606.126	96.38
606.334	85.38
606.543	80.38
606.751	91.38
606.96	79.38
607.168	79.38
607.376	84.38
607.585	82.38
607.793	91.38
608.001	93.38
608.21	92.38
608.418	87.38
608.626	94.38
608.834	104.38
609.043	79.38
609.251	82.38
609.459	77.38
609.667	102.38
609.875	80.38
610.083	69.38
610.291	78.38
610.499	76.38
610.707	87.38
610.916	75.38
611.124	86.38
611.332	78.38
611.54	91.38
611.748	90.38
611.955	87.38
612.163	87.38
612.371	82.38
612.579	82.38
612.787	76.38
612.995	84.38
613.203	69.38
613.411	80.38
613.618	85.38
613.826	82.38
614.034	103.38
614.242	87.38
614.449	75.38
614.657	75.38
614.865	85.38
615.072	96.38
615.28	94.38
615.488	80.38
615.695	77.38
615.903	94.38
616.111	95.38
616.318	106.38
616.526	109.38
616.733	80.38
616.941	99.38
617.148	91.38
617.356	86.38
617.563	82.38
617.771	93.38
617.978	84.38
618.185	87.38
618.393	94.38
618.6	90.38
618.807	101.38
619.015	101.38
619.222	86.38
619.429	75.38
619.637	77.38
619.844	77.38
620.051	93.38
620.258	84.38
620.466	91.38
620.673	87.38
620.88	78.38
621.087	86.38
621.294	93.38
621.501	84.38
621.708	77.38
621.915	77.38
622.122	75.38
622.329	69.38
622.536	80.38
622.743	86.38
622.95	90.38
623.157	94.38
623.364	73.38
623.571	92.38
623.778	84.38
623.985	85.38
624.192	74.38
624.399	81.38
624.606	93.38
624.812	101.38
625.019	89.38
625.226	76.38
625.433	84.38
625.639	85.38
625.846	68.38
626.053	86.38
626.259	91.38
626.466	73.38
626.673	83.38
626.879	77.38
627.086	77.38
627.293	70.38
627.499	86.38
627.706	97.38
627.912	90.38
628.119	82.38
628.325	74.38
628.532	83.38
628.738	78.38
628.945	82.38
629.151	85.38
629.357	93.38
629.564	74.38
629.77	89.38
629.976	91.38
630.183	76.38
630.389	79.38
630.595	82.38
630.802	68.38
631.008	86.38
631.214	81.38
631.42	84.38
631.627	96.38
631.833	80.38
632.039	76.38
632.245	85.38
632.451	95.38
632.657	86.38
632.863	95.38
633.069	99.38
633.275	85.38
633.481	79.38
633.688	90.38
633.893	78.38
634.099	80.38
634.305	86.38
634.511	78.38
634.717	80.38
634.923	79.38
635.129	67.38
635.335	72.38
635.541	96.38
635.747	95.38
635.952	80.38
636.158	86.38
636.364	123.38
636.57	116.38
636.775	88.38
636.981	75.38
637.187	86.38
637.392	90.38
637.598	88.38
637.804	82.38
638.009	85.38
638.215	84.38
638.421	90.38
638.626	90.38
638.832	77.38
639.037	85.38
639.243	87.38
639.448	80.38
639.654	90.38
639.859	80.38
640.065	79.38
640.27	83.38
640.475	89.38
640.681	94.38
640.886	84.38
641.091	91.38
641.297	78.38
641.502	78.38
641.707	85.38
641.913	102.38
642.118	82.38
642.323	90.38
642.528	88.38
642.733	84.38
642.939	98.38
643.144	67.38
643.349	86.38
643.554	91.38
643.759	79.38
643.964	90.38
644.169	92.38
644.374	76.38
644.579	86.38
644.784	77.38
644.989	75.38
645.194	77.38
645.399	107.38
645.604	97.38
645.809	98.38
646.014	75.38
646.219	74.38
646.423	70.38
646.628	99.38
646.833	91.38
647.038	87.38
647.243	91.38
647.447	71.38
647.652	83.38
647.857	88.38
648.062	87.38
648.266	84.38
648.471	83.38
648.676	94.38
648.88	86.38
649.085	91.38
649.289	82.38
649.494	87.38
649.698	126.38
649.903	103.38
650.107	76.38
650.312	74.38
650.516	94.38
650.721	77.38
650.925	76.38
651.13	78.38
651.334	82.38
651.539	85.38
651.743	86.38
651.947	87.38
652.152	87.38
652.356	76.38
652.56	86.38
652.764	90.38
652.969	74.38
653.173	87.38
653.377	87.38
653.581	75.38
653.785	88.38
653.99	79.38
654.194	70.38
654.398	82.38
654.602	89.38
654.806	81.38
655.01	95.38
655.214	85.38
655.418	95.38
655.622	87.38
655.826	94.38
656.03	99.38
656.234	90.38
656.438	91.38
656.642	79.38
656.846	80.38
657.049	61.38
657.253	88.38
657.457	89.38
657.661	86.38
657.865	96.38
658.068	92.38
658.272	62.38
658.476	84.38
658.68	76.38
658.883	83.38
659.087	80.38
659.291	83.38
659.494	80.38
659.698	89.38
659.901	76.38
660.105	71.38
660.309	83.38
660.512	81.38
660.716	71.38
660.919	77.38
661.123	79.38
661.326	82.38
661.53	78.38
661.733	96.38
661.936	87.38
662.14	74.38
662.343	80.38
662.546	87.38
662.75	80.38
662.953	77.38
663.156	85.38
663.36	82.38
663.563	91.38
663.766	76.38
663.969	75.38
664.173	84.38
664.376	91.38
664.579	99.38
664.782	83.38
664.985	92.38
665.188	79.38
665.391	75.38
665.594	68.38
665.797	66.38
666	75.38
666.203	76.38
666.406	79.38
666.609	85.38
666.812	67.38
667.015	65.38
667.218	73.38
667.421	74.38
667.624	69.38
667.827	81.38
668.03	86.38
668.232	84.38
668.435	81.38
668.638	78.38
668.841	79.38
669.043	86.38
669.246	79.38
669.449	79.38
669.651	88.38
669.854	85.38
670.057	80.38
670.259	80.38
670.462	72.38
670.665	78.38
670.867	78.38
671.07	83.38
671.272	88.38
671.475	100.38
671.677	84.38
671.88	86.38
672.082	83.38
672.284	86.38
672.487	81.38
672.689	87.38
672.892	85.38
