Data from Uncirc_1989_H10_HRD10591_00061.txt Node
Date: Wed Jan 03 11:57:47 EST 2024
User: Yrep
Spectrometer: HR+D1059
Trigger mode: 1
Integration Time (sec): 1.000000E-1
Scans to average: 1
Electric dark correction enabled: true
Nonlinearity correction enabled: false
Boxcar width: 0
XAxis mode: Wavelengths
Number of Pixels in Spectrum: 2048
>>>>>Begin Spectral Data<<<<<
223.165	-6.31
223.4	-6.31
223.635	-6.31
223.869	-24.31
224.104	-26.31
224.338	-6.31
224.573	-10.31
224.808	-19.31
225.042	-3.31
225.277	-3.31
225.511	-10.31
225.746	7.69
225.98	13.69
226.215	4.69
226.449	8.69
226.683	23.69
226.918	25.69
227.152	25.69
227.387	36.69
227.621	40.69
227.856	50.69
228.09	58.69
228.324	48.69
228.559	53.69
228.793	52.69
229.027	66.69
229.262	81.69
229.496	79.69
229.73	69.69
229.964	66.69
230.199	75.69
230.433	86.69
230.667	84.69
230.901	71.69
231.136	72.69
231.37	88.69
231.604	91.69
231.838	79.69
232.072	91.69
232.306	79.69
232.541	80.69
232.775	80.69
233.009	64.69
233.243	72.69
233.477	72.69
233.711	91.69
233.945	84.69
234.179	80.69
234.413	83.69
234.647	77.69
234.881	88.69
235.115	77.69
235.349	82.69
235.583	72.69
235.817	83.69
236.051	80.69
236.285	89.69
236.519	76.69
236.753	69.69
236.987	62.69
237.221	92.69
237.455	85.69
237.689	91.69
237.922	74.69
238.156	88.69
238.39	70.69
238.624	76.69
238.858	71.69
239.091	80.69
239.325	76.69
239.559	76.69
239.793	70.69
240.027	72.69
240.26	80.69
240.494	91.69
240.728	97.69
240.961	79.69
241.195	70.69
241.429	62.69
241.662	73.69
241.896	61.69
242.13	65.69
242.363	81.69
242.597	78.69
242.83	76.69
243.064	58.69
243.298	62.69
243.531	83.69
243.765	80.69
243.998	77.69
244.232	79.69
244.465	89.69
244.699	82.69
244.932	78.69
245.166	93.69
245.399	75.69
245.633	76.69
245.866	96.69
246.099	80.69
246.333	77.69
246.566	88.69
246.8	68.69
247.033	70.69
247.266	87.69
247.5	66.69
247.733	67.69
247.966	73.69
248.2	80.69
248.433	78.69
248.666	73.69
248.899	76.69
249.133	85.69
249.366	90.69
249.599	100.69
249.832	98.69
250.066	90.69
250.299	72.69
250.532	82.69
250.765	77.69
250.998	88.69
251.231	71.69
251.465	80.69
251.698	77.69
251.931	72.69
252.164	88.69
252.397	82.69
252.63	79.69
252.863	62.69
253.096	62.69
253.329	72.69
253.562	76.69
253.795	80.69
254.028	78.69
254.261	88.69
254.494	80.69
254.727	71.69
254.96	85.69
255.193	79.69
255.426	84.69
255.659	89.69
255.892	83.69
256.124	86.69
256.357	71.69
256.59	76.69
256.823	84.69
257.056	83.69
257.289	82.69
257.521	76.69
257.754	77.69
257.987	77.69
258.22	81.69
258.452	84.69
258.685	93.69
258.918	84.69
259.151	96.69
259.383	84.69
259.616	106.69
259.849	70.69
260.081	73.69
260.314	92.69
260.547	84.69
260.779	86.69
261.012	87.69
261.244	95.69
261.477	97.69
261.71	104.69
261.942	110.69
262.175	100.69
262.407	80.69
262.64	95.69
262.872	77.69
263.105	94.69
263.337	85.69
263.57	93.69
263.802	90.69
264.035	89.69
264.267	85.69
264.499	61.69
264.732	84.69
264.964	76.69
265.197	74.69
265.429	76.69
265.661	76.69
265.894	94.69
266.126	85.69
266.358	89.69
266.591	91.69
266.823	81.69
267.055	74.69
267.287	94.69
267.52	86.69
267.752	73.69
267.984	88.69
268.216	83.69
268.448	78.69
268.681	66.69
268.913	96.69
269.145	77.69
269.377	88.69
269.609	64.69
269.841	79.69
270.073	86.69
270.306	70.69
270.538	96.69
270.77	77.69
271.002	73.69
271.234	78.69
271.466	95.69
271.698	97.69
271.93	85.69
272.162	90.69
272.394	86.69
272.626	87.69
272.858	79.69
273.09	84.69
273.322	78.69
273.553	85.69
273.785	85.69
274.017	90.69
274.249	86.69
274.481	80.69
274.713	88.69
274.945	101.69
275.176	80.69
275.408	97.69
275.64	87.69
275.872	84.69
276.104	79.69
276.335	80.69
276.567	100.69
276.799	98.69
277.031	98.69
277.262	93.69
277.494	90.69
277.726	80.69
277.957	80.69
278.189	93.69
278.421	93.69
278.652	78.69
278.884	91.69
279.115	87.69
279.347	81.69
279.579	91.69
279.81	89.69
280.042	102.69
280.273	89.69
280.505	88.69
280.736	85.69
280.968	76.69
281.199	90.69
281.431	85.69
281.662	85.69
281.894	94.69
282.125	94.69
282.356	107.69
282.588	133.69
282.819	120.69
283.051	93.69
283.282	95.69
283.513	81.69
283.745	87.69
283.976	84.69
284.207	97.69
284.439	76.69
284.67	89.69
284.901	79.69
285.132	88.69
285.364	93.69
285.595	98.69
285.826	72.69
286.057	88.69
286.288	97.69
286.52	79.69
286.751	73.69
286.982	101.69
287.213	82.69
287.444	97.69
287.675	87.69
287.906	89.69
288.138	88.69
288.369	79.69
288.6	98.69
288.831	82.69
289.062	79.69
289.293	81.69
289.524	78.69
289.755	70.69
289.986	73.69
290.217	86.69
290.448	77.69
290.679	82.69
290.91	97.69
291.141	80.69
291.371	94.69
291.602	90.69
291.833	90.69
292.064	97.69
292.295	92.69
292.526	88.69
292.757	102.69
292.987	89.69
293.218	91.69
293.449	84.69
293.68	90.69
293.91	73.69
294.141	97.69
294.372	104.69
294.603	97.69
294.833	97.69
295.064	87.69
295.295	93.69
295.525	94.69
295.756	104.69
295.987	103.69
296.217	114.69
296.448	103.69
296.679	94.69
296.909	86.69
297.14	104.69
297.37	103.69
297.601	86.69
297.831	92.69
298.062	92.69
298.292	84.69
298.523	80.69
298.753	77.69
298.984	91.69
299.214	88.69
299.445	87.69
299.675	88.69
299.905	94.69
300.136	95.69
300.366	78.69
300.597	88.69
300.827	104.69
301.057	99.69
301.288	93.69
301.518	86.69
301.748	100.69
301.979	87.69
302.209	96.69
302.439	87.69
302.669	100.69
302.9	80.69
303.13	87.69
303.36	96.69
303.59	109.69
303.82	116.69
304.051	102.69
304.281	94.69
304.511	92.69
304.741	79.69
304.971	84.69
305.201	97.69
305.431	101.69
305.661	96.69
305.891	89.69
306.121	98.69
306.352	109.69
306.582	80.69
306.812	104.69
307.042	76.69
307.272	104.69
307.502	89.69
307.731	93.69
307.961	90.69
308.191	100.69
308.421	88.69
308.651	97.69
308.881	92.69
309.111	78.69
309.341	86.69
309.571	95.69
309.8	80.69
310.03	90.69
310.26	94.69
310.49	105.69
310.72	101.69
310.949	105.69
311.179	104.69
311.409	89.69
311.639	81.69
311.868	103.69
312.098	96.69
312.328	96.69
312.557	95.69
312.787	115.69
313.017	96.69
313.246	87.69
313.476	109.69
313.706	98.69
313.935	107.69
314.165	103.69
314.394	85.69
314.624	98.69
314.853	96.69
315.083	85.69
315.312	100.69
315.542	104.69
315.771	92.69
316.001	84.69
316.23	98.69
316.46	98.69
316.689	88.69
316.919	84.69
317.148	93.69
317.377	97.69
317.607	96.69
317.836	105.69
318.065	81.69
318.295	85.69
318.524	95.69
318.753	95.69
318.983	102.69
319.212	98.69
319.441	99.69
319.67	112.69
319.9	102.69
320.129	89.69
320.358	103.69
320.587	100.69
320.816	101.69
321.046	91.69
321.275	90.69
321.504	75.69
321.733	109.69
321.962	93.69
322.191	96.69
322.42	101.69
322.649	95.69
322.878	111.69
323.108	126.69
323.337	106.69
323.566	118.69
323.795	110.69
324.024	175.69
324.253	302.69
324.482	638.69
324.71	1269.69
324.939	1700.69
325.168	660.69
325.397	212.69
325.626	131.69
325.855	121.69
326.084	123.69
326.313	116.69
326.542	131.69
326.77	213.69
326.999	356.69
327.228	738.69
327.457	1342.69
327.686	1074.69
327.914	305.69
328.143	188.69
328.372	146.69
328.6	123.69
328.829	102.69
329.058	118.69
329.287	132.69
329.515	114.69
329.744	114.69
329.972	137.69
330.201	172.69
330.43	197.69
330.658	163.69
330.887	134.69
331.115	130.69
331.344	101.69
331.572	104.69
331.801	110.69
332.03	105.69
332.258	112.69
332.486	100.69
332.715	86.69
332.943	94.69
333.172	97.69
333.4	101.69
333.629	113.69
333.857	98.69
334.085	115.69
334.314	185.69
334.542	243.69
334.771	216.69
334.999	125.69
335.227	100.69
335.455	106.69
335.684	96.69
335.912	110.69
336.14	101.69
336.369	106.69
336.597	103.69
336.825	97.69
337.053	110.69
337.281	108.69
337.51	98.69
337.738	98.69
337.966	95.69
338.194	78.69
338.422	102.69
338.65	88.69
338.878	93.69
339.106	82.69
339.334	99.69
339.562	86.69
339.79	96.69
340.018	99.69
340.246	94.69
340.474	83.69
340.702	80.69
340.93	95.69
341.158	90.69
341.386	101.69
341.614	81.69
341.842	86.69
342.07	84.69
342.298	96.69
342.526	96.69
342.754	80.69
342.981	84.69
343.209	90.69
343.437	105.69
343.665	81.69
343.893	86.69
344.12	99.69
344.348	97.69
344.576	98.69
344.804	106.69
345.031	112.69
345.259	102.69
345.487	98.69
345.714	89.69
345.942	100.69
346.17	102.69
346.397	100.69
346.625	97.69
346.853	89.69
347.08	86.69
347.308	89.69
347.535	91.69
347.763	100.69
347.99	115.69
348.218	104.69
348.445	100.69
348.673	104.69
348.9	110.69
349.128	100.69
349.355	87.69
349.583	98.69
349.81	96.69
350.037	91.69
350.265	92.69
350.492	106.69
350.72	105.69
350.947	101.69
351.174	108.69
351.402	108.69
351.629	104.69
351.856	87.69
352.083	101.69
352.311	96.69
352.538	90.69
352.765	108.69
352.992	116.69
353.22	114.69
353.447	96.69
353.674	96.69
353.901	102.69
354.128	101.69
354.355	99.69
354.583	95.69
354.81	98.69
355.037	102.69
355.264	93.69
355.491	97.69
355.718	89.69
355.945	102.69
356.172	93.69
356.399	76.69
356.626	98.69
356.853	105.69
357.08	105.69
357.307	95.69
357.534	98.69
357.761	82.69
357.988	96.69
358.215	94.69
358.441	101.69
358.668	83.69
358.895	80.69
359.122	96.69
359.349	92.69
359.576	88.69
359.802	104.69
360.029	116.69
360.256	99.69
360.483	99.69
360.709	101.69
360.936	101.69
361.163	93.69
361.39	93.69
361.616	92.69
361.843	86.69
362.07	87.69
362.296	98.69
362.523	101.69
362.749	87.69
362.976	86.69
363.203	104.69
363.429	91.69
363.656	97.69
363.882	91.69
364.109	83.69
364.335	80.69
364.562	105.69
364.788	86.69
365.015	90.69
365.241	88.69
365.468	99.69
365.694	103.69
365.92	99.69
366.147	94.69
366.373	96.69
366.599	93.69
366.826	96.69
367.052	86.69
367.278	93.69
367.505	99.69
367.731	91.69
367.957	79.69
368.184	77.69
368.41	107.69
368.636	111.69
368.862	116.69
369.089	98.69
369.315	86.69
369.541	89.69
369.767	84.69
369.993	90.69
370.219	95.69
370.445	88.69
370.672	89.69
370.898	85.69
371.124	89.69
371.35	89.69
371.576	93.69
371.802	89.69
372.028	88.69
372.254	85.69
372.48	82.69
372.706	98.69
372.932	101.69
373.158	100.69
373.384	96.69
373.61	108.69
373.835	79.69
374.061	81.69
374.287	94.69
374.513	104.69
374.739	100.69
374.965	87.69
375.191	73.69
375.416	89.69
375.642	94.69
375.868	107.69
376.094	98.69
376.319	96.69
376.545	94.69
376.771	94.69
376.997	77.69
377.222	79.69
377.448	92.69
377.674	95.69
377.899	101.69
378.125	94.69
378.35	81.69
378.576	80.69
378.802	100.69
379.027	94.69
379.253	91.69
379.478	78.69
379.704	101.69
379.929	104.69
380.155	85.69
380.38	88.69
380.606	86.69
380.831	98.69
381.057	97.69
381.282	79.69
381.507	101.69
381.733	86.69
381.958	98.69
382.184	99.69
382.409	112.69
382.634	102.69
382.86	92.69
383.085	103.69
383.31	111.69
383.535	97.69
383.761	105.69
383.986	89.69
384.211	98.69
384.436	87.69
384.662	93.69
384.887	92.69
385.112	93.69
385.337	91.69
385.562	97.69
385.787	103.69
386.013	108.69
386.238	104.69
386.463	104.69
386.688	96.69
386.913	93.69
387.138	104.69
387.363	109.69
387.588	96.69
387.813	98.69
388.038	96.69
388.263	104.69
388.488	102.69
388.713	102.69
388.938	109.69
389.163	85.69
389.387	88.69
389.612	91.69
389.837	96.69
390.062	98.69
390.287	102.69
390.512	80.69
390.736	111.69
390.961	105.69
391.186	94.69
391.411	105.69
391.636	93.69
391.86	86.69
392.085	88.69
392.31	98.69
392.534	78.69
392.759	99.69
392.984	89.69
393.208	101.69
393.433	90.69
393.658	99.69
393.882	79.69
394.107	80.69
394.331	77.69
394.556	77.69
394.78	92.69
395.005	102.69
395.229	98.69
395.454	73.69
395.678	89.69
395.903	80.69
396.127	94.69
396.352	73.69
396.576	78.69
396.801	98.69
397.025	90.69
397.249	79.69
397.474	85.69
397.698	94.69
397.922	86.69
398.147	84.69
398.371	89.69
398.595	92.69
398.82	87.69
399.044	73.69
399.268	95.69
399.492	90.69
399.717	85.69
399.941	84.69
400.165	103.69
400.389	100.69
400.613	90.69
400.837	82.69
401.062	89.69
401.286	94.69
401.51	94.69
401.734	93.69
401.958	105.69
402.182	113.69
402.406	133.69
402.63	99.69
402.854	96.69
403.078	100.69
403.302	97.69
403.526	95.69
403.75	86.69
403.974	87.69
404.198	93.69
404.422	97.69
404.645	86.69
404.869	84.69
405.093	95.69
405.317	92.69
405.541	93.69
405.765	101.69
405.988	100.69
406.212	148.69
406.436	176.69
406.66	124.69
406.883	88.69
407.107	94.69
407.331	85.69
407.555	87.69
407.778	94.69
408.002	96.69
408.226	88.69
408.449	89.69
408.673	97.69
408.896	94.69
409.12	88.69
409.344	80.69
409.567	90.69
409.791	91.69
410.014	96.69
410.238	86.69
410.461	94.69
410.685	87.69
410.908	95.69
411.132	101.69
411.355	96.69
411.578	90.69
411.802	103.69
412.025	79.69
412.249	88.69
412.472	94.69
412.695	108.69
412.919	93.69
413.142	86.69
413.365	99.69
413.589	81.69
413.812	70.69
414.035	86.69
414.258	90.69
414.482	76.69
414.705	92.69
414.928	94.69
415.151	92.69
415.374	84.69
415.597	93.69
415.821	92.69
416.044	77.69
416.267	93.69
416.49	85.69
416.713	86.69
416.936	78.69
417.159	84.69
417.382	82.69
417.605	85.69
417.828	80.69
418.051	84.69
418.274	80.69
418.497	102.69
418.72	93.69
418.943	88.69
419.166	97.69
419.389	86.69
419.611	94.69
419.834	80.69
420.057	82.69
420.28	91.69
420.503	93.69
420.726	87.69
420.948	96.69
421.171	87.69
421.394	86.69
421.617	92.69
421.839	91.69
422.062	91.69
422.285	103.69
422.507	85.69
422.73	88.69
422.953	98.69
423.175	80.69
423.398	89.69
423.621	90.69
423.843	85.69
424.066	70.69
424.288	90.69
424.511	90.69
424.733	92.69
424.956	94.69
425.178	99.69
425.401	94.69
425.623	96.69
425.846	90.69
426.068	86.69
426.291	82.69
426.513	95.69
426.735	74.69
426.958	94.69
427.18	89.69
427.402	113.69
427.625	134.69
427.847	126.69
428.069	120.69
428.292	93.69
428.514	81.69
428.736	89.69
428.958	86.69
429.181	96.69
429.403	82.69
429.625	89.69
429.847	96.69
430.069	92.69
430.292	88.69
430.514	85.69
430.736	97.69
430.958	76.69
431.18	89.69
431.402	83.69
431.624	85.69
431.846	81.69
432.068	104.69
432.29	89.69
432.512	73.69
432.734	95.69
432.956	86.69
433.178	84.69
433.4	111.69
433.622	92.69
433.844	92.69
434.066	85.69
434.287	85.69
434.509	82.69
434.731	98.69
434.953	86.69
435.175	87.69
435.397	81.69
435.618	88.69
435.84	92.69
436.062	109.69
436.284	90.69
436.505	104.69
436.727	80.69
436.949	66.69
437.17	94.69
437.392	96.69
437.614	88.69
437.835	90.69
438.057	99.69
438.278	97.69
438.5	107.69
438.721	94.69
438.943	83.69
439.165	81.69
439.386	97.69
439.608	96.69
439.829	86.69
440.05	102.69
440.272	119.69
440.493	109.69
440.715	82.69
440.936	88.69
441.158	109.69
441.379	100.69
441.6	85.69
441.822	87.69
442.043	93.69
442.264	88.69
442.486	78.69
442.707	87.69
442.928	102.69
443.149	124.69
443.371	129.69
443.592	96.69
443.813	102.69
444.034	91.69
444.255	87.69
444.476	81.69
444.698	71.69
444.919	91.69
445.14	117.69
445.361	113.69
445.582	101.69
445.803	121.69
446.024	108.69
446.245	105.69
446.466	105.69
446.687	93.69
446.908	88.69
447.129	82.69
447.35	86.69
447.571	84.69
447.792	92.69
448.013	97.69
448.234	100.69
448.455	100.69
448.675	93.69
448.896	94.69
449.117	101.69
449.338	96.69
449.559	101.69
449.779	126.69
450	91.69
450.221	86.69
450.442	100.69
450.662	76.69
450.883	96.69
451.104	90.69
451.324	99.69
451.545	102.69
451.766	82.69
451.986	99.69
452.207	98.69
452.428	93.69
452.648	99.69
452.869	111.69
453.089	103.69
453.31	97.69
453.53	84.69
453.751	83.69
453.971	89.69
454.192	107.69
454.412	89.69
454.633	88.69
454.853	90.69
455.073	80.69
455.294	96.69
455.514	83.69
455.734	88.69
455.955	95.69
456.175	95.69
456.395	86.69
456.616	78.69
456.836	64.69
457.056	96.69
457.276	87.69
457.497	88.69
457.717	76.69
457.937	95.69
458.157	98.69
458.377	103.69
458.598	76.69
458.818	112.69
459.038	125.69
459.258	105.69
459.478	90.69
459.698	84.69
459.918	84.69
460.138	86.69
460.358	95.69
460.578	99.69
460.798	82.69
461.018	68.69
461.238	79.69
461.458	97.69
461.678	93.69
461.898	89.69
462.118	76.69
462.338	89.69
462.558	89.69
462.777	86.69
462.997	106.69
463.217	89.69
463.437	92.69
463.657	76.69
463.876	95.69
464.096	86.69
464.316	110.69
464.536	101.69
464.755	91.69
464.975	92.69
465.195	142.69
465.414	133.69
465.634	95.69
465.854	88.69
466.073	83.69
466.293	85.69
466.512	77.69
466.732	78.69
466.951	74.69
467.171	93.69
467.391	90.69
467.61	96.69
467.829	102.69
468.049	129.69
468.268	131.69
468.488	88.69
468.707	82.69
468.927	87.69
469.146	81.69
469.365	93.69
469.585	79.69
469.804	88.69
470.023	94.69
470.243	99.69
470.462	95.69
470.681	97.69
470.901	88.69
471.12	93.69
471.339	74.69
471.558	78.69
471.777	78.69
471.997	98.69
472.216	175.69
472.435	282.69
472.654	113.69
472.873	80.69
473.092	88.69
473.311	81.69
473.53	91.69
473.749	86.69
473.968	90.69
474.187	89.69
474.406	80.69
474.625	88.69
474.844	84.69
475.063	79.69
475.282	80.69
475.501	81.69
475.72	88.69
475.939	87.69
476.158	102.69
476.377	95.69
476.596	76.69
476.814	78.69
477.033	89.69
477.252	77.69
477.471	82.69
477.69	101.69
477.908	77.69
478.127	89.69
478.346	88.69
478.564	100.69
478.783	89.69
479.002	86.69
479.22	91.69
479.439	92.69
479.658	99.69
479.876	86.69
480.095	94.69
480.313	108.69
480.532	90.69
480.751	94.69
480.969	178.69
481.188	473.69
481.406	299.69
481.624	112.69
481.843	84.69
482.061	91.69
482.28	84.69
482.498	82.69
482.717	84.69
482.935	90.69
483.153	85.69
483.372	91.69
483.59	88.69
483.808	81.69
484.027	98.69
484.245	74.69
484.463	93.69
484.681	95.69
484.9	100.69
485.118	110.69
485.336	90.69
485.554	82.69
485.772	85.69
485.99	96.69
486.209	100.69
486.427	97.69
486.645	102.69
486.863	97.69
487.081	103.69
487.299	104.69
487.517	85.69
487.735	101.69
487.953	91.69
488.171	86.69
488.389	99.69
488.607	89.69
488.825	83.69
489.043	89.69
489.261	85.69
489.479	92.69
489.696	98.69
489.914	100.69
490.132	88.69
490.35	92.69
490.568	82.69
490.786	81.69
491.003	86.69
491.221	86.69
491.439	95.69
491.657	97.69
491.874	110.69
492.092	83.69
492.31	82.69
492.527	84.69
492.745	101.69
492.963	87.69
493.18	94.69
493.398	88.69
493.615	101.69
493.833	91.69
494.05	90.69
494.268	86.69
494.485	91.69
494.703	89.69
494.92	93.69
495.138	97.69
495.355	88.69
495.573	86.69
495.79	92.69
496.008	104.69
496.225	84.69
496.442	70.69
496.66	76.69
496.877	86.69
497.094	98.69
497.312	89.69
497.529	88.69
497.746	84.69
497.963	97.69
498.181	67.69
498.398	86.69
498.615	112.69
498.832	90.69
499.049	110.69
499.267	95.69
499.484	86.69
499.701	99.69
499.918	95.69
500.135	95.69
500.352	81.69
500.569	88.69
500.786	87.69
501.003	79.69
501.22	97.69
501.437	85.69
501.654	94.69
501.871	95.69
502.088	96.69
502.305	88.69
502.522	71.69
502.739	89.69
502.956	98.69
503.172	102.69
503.389	87.69
503.606	103.69
503.823	114.69
504.04	93.69
504.256	88.69
504.473	96.69
504.69	95.69
504.907	100.69
505.123	80.69
505.34	77.69
505.557	95.69
505.773	84.69
505.99	77.69
506.207	83.69
506.423	98.69
506.64	106.69
506.856	82.69
507.073	84.69
507.289	104.69
507.506	83.69
507.722	96.69
507.939	100.69
508.155	90.69
508.372	84.69
508.588	104.69
508.805	89.69
509.021	100.69
509.238	91.69
509.454	103.69
509.67	80.69
509.887	89.69
510.103	117.69
510.319	177.69
510.536	555.69
510.752	1668.69
510.968	494.69
511.184	144.69
511.401	110.69
511.617	106.69
511.833	105.69
512.049	96.69
512.265	82.69
512.481	96.69
512.698	113.69
512.914	96.69
513.13	94.69
513.346	87.69
513.562	96.69
513.778	79.69
513.994	94.69
514.21	96.69
514.426	96.69
514.642	112.69
514.858	101.69
515.074	108.69
515.29	333.69
515.506	1014.69
515.721	402.69
515.937	117.69
516.153	96.69
516.369	84.69
516.585	92.69
516.801	98.69
517.016	103.69
517.232	79.69
517.448	100.69
517.664	81.69
517.879	93.69
518.095	85.69
518.311	89.69
518.527	88.69
518.742	86.69
518.958	95.69
519.173	91.69
519.389	98.69
519.605	85.69
519.82	89.69
520.036	107.69
520.251	100.69
520.467	105.69
520.682	104.69
520.898	88.69
521.113	105.69
521.329	116.69
521.544	170.69
521.76	413.69
521.975	1686.69
522.19	1025.69
522.406	238.69
522.621	130.69
522.836	96.69
523.052	86.69
523.267	96.69
523.482	90.69
523.698	91.69
523.913	104.69
524.128	93.69
524.343	79.69
524.559	96.69
524.774	76.69
524.989	90.69
525.204	105.69
525.419	95.69
525.634	98.69
525.849	90.69
526.064	88.69
526.28	91.69
526.495	91.69
526.71	96.69
526.925	82.69
527.14	94.69
527.355	85.69
527.57	70.69
527.785	83.69
527.999	90.69
528.214	97.69
528.429	78.69
528.644	84.69
528.859	96.69
529.074	91.69
529.289	121.69
529.503	143.69
529.718	100.69
529.933	85.69
530.148	79.69
530.363	86.69
530.577	81.69
530.792	82.69
531.007	101.69
531.221	89.69
531.436	89.69
531.651	96.69
531.865	92.69
532.08	74.69
532.295	93.69
532.509	89.69
532.724	95.69
532.938	91.69
533.153	96.69
533.367	94.69
533.582	100.69
533.796	85.69
534.011	89.69
534.225	85.69
534.44	92.69
534.654	90.69
534.868	80.69
535.083	98.69
535.297	98.69
535.511	100.69
535.726	97.69
535.94	100.69
536.154	101.69
536.369	83.69
536.583	98.69
536.797	90.69
537.011	82.69
537.225	88.69
537.44	81.69
537.654	91.69
537.868	104.69
538.082	86.69
538.296	97.69
538.51	94.69
538.724	81.69
538.938	87.69
539.153	85.69
539.367	98.69
539.581	94.69
539.795	81.69
540.009	74.69
540.222	79.69
540.436	85.69
540.65	95.69
540.864	97.69
541.078	109.69
541.292	97.69
541.506	97.69
541.72	96.69
541.934	85.69
542.147	95.69
542.361	92.69
542.575	92.69
542.789	93.69
543.002	83.69
543.216	87.69
543.43	89.69
543.644	105.69
543.857	72.69
544.071	93.69
544.285	94.69
544.498	89.69
544.712	82.69
544.925	96.69
545.139	92.69
545.352	89.69
545.566	87.69
545.779	61.69
545.993	89.69
546.206	95.69
546.42	88.69
546.633	92.69
546.847	98.69
547.06	85.69
547.274	103.69
547.487	98.69
547.7	84.69
547.914	96.69
548.127	88.69
548.34	98.69
548.554	85.69
548.767	82.69
548.98	83.69
549.193	95.69
549.407	91.69
549.62	100.69
549.833	80.69
550.046	86.69
550.259	98.69
550.473	87.69
550.686	99.69
550.899	96.69
551.112	105.69
551.325	93.69
551.538	88.69
551.751	91.69
551.964	96.69
552.177	101.69
552.39	88.69
552.603	88.69
552.816	80.69
553.029	84.69
553.242	94.69
553.455	95.69
553.667	104.69
553.88	95.69
554.093	93.69
554.306	82.69
554.519	89.69
554.732	89.69
554.944	96.69
555.157	88.69
555.37	85.69
555.583	94.69
555.795	100.69
556.008	77.69
556.221	104.69
556.433	97.69
556.646	88.69
556.859	100.69
557.071	92.69
557.284	95.69
557.496	79.69
557.709	87.69
557.921	83.69
558.134	80.69
558.346	94.69
558.559	86.69
558.771	81.69
558.984	94.69
559.196	85.69
559.409	85.69
559.621	82.69
559.833	75.69
560.046	80.69
560.258	84.69
560.47	98.69
560.683	79.69
560.895	91.69
561.107	90.69
561.32	80.69
561.532	97.69
561.744	90.69
561.956	88.69
562.168	85.69
562.381	102.69
562.593	85.69
562.805	92.69
563.017	92.69
563.229	90.69
563.441	89.69
563.653	84.69
563.865	89.69
564.077	82.69
564.289	95.69
564.501	80.69
564.713	93.69
564.925	99.69
565.137	96.69
565.349	97.69
565.561	95.69
565.773	86.69
565.985	92.69
566.197	80.69
566.408	78.69
566.62	106.69
566.832	94.69
567.044	86.69
567.255	98.69
567.467	88.69
567.679	94.69
567.891	71.69
568.102	88.69
568.314	82.69
568.526	94.69
568.737	104.69
568.949	90.69
569.161	83.69
569.372	86.69
569.584	93.69
569.795	82.69
570.007	108.69
570.218	203.69
570.43	111.69
570.641	79.69
570.853	79.69
571.064	92.69
571.276	102.69
571.487	98.69
571.698	88.69
571.91	92.69
572.121	86.69
572.333	76.69
572.544	84.69
572.755	92.69
572.966	93.69
573.178	97.69
573.389	81.69
573.6	83.69
573.811	97.69
574.023	88.69
574.234	82.69
574.445	78.69
574.656	81.69
574.867	92.69
575.078	76.69
575.289	88.69
575.501	86.69
575.712	85.69
575.923	89.69
576.134	91.69
576.345	92.69
576.556	100.69
576.767	96.69
576.978	72.69
577.188	84.69
577.399	85.69
577.61	85.69
577.821	105.69
578.032	113.69
578.243	216.69
578.454	558.69
578.665	170.69
578.875	90.69
579.086	101.69
579.297	81.69
579.508	80.69
579.718	91.69
579.929	84.69
580.14	80.69
580.35	86.69
580.561	96.69
580.772	84.69
580.982	89.69
581.193	93.69
581.403	97.69
581.614	93.69
581.825	89.69
582.035	86.69
582.246	85.69
582.456	89.69
582.667	95.69
582.877	95.69
583.087	93.69
583.298	94.69
583.508	92.69
583.719	82.69
583.929	82.69
584.139	87.69
584.35	92.69
584.56	97.69
584.77	93.69
584.981	77.69
585.191	91.69
585.401	82.69
585.611	92.69
585.821	93.69
586.032	89.69
586.242	83.69
586.452	98.69
586.662	96.69
586.872	86.69
587.082	88.69
587.292	86.69
587.502	83.69
587.713	68.69
587.923	98.69
588.133	90.69
588.343	79.69
588.553	99.69
588.762	98.69
588.972	91.69
589.182	89.69
589.392	95.69
589.602	87.69
589.812	92.69
590.022	90.69
590.232	78.69
590.441	83.69
590.651	82.69
590.861	81.69
591.071	104.69
591.281	100.69
591.49	89.69
591.7	83.69
591.91	87.69
592.119	85.69
592.329	93.69
592.539	86.69
592.748	80.69
592.958	94.69
593.167	96.69
593.377	93.69
593.587	97.69
593.796	101.69
594.006	88.69
594.215	76.69
594.424	83.69
594.634	80.69
594.843	84.69
595.053	78.69
595.262	88.69
595.472	94.69
595.681	101.69
595.89	91.69
596.1	91.69
596.309	83.69
596.518	98.69
596.727	82.69
596.937	83.69
597.146	76.69
597.355	89.69
597.564	83.69
597.774	67.69
597.983	86.69
598.192	95.69
598.401	89.69
598.61	74.69
598.819	72.69
599.028	81.69
599.237	92.69
599.446	90.69
599.655	92.69
599.864	87.69
600.073	91.69
600.282	82.69
600.491	100.69
600.7	102.69
600.909	94.69
601.118	87.69
601.327	95.69
601.536	72.69
601.745	89.69
601.953	90.69
602.162	94.69
602.371	97.69
602.58	95.69
602.789	93.69
602.997	83.69
603.206	87.69
603.415	92.69
603.623	90.69
603.832	93.69
604.041	88.69
604.249	85.69
604.458	80.69
604.666	82.69
604.875	92.69
605.084	96.69
605.292	77.69
605.501	82.69
605.709	88.69
605.918	92.69
606.126	91.69
606.334	82.69
606.543	82.69
606.751	98.69
606.96	85.69
607.168	90.69
607.376	85.69
607.585	85.69
607.793	77.69
608.001	96.69
608.21	100.69
608.418	95.69
608.626	88.69
608.834	81.69
609.043	74.69
609.251	80.69
609.459	98.69
609.667	87.69
609.875	104.69
610.083	102.69
610.291	86.69
610.499	98.69
610.707	94.69
610.916	80.69
611.124	103.69
611.332	89.69
611.54	71.69
611.748	87.69
611.955	95.69
612.163	88.69
612.371	72.69
612.579	82.69
612.787	89.69
612.995	89.69
613.203	90.69
613.411	92.69
613.618	77.69
613.826	100.69
614.034	93.69
614.242	86.69
614.449	85.69
614.657	80.69
614.865	91.69
615.072	80.69
615.28	76.69
615.488	81.69
615.695	110.69
615.903	108.69
616.111	106.69
616.318	104.69
616.526	84.69
616.733	106.69
616.941	90.69
617.148	93.69
617.356	94.69
617.563	92.69
617.771	92.69
617.978	73.69
618.185	92.69
618.393	96.69
618.6	94.69
618.807	82.69
619.015	95.69
619.222	77.69
619.429	90.69
619.637	79.69
619.844	93.69
620.051	84.69
620.258	81.69
620.466	84.69
620.673	91.69
620.88	86.69
621.087	95.69
621.294	92.69
621.501	95.69
621.708	84.69
621.915	88.69
622.122	76.69
622.329	83.69
622.536	95.69
622.743	88.69
622.95	69.69
623.157	82.69
623.364	80.69
623.571	86.69
623.778	81.69
623.985	90.69
624.192	90.69
624.399	88.69
624.606	105.69
624.812	106.69
625.019	89.69
625.226	90.69
625.433	86.69
625.639	71.69
625.846	93.69
626.053	76.69
626.259	94.69
626.466	82.69
626.673	98.69
626.879	86.69
627.086	105.69
627.293	83.69
627.499	89.69
627.706	94.69
627.912	80.69
628.119	97.69
628.325	93.69
628.532	86.69
628.738	85.69
628.945	98.69
629.151	87.69
629.357	73.69
629.564	99.69
629.77	94.69
629.976	76.69
630.183	88.69
630.389	90.69
630.595	84.69
630.802	78.69
631.008	80.69
631.214	87.69
631.42	88.69
631.627	91.69
631.833	74.69
632.039	74.69
632.245	74.69
632.451	93.69
632.657	89.69
632.863	78.69
633.069	93.69
633.275	82.69
633.481	82.69
633.688	82.69
633.893	86.69
634.099	72.69
634.305	89.69
634.511	98.69
634.717	93.69
634.923	78.69
635.129	80.69
635.335	76.69
635.541	74.69
635.747	83.69
635.952	86.69
636.158	82.69
636.364	130.69
636.57	94.69
636.775	84.69
636.981	77.69
637.187	96.69
637.392	91.69
637.598	101.69
637.804	78.69
638.009	84.69
638.215	97.69
638.421	87.69
638.626	85.69
638.832	84.69
639.037	88.69
639.243	78.69
639.448	78.69
639.654	104.69
639.859	94.69
640.065	84.69
640.27	82.69
640.475	80.69
640.681	90.69
640.886	97.69
641.091	82.69
641.297	99.69
641.502	88.69
641.707	86.69
641.913	87.69
642.118	92.69
642.323	98.69
642.528	79.69
642.733	84.69
642.939	98.69
643.144	95.69
643.349	77.69
643.554	83.69
643.759	98.69
643.964	94.69
644.169	89.69
644.374	82.69
644.579	99.69
644.784	84.69
644.989	104.69
645.194	93.69
645.399	98.69
645.604	81.69
645.809	91.69
646.014	89.69
646.219	84.69
646.423	84.69
646.628	81.69
646.833	83.69
647.038	90.69
647.243	89.69
647.447	79.69
647.652	99.69
647.857	86.69
648.062	76.69
648.266	84.69
648.471	89.69
648.676	91.69
648.88	108.69
649.085	94.69
649.289	80.69
649.494	96.69
649.698	126.69
649.903	103.69
650.107	86.69
650.312	105.69
650.516	78.69
650.721	88.69
650.925	70.69
651.13	97.69
651.334	84.69
651.539	90.69
651.743	83.69
651.947	79.69
652.152	78.69
652.356	72.69
652.56	85.69
652.764	80.69
652.969	86.69
653.173	74.69
653.377	81.69
653.581	90.69
653.785	85.69
653.99	85.69
654.194	88.69
654.398	93.69
654.602	90.69
654.806	96.69
655.01	115.69
655.214	88.69
655.418	87.69
655.622	81.69
655.826	80.69
656.03	88.69
656.234	95.69
656.438	101.69
656.642	94.69
656.846	88.69
657.049	93.69
657.253	105.69
657.457	90.69
657.661	83.69
657.865	86.69
658.068	72.69
658.272	73.69
658.476	81.69
658.68	92.69
658.883	80.69
659.087	82.69
659.291	85.69
659.494	92.69
659.698	82.69
659.901	91.69
660.105	94.69
660.309	79.69
660.512	84.69
660.716	96.69
660.919	83.69
661.123	76.69
661.326	73.69
661.53	80.69
661.733	89.69
661.936	84.69
662.14	86.69
662.343	100.69
662.546	77.69
662.75	93.69
662.953	78.69
663.156	83.69
663.36	71.69
663.563	90.69
663.766	84.69
663.969	85.69
664.173	84.69
664.376	74.69
664.579	78.69
664.782	84.69
664.985	86.69
665.188	94.69
665.391	84.69
665.594	88.69
665.797	90.69
666	82.69
666.203	69.69
666.406	93.69
666.609	78.69
666.812	85.69
667.015	85.69
667.218	78.69
667.421	81.69
667.624	84.69
667.827	88.69
668.03	79.69
668.232	69.69
668.435	82.69
668.638	87.69
668.841	78.69
669.043	83.69
669.246	68.69
669.449	86.69
669.651	72.69
669.854	72.69
670.057	90.69
670.259	80.69
670.462	93.69
670.665	70.69
670.867	95.69
671.07	75.69
671.272	73.69
671.475	92.69
671.677	95.69
671.88	79.69
672.082	77.69
672.284	88.69
672.487	92.69
672.689	85.69
672.892	82.69
