Data from Cut_Leaves_50_3_HRD10591_00020.txt Node
Date: Wed Dec 03 14:21:39 EST 2025
User: Yrep
Spectrometer: HR+D1059
Trigger mode: 1
Integration Time (sec): 1.000000E-1
Scans to average: 1
Electric dark correction enabled: true
Nonlinearity correction enabled: false
Boxcar width: 0
XAxis mode: Wavelengths
Number of Pixels in Spectrum: 2048
>>>>>Begin Spectral Data<<<<<
223.165	-8.44
223.4	-8.44
223.635	-8.44
223.869	-7.44
224.104	-28.44
224.338	-25.44
224.573	-20.44
224.808	-12.44
225.042	-2.44
225.277	-2.44
225.511	7.56
225.746	6.56
225.98	9.56
226.215	11.56
226.449	15.56
226.683	10.56
226.918	24.56
227.152	21.56
227.387	27.56
227.621	57.56
227.856	37.56
228.09	50.56
228.324	50.56
228.559	60.56
228.793	55.56
229.027	67.56
229.262	67.56
229.496	53.56
229.73	64.56
229.964	74.56
230.199	68.56
230.433	87.56
230.667	80.56
230.901	77.56
231.136	77.56
231.37	85.56
231.604	82.56
231.838	61.56
232.072	81.56
232.306	91.56
232.541	95.56
232.775	80.56
233.009	81.56
233.243	83.56
233.477	72.56
233.711	78.56
233.945	81.56
234.179	63.56
234.413	85.56
234.647	83.56
234.881	82.56
235.115	74.56
235.349	71.56
235.583	64.56
235.817	81.56
236.051	90.56
236.285	74.56
236.519	80.56
236.753	69.56
236.987	80.56
237.221	69.56
237.455	80.56
237.689	74.56
237.922	79.56
238.156	63.56
238.39	71.56
238.624	74.56
238.858	89.56
239.091	77.56
239.325	80.56
239.559	70.56
239.793	69.56
240.027	79.56
240.26	78.56
240.494	89.56
240.728	78.56
240.961	77.56
241.195	75.56
241.429	78.56
241.662	70.56
241.896	79.56
242.13	79.56
242.363	77.56
242.597	59.56
242.83	78.56
243.064	69.56
243.298	61.56
243.531	75.56
243.765	88.56
243.998	91.56
244.232	76.56
244.465	75.56
244.699	81.56
244.932	80.56
245.166	85.56
245.399	75.56
245.633	77.56
245.866	81.56
246.099	80.56
246.333	72.56
246.566	82.56
246.8	83.56
247.033	77.56
247.266	75.56
247.5	63.56
247.733	72.56
247.966	79.56
248.2	78.56
248.433	66.56
248.666	72.56
248.899	80.56
249.133	77.56
249.366	73.56
249.599	89.56
249.832	78.56
250.066	97.56
250.299	78.56
250.532	69.56
250.765	91.56
250.998	96.56
251.231	86.56
251.465	64.56
251.698	73.56
251.931	77.56
252.164	71.56
252.397	76.56
252.63	79.56
252.863	80.56
253.096	65.56
253.329	87.56
253.562	81.56
253.795	83.56
254.028	82.56
254.261	81.56
254.494	78.56
254.727	83.56
254.96	71.56
255.193	68.56
255.426	79.56
255.659	93.56
255.892	69.56
256.124	81.56
256.357	81.56
256.59	88.56
256.823	69.56
257.056	80.56
257.289	83.56
257.521	78.56
257.754	89.56
257.987	85.56
258.22	87.56
258.452	67.56
258.685	71.56
258.918	80.56
259.151	78.56
259.383	79.56
259.616	77.56
259.849	67.56
260.081	92.56
260.314	76.56
260.547	87.56
260.779	79.56
261.012	69.56
261.244	91.56
261.477	87.56
261.71	91.56
261.942	80.56
262.175	87.56
262.407	83.56
262.64	78.56
262.872	68.56
263.105	65.56
263.337	76.56
263.57	79.56
263.802	81.56
264.035	77.56
264.267	87.56
264.499	85.56
264.732	91.56
264.964	81.56
265.197	78.56
265.429	94.56
265.661	95.56
265.894	92.56
266.126	80.56
266.358	77.56
266.591	73.56
266.823	89.56
267.055	75.56
267.287	74.56
267.52	91.56
267.752	80.56
267.984	87.56
268.216	82.56
268.448	83.56
268.681	90.56
268.913	88.56
269.145	84.56
269.377	90.56
269.609	84.56
269.841	83.56
270.073	87.56
270.306	90.56
270.538	90.56
270.77	76.56
271.002	74.56
271.234	76.56
271.466	81.56
271.698	87.56
271.93	85.56
272.162	90.56
272.394	79.56
272.626	77.56
272.858	77.56
273.09	92.56
273.322	98.56
273.553	77.56
273.785	73.56
274.017	83.56
274.249	78.56
274.481	92.56
274.713	79.56
274.945	90.56
275.176	89.56
275.408	84.56
275.64	87.56
275.872	73.56
276.104	87.56
276.335	82.56
276.567	81.56
276.799	89.56
277.031	63.56
277.262	85.56
277.494	92.56
277.726	70.56
277.957	82.56
278.189	69.56
278.421	84.56
278.652	79.56
278.884	88.56
279.115	93.56
279.347	63.56
279.579	87.56
279.81	85.56
280.042	63.56
280.273	76.56
280.505	83.56
280.736	91.56
280.968	75.56
281.199	84.56
281.431	80.56
281.662	81.56
281.894	79.56
282.125	82.56
282.356	96.56
282.588	80.56
282.819	87.56
283.051	84.56
283.282	93.56
283.513	73.56
283.745	76.56
283.976	74.56
284.207	97.56
284.439	95.56
284.67	100.56
284.901	79.56
285.132	72.56
285.364	76.56
285.595	68.56
285.826	71.56
286.057	87.56
286.288	80.56
286.52	84.56
286.751	78.56
286.982	79.56
287.213	80.56
287.444	74.56
287.675	83.56
287.906	94.56
288.138	91.56
288.369	76.56
288.6	93.56
288.831	93.56
289.062	85.56
289.293	73.56
289.524	93.56
289.755	84.56
289.986	91.56
290.217	92.56
290.448	91.56
290.679	95.56
290.91	77.56
291.141	86.56
291.371	87.56
291.602	84.56
291.833	73.56
292.064	87.56
292.295	88.56
292.526	77.56
292.757	85.56
292.987	71.56
293.218	83.56
293.449	87.56
293.68	81.56
293.91	91.56
294.141	75.56
294.372	87.56
294.603	78.56
294.833	85.56
295.064	77.56
295.295	96.56
295.525	84.56
295.756	88.56
295.987	79.56
296.217	91.56
296.448	92.56
296.679	75.56
296.909	99.56
297.14	77.56
297.37	95.56
297.601	79.56
297.831	80.56
298.062	68.56
298.292	81.56
298.523	90.56
298.753	91.56
298.984	75.56
299.214	102.56
299.445	95.56
299.675	82.56
299.905	89.56
300.136	80.56
300.366	83.56
300.597	76.56
300.827	91.56
301.057	98.56
301.288	94.56
301.518	76.56
301.748	80.56
301.979	97.56
302.209	69.56
302.439	106.56
302.669	76.56
302.9	88.56
303.13	93.56
303.36	71.56
303.59	86.56
303.82	77.56
304.051	87.56
304.281	91.56
304.511	84.56
304.741	79.56
304.971	85.56
305.201	74.56
305.431	67.56
305.661	74.56
305.891	88.56
306.121	75.56
306.352	82.56
306.582	92.56
306.812	93.56
307.042	82.56
307.272	79.56
307.502	74.56
307.731	82.56
307.961	94.56
308.191	100.56
308.421	85.56
308.651	88.56
308.881	82.56
309.111	89.56
309.341	70.56
309.571	91.56
309.8	78.56
310.03	98.56
310.26	92.56
310.49	87.56
310.72	82.56
310.949	83.56
311.179	85.56
311.409	88.56
311.639	82.56
311.868	89.56
312.098	82.56
312.328	79.56
312.557	88.56
312.787	95.56
313.017	89.56
313.246	85.56
313.476	88.56
313.706	76.56
313.935	100.56
314.165	93.56
314.394	91.56
314.624	64.56
314.853	91.56
315.083	78.56
315.312	87.56
315.542	69.56
315.771	80.56
316.001	76.56
316.23	75.56
316.46	77.56
316.689	85.56
316.919	112.56
317.148	84.56
317.377	90.56
317.607	77.56
317.836	91.56
318.065	91.56
318.295	88.56
318.524	85.56
318.753	93.56
318.983	87.56
319.212	74.56
319.441	71.56
319.67	96.56
319.9	89.56
320.129	75.56
320.358	81.56
320.587	84.56
320.816	69.56
321.046	74.56
321.275	94.56
321.504	69.56
321.733	84.56
321.962	69.56
322.191	77.56
322.42	69.56
322.649	99.56
322.878	93.56
323.108	80.56
323.337	75.56
323.566	72.56
323.795	80.56
324.024	94.56
324.253	87.56
324.482	87.56
324.71	81.56
324.939	91.56
325.168	91.56
325.397	90.56
325.626	80.56
325.855	95.56
326.084	81.56
326.313	84.56
326.542	79.56
326.77	84.56
326.999	81.56
327.228	76.56
327.457	87.56
327.686	89.56
327.914	78.56
328.143	94.56
328.372	89.56
328.6	84.56
328.829	83.56
329.058	89.56
329.287	90.56
329.515	87.56
329.744	75.56
329.972	85.56
330.201	81.56
330.43	95.56
330.658	83.56
330.887	99.56
331.115	75.56
331.344	81.56
331.572	74.56
331.801	85.56
332.03	96.56
332.258	87.56
332.486	83.56
332.715	82.56
332.943	76.56
333.172	79.56
333.4	83.56
333.629	99.56
333.857	81.56
334.085	96.56
334.314	92.56
334.542	82.56
334.771	79.56
334.999	87.56
335.227	84.56
335.455	75.56
335.684	75.56
335.912	84.56
336.14	84.56
336.369	91.56
336.597	90.56
336.825	85.56
337.053	69.56
337.281	81.56
337.51	92.56
337.738	102.56
337.966	87.56
338.194	67.56
338.422	79.56
338.65	99.56
338.878	91.56
339.106	91.56
339.334	95.56
339.562	99.56
339.79	78.56
340.018	89.56
340.246	77.56
340.474	79.56
340.702	79.56
340.93	72.56
341.158	88.56
341.386	82.56
341.614	83.56
341.842	85.56
342.07	89.56
342.298	81.56
342.526	80.56
342.754	88.56
342.981	79.56
343.209	89.56
343.437	83.56
343.665	84.56
343.893	72.56
344.12	66.56
344.348	89.56
344.576	83.56
344.804	99.56
345.031	81.56
345.259	87.56
345.487	91.56
345.714	84.56
345.942	88.56
346.17	79.56
346.397	76.56
346.625	95.56
346.853	77.56
347.08	77.56
347.308	89.56
347.535	93.56
347.763	73.56
347.99	75.56
348.218	80.56
348.445	75.56
348.673	87.56
348.9	79.56
349.128	89.56
349.355	91.56
349.583	76.56
349.81	81.56
350.037	99.56
350.265	82.56
350.492	85.56
350.72	93.56
350.947	82.56
351.174	98.56
351.402	93.56
351.629	102.56
351.856	68.56
352.083	64.56
352.311	77.56
352.538	89.56
352.765	89.56
352.992	84.56
353.22	82.56
353.447	82.56
353.674	76.56
353.901	70.56
354.128	90.56
354.355	65.56
354.583	80.56
354.81	67.56
355.037	95.56
355.264	73.56
355.491	89.56
355.718	81.56
355.945	91.56
356.172	79.56
356.399	79.56
356.626	67.56
356.853	90.56
357.08	95.56
357.307	87.56
357.534	85.56
357.761	87.56
357.988	84.56
358.215	89.56
358.441	79.56
358.668	97.56
358.895	76.56
359.122	97.56
359.349	80.56
359.576	74.56
359.802	83.56
360.029	94.56
360.256	68.56
360.483	78.56
360.709	84.56
360.936	95.56
361.163	95.56
361.39	90.56
361.616	88.56
361.843	82.56
362.07	81.56
362.296	85.56
362.523	76.56
362.749	97.56
362.976	73.56
363.203	83.56
363.429	72.56
363.656	87.56
363.882	85.56
364.109	82.56
364.335	76.56
364.562	89.56
364.788	78.56
365.015	87.56
365.241	95.56
365.468	78.56
365.694	97.56
365.92	70.56
366.147	73.56
366.373	66.56
366.599	89.56
366.826	84.56
367.052	93.56
367.278	91.56
367.505	79.56
367.731	80.56
367.957	80.56
368.184	95.56
368.41	75.56
368.636	83.56
368.862	99.56
369.089	75.56
369.315	75.56
369.541	80.56
369.767	78.56
369.993	79.56
370.219	71.56
370.445	94.56
370.672	107.56
370.898	92.56
371.124	80.56
371.35	73.56
371.576	83.56
371.802	77.56
372.028	87.56
372.254	84.56
372.48	83.56
372.706	81.56
372.932	74.56
373.158	88.56
373.384	88.56
373.61	89.56
373.835	95.56
374.061	83.56
374.287	82.56
374.513	82.56
374.739	94.56
374.965	100.56
375.191	80.56
375.416	79.56
375.642	90.56
375.868	90.56
376.094	76.56
376.319	79.56
376.545	76.56
376.771	87.56
376.997	92.56
377.222	98.56
377.448	87.56
377.674	81.56
377.899	79.56
378.125	83.56
378.35	91.56
378.576	88.56
378.802	88.56
379.027	86.56
379.253	90.56
379.478	84.56
379.704	66.56
379.929	77.56
380.155	82.56
380.38	87.56
380.606	75.56
380.831	76.56
381.057	78.56
381.282	73.56
381.507	82.56
381.733	76.56
381.958	71.56
382.184	81.56
382.409	91.56
382.634	93.56
382.86	93.56
383.085	71.56
383.31	92.56
383.535	85.56
383.761	79.56
383.986	68.56
384.211	69.56
384.436	84.56
384.662	74.56
384.887	92.56
385.112	94.56
385.337	73.56
385.562	69.56
385.787	77.56
386.013	84.56
386.238	82.56
386.463	96.56
386.688	93.56
386.913	82.56
387.138	85.56
387.363	85.56
387.588	68.56
387.813	77.56
388.038	75.56
388.263	93.56
388.488	99.56
388.713	72.56
388.938	85.56
389.163	80.56
389.387	84.56
389.612	84.56
389.837	73.56
390.062	83.56
390.287	78.56
390.512	79.56
390.736	73.56
390.961	75.56
391.186	93.56
391.411	87.56
391.636	73.56
391.86	68.56
392.085	59.56
392.31	72.56
392.534	85.56
392.759	97.56
392.984	83.56
393.208	87.56
393.433	94.56
393.658	99.56
393.882	81.56
394.107	78.56
394.331	77.56
394.556	68.56
394.78	90.56
395.005	77.56
395.229	74.56
395.454	69.56
395.678	75.56
395.903	99.56
396.127	90.56
396.352	78.56
396.576	84.56
396.801	100.56
397.025	83.56
397.249	75.56
397.474	104.56
397.698	78.56
397.922	79.56
398.147	89.56
398.371	57.56
398.595	72.56
398.82	84.56
399.044	78.56
399.268	63.56
399.492	77.56
399.717	79.56
399.941	66.56
400.165	94.56
400.389	82.56
400.613	101.56
400.837	83.56
401.062	84.56
401.286	92.56
401.51	89.56
401.734	84.56
401.958	83.56
402.182	88.56
402.406	77.56
402.63	72.56
402.854	96.56
403.078	100.56
403.302	81.56
403.526	75.56
403.75	95.56
403.974	75.56
404.198	69.56
404.422	93.56
404.645	81.56
404.869	77.56
405.093	84.56
405.317	72.56
405.541	81.56
405.765	85.56
405.988	78.56
406.212	85.56
406.436	88.56
406.66	73.56
406.883	92.56
407.107	81.56
407.331	73.56
407.555	95.56
407.778	73.56
408.002	78.56
408.226	69.56
408.449	88.56
408.673	78.56
408.896	82.56
409.12	68.56
409.344	84.56
409.567	92.56
409.791	70.56
410.014	75.56
410.238	85.56
410.461	81.56
410.685	72.56
410.908	78.56
411.132	75.56
411.355	87.56
411.578	88.56
411.802	85.56
412.025	97.56
412.249	85.56
412.472	72.56
412.695	68.56
412.919	82.56
413.142	81.56
413.365	71.56
413.589	88.56
413.812	79.56
414.035	91.56
414.258	80.56
414.482	83.56
414.705	77.56
414.928	96.56
415.151	78.56
415.374	63.56
415.597	79.56
415.821	70.56
416.044	79.56
416.267	89.56
416.49	94.56
416.713	93.56
416.936	80.56
417.159	87.56
417.382	87.56
417.605	73.56
417.828	90.56
418.051	80.56
418.274	86.56
418.497	75.56
418.72	89.56
418.943	79.56
419.166	76.56
419.389	82.56
419.611	92.56
419.834	99.56
420.057	77.56
420.28	81.56
420.503	91.56
420.726	85.56
420.948	79.56
421.171	68.56
421.394	100.56
421.617	75.56
421.839	73.56
422.062	83.56
422.285	75.56
422.507	80.56
422.73	96.56
422.953	80.56
423.175	85.56
423.398	82.56
423.621	83.56
423.843	81.56
424.066	82.56
424.288	77.56
424.511	67.56
424.733	89.56
424.956	74.56
425.178	65.56
425.401	73.56
425.623	73.56
425.846	58.56
426.068	71.56
426.291	100.56
426.513	79.56
426.735	89.56
426.958	85.56
427.18	85.56
427.402	78.56
427.625	75.56
427.847	80.56
428.069	95.56
428.292	79.56
428.514	84.56
428.736	93.56
428.958	70.56
429.181	81.56
429.403	88.56
429.625	89.56
429.847	69.56
430.069	87.56
430.292	100.56
430.514	85.56
430.736	80.56
430.958	78.56
431.18	83.56
431.402	80.56
431.624	80.56
431.846	82.56
432.068	77.56
432.29	84.56
432.512	76.56
432.734	83.56
432.956	91.56
433.178	83.56
433.4	79.56
433.622	78.56
433.844	79.56
434.066	89.56
434.287	76.56
434.509	70.56
434.731	77.56
434.953	73.56
435.175	76.56
435.397	80.56
435.618	77.56
435.84	89.56
436.062	98.56
436.284	81.56
436.505	77.56
436.727	91.56
436.949	81.56
437.17	67.56
437.392	80.56
437.614	85.56
437.835	73.56
438.057	73.56
438.278	83.56
438.5	84.56
438.721	78.56
438.943	91.56
439.165	69.56
439.386	90.56
439.608	79.56
439.829	68.56
440.05	75.56
440.272	78.56
440.493	69.56
440.715	87.56
440.936	78.56
441.158	91.56
441.379	88.56
441.6	99.56
441.822	75.56
442.043	75.56
442.264	66.56
442.486	71.56
442.707	80.56
442.928	83.56
443.149	88.56
443.371	84.56
443.592	79.56
443.813	74.56
444.034	78.56
444.255	88.56
444.476	79.56
444.698	88.56
444.919	84.56
445.14	161.56
445.361	110.56
445.582	76.56
445.803	97.56
446.024	75.56
446.245	87.56
446.466	80.56
446.687	82.56
446.908	78.56
447.129	100.56
447.35	79.56
447.571	94.56
447.792	93.56
448.013	80.56
448.234	82.56
448.455	80.56
448.675	89.56
448.896	68.56
449.117	75.56
449.338	83.56
449.559	88.56
449.779	89.56
450	70.56
450.221	94.56
450.442	80.56
450.662	80.56
450.883	99.56
451.104	76.56
451.324	93.56
451.545	82.56
451.766	81.56
451.986	73.56
452.207	74.56
452.428	100.56
452.648	81.56
452.869	93.56
453.089	74.56
453.31	84.56
453.53	87.56
453.751	80.56
453.971	82.56
454.192	93.56
454.412	89.56
454.633	83.56
454.853	84.56
455.073	83.56
455.294	82.56
455.514	92.56
455.734	85.56
455.955	77.56
456.175	73.56
456.395	87.56
456.616	85.56
456.836	83.56
457.056	84.56
457.276	83.56
457.497	68.56
457.717	76.56
457.937	78.56
458.157	68.56
458.377	83.56
458.598	74.56
458.818	80.56
459.038	79.56
459.258	73.56
459.478	80.56
459.698	85.56
459.918	65.56
460.138	75.56
460.358	94.56
460.578	88.56
460.798	90.56
461.018	83.56
461.238	81.56
461.458	92.56
461.678	81.56
461.898	77.56
462.118	85.56
462.338	69.56
462.558	82.56
462.777	81.56
462.997	69.56
463.217	77.56
463.437	90.56
463.657	78.56
463.876	71.56
464.096	82.56
464.316	71.56
464.536	85.56
464.755	80.56
464.975	90.56
465.195	83.56
465.414	75.56
465.634	80.56
465.854	83.56
466.073	78.56
466.293	87.56
466.512	76.56
466.732	81.56
466.951	75.56
467.171	63.56
467.391	88.56
467.61	76.56
467.829	80.56
468.049	93.56
468.268	79.56
468.488	81.56
468.707	74.56
468.927	82.56
469.146	79.56
469.365	81.56
469.585	80.56
469.804	93.56
470.023	78.56
470.243	89.56
470.462	82.56
470.681	90.56
470.901	81.56
471.12	68.56
471.339	77.56
471.558	82.56
471.777	83.56
471.997	79.56
472.216	71.56
472.435	78.56
472.654	73.56
472.873	78.56
473.092	97.56
473.311	62.56
473.53	83.56
473.749	81.56
473.968	71.56
474.187	87.56
474.406	87.56
474.625	85.56
474.844	84.56
475.063	83.56
475.282	71.56
475.501	85.56
475.72	76.56
475.939	90.56
476.158	90.56
476.377	84.56
476.596	87.56
476.814	65.56
477.033	73.56
477.252	84.56
477.471	90.56
477.69	81.56
477.908	75.56
478.127	95.56
478.346	80.56
478.564	68.56
478.783	87.56
479.002	82.56
479.22	80.56
479.439	78.56
479.658	87.56
479.876	80.56
480.095	71.56
480.313	81.56
480.532	83.56
480.751	77.56
480.969	89.56
481.188	79.56
481.406	98.56
481.624	73.56
481.843	79.56
482.061	92.56
482.28	74.56
482.498	75.56
482.717	89.56
482.935	90.56
483.153	73.56
483.372	81.56
483.59	94.56
483.808	95.56
484.027	88.56
484.245	86.56
484.463	81.56
484.681	80.56
484.9	95.56
485.118	86.56
485.336	63.56
485.554	82.56
485.772	98.56
485.99	83.56
486.209	76.56
486.427	77.56
486.645	73.56
486.863	77.56
487.081	81.56
487.299	75.56
487.517	88.56
487.735	96.56
487.953	78.56
488.171	79.56
488.389	92.56
488.607	71.56
488.825	88.56
489.043	80.56
489.261	96.56
489.479	83.56
489.696	93.56
489.914	76.56
490.132	81.56
490.35	89.56
490.568	83.56
490.786	79.56
491.003	66.56
491.221	82.56
491.439	90.56
491.657	82.56
491.874	83.56
492.092	77.56
492.31	87.56
492.527	91.56
492.745	84.56
492.963	90.56
493.18	64.56
493.398	91.56
493.615	88.56
493.833	70.56
494.05	89.56
494.268	95.56
494.485	79.56
494.703	67.56
494.92	76.56
495.138	92.56
495.355	84.56
495.573	88.56
495.79	107.56
496.008	87.56
496.225	98.56
496.442	77.56
496.66	95.56
496.877	84.56
497.094	91.56
497.312	83.56
497.529	96.56
497.746	91.56
497.963	87.56
498.181	77.56
498.398	93.56
498.615	89.56
498.832	84.56
499.049	83.56
499.267	77.56
499.484	73.56
499.701	74.56
499.918	72.56
500.135	82.56
500.352	76.56
500.569	80.56
500.786	94.56
501.003	88.56
501.22	94.56
501.437	82.56
501.654	89.56
501.871	74.56
502.088	81.56
502.305	81.56
502.522	72.56
502.739	92.56
502.956	91.56
503.172	92.56
503.389	72.56
503.606	84.56
503.823	78.56
504.04	94.56
504.256	75.56
504.473	76.56
504.69	82.56
504.907	91.56
505.123	91.56
505.34	84.56
505.557	102.56
505.773	81.56
505.99	83.56
506.207	85.56
506.423	81.56
506.64	84.56
506.856	89.56
507.073	73.56
507.289	87.56
507.506	87.56
507.722	92.56
507.939	87.56
508.155	75.56
508.372	89.56
508.588	73.56
508.805	93.56
509.021	80.56
509.238	75.56
509.454	87.56
509.67	77.56
509.887	79.56
510.103	75.56
510.319	74.56
510.536	88.56
510.752	97.56
510.968	76.56
511.184	87.56
511.401	91.56
511.617	84.56
511.833	78.56
512.049	75.56
512.265	75.56
512.481	67.56
512.698	75.56
512.914	89.56
513.13	87.56
513.346	75.56
513.562	85.56
513.778	92.56
513.994	81.56
514.21	77.56
514.426	99.56
514.642	79.56
514.858	90.56
515.074	82.56
515.29	95.56
515.506	75.56
515.721	72.56
515.937	95.56
516.153	85.56
516.369	77.56
516.585	77.56
516.801	84.56
517.016	83.56
517.232	90.56
517.448	84.56
517.664	78.56
517.879	91.56
518.095	80.56
518.311	83.56
518.527	95.56
518.742	90.56
518.958	79.56
519.173	83.56
519.389	75.56
519.605	83.56
519.82	81.56
520.036	88.56
520.251	83.56
520.467	89.56
520.682	87.56
520.898	83.56
521.113	79.56
521.329	94.56
521.544	71.56
521.76	81.56
521.975	107.56
522.19	91.56
522.406	95.56
522.621	81.56
522.836	74.56
523.052	76.56
523.267	89.56
523.482	81.56
523.698	81.56
523.913	94.56
524.128	77.56
524.343	71.56
524.559	81.56
524.774	68.56
524.989	88.56
525.204	87.56
525.419	83.56
525.634	90.56
525.849	82.56
526.064	89.56
526.28	95.56
526.495	100.56
526.71	91.56
526.925	90.56
527.14	81.56
527.355	79.56
527.57	92.56
527.785	84.56
527.999	79.56
528.214	81.56
528.429	88.56
528.644	75.56
528.859	84.56
529.074	89.56
529.289	79.56
529.503	75.56
529.718	89.56
529.933	81.56
530.148	82.56
530.363	97.56
530.577	77.56
530.792	89.56
531.007	89.56
531.221	85.56
531.436	83.56
531.651	82.56
531.865	67.56
532.08	87.56
532.295	85.56
532.509	71.56
532.724	78.56
532.938	80.56
533.153	74.56
533.367	71.56
533.582	93.56
533.796	79.56
534.011	85.56
534.225	87.56
534.44	91.56
534.654	88.56
534.868	88.56
535.083	82.56
535.297	84.56
535.511	93.56
535.726	68.56
535.94	79.56
536.154	93.56
536.369	80.56
536.583	84.56
536.797	78.56
537.011	84.56
537.225	101.56
537.44	86.56
537.654	81.56
537.868	89.56
538.082	81.56
538.296	81.56
538.51	87.56
538.724	75.56
538.938	77.56
539.153	92.56
539.367	81.56
539.581	85.56
539.795	74.56
540.009	73.56
540.222	80.56
540.436	96.56
540.65	84.56
540.864	80.56
541.078	80.56
541.292	84.56
541.506	113.56
541.72	89.56
541.934	81.56
542.147	83.56
542.361	81.56
542.575	83.56
542.789	96.56
543.002	81.56
543.216	84.56
543.43	73.56
543.644	81.56
543.857	83.56
544.071	89.56
544.285	85.56
544.498	88.56
544.712	93.56
544.925	81.56
545.139	90.56
545.352	84.56
545.566	82.56
545.779	96.56
545.993	100.56
546.206	73.56
546.42	77.56
546.633	93.56
546.847	89.56
547.06	95.56
547.274	83.56
547.487	100.56
547.7	78.56
547.914	65.56
548.127	90.56
548.34	84.56
548.554	83.56
548.767	76.56
548.98	95.56
549.193	81.56
549.407	79.56
549.62	84.56
549.833	78.56
550.046	91.56
550.259	81.56
550.473	82.56
550.686	81.56
550.899	94.56
551.112	76.56
551.325	68.56
551.538	80.56
551.751	84.56
551.964	83.56
552.177	92.56
552.39	83.56
552.603	87.56
552.816	91.56
553.029	94.56
553.242	89.56
553.455	75.56
553.667	75.56
553.88	87.56
554.093	93.56
554.306	93.56
554.519	89.56
554.732	87.56
554.944	92.56
555.157	85.56
555.37	75.56
555.583	77.56
555.795	76.56
556.008	87.56
556.221	78.56
556.433	79.56
556.646	79.56
556.859	83.56
557.071	71.56
557.284	87.56
557.496	86.56
557.709	80.56
557.921	95.56
558.134	82.56
558.346	87.56
558.559	77.56
558.771	93.56
558.984	76.56
559.196	76.56
559.409	91.56
559.621	95.56
559.833	89.56
560.046	91.56
560.258	97.56
560.47	95.56
560.683	87.56
560.895	80.56
561.107	82.56
561.32	85.56
561.532	87.56
561.744	89.56
561.956	89.56
562.168	89.56
562.381	70.56
562.593	83.56
562.805	87.56
563.017	83.56
563.229	81.56
563.441	77.56
563.653	97.56
563.865	95.56
564.077	83.56
564.289	82.56
564.501	83.56
564.713	81.56
564.925	74.56
565.137	67.56
565.349	87.56
565.561	92.56
565.773	87.56
565.985	76.56
566.197	75.56
566.408	87.56
566.62	80.56
566.832	91.56
567.044	80.56
567.255	93.56
567.467	86.56
567.679	83.56
567.891	82.56
568.102	93.56
568.314	91.56
568.526	82.56
568.737	72.56
568.949	97.56
569.161	79.56
569.372	92.56
569.584	77.56
569.795	79.56
570.007	93.56
570.218	88.56
570.43	93.56
570.641	87.56
570.853	79.56
571.064	90.56
571.276	75.56
571.487	77.56
571.698	83.56
571.91	90.56
572.121	81.56
572.333	82.56
572.544	76.56
572.755	75.56
572.966	83.56
573.178	73.56
573.389	75.56
573.6	76.56
573.811	91.56
574.023	87.56
574.234	91.56
574.445	81.56
574.656	84.56
574.867	89.56
575.078	77.56
575.289	74.56
575.501	83.56
575.712	88.56
575.923	83.56
576.134	85.56
576.345	79.56
576.556	73.56
576.767	82.56
576.978	85.56
577.188	82.56
577.399	87.56
577.61	69.56
577.821	77.56
578.032	92.56
578.243	82.56
578.454	99.56
578.665	68.56
578.875	91.56
579.086	90.56
579.297	83.56
579.508	85.56
579.718	93.56
579.929	91.56
580.14	101.56
580.35	93.56
580.561	77.56
580.772	87.56
580.982	77.56
581.193	84.56
581.403	93.56
581.614	71.56
581.825	83.56
582.035	82.56
582.246	94.56
582.456	77.56
582.667	91.56
582.877	92.56
583.087	97.56
583.298	88.56
583.508	79.56
583.719	69.56
583.929	78.56
584.139	81.56
584.35	76.56
584.56	73.56
584.77	92.56
584.981	99.56
585.191	98.56
585.401	87.56
585.611	84.56
585.821	71.56
586.032	82.56
586.242	91.56
586.452	80.56
586.662	92.56
586.872	92.56
587.082	85.56
587.292	83.56
587.502	92.56
587.713	89.56
587.923	95.56
588.133	89.56
588.343	76.56
588.553	91.56
588.762	94.56
588.972	87.56
589.182	120.56
589.392	113.56
589.602	101.56
589.812	121.56
590.022	95.56
590.232	91.56
590.441	84.56
590.651	81.56
590.861	90.56
591.071	90.56
591.281	90.56
591.49	88.56
591.7	75.56
591.91	89.56
592.119	75.56
592.329	93.56
592.539	76.56
592.748	75.56
592.958	74.56
593.167	78.56
593.377	80.56
593.587	92.56
593.796	73.56
594.006	76.56
594.215	82.56
594.424	101.56
594.634	72.56
594.843	85.56
595.053	97.56
595.262	72.56
595.472	79.56
595.681	87.56
595.89	96.56
596.1	85.56
596.309	95.56
596.518	92.56
596.727	95.56
596.937	96.56
597.146	77.56
597.355	96.56
597.564	87.56
597.774	89.56
597.983	83.56
598.192	80.56
598.401	82.56
598.61	96.56
598.819	89.56
599.028	89.56
599.237	89.56
599.446	73.56
599.655	93.56
599.864	75.56
600.073	82.56
600.282	94.56
600.491	99.56
600.7	85.56
600.909	83.56
601.118	91.56
601.327	102.56
601.536	88.56
601.745	94.56
601.953	99.56
602.162	83.56
602.371	87.56
602.58	74.56
602.789	70.56
602.997	89.56
603.206	87.56
603.415	83.56
603.623	94.56
603.832	84.56
604.041	90.56
604.249	92.56
604.458	82.56
604.666	82.56
604.875	84.56
605.084	77.56
605.292	83.56
605.501	83.56
605.709	73.56
605.918	82.56
606.126	73.56
606.334	91.56
606.543	68.56
606.751	104.56
606.96	82.56
607.168	82.56
607.376	74.56
607.585	84.56
607.793	91.56
608.001	77.56
608.21	75.56
608.418	82.56
608.626	81.56
608.834	79.56
609.043	98.56
609.251	77.56
609.459	77.56
609.667	92.56
609.875	85.56
610.083	92.56
610.291	79.56
610.499	79.56
610.707	83.56
610.916	77.56
611.124	82.56
611.332	89.56
611.54	76.56
611.748	63.56
611.955	78.56
612.163	84.56
612.371	97.56
612.579	83.56
612.787	91.56
612.995	93.56
613.203	97.56
613.411	92.56
613.618	78.56
613.826	92.56
614.034	87.56
614.242	96.56
614.449	96.56
614.657	85.56
614.865	84.56
615.072	92.56
615.28	79.56
615.488	67.56
615.695	81.56
615.903	91.56
616.111	79.56
616.318	101.56
616.526	93.56
616.733	88.56
616.941	84.56
617.148	87.56
617.356	89.56
617.563	88.56
617.771	88.56
617.978	90.56
618.185	96.56
618.393	87.56
618.6	82.56
618.807	88.56
619.015	90.56
619.222	69.56
619.429	89.56
619.637	79.56
619.844	82.56
620.051	81.56
620.258	84.56
620.466	94.56
620.673	98.56
620.88	79.56
621.087	92.56
621.294	93.56
621.501	95.56
621.708	80.56
621.915	86.56
622.122	77.56
622.329	71.56
622.536	103.56
622.743	91.56
622.95	81.56
623.157	71.56
623.364	78.56
623.571	73.56
623.778	71.56
623.985	84.56
624.192	76.56
624.399	92.56
624.606	86.56
624.812	84.56
625.019	68.56
625.226	77.56
625.433	95.56
625.639	80.56
625.846	88.56
626.053	87.56
626.259	85.56
626.466	97.56
626.673	77.56
626.879	88.56
627.086	91.56
627.293	84.56
627.499	75.56
627.706	81.56
627.912	75.56
628.119	71.56
628.325	93.56
628.532	84.56
628.738	82.56
628.945	88.56
629.151	89.56
629.357	83.56
629.564	100.56
629.77	81.56
629.976	87.56
630.183	84.56
630.389	84.56
630.595	81.56
630.802	108.56
631.008	79.56
631.214	87.56
631.42	95.56
631.627	80.56
631.833	97.56
632.039	98.56
632.245	100.56
632.451	83.56
632.657	78.56
632.863	88.56
633.069	78.56
633.275	76.56
633.481	78.56
633.688	76.56
633.893	82.56
634.099	79.56
634.305	89.56
634.511	94.56
634.717	91.56
634.923	83.56
635.129	80.56
635.335	80.56
635.541	80.56
635.747	91.56
635.952	82.56
636.158	79.56
636.364	96.56
636.57	87.56
636.775	76.56
636.981	78.56
637.187	84.56
637.392	79.56
637.598	75.56
637.804	79.56
638.009	75.56
638.215	91.56
638.421	80.56
638.626	76.56
638.832	75.56
639.037	76.56
639.243	83.56
639.448	81.56
639.654	84.56
639.859	84.56
640.065	76.56
640.27	92.56
640.475	87.56
640.681	61.56
640.886	72.56
641.091	59.56
641.297	96.56
641.502	76.56
641.707	84.56
641.913	76.56
642.118	90.56
642.323	82.56
642.528	82.56
642.733	89.56
642.939	71.56
643.144	77.56
643.349	79.56
643.554	73.56
643.759	59.56
643.964	80.56
644.169	85.56
644.374	70.56
644.579	96.56
644.784	65.56
644.989	85.56
645.194	91.56
645.399	81.56
645.604	73.56
645.809	84.56
646.014	100.56
646.219	94.56
646.423	89.56
646.628	92.56
646.833	92.56
647.038	87.56
647.243	81.56
647.447	89.56
647.652	86.56
647.857	79.56
648.062	76.56
648.266	88.56
648.471	93.56
648.676	83.56
648.88	79.56
649.085	68.56
649.289	82.56
649.494	87.56
649.698	91.56
649.903	82.56
650.107	87.56
650.312	94.56
650.516	81.56
650.721	72.56
650.925	72.56
651.13	82.56
651.334	93.56
651.539	86.56
651.743	77.56
651.947	87.56
652.152	89.56
652.356	92.56
652.56	89.56
652.764	73.56
652.969	80.56
653.173	75.56
653.377	73.56
653.581	95.56
653.785	92.56
653.99	91.56
654.194	87.56
654.398	93.56
654.602	100.56
654.806	94.56
655.01	73.56
655.214	81.56
655.418	77.56
655.622	64.56
655.826	81.56
656.03	72.56
656.234	92.56
656.438	91.56
656.642	81.56
656.846	67.56
657.049	92.56
657.253	87.56
657.457	88.56
657.661	71.56
657.865	74.56
658.068	82.56
658.272	90.56
658.476	100.56
658.68	77.56
658.883	81.56
659.087	75.56
659.291	78.56
659.494	92.56
659.698	78.56
659.901	74.56
660.105	91.56
660.309	76.56
660.512	91.56
660.716	83.56
660.919	79.56
661.123	87.56
661.326	77.56
661.53	87.56
661.733	75.56
661.936	78.56
662.14	91.56
662.343	76.56
662.546	74.56
662.75	82.56
662.953	79.56
663.156	89.56
663.36	76.56
663.563	78.56
663.766	68.56
663.969	75.56
664.173	76.56
664.376	81.56
664.579	84.56
664.782	82.56
664.985	87.56
665.188	84.56
665.391	75.56
665.594	77.56
665.797	73.56
666	83.56
666.203	85.56
666.406	73.56
666.609	78.56
666.812	91.56
667.015	89.56
667.218	91.56
667.421	88.56
667.624	80.56
667.827	84.56
668.03	83.56
668.232	84.56
668.435	75.56
668.638	83.56
668.841	96.56
669.043	82.56
669.246	83.56
669.449	90.56
669.651	76.56
669.854	83.56
670.057	79.56
670.259	82.56
670.462	92.56
670.665	70.56
670.867	75.56
671.07	81.56
671.272	97.56
671.475	82.56
671.677	84.56
671.88	79.56
672.082	64.56
672.284	83.56
672.487	77.56
672.689	79.56
672.892	73.56
