Data from SampD_HRD10591_00099.txt Node
Date: Mon Jan 19 11:41:55 EST 2026
User: Yrep
Spectrometer: HR+D1059
Trigger mode: 0
Integration Time (sec): 3.443000E-1
Scans to average: 1
Electric dark correction enabled: true
Nonlinearity correction enabled: false
Boxcar width: 0
XAxis mode: Wavelengths
Number of Pixels in Spectrum: 2048
>>>>>Begin Spectral Data<<<<<
223.165	-25.06
223.4	-25.06
223.635	-25.06
223.869	-30.06
224.104	-17.06
224.338	-6.06
224.573	-21.06
224.808	-6.06
225.042	1.94
225.277	-12.06
225.511	-0.06
225.746	1.94
225.98	4.94
226.215	5.94
226.449	18.94
226.683	20.94
226.918	28.94
227.152	33.94
227.387	39.94
227.621	37.94
227.856	49.94
228.09	37.94
228.324	47.94
228.559	61.94
228.793	56.94
229.027	60.94
229.262	64.94
229.496	55.94
229.73	81.94
229.964	82.94
230.199	77.94
230.433	87.94
230.667	76.94
230.901	80.94
231.136	73.94
231.37	83.94
231.604	72.94
231.838	78.94
232.072	82.94
232.306	77.94
232.541	70.94
232.775	64.94
233.009	69.94
233.243	86.94
233.477	79.94
233.711	89.94
233.945	87.94
234.179	81.94
234.413	80.94
234.647	83.94
234.881	86.94
235.115	74.94
235.349	76.94
235.583	84.94
235.817	89.94
236.051	72.94
236.285	76.94
236.519	89.94
236.753	78.94
236.987	66.94
237.221	83.94
237.455	80.94
237.689	80.94
237.922	76.94
238.156	84.94
238.39	78.94
238.624	67.94
238.858	87.94
239.091	74.94
239.325	83.94
239.559	73.94
239.793	79.94
240.027	83.94
240.26	66.94
240.494	73.94
240.728	66.94
240.961	72.94
241.195	80.94
241.429	71.94
241.662	67.94
241.896	76.94
242.13	84.94
242.363	57.94
242.597	76.94
242.83	78.94
243.064	67.94
243.298	74.94
243.531	80.94
243.765	75.94
243.998	81.94
244.232	83.94
244.465	79.94
244.699	76.94
244.932	72.94
245.166	75.94
245.399	80.94
245.633	91.94
245.866	67.94
246.099	77.94
246.333	68.94
246.566	74.94
246.8	86.94
247.033	78.94
247.266	73.94
247.5	71.94
247.733	83.94
247.966	74.94
248.2	85.94
248.433	84.94
248.666	81.94
248.899	77.94
249.133	69.94
249.366	83.94
249.599	76.94
249.832	74.94
250.066	92.94
250.299	85.94
250.532	89.94
250.765	68.94
250.998	74.94
251.231	99.94
251.465	93.94
251.698	85.94
251.931	83.94
252.164	74.94
252.397	89.94
252.63	73.94
252.863	72.94
253.096	86.94
253.329	81.94
253.562	75.94
253.795	85.94
254.028	94.94
254.261	84.94
254.494	80.94
254.727	95.94
254.96	81.94
255.193	69.94
255.426	90.94
255.659	88.94
255.892	96.94
256.124	79.94
256.357	87.94
256.59	86.94
256.823	66.94
257.056	82.94
257.289	74.94
257.521	91.94
257.754	93.94
257.987	80.94
258.22	93.94
258.452	80.94
258.685	80.94
258.918	91.94
259.151	78.94
259.383	86.94
259.616	92.94
259.849	88.94
260.081	81.94
260.314	92.94
260.547	90.94
260.779	67.94
261.012	68.94
261.244	72.94
261.477	101.94
261.71	88.94
261.942	91.94
262.175	78.94
262.407	93.94
262.64	84.94
262.872	89.94
263.105	83.94
263.337	99.94
263.57	93.94
263.802	80.94
264.035	91.94
264.267	83.94
264.499	100.94
264.732	89.94
264.964	94.94
265.197	95.94
265.429	69.94
265.661	97.94
265.894	92.94
266.126	102.94
266.358	81.94
266.591	97.94
266.823	95.94
267.055	84.94
267.287	102.94
267.52	70.94
267.752	89.94
267.984	107.94
268.216	86.94
268.448	97.94
268.681	93.94
268.913	84.94
269.145	93.94
269.377	85.94
269.609	98.94
269.841	91.94
270.073	93.94
270.306	101.94
270.538	79.94
270.77	92.94
271.002	79.94
271.234	84.94
271.466	94.94
271.698	77.94
271.93	79.94
272.162	91.94
272.394	95.94
272.626	97.94
272.858	97.94
273.09	99.94
273.322	78.94
273.553	94.94
273.785	92.94
274.017	86.94
274.249	81.94
274.481	88.94
274.713	90.94
274.945	97.94
275.176	101.94
275.408	93.94
275.64	98.94
275.872	92.94
276.104	89.94
276.335	88.94
276.567	94.94
276.799	74.94
277.031	83.94
277.262	88.94
277.494	91.94
277.726	96.94
277.957	91.94
278.189	94.94
278.421	80.94
278.652	93.94
278.884	78.94
279.115	94.94
279.347	102.94
279.579	100.94
279.81	87.94
280.042	86.94
280.273	84.94
280.505	80.94
280.736	84.94
280.968	83.94
281.199	90.94
281.431	86.94
281.662	99.94
281.894	85.94
282.125	99.94
282.356	99.94
282.588	84.94
282.819	94.94
283.051	86.94
283.282	79.94
283.513	101.94
283.745	95.94
283.976	96.94
284.207	102.94
284.439	101.94
284.67	88.94
284.901	98.94
285.132	90.94
285.364	89.94
285.595	98.94
285.826	96.94
286.057	96.94
286.288	86.94
286.52	104.94
286.751	90.94
286.982	103.94
287.213	84.94
287.444	99.94
287.675	85.94
287.906	94.94
288.138	97.94
288.369	100.94
288.6	94.94
288.831	87.94
289.062	99.94
289.293	99.94
289.524	92.94
289.755	90.94
289.986	92.94
290.217	78.94
290.448	108.94
290.679	108.94
290.91	114.94
291.141	102.94
291.371	98.94
291.602	76.94
291.833	98.94
292.064	93.94
292.295	104.94
292.526	117.94
292.757	109.94
292.987	100.94
293.218	113.94
293.449	89.94
293.68	110.94
293.91	88.94
294.141	89.94
294.372	95.94
294.603	104.94
294.833	89.94
295.064	96.94
295.295	93.94
295.525	91.94
295.756	102.94
295.987	108.94
296.217	92.94
296.448	110.94
296.679	116.94
296.909	114.94
297.14	91.94
297.37	101.94
297.601	99.94
297.831	86.94
298.062	96.94
298.292	93.94
298.523	111.94
298.753	105.94
298.984	109.94
299.214	94.94
299.445	77.94
299.675	102.94
299.905	96.94
300.136	105.94
300.366	91.94
300.597	95.94
300.827	105.94
301.057	107.94
301.288	96.94
301.518	96.94
301.748	102.94
301.979	136.94
302.209	123.94
302.439	100.94
302.669	111.94
302.9	101.94
303.13	112.94
303.36	101.94
303.59	98.94
303.82	95.94
304.051	106.94
304.281	109.94
304.511	114.94
304.741	85.94
304.971	94.94
305.201	101.94
305.431	98.94
305.661	96.94
305.891	112.94
306.121	107.94
306.352	97.94
306.582	97.94
306.812	87.94
307.042	111.94
307.272	103.94
307.502	88.94
307.731	90.94
307.961	106.94
308.191	95.94
308.421	101.94
308.651	101.94
308.881	106.94
309.111	97.94
309.341	101.94
309.571	100.94
309.8	120.94
310.03	106.94
310.26	101.94
310.49	108.94
310.72	110.94
310.949	97.94
311.179	90.94
311.409	108.94
311.639	107.94
311.868	88.94
312.098	105.94
312.328	117.94
312.557	115.94
312.787	103.94
313.017	108.94
313.246	105.94
313.476	101.94
313.706	115.94
313.935	102.94
314.165	88.94
314.394	108.94
314.624	98.94
314.853	107.94
315.083	104.94
315.312	100.94
315.542	107.94
315.771	118.94
316.001	93.94
316.23	116.94
316.46	105.94
316.689	95.94
316.919	110.94
317.148	98.94
317.377	116.94
317.607	101.94
317.836	108.94
318.065	86.94
318.295	110.94
318.524	97.94
318.753	98.94
318.983	101.94
319.212	94.94
319.441	97.94
319.67	103.94
319.9	98.94
320.129	91.94
320.358	111.94
320.587	107.94
320.816	102.94
321.046	112.94
321.275	115.94
321.504	90.94
321.733	113.94
321.962	103.94
322.191	90.94
322.42	89.94
322.649	107.94
322.878	118.94
323.108	94.94
323.337	102.94
323.566	111.94
323.795	108.94
324.024	105.94
324.253	94.94
324.482	101.94
324.71	101.94
324.939	106.94
325.168	97.94
325.397	102.94
325.626	96.94
325.855	104.94
326.084	96.94
326.313	105.94
326.542	108.94
326.77	115.94
326.999	108.94
327.228	109.94
327.457	99.94
327.686	98.94
327.914	120.94
328.143	108.94
328.372	104.94
328.6	112.94
328.829	109.94
329.058	100.94
329.287	100.94
329.515	107.94
329.744	124.94
329.972	98.94
330.201	109.94
330.43	114.94
330.658	104.94
330.887	105.94
331.115	105.94
331.344	114.94
331.572	114.94
331.801	97.94
332.03	101.94
332.258	121.94
332.486	105.94
332.715	118.94
332.943	113.94
333.172	109.94
333.4	108.94
333.629	103.94
333.857	126.94
334.085	121.94
334.314	120.94
334.542	113.94
334.771	97.94
334.999	125.94
335.227	111.94
335.455	117.94
335.684	125.94
335.912	108.94
336.14	91.94
336.369	111.94
336.597	108.94
336.825	110.94
337.053	112.94
337.281	94.94
337.51	89.94
337.738	110.94
337.966	113.94
338.194	97.94
338.422	109.94
338.65	116.94
338.878	124.94
339.106	119.94
339.334	121.94
339.562	108.94
339.79	99.94
340.018	91.94
340.246	101.94
340.474	89.94
340.702	121.94
340.93	101.94
341.158	91.94
341.386	101.94
341.614	101.94
341.842	107.94
342.07	117.94
342.298	112.94
342.526	118.94
342.754	107.94
342.981	103.94
343.209	111.94
343.437	124.94
343.665	110.94
343.893	122.94
344.12	125.94
344.348	91.94
344.576	99.94
344.804	120.94
345.031	108.94
345.259	99.94
345.487	102.94
345.714	101.94
345.942	105.94
346.17	106.94
346.397	98.94
346.625	108.94
346.853	88.94
347.08	103.94
347.308	102.94
347.535	116.94
347.763	107.94
347.99	112.94
348.218	108.94
348.445	111.94
348.673	102.94
348.9	108.94
349.128	125.94
349.355	108.94
349.583	116.94
349.81	97.94
350.037	100.94
350.265	108.94
350.492	101.94
350.72	97.94
350.947	104.94
351.174	111.94
351.402	106.94
351.629	115.94
351.856	97.94
352.083	104.94
352.311	110.94
352.538	101.94
352.765	103.94
352.992	116.94
353.22	116.94
353.447	114.94
353.674	109.94
353.901	107.94
354.128	108.94
354.355	94.94
354.583	93.94
354.81	116.94
355.037	107.94
355.264	92.94
355.491	116.94
355.718	123.94
355.945	111.94
356.172	106.94
356.399	107.94
356.626	101.94
356.853	116.94
357.08	117.94
357.307	123.94
357.534	96.94
357.761	112.94
357.988	118.94
358.215	113.94
358.441	93.94
358.668	89.94
358.895	92.94
359.122	105.94
359.349	111.94
359.576	113.94
359.802	106.94
360.029	93.94
360.256	96.94
360.483	119.94
360.709	101.94
360.936	107.94
361.163	108.94
361.39	117.94
361.616	107.94
361.843	104.94
362.07	105.94
362.296	120.94
362.523	105.94
362.749	102.94
362.976	114.94
363.203	121.94
363.429	91.94
363.656	101.94
363.882	120.94
364.109	119.94
364.335	109.94
364.562	97.94
364.788	93.94
365.015	94.94
365.241	116.94
365.468	115.94
365.694	106.94
365.92	111.94
366.147	116.94
366.373	93.94
366.599	88.94
366.826	115.94
367.052	113.94
367.278	110.94
367.505	116.94
367.731	115.94
367.957	99.94
368.184	118.94
368.41	88.94
368.636	110.94
368.862	111.94
369.089	110.94
369.315	95.94
369.541	103.94
369.767	109.94
369.993	105.94
370.219	91.94
370.445	96.94
370.672	93.94
370.898	96.94
371.124	112.94
371.35	116.94
371.576	110.94
371.802	106.94
372.028	116.94
372.254	112.94
372.48	109.94
372.706	106.94
372.932	124.94
373.158	122.94
373.384	115.94
373.61	126.94
373.835	115.94
374.061	108.94
374.287	105.94
374.513	125.94
374.739	126.94
374.965	114.94
375.191	110.94
375.416	114.94
375.642	112.94
375.868	110.94
376.094	94.94
376.319	108.94
376.545	102.94
376.771	94.94
376.997	105.94
377.222	116.94
377.448	116.94
377.674	108.94
377.899	98.94
378.125	112.94
378.35	113.94
378.576	111.94
378.802	97.94
379.027	103.94
379.253	125.94
379.478	118.94
379.704	108.94
379.929	101.94
380.155	104.94
380.38	100.94
380.606	101.94
380.831	117.94
381.057	128.94
381.282	105.94
381.507	106.94
381.733	114.94
381.958	112.94
382.184	111.94
382.409	121.94
382.634	101.94
382.86	102.94
383.085	113.94
383.31	104.94
383.535	131.94
383.761	124.94
383.986	105.94
384.211	98.94
384.436	118.94
384.662	106.94
384.887	102.94
385.112	127.94
385.337	126.94
385.562	113.94
385.787	119.94
386.013	101.94
386.238	114.94
386.463	112.94
386.688	164.94
386.913	103.94
387.138	124.94
387.363	125.94
387.588	124.94
387.813	120.94
388.038	131.94
388.263	121.94
388.488	110.94
388.713	119.94
388.938	112.94
389.163	114.94
389.387	115.94
389.612	112.94
389.837	119.94
390.062	112.94
390.287	125.94
390.512	103.94
390.736	115.94
390.961	106.94
391.186	106.94
391.411	114.94
391.636	109.94
391.86	126.94
392.085	133.94
392.31	101.94
392.534	124.94
392.759	114.94
392.984	142.94
393.208	117.94
393.433	114.94
393.658	125.94
393.882	118.94
394.107	125.94
394.331	120.94
394.556	113.94
394.78	117.94
395.005	123.94
395.229	98.94
395.454	121.94
395.678	115.94
395.903	129.94
396.127	117.94
396.352	114.94
396.576	111.94
396.801	116.94
397.025	126.94
397.249	115.94
397.474	127.94
397.698	124.94
397.922	131.94
398.147	122.94
398.371	108.94
398.595	124.94
398.82	122.94
399.044	121.94
399.268	141.94
399.492	137.94
399.717	165.94
399.941	148.94
400.165	145.94
400.389	117.94
400.613	142.94
400.837	130.94
401.062	138.94
401.286	131.94
401.51	115.94
401.734	128.94
401.958	125.94
402.182	111.94
402.406	132.94
402.63	120.94
402.854	133.94
403.078	139.94
403.302	131.94
403.526	145.94
403.75	132.94
403.974	152.94
404.198	138.94
404.422	137.94
404.645	126.94
404.869	140.94
405.093	135.94
405.317	150.94
405.541	145.94
405.765	136.94
405.988	119.94
406.212	127.94
406.436	121.94
406.66	142.94
406.883	133.94
407.107	144.94
407.331	153.94
407.555	150.94
407.778	141.94
408.002	139.94
408.226	153.94
408.449	136.94
408.673	116.94
408.896	142.94
409.12	138.94
409.344	139.94
409.567	116.94
409.791	123.94
410.014	116.94
410.238	147.94
410.461	119.94
410.685	146.94
410.908	136.94
411.132	148.94
411.355	126.94
411.578	134.94
411.802	127.94
412.025	126.94
412.249	132.94
412.472	106.94
412.695	138.94
412.919	124.94
413.142	132.94
413.365	129.94
413.589	120.94
413.812	129.94
414.035	137.94
414.258	113.94
414.482	128.94
414.705	131.94
414.928	128.94
415.151	137.94
415.374	128.94
415.597	121.94
415.821	126.94
416.044	124.94
416.267	138.94
416.49	130.94
416.713	133.94
416.936	129.94
417.159	139.94
417.382	139.94
417.605	136.94
417.828	127.94
418.051	126.94
418.274	136.94
418.497	107.94
418.72	127.94
418.943	117.94
419.166	139.94
419.389	153.94
419.611	131.94
419.834	125.94
420.057	121.94
420.28	116.94
420.503	126.94
420.726	115.94
420.948	108.94
421.171	126.94
421.394	124.94
421.617	124.94
421.839	123.94
422.062	125.94
422.285	121.94
422.507	127.94
422.73	134.94
422.953	128.94
423.175	139.94
423.398	122.94
423.621	116.94
423.843	118.94
424.066	135.94
424.288	124.94
424.511	139.94
424.733	152.94
424.956	130.94
425.178	124.94
425.401	130.94
425.623	137.94
425.846	127.94
426.068	124.94
426.291	125.94
426.513	125.94
426.735	133.94
426.958	122.94
427.18	129.94
427.402	128.94
427.625	120.94
427.847	116.94
428.069	122.94
428.292	116.94
428.514	120.94
428.736	120.94
428.958	110.94
429.181	123.94
429.403	129.94
429.625	103.94
429.847	114.94
430.069	107.94
430.292	121.94
430.514	120.94
430.736	133.94
430.958	146.94
431.18	129.94
431.402	112.94
431.624	110.94
431.846	128.94
432.068	118.94
432.29	113.94
432.512	120.94
432.734	133.94
432.956	121.94
433.178	146.94
433.4	131.94
433.622	120.94
433.844	136.94
434.066	137.94
434.287	115.94
434.509	120.94
434.731	125.94
434.953	131.94
435.175	124.94
435.397	133.94
435.618	114.94
435.84	122.94
436.062	140.94
436.284	125.94
436.505	116.94
436.727	126.94
436.949	123.94
437.17	119.94
437.392	131.94
437.614	130.94
437.835	123.94
438.057	119.94
438.278	110.94
438.5	112.94
438.721	129.94
438.943	131.94
439.165	122.94
439.386	127.94
439.608	102.94
439.829	118.94
440.05	120.94
440.272	129.94
440.493	129.94
440.715	130.94
440.936	130.94
441.158	126.94
441.379	114.94
441.6	113.94
441.822	120.94
442.043	132.94
442.264	136.94
442.486	115.94
442.707	113.94
442.928	139.94
443.149	127.94
443.371	140.94
443.592	119.94
443.813	124.94
444.034	120.94
444.255	139.94
444.476	143.94
444.698	130.94
444.919	153.94
445.14	403.94
445.361	257.94
445.582	140.94
445.803	118.94
446.024	116.94
446.245	124.94
446.466	122.94
446.687	113.94
446.908	123.94
447.129	120.94
447.35	115.94
447.571	106.94
447.792	114.94
448.013	113.94
448.234	112.94
448.455	111.94
448.675	117.94
448.896	107.94
449.117	115.94
449.338	108.94
449.559	122.94
449.779	128.94
450	110.94
450.221	126.94
450.442	120.94
450.662	106.94
450.883	113.94
451.104	129.94
451.324	115.94
451.545	110.94
451.766	119.94
451.986	133.94
452.207	122.94
452.428	126.94
452.648	125.94
452.869	113.94
453.089	123.94
453.31	113.94
453.53	116.94
453.751	113.94
453.971	113.94
454.192	114.94
454.412	112.94
454.633	110.94
454.853	133.94
455.073	108.94
455.294	109.94
455.514	135.94
455.734	124.94
455.955	125.94
456.175	118.94
456.395	112.94
456.616	117.94
456.836	118.94
457.056	110.94
457.276	110.94
457.497	100.94
457.717	107.94
457.937	105.94
458.157	108.94
458.377	113.94
458.598	126.94
458.818	122.94
459.038	116.94
459.258	126.94
459.478	125.94
459.698	121.94
459.918	137.94
460.138	124.94
460.358	136.94
460.578	130.94
460.798	119.94
461.018	129.94
461.238	138.94
461.458	124.94
461.678	131.94
461.898	139.94
462.118	156.94
462.338	141.94
462.558	138.94
462.777	131.94
462.997	137.94
463.217	151.94
463.437	129.94
463.657	125.94
463.876	139.94
464.096	152.94
464.316	146.94
464.536	151.94
464.755	128.94
464.975	123.94
465.195	140.94
465.414	128.94
465.634	130.94
465.854	128.94
466.073	126.94
466.293	126.94
466.512	121.94
466.732	121.94
466.951	118.94
467.171	130.94
467.391	136.94
467.61	114.94
467.829	102.94
468.049	116.94
468.268	114.94
468.488	102.94
468.707	116.94
468.927	109.94
469.146	116.94
469.365	121.94
469.585	128.94
469.804	120.94
470.023	126.94
470.243	120.94
470.462	124.94
470.681	105.94
470.901	111.94
471.12	113.94
471.339	126.94
471.558	129.94
471.777	125.94
471.997	107.94
472.216	132.94
472.435	114.94
472.654	112.94
472.873	126.94
473.092	119.94
473.311	110.94
473.53	123.94
473.749	102.94
473.968	125.94
474.187	117.94
474.406	99.94
474.625	115.94
474.844	119.94
475.063	116.94
475.282	119.94
475.501	122.94
475.72	117.94
475.939	120.94
476.158	129.94
476.377	133.94
476.596	94.94
476.814	113.94
477.033	128.94
477.252	131.94
477.471	127.94
477.69	140.94
477.908	122.94
478.127	120.94
478.346	132.94
478.564	139.94
478.783	112.94
479.002	130.94
479.22	120.94
479.439	140.94
479.658	128.94
479.876	118.94
480.095	129.94
480.313	134.94
480.532	128.94
480.751	141.94
480.969	117.94
481.188	121.94
481.406	133.94
481.624	127.94
481.843	126.94
482.061	108.94
482.28	104.94
482.498	108.94
482.717	123.94
482.935	133.94
483.153	121.94
483.372	112.94
483.59	116.94
483.808	122.94
484.027	113.94
484.245	147.94
484.463	142.94
484.681	131.94
484.9	131.94
485.118	127.94
485.336	133.94
485.554	123.94
485.772	129.94
485.99	127.94
486.209	113.94
486.427	128.94
486.645	140.94
486.863	138.94
487.081	127.94
487.299	134.94
487.517	134.94
487.735	129.94
487.953	125.94
488.171	122.94
488.389	123.94
488.607	130.94
488.825	127.94
489.043	126.94
489.261	126.94
489.479	138.94
489.696	108.94
489.914	116.94
490.132	129.94
490.35	128.94
490.568	125.94
490.786	124.94
491.003	137.94
491.221	128.94
491.439	115.94
491.657	119.94
491.874	130.94
492.092	128.94
492.31	152.94
492.527	120.94
492.745	127.94
492.963	119.94
493.18	140.94
493.398	147.94
493.615	138.94
493.833	124.94
494.05	122.94
494.268	141.94
494.485	137.94
494.703	125.94
494.92	139.94
495.138	125.94
495.355	142.94
495.573	126.94
495.79	144.94
496.008	133.94
496.225	133.94
496.442	128.94
496.66	158.94
496.877	136.94
497.094	137.94
497.312	130.94
497.529	142.94
497.746	127.94
497.963	140.94
498.181	163.94
498.398	157.94
498.615	137.94
498.832	155.94
499.049	164.94
499.267	176.94
499.484	189.94
499.701	181.94
499.918	214.94
500.135	233.94
500.352	244.94
500.569	232.94
500.786	231.94
501.003	235.94
501.22	213.94
501.437	191.94
501.654	180.94
501.871	169.94
502.088	151.94
502.305	171.94
502.522	149.94
502.739	152.94
502.956	145.94
503.172	150.94
503.389	124.94
503.606	132.94
503.823	117.94
504.04	139.94
504.256	161.94
504.473	141.94
504.69	158.94
504.907	147.94
505.123	124.94
505.34	124.94
505.557	129.94
505.773	142.94
505.99	110.94
506.207	127.94
506.423	118.94
506.64	129.94
506.856	117.94
507.073	120.94
507.289	121.94
507.506	122.94
507.722	117.94
507.939	117.94
508.155	118.94
508.372	121.94
508.588	115.94
508.805	115.94
509.021	101.94
509.238	114.94
509.454	105.94
509.67	98.94
509.887	120.94
510.103	121.94
510.319	126.94
510.536	136.94
510.752	127.94
510.968	118.94
511.184	106.94
511.401	120.94
511.617	120.94
511.833	108.94
512.049	108.94
512.265	124.94
512.481	124.94
512.698	128.94
512.914	120.94
513.13	131.94
513.346	133.94
513.562	138.94
513.778	109.94
513.994	114.94
514.21	99.94
514.426	124.94
514.642	134.94
514.858	111.94
515.074	117.94
515.29	144.94
515.506	115.94
515.721	119.94
515.937	135.94
516.153	137.94
516.369	115.94
516.585	122.94
516.801	137.94
517.016	129.94
517.232	142.94
517.448	152.94
517.664	129.94
517.879	144.94
518.095	159.94
518.311	133.94
518.527	141.94
518.742	136.94
518.958	118.94
519.173	132.94
519.389	125.94
519.605	132.94
519.82	120.94
520.036	130.94
520.251	113.94
520.467	114.94
520.682	134.94
520.898	119.94
521.113	113.94
521.329	121.94
521.544	112.94
521.76	126.94
521.975	125.94
522.19	104.94
522.406	113.94
522.621	110.94
522.836	111.94
523.052	121.94
523.267	126.94
523.482	123.94
523.698	114.94
523.913	116.94
524.128	122.94
524.343	116.94
524.559	125.94
524.774	110.94
524.989	127.94
525.204	116.94
525.419	125.94
525.634	104.94
525.849	102.94
526.064	111.94
526.28	139.94
526.495	118.94
526.71	129.94
526.925	126.94
527.14	117.94
527.355	113.94
527.57	109.94
527.785	104.94
527.999	117.94
528.214	100.94
528.429	114.94
528.644	115.94
528.859	113.94
529.074	115.94
529.289	123.94
529.503	123.94
529.718	122.94
529.933	101.94
530.148	117.94
530.363	92.94
530.577	116.94
530.792	112.94
531.007	112.94
531.221	110.94
531.436	110.94
531.651	109.94
531.865	113.94
532.08	118.94
532.295	124.94
532.509	115.94
532.724	120.94
532.938	125.94
533.153	114.94
533.367	119.94
533.582	108.94
533.796	123.94
534.011	101.94
534.225	118.94
534.44	122.94
534.654	150.94
534.868	112.94
535.083	126.94
535.297	114.94
535.511	123.94
535.726	118.94
535.94	105.94
536.154	110.94
536.369	115.94
536.583	106.94
536.797	122.94
537.011	106.94
537.225	126.94
537.44	102.94
537.654	106.94
537.868	113.94
538.082	105.94
538.296	110.94
538.51	117.94
538.724	116.94
538.938	114.94
539.153	136.94
539.367	115.94
539.581	117.94
539.795	113.94
540.009	106.94
540.222	122.94
540.436	132.94
540.65	114.94
540.864	102.94
541.078	119.94
541.292	107.94
541.506	122.94
541.72	122.94
541.934	121.94
542.147	121.94
542.361	125.94
542.575	127.94
542.789	105.94
543.002	99.94
543.216	112.94
543.43	109.94
543.644	119.94
543.857	105.94
544.071	125.94
544.285	129.94
544.498	124.94
544.712	137.94
544.925	108.94
545.139	125.94
545.352	116.94
545.566	113.94
545.779	97.94
545.993	128.94
546.206	117.94
546.42	117.94
546.633	103.94
546.847	135.94
547.06	121.94
547.274	116.94
547.487	123.94
547.7	134.94
547.914	125.94
548.127	119.94
548.34	112.94
548.554	127.94
548.767	134.94
548.98	116.94
549.193	113.94
549.407	126.94
549.62	132.94
549.833	117.94
550.046	107.94
550.259	108.94
550.473	106.94
550.686	121.94
550.899	124.94
551.112	118.94
551.325	107.94
551.538	103.94
551.751	109.94
551.964	111.94
552.177	120.94
552.39	114.94
552.603	120.94
552.816	121.94
553.029	115.94
553.242	121.94
553.455	135.94
553.667	140.94
553.88	111.94
554.093	108.94
554.306	121.94
554.519	127.94
554.732	126.94
554.944	125.94
555.157	117.94
555.37	122.94
555.583	113.94
555.795	131.94
556.008	115.94
556.221	111.94
556.433	113.94
556.646	115.94
556.859	108.94
557.071	120.94
557.284	111.94
557.496	115.94
557.709	121.94
557.921	110.94
558.134	114.94
558.346	121.94
558.559	113.94
558.771	98.94
558.984	116.94
559.196	108.94
559.409	102.94
559.621	118.94
559.833	107.94
560.046	102.94
560.258	110.94
560.47	112.94
560.683	112.94
560.895	107.94
561.107	107.94
561.32	120.94
561.532	114.94
561.744	110.94
561.956	112.94
562.168	110.94
562.381	104.94
562.593	111.94
562.805	139.94
563.017	105.94
563.229	111.94
563.441	116.94
563.653	114.94
563.865	108.94
564.077	121.94
564.289	119.94
564.501	119.94
564.713	115.94
564.925	107.94
565.137	108.94
565.349	125.94
565.561	101.94
565.773	116.94
565.985	116.94
566.197	112.94
566.408	121.94
566.62	132.94
566.832	133.94
567.044	139.94
567.255	151.94
567.467	144.94
567.679	151.94
567.891	153.94
568.102	153.94
568.314	145.94
568.526	137.94
568.737	129.94
568.949	130.94
569.161	126.94
569.372	104.94
569.584	100.94
569.795	122.94
570.007	117.94
570.218	114.94
570.43	102.94
570.641	108.94
570.853	117.94
571.064	103.94
571.276	107.94
571.487	104.94
571.698	96.94
571.91	98.94
572.121	102.94
572.333	110.94
572.544	113.94
572.755	106.94
572.966	108.94
573.178	101.94
573.389	90.94
573.6	107.94
573.811	106.94
574.023	102.94
574.234	100.94
574.445	105.94
574.656	99.94
574.867	97.94
575.078	112.94
575.289	114.94
575.501	118.94
575.712	115.94
575.923	94.94
576.134	102.94
576.345	100.94
576.556	115.94
576.767	104.94
576.978	110.94
577.188	107.94
577.399	110.94
577.61	107.94
577.821	106.94
578.032	104.94
578.243	105.94
578.454	102.94
578.665	107.94
578.875	102.94
579.086	97.94
579.297	99.94
579.508	111.94
579.718	98.94
579.929	96.94
580.14	95.94
580.35	101.94
580.561	99.94
580.772	94.94
580.982	103.94
581.193	98.94
581.403	110.94
581.614	100.94
581.825	109.94
582.035	100.94
582.246	106.94
582.456	94.94
582.667	100.94
582.877	103.94
583.087	99.94
583.298	106.94
583.508	84.94
583.719	88.94
583.929	91.94
584.139	91.94
584.35	96.94
584.56	100.94
584.77	100.94
584.981	105.94
585.191	101.94
585.401	98.94
585.611	96.94
585.821	100.94
586.032	98.94
586.242	95.94
586.452	117.94
586.662	89.94
586.872	92.94
587.082	100.94
587.292	107.94
587.502	87.94
587.713	99.94
587.923	98.94
588.133	109.94
588.343	102.94
588.553	97.94
588.762	121.94
588.972	97.94
589.182	100.94
589.392	95.94
589.602	114.94
589.812	100.94
590.022	108.94
590.232	80.94
590.441	103.94
590.651	103.94
590.861	94.94
591.071	94.94
591.281	101.94
591.49	102.94
591.7	107.94
591.91	100.94
592.119	109.94
592.329	98.94
592.539	100.94
592.748	121.94
592.958	113.94
593.167	106.94
593.377	102.94
593.587	122.94
593.796	92.94
594.006	105.94
594.215	101.94
594.424	98.94
594.634	101.94
594.843	113.94
595.053	95.94
595.262	94.94
595.472	88.94
595.681	111.94
595.89	107.94
596.1	92.94
596.309	99.94
596.518	98.94
596.727	100.94
596.937	97.94
597.146	98.94
597.355	96.94
597.564	91.94
597.774	101.94
597.983	84.94
598.192	92.94
598.401	98.94
598.61	100.94
598.819	81.94
599.028	91.94
599.237	96.94
599.446	98.94
599.655	89.94
599.864	100.94
600.073	92.94
600.282	92.94
600.491	97.94
600.7	98.94
600.909	102.94
601.118	94.94
601.327	101.94
601.536	94.94
601.745	91.94
601.953	96.94
602.162	94.94
602.371	96.94
602.58	94.94
602.789	98.94
602.997	96.94
603.206	96.94
603.415	106.94
603.623	84.94
603.832	103.94
604.041	96.94
604.249	97.94
604.458	93.94
604.666	100.94
604.875	87.94
605.084	77.94
605.292	84.94
605.501	88.94
605.709	107.94
605.918	93.94
606.126	96.94
606.334	110.94
606.543	84.94
606.751	102.94
606.96	110.94
607.168	101.94
607.376	105.94
607.585	113.94
607.793	73.94
608.001	90.94
608.21	104.94
608.418	99.94
608.626	108.94
608.834	94.94
609.043	94.94
609.251	106.94
609.459	102.94
609.667	94.94
609.875	111.94
610.083	96.94
610.291	92.94
610.499	100.94
610.707	94.94
610.916	94.94
611.124	84.94
611.332	96.94
611.54	96.94
611.748	102.94
611.955	88.94
612.163	86.94
612.371	97.94
612.579	97.94
612.787	99.94
612.995	101.94
613.203	112.94
613.411	100.94
613.618	98.94
613.826	102.94
614.034	90.94
614.242	94.94
614.449	95.94
614.657	88.94
614.865	94.94
615.072	91.94
615.28	92.94
615.488	103.94
615.695	85.94
615.903	95.94
616.111	101.94
616.318	109.94
616.526	92.94
616.733	102.94
616.941	85.94
617.148	92.94
617.356	98.94
617.563	96.94
617.771	104.94
617.978	100.94
618.185	97.94
618.393	107.94
618.6	102.94
618.807	100.94
619.015	78.94
619.222	97.94
619.429	98.94
619.637	106.94
619.844	92.94
620.051	100.94
620.258	101.94
620.466	90.94
620.673	88.94
620.88	91.94
621.087	97.94
621.294	115.94
621.501	95.94
621.708	74.94
621.915	90.94
622.122	87.94
622.329	89.94
622.536	100.94
622.743	92.94
622.95	100.94
623.157	86.94
623.364	82.94
623.571	80.94
623.778	102.94
623.985	118.94
624.192	93.94
624.399	80.94
624.606	111.94
624.812	80.94
625.019	83.94
625.226	81.94
625.433	99.94
625.639	77.94
625.846	82.94
626.053	86.94
626.259	96.94
626.466	85.94
626.673	87.94
626.879	102.94
627.086	97.94
627.293	83.94
627.499	88.94
627.706	94.94
627.912	85.94
628.119	92.94
628.325	97.94
628.532	89.94
628.738	79.94
628.945	96.94
629.151	97.94
629.357	76.94
629.564	88.94
629.77	85.94
629.976	90.94
630.183	92.94
630.389	89.94
630.595	95.94
630.802	93.94
631.008	83.94
631.214	89.94
631.42	78.94
631.627	100.94
631.833	90.94
632.039	95.94
632.245	98.94
632.451	100.94
632.657	85.94
632.863	86.94
633.069	108.94
633.275	103.94
633.481	97.94
633.688	90.94
633.893	84.94
634.099	72.94
634.305	74.94
634.511	86.94
634.717	99.94
634.923	69.94
635.129	93.94
635.335	86.94
635.541	93.94
635.747	92.94
635.952	96.94
636.158	86.94
636.364	89.94
636.57	101.94
636.775	86.94
636.981	88.94
637.187	100.94
637.392	94.94
637.598	90.94
637.804	99.94
638.009	85.94
638.215	80.94
638.421	88.94
638.626	92.94
638.832	96.94
639.037	93.94
639.243	88.94
639.448	93.94
639.654	99.94
639.859	98.94
640.065	86.94
640.27	84.94
640.475	93.94
640.681	79.94
640.886	88.94
641.091	84.94
641.297	97.94
641.502	89.94
641.707	86.94
641.913	76.94
642.118	99.94
642.323	87.94
642.528	106.94
642.733	96.94
642.939	106.94
643.144	97.94
643.349	97.94
643.554	89.94
643.759	99.94
643.964	86.94
644.169	82.94
644.374	95.94
644.579	94.94
644.784	80.94
644.989	78.94
645.194	89.94
645.399	89.94
645.604	78.94
645.809	89.94
646.014	87.94
646.219	89.94
646.423	75.94
646.628	94.94
646.833	87.94
647.038	92.94
647.243	95.94
647.447	85.94
647.652	86.94
647.857	91.94
648.062	92.94
648.266	96.94
648.471	84.94
648.676	85.94
648.88	85.94
649.085	94.94
649.289	80.94
649.494	84.94
649.698	83.94
649.903	87.94
650.107	89.94
650.312	98.94
650.516	85.94
650.721	102.94
650.925	78.94
651.13	83.94
651.334	96.94
651.539	84.94
651.743	91.94
651.947	78.94
652.152	83.94
652.356	91.94
652.56	94.94
652.764	108.94
652.969	76.94
653.173	79.94
653.377	95.94
653.581	82.94
653.785	77.94
653.99	85.94
654.194	83.94
654.398	80.94
654.602	80.94
654.806	75.94
655.01	76.94
655.214	101.94
655.418	72.94
655.622	86.94
655.826	89.94
656.03	94.94
656.234	94.94
656.438	80.94
656.642	95.94
656.846	85.94
657.049	78.94
657.253	83.94
657.457	75.94
657.661	82.94
657.865	91.94
658.068	77.94
658.272	83.94
658.476	78.94
658.68	76.94
658.883	69.94
659.087	80.94
659.291	78.94
659.494	81.94
659.698	86.94
659.901	91.94
660.105	82.94
660.309	91.94
660.512	70.94
660.716	82.94
660.919	88.94
661.123	91.94
661.326	69.94
661.53	96.94
661.733	86.94
661.936	84.94
662.14	78.94
662.343	97.94
662.546	89.94
662.75	106.94
662.953	88.94
663.156	108.94
663.36	74.94
663.563	91.94
663.766	73.94
663.969	78.94
664.173	80.94
664.376	83.94
664.579	84.94
664.782	74.94
664.985	85.94
665.188	75.94
665.391	81.94
665.594	80.94
665.797	81.94
666	88.94
666.203	73.94
666.406	69.94
666.609	70.94
666.812	54.94
667.015	73.94
667.218	73.94
667.421	81.94
667.624	64.94
667.827	74.94
668.03	66.94
668.232	76.94
668.435	97.94
668.638	76.94
668.841	84.94
669.043	83.94
669.246	75.94
669.449	85.94
669.651	72.94
669.854	82.94
670.057	74.94
670.259	82.94
670.462	77.94
670.665	86.94
670.867	72.94
671.07	85.94
671.272	69.94
671.475	82.94
671.677	88.94
671.88	79.94
672.082	82.94
672.284	81.94
672.487	74.94
672.689	61.94
672.892	74.94
