Data from SampD_HRD10591_00064.txt Node
Date: Mon Jan 19 11:41:43 EST 2026
User: Yrep
Spectrometer: HR+D1059
Trigger mode: 0
Integration Time (sec): 3.443000E-1
Scans to average: 1
Electric dark correction enabled: true
Nonlinearity correction enabled: false
Boxcar width: 0
XAxis mode: Wavelengths
Number of Pixels in Spectrum: 2048
>>>>>Begin Spectral Data<<<<<
223.165	-17.75
223.4	-17.75
223.635	-17.75
223.869	-22.75
224.104	-12.75
224.338	-10.75
224.573	-32.75
224.808	-28.75
225.042	-3.75
225.277	-9.75
225.511	-5.75
225.746	16.25
225.98	15.25
226.215	20.25
226.449	18.25
226.683	22.25
226.918	21.25
227.152	31.25
227.387	24.25
227.621	27.25
227.856	47.25
228.09	34.25
228.324	51.25
228.559	51.25
228.793	45.25
229.027	68.25
229.262	65.25
229.496	62.25
229.73	86.25
229.964	78.25
230.199	82.25
230.433	76.25
230.667	96.25
230.901	72.25
231.136	85.25
231.37	84.25
231.604	86.25
231.838	88.25
232.072	88.25
232.306	83.25
232.541	97.25
232.775	92.25
233.009	90.25
233.243	78.25
233.477	80.25
233.711	84.25
233.945	90.25
234.179	101.25
234.413	81.25
234.647	69.25
234.881	91.25
235.115	78.25
235.349	80.25
235.583	96.25
235.817	75.25
236.051	85.25
236.285	90.25
236.519	86.25
236.753	81.25
236.987	94.25
237.221	78.25
237.455	90.25
237.689	92.25
237.922	92.25
238.156	88.25
238.39	106.25
238.624	92.25
238.858	88.25
239.091	79.25
239.325	77.25
239.559	96.25
239.793	91.25
240.027	97.25
240.26	91.25
240.494	101.25
240.728	83.25
240.961	66.25
241.195	87.25
241.429	99.25
241.662	82.25
241.896	96.25
242.13	84.25
242.363	88.25
242.597	82.25
242.83	90.25
243.064	86.25
243.298	78.25
243.531	76.25
243.765	92.25
243.998	87.25
244.232	95.25
244.465	89.25
244.699	84.25
244.932	71.25
245.166	94.25
245.399	98.25
245.633	82.25
245.866	83.25
246.099	81.25
246.333	85.25
246.566	89.25
246.8	67.25
247.033	89.25
247.266	82.25
247.5	98.25
247.733	95.25
247.966	89.25
248.2	92.25
248.433	86.25
248.666	86.25
248.899	90.25
249.133	88.25
249.366	96.25
249.599	102.25
249.832	97.25
250.066	95.25
250.299	84.25
250.532	96.25
250.765	94.25
250.998	85.25
251.231	94.25
251.465	103.25
251.698	78.25
251.931	87.25
252.164	94.25
252.397	84.25
252.63	88.25
252.863	92.25
253.096	90.25
253.329	85.25
253.562	91.25
253.795	93.25
254.028	105.25
254.261	98.25
254.494	102.25
254.727	99.25
254.96	96.25
255.193	111.25
255.426	100.25
255.659	86.25
255.892	99.25
256.124	86.25
256.357	115.25
256.59	93.25
256.823	93.25
257.056	95.25
257.289	95.25
257.521	93.25
257.754	103.25
257.987	89.25
258.22	97.25
258.452	103.25
258.685	102.25
258.918	101.25
259.151	92.25
259.383	122.25
259.616	104.25
259.849	99.25
260.081	87.25
260.314	96.25
260.547	99.25
260.779	87.25
261.012	97.25
261.244	88.25
261.477	110.25
261.71	93.25
261.942	90.25
262.175	84.25
262.407	99.25
262.64	95.25
262.872	110.25
263.105	104.25
263.337	120.25
263.57	91.25
263.802	102.25
264.035	110.25
264.267	97.25
264.499	108.25
264.732	105.25
264.964	106.25
265.197	103.25
265.429	105.25
265.661	94.25
265.894	93.25
266.126	102.25
266.358	114.25
266.591	103.25
266.823	95.25
267.055	90.25
267.287	115.25
267.52	88.25
267.752	113.25
267.984	109.25
268.216	109.25
268.448	100.25
268.681	106.25
268.913	102.25
269.145	101.25
269.377	102.25
269.609	104.25
269.841	109.25
270.073	103.25
270.306	110.25
270.538	103.25
270.77	100.25
271.002	115.25
271.234	104.25
271.466	103.25
271.698	121.25
271.93	108.25
272.162	109.25
272.394	114.25
272.626	99.25
272.858	100.25
273.09	104.25
273.322	110.25
273.553	116.25
273.785	110.25
274.017	87.25
274.249	110.25
274.481	101.25
274.713	108.25
274.945	115.25
275.176	112.25
275.408	104.25
275.64	120.25
275.872	111.25
276.104	120.25
276.335	110.25
276.567	117.25
276.799	111.25
277.031	102.25
277.262	109.25
277.494	104.25
277.726	118.25
277.957	115.25
278.189	128.25
278.421	124.25
278.652	115.25
278.884	106.25
279.115	116.25
279.347	118.25
279.579	111.25
279.81	91.25
280.042	107.25
280.273	99.25
280.505	114.25
280.736	125.25
280.968	115.25
281.199	111.25
281.431	130.25
281.662	102.25
281.894	100.25
282.125	120.25
282.356	119.25
282.588	106.25
282.819	106.25
283.051	118.25
283.282	126.25
283.513	131.25
283.745	119.25
283.976	107.25
284.207	116.25
284.439	121.25
284.67	108.25
284.901	113.25
285.132	132.25
285.364	108.25
285.595	127.25
285.826	110.25
286.057	119.25
286.288	131.25
286.52	112.25
286.751	127.25
286.982	119.25
287.213	123.25
287.444	114.25
287.675	126.25
287.906	131.25
288.138	115.25
288.369	122.25
288.6	97.25
288.831	104.25
289.062	107.25
289.293	131.25
289.524	124.25
289.755	127.25
289.986	114.25
290.217	119.25
290.448	121.25
290.679	136.25
290.91	126.25
291.141	128.25
291.371	119.25
291.602	119.25
291.833	132.25
292.064	125.25
292.295	101.25
292.526	125.25
292.757	121.25
292.987	133.25
293.218	133.25
293.449	141.25
293.68	121.25
293.91	122.25
294.141	127.25
294.372	112.25
294.603	114.25
294.833	125.25
295.064	116.25
295.295	135.25
295.525	125.25
295.756	129.25
295.987	135.25
296.217	127.25
296.448	117.25
296.679	124.25
296.909	130.25
297.14	132.25
297.37	125.25
297.601	122.25
297.831	115.25
298.062	120.25
298.292	123.25
298.523	125.25
298.753	128.25
298.984	143.25
299.214	138.25
299.445	113.25
299.675	125.25
299.905	124.25
300.136	131.25
300.366	139.25
300.597	121.25
300.827	125.25
301.057	125.25
301.288	119.25
301.518	134.25
301.748	130.25
301.979	166.25
302.209	126.25
302.439	140.25
302.669	135.25
302.9	135.25
303.13	136.25
303.36	128.25
303.59	135.25
303.82	139.25
304.051	142.25
304.281	118.25
304.511	145.25
304.741	124.25
304.971	136.25
305.201	142.25
305.431	124.25
305.661	131.25
305.891	123.25
306.121	122.25
306.352	113.25
306.582	117.25
306.812	123.25
307.042	124.25
307.272	132.25
307.502	135.25
307.731	134.25
307.961	127.25
308.191	127.25
308.421	125.25
308.651	150.25
308.881	118.25
309.111	117.25
309.341	129.25
309.571	137.25
309.8	127.25
310.03	123.25
310.26	120.25
310.49	112.25
310.72	120.25
310.949	140.25
311.179	139.25
311.409	127.25
311.639	132.25
311.868	139.25
312.098	134.25
312.328	139.25
312.557	128.25
312.787	133.25
313.017	131.25
313.246	127.25
313.476	141.25
313.706	128.25
313.935	131.25
314.165	133.25
314.394	148.25
314.624	131.25
314.853	126.25
315.083	131.25
315.312	140.25
315.542	118.25
315.771	133.25
316.001	119.25
316.23	137.25
316.46	129.25
316.689	132.25
316.919	130.25
317.148	126.25
317.377	132.25
317.607	140.25
317.836	131.25
318.065	132.25
318.295	142.25
318.524	118.25
318.753	136.25
318.983	126.25
319.212	138.25
319.441	123.25
319.67	115.25
319.9	114.25
320.129	135.25
320.358	128.25
320.587	139.25
320.816	124.25
321.046	133.25
321.275	152.25
321.504	112.25
321.733	141.25
321.962	126.25
322.191	127.25
322.42	146.25
322.649	145.25
322.878	132.25
323.108	129.25
323.337	135.25
323.566	132.25
323.795	130.25
324.024	142.25
324.253	132.25
324.482	128.25
324.71	138.25
324.939	140.25
325.168	141.25
325.397	147.25
325.626	115.25
325.855	132.25
326.084	138.25
326.313	133.25
326.542	139.25
326.77	150.25
326.999	131.25
327.228	140.25
327.457	137.25
327.686	157.25
327.914	131.25
328.143	154.25
328.372	127.25
328.6	129.25
328.829	119.25
329.058	113.25
329.287	140.25
329.515	149.25
329.744	147.25
329.972	142.25
330.201	144.25
330.43	126.25
330.658	138.25
330.887	135.25
331.115	124.25
331.344	139.25
331.572	149.25
331.801	126.25
332.03	171.25
332.258	142.25
332.486	145.25
332.715	146.25
332.943	160.25
333.172	152.25
333.4	161.25
333.629	162.25
333.857	170.25
334.085	155.25
334.314	158.25
334.542	157.25
334.771	135.25
334.999	148.25
335.227	165.25
335.455	155.25
335.684	174.25
335.912	159.25
336.14	160.25
336.369	146.25
336.597	150.25
336.825	145.25
337.053	157.25
337.281	160.25
337.51	156.25
337.738	146.25
337.966	154.25
338.194	133.25
338.422	149.25
338.65	145.25
338.878	149.25
339.106	148.25
339.334	145.25
339.562	140.25
339.79	141.25
340.018	156.25
340.246	135.25
340.474	155.25
340.702	152.25
340.93	138.25
341.158	139.25
341.386	135.25
341.614	148.25
341.842	125.25
342.07	127.25
342.298	136.25
342.526	136.25
342.754	131.25
342.981	135.25
343.209	129.25
343.437	166.25
343.665	158.25
343.893	154.25
344.12	163.25
344.348	156.25
344.576	152.25
344.804	147.25
345.031	145.25
345.259	150.25
345.487	139.25
345.714	138.25
345.942	141.25
346.17	141.25
346.397	125.25
346.625	123.25
346.853	154.25
347.08	154.25
347.308	123.25
347.535	124.25
347.763	126.25
347.99	126.25
348.218	144.25
348.445	143.25
348.673	139.25
348.9	146.25
349.128	146.25
349.355	143.25
349.583	154.25
349.81	152.25
350.037	161.25
350.265	142.25
350.492	123.25
350.72	122.25
350.947	140.25
351.174	138.25
351.402	142.25
351.629	147.25
351.856	126.25
352.083	140.25
352.311	133.25
352.538	138.25
352.765	134.25
352.992	155.25
353.22	143.25
353.447	115.25
353.674	147.25
353.901	144.25
354.128	127.25
354.355	117.25
354.583	139.25
354.81	155.25
355.037	155.25
355.264	139.25
355.491	152.25
355.718	128.25
355.945	147.25
356.172	138.25
356.399	140.25
356.626	142.25
356.853	140.25
357.08	150.25
357.307	125.25
357.534	134.25
357.761	145.25
357.988	158.25
358.215	144.25
358.441	132.25
358.668	138.25
358.895	139.25
359.122	128.25
359.349	122.25
359.576	140.25
359.802	140.25
360.029	136.25
360.256	144.25
360.483	142.25
360.709	138.25
360.936	165.25
361.163	133.25
361.39	138.25
361.616	123.25
361.843	138.25
362.07	136.25
362.296	143.25
362.523	138.25
362.749	145.25
362.976	119.25
363.203	145.25
363.429	120.25
363.656	128.25
363.882	136.25
364.109	144.25
364.335	154.25
364.562	149.25
364.788	134.25
365.015	138.25
365.241	128.25
365.468	140.25
365.694	135.25
365.92	138.25
366.147	132.25
366.373	136.25
366.599	119.25
366.826	132.25
367.052	127.25
367.278	127.25
367.505	129.25
367.731	153.25
367.957	130.25
368.184	134.25
368.41	133.25
368.636	136.25
368.862	150.25
369.089	146.25
369.315	144.25
369.541	151.25
369.767	134.25
369.993	132.25
370.219	140.25
370.445	154.25
370.672	142.25
370.898	149.25
371.124	133.25
371.35	138.25
371.576	130.25
371.802	138.25
372.028	125.25
372.254	141.25
372.48	144.25
372.706	132.25
372.932	154.25
373.158	151.25
373.384	150.25
373.61	160.25
373.835	136.25
374.061	152.25
374.287	149.25
374.513	144.25
374.739	148.25
374.965	133.25
375.191	146.25
375.416	151.25
375.642	149.25
375.868	143.25
376.094	143.25
376.319	145.25
376.545	156.25
376.771	134.25
376.997	146.25
377.222	134.25
377.448	153.25
377.674	138.25
377.899	143.25
378.125	143.25
378.35	129.25
378.576	160.25
378.802	141.25
379.027	142.25
379.253	154.25
379.478	139.25
379.704	149.25
379.929	135.25
380.155	134.25
380.38	142.25
380.606	151.25
380.831	156.25
381.057	155.25
381.282	132.25
381.507	147.25
381.733	148.25
381.958	140.25
382.184	147.25
382.409	159.25
382.634	145.25
382.86	157.25
383.085	162.25
383.31	163.25
383.535	148.25
383.761	162.25
383.986	159.25
384.211	143.25
384.436	162.25
384.662	158.25
384.887	152.25
385.112	144.25
385.337	162.25
385.562	156.25
385.787	157.25
386.013	165.25
386.238	146.25
386.463	161.25
386.688	196.25
386.913	157.25
387.138	168.25
387.363	147.25
387.588	157.25
387.813	168.25
388.038	146.25
388.263	168.25
388.488	172.25
388.713	163.25
388.938	133.25
389.163	146.25
389.387	165.25
389.612	162.25
389.837	150.25
390.062	158.25
390.287	165.25
390.512	162.25
390.736	160.25
390.961	155.25
391.186	176.25
391.411	159.25
391.636	170.25
391.86	174.25
392.085	177.25
392.31	162.25
392.534	171.25
392.759	175.25
392.984	161.25
393.208	170.25
393.433	154.25
393.658	163.25
393.882	169.25
394.107	185.25
394.331	165.25
394.556	186.25
394.78	181.25
395.005	165.25
395.229	173.25
395.454	166.25
395.678	155.25
395.903	159.25
396.127	185.25
396.352	162.25
396.576	160.25
396.801	160.25
397.025	173.25
397.249	175.25
397.474	194.25
397.698	168.25
397.922	186.25
398.147	183.25
398.371	168.25
398.595	178.25
398.82	175.25
399.044	206.25
399.268	224.25
399.492	229.25
399.717	254.25
399.941	243.25
400.165	231.25
400.389	218.25
400.613	194.25
400.837	193.25
401.062	204.25
401.286	188.25
401.51	190.25
401.734	196.25
401.958	191.25
402.182	194.25
402.406	174.25
402.63	182.25
402.854	199.25
403.078	181.25
403.302	211.25
403.526	200.25
403.75	200.25
403.974	198.25
404.198	210.25
404.422	205.25
404.645	195.25
404.869	212.25
405.093	198.25
405.317	197.25
405.541	215.25
405.765	194.25
405.988	194.25
406.212	203.25
406.436	204.25
406.66	192.25
406.883	195.25
407.107	209.25
407.331	226.25
407.555	227.25
407.778	213.25
408.002	210.25
408.226	203.25
408.449	196.25
408.673	213.25
408.896	195.25
409.12	195.25
409.344	198.25
409.567	210.25
409.791	226.25
410.014	211.25
410.238	215.25
410.461	187.25
410.685	221.25
410.908	174.25
411.132	205.25
411.355	195.25
411.578	198.25
411.802	173.25
412.025	182.25
412.249	193.25
412.472	195.25
412.695	193.25
412.919	179.25
413.142	182.25
413.365	194.25
413.589	197.25
413.812	184.25
414.035	182.25
414.258	179.25
414.482	197.25
414.705	184.25
414.928	189.25
415.151	197.25
415.374	199.25
415.597	187.25
415.821	187.25
416.044	171.25
416.267	175.25
416.49	176.25
416.713	191.25
416.936	197.25
417.159	188.25
417.382	176.25
417.605	184.25
417.828	178.25
418.051	185.25
418.274	195.25
418.497	199.25
418.72	175.25
418.943	193.25
419.166	205.25
419.389	209.25
419.611	197.25
419.834	191.25
420.057	204.25
420.28	185.25
420.503	166.25
420.726	182.25
420.948	182.25
421.171	186.25
421.394	205.25
421.617	187.25
421.839	180.25
422.062	193.25
422.285	182.25
422.507	206.25
422.73	196.25
422.953	194.25
423.175	192.25
423.398	188.25
423.621	189.25
423.843	197.25
424.066	196.25
424.288	201.25
424.511	188.25
424.733	179.25
424.956	194.25
425.178	193.25
425.401	184.25
425.623	194.25
425.846	197.25
426.068	176.25
426.291	180.25
426.513	189.25
426.735	178.25
426.958	196.25
427.18	180.25
427.402	196.25
427.625	181.25
427.847	167.25
428.069	166.25
428.292	172.25
428.514	164.25
428.736	174.25
428.958	177.25
429.181	188.25
429.403	174.25
429.625	176.25
429.847	174.25
430.069	177.25
430.292	170.25
430.514	173.25
430.736	166.25
430.958	160.25
431.18	171.25
431.402	168.25
431.624	173.25
431.846	172.25
432.068	181.25
432.29	175.25
432.512	162.25
432.734	174.25
432.956	192.25
433.178	192.25
433.4	174.25
433.622	173.25
433.844	190.25
434.066	178.25
434.287	183.25
434.509	183.25
434.731	192.25
434.953	186.25
435.175	195.25
435.397	191.25
435.618	167.25
435.84	151.25
436.062	175.25
436.284	175.25
436.505	165.25
436.727	161.25
436.949	189.25
437.17	174.25
437.392	174.25
437.614	176.25
437.835	157.25
438.057	160.25
438.278	164.25
438.5	173.25
438.721	177.25
438.943	198.25
439.165	164.25
439.386	163.25
439.608	175.25
439.829	197.25
440.05	184.25
440.272	174.25
440.493	186.25
440.715	181.25
440.936	192.25
441.158	185.25
441.379	177.25
441.6	180.25
441.822	188.25
442.043	190.25
442.264	183.25
442.486	187.25
442.707	183.25
442.928	193.25
443.149	193.25
443.371	193.25
443.592	183.25
443.813	184.25
444.034	197.25
444.255	184.25
444.476	200.25
444.698	221.25
444.919	217.25
445.14	415.25
445.361	278.25
445.582	196.25
445.803	172.25
446.024	169.25
446.245	193.25
446.466	174.25
446.687	173.25
446.908	172.25
447.129	187.25
447.35	176.25
447.571	180.25
447.792	165.25
448.013	161.25
448.234	177.25
448.455	168.25
448.675	180.25
448.896	181.25
449.117	174.25
449.338	176.25
449.559	164.25
449.779	176.25
450	163.25
450.221	171.25
450.442	181.25
450.662	165.25
450.883	175.25
451.104	180.25
451.324	162.25
451.545	168.25
451.766	174.25
451.986	167.25
452.207	175.25
452.428	171.25
452.648	188.25
452.869	161.25
453.089	154.25
453.31	168.25
453.53	177.25
453.751	144.25
453.971	155.25
454.192	158.25
454.412	164.25
454.633	155.25
454.853	145.25
455.073	156.25
455.294	174.25
455.514	174.25
455.734	153.25
455.955	152.25
456.175	158.25
456.395	149.25
456.616	147.25
456.836	145.25
457.056	175.25
457.276	158.25
457.497	168.25
457.717	143.25
457.937	156.25
458.157	156.25
458.377	157.25
458.598	147.25
458.818	168.25
459.038	173.25
459.258	172.25
459.478	171.25
459.698	187.25
459.918	167.25
460.138	192.25
460.358	183.25
460.578	208.25
460.798	195.25
461.018	197.25
461.238	203.25
461.458	190.25
461.678	204.25
461.898	187.25
462.118	202.25
462.338	190.25
462.558	210.25
462.777	222.25
462.997	219.25
463.217	221.25
463.437	228.25
463.657	222.25
463.876	218.25
464.096	226.25
464.316	208.25
464.536	225.25
464.755	213.25
464.975	199.25
465.195	195.25
465.414	194.25
465.634	167.25
465.854	176.25
466.073	175.25
466.293	181.25
466.512	180.25
466.732	167.25
466.951	177.25
467.171	168.25
467.391	166.25
467.61	162.25
467.829	173.25
468.049	170.25
468.268	188.25
468.488	154.25
468.707	190.25
468.927	169.25
469.146	173.25
469.365	167.25
469.585	181.25
469.804	167.25
470.023	171.25
470.243	183.25
470.462	178.25
470.681	171.25
470.901	187.25
471.12	178.25
471.339	183.25
471.558	181.25
471.777	178.25
471.997	171.25
472.216	161.25
472.435	162.25
472.654	159.25
472.873	190.25
473.092	148.25
473.311	167.25
473.53	165.25
473.749	177.25
473.968	171.25
474.187	163.25
474.406	168.25
474.625	183.25
474.844	161.25
475.063	159.25
475.282	161.25
475.501	167.25
475.72	178.25
475.939	160.25
476.158	162.25
476.377	185.25
476.596	163.25
476.814	158.25
477.033	182.25
477.252	169.25
477.471	162.25
477.69	172.25
477.908	175.25
478.127	184.25
478.346	192.25
478.564	187.25
478.783	192.25
479.002	194.25
479.22	189.25
479.439	193.25
479.658	171.25
479.876	180.25
480.095	193.25
480.313	191.25
480.532	196.25
480.751	196.25
480.969	189.25
481.188	191.25
481.406	195.25
481.624	178.25
481.843	188.25
482.061	183.25
482.28	176.25
482.498	165.25
482.717	186.25
482.935	174.25
483.153	174.25
483.372	172.25
483.59	193.25
483.808	178.25
484.027	194.25
484.245	188.25
484.463	183.25
484.681	198.25
484.9	190.25
485.118	184.25
485.336	192.25
485.554	194.25
485.772	199.25
485.99	190.25
486.209	193.25
486.427	190.25
486.645	187.25
486.863	192.25
487.081	192.25
487.299	189.25
487.517	197.25
487.735	195.25
487.953	188.25
488.171	191.25
488.389	181.25
488.607	191.25
488.825	179.25
489.043	175.25
489.261	189.25
489.479	184.25
489.696	211.25
489.914	202.25
490.132	190.25
490.35	192.25
490.568	179.25
490.786	176.25
491.003	182.25
491.221	187.25
491.439	194.25
491.657	192.25
491.874	203.25
492.092	180.25
492.31	194.25
492.527	203.25
492.745	203.25
492.963	200.25
493.18	193.25
493.398	211.25
493.615	200.25
493.833	205.25
494.05	197.25
494.268	176.25
494.485	193.25
494.703	191.25
494.92	203.25
495.138	183.25
495.355	187.25
495.573	199.25
495.79	201.25
496.008	216.25
496.225	190.25
496.442	200.25
496.66	217.25
496.877	198.25
497.094	219.25
497.312	222.25
497.529	201.25
497.746	223.25
497.963	206.25
498.181	220.25
498.398	246.25
498.615	248.25
498.832	242.25
499.049	270.25
499.267	278.25
499.484	324.25
499.701	338.25
499.918	355.25
500.135	396.25
500.352	444.25
500.569	451.25
500.786	440.25
501.003	407.25
501.22	369.25
501.437	338.25
501.654	300.25
501.871	272.25
502.088	283.25
502.305	260.25
502.522	239.25
502.739	259.25
502.956	225.25
503.172	209.25
503.389	216.25
503.606	211.25
503.823	218.25
504.04	210.25
504.256	226.25
504.473	215.25
504.69	220.25
504.907	229.25
505.123	214.25
505.34	203.25
505.557	194.25
505.773	188.25
505.99	175.25
506.207	181.25
506.423	195.25
506.64	173.25
506.856	160.25
507.073	168.25
507.289	197.25
507.506	187.25
507.722	165.25
507.939	170.25
508.155	187.25
508.372	166.25
508.588	167.25
508.805	188.25
509.021	171.25
509.238	183.25
509.454	182.25
509.67	176.25
509.887	167.25
510.103	182.25
510.319	166.25
510.536	170.25
510.752	167.25
510.968	168.25
511.184	158.25
511.401	178.25
511.617	182.25
511.833	172.25
512.049	168.25
512.265	164.25
512.481	164.25
512.698	176.25
512.914	177.25
513.13	181.25
513.346	159.25
513.562	177.25
513.778	172.25
513.994	179.25
514.21	166.25
514.426	174.25
514.642	155.25
514.858	170.25
515.074	180.25
515.29	196.25
515.506	160.25
515.721	179.25
515.937	203.25
516.153	183.25
516.369	181.25
516.585	189.25
516.801	203.25
517.016	193.25
517.232	208.25
517.448	199.25
517.664	229.25
517.879	226.25
518.095	204.25
518.311	220.25
518.527	205.25
518.742	213.25
518.958	190.25
519.173	211.25
519.389	183.25
519.605	176.25
519.82	192.25
520.036	167.25
520.251	186.25
520.467	166.25
520.682	173.25
520.898	152.25
521.113	156.25
521.329	168.25
521.544	167.25
521.76	172.25
521.975	160.25
522.19	160.25
522.406	161.25
522.621	180.25
522.836	170.25
523.052	175.25
523.267	160.25
523.482	170.25
523.698	146.25
523.913	166.25
524.128	169.25
524.343	174.25
524.559	174.25
524.774	162.25
524.989	177.25
525.204	163.25
525.419	159.25
525.634	164.25
525.849	168.25
526.064	162.25
526.28	173.25
526.495	163.25
526.71	163.25
526.925	156.25
527.14	139.25
527.355	150.25
527.57	162.25
527.785	166.25
527.999	161.25
528.214	172.25
528.429	167.25
528.644	164.25
528.859	171.25
529.074	163.25
529.289	176.25
529.503	146.25
529.718	172.25
529.933	171.25
530.148	155.25
530.363	154.25
530.577	160.25
530.792	157.25
531.007	171.25
531.221	178.25
531.436	174.25
531.651	161.25
531.865	158.25
532.08	157.25
532.295	148.25
532.509	164.25
532.724	158.25
532.938	162.25
533.153	158.25
533.367	182.25
533.582	174.25
533.796	172.25
534.011	164.25
534.225	168.25
534.44	155.25
534.654	166.25
534.868	168.25
535.083	163.25
535.297	178.25
535.511	179.25
535.726	164.25
535.94	167.25
536.154	146.25
536.369	167.25
536.583	167.25
536.797	170.25
537.011	149.25
537.225	141.25
537.44	151.25
537.654	157.25
537.868	134.25
538.082	142.25
538.296	154.25
538.51	158.25
538.724	159.25
538.938	149.25
539.153	158.25
539.367	166.25
539.581	165.25
539.795	156.25
540.009	143.25
540.222	144.25
540.436	154.25
540.65	178.25
540.864	160.25
541.078	173.25
541.292	142.25
541.506	171.25
541.72	172.25
541.934	174.25
542.147	165.25
542.361	167.25
542.575	166.25
542.789	154.25
543.002	170.25
543.216	154.25
543.43	168.25
543.644	151.25
543.857	167.25
544.071	155.25
544.285	186.25
544.498	160.25
544.712	186.25
544.925	181.25
545.139	156.25
545.352	174.25
545.566	169.25
545.779	154.25
545.993	146.25
546.206	168.25
546.42	164.25
546.633	171.25
546.847	180.25
547.06	176.25
547.274	162.25
547.487	170.25
547.7	164.25
547.914	152.25
548.127	161.25
548.34	178.25
548.554	169.25
548.767	173.25
548.98	159.25
549.193	161.25
549.407	175.25
549.62	169.25
549.833	163.25
550.046	156.25
550.259	172.25
550.473	178.25
550.686	161.25
550.899	158.25
551.112	181.25
551.325	164.25
551.538	154.25
551.751	175.25
551.964	170.25
552.177	173.25
552.39	159.25
552.603	191.25
552.816	182.25
553.029	175.25
553.242	186.25
553.455	181.25
553.667	197.25
553.88	179.25
554.093	184.25
554.306	173.25
554.519	170.25
554.732	164.25
554.944	160.25
555.157	158.25
555.37	162.25
555.583	154.25
555.795	172.25
556.008	164.25
556.221	139.25
556.433	161.25
556.646	144.25
556.859	162.25
557.071	154.25
557.284	146.25
557.496	132.25
557.709	147.25
557.921	169.25
558.134	164.25
558.346	158.25
558.559	164.25
558.771	150.25
558.984	143.25
559.196	139.25
559.409	153.25
559.621	141.25
559.833	141.25
560.046	146.25
560.258	149.25
560.47	154.25
560.683	131.25
560.895	137.25
561.107	163.25
561.32	143.25
561.532	157.25
561.744	157.25
561.956	147.25
562.168	145.25
562.381	151.25
562.593	157.25
562.805	168.25
563.017	147.25
563.229	165.25
563.441	171.25
563.653	151.25
563.865	153.25
564.077	160.25
564.289	154.25
564.501	147.25
564.713	150.25
564.925	158.25
565.137	152.25
565.349	172.25
565.561	172.25
565.773	171.25
565.985	184.25
566.197	180.25
566.408	179.25
566.62	195.25
566.832	196.25
567.044	197.25
567.255	212.25
567.467	215.25
567.679	217.25
567.891	205.25
568.102	223.25
568.314	209.25
568.526	197.25
568.737	192.25
568.949	176.25
569.161	161.25
569.372	154.25
569.584	154.25
569.795	181.25
570.007	158.25
570.218	128.25
570.43	132.25
570.641	139.25
570.853	150.25
571.064	154.25
571.276	141.25
571.487	148.25
571.698	148.25
571.91	135.25
572.121	140.25
572.333	131.25
572.544	133.25
572.755	133.25
572.966	131.25
573.178	131.25
573.389	129.25
573.6	132.25
573.811	128.25
574.023	133.25
574.234	158.25
574.445	143.25
574.656	138.25
574.867	132.25
575.078	132.25
575.289	117.25
575.501	152.25
575.712	142.25
575.923	118.25
576.134	132.25
576.345	136.25
576.556	122.25
576.767	136.25
576.978	145.25
577.188	133.25
577.399	139.25
577.61	140.25
577.821	142.25
578.032	128.25
578.243	126.25
578.454	148.25
578.665	134.25
578.875	104.25
579.086	131.25
579.297	124.25
579.508	110.25
579.718	133.25
579.929	139.25
580.14	123.25
580.35	118.25
580.561	137.25
580.772	141.25
580.982	127.25
581.193	112.25
581.403	129.25
581.614	131.25
581.825	118.25
582.035	120.25
582.246	120.25
582.456	140.25
582.667	122.25
582.877	115.25
583.087	127.25
583.298	137.25
583.508	133.25
583.719	126.25
583.929	117.25
584.139	118.25
584.35	134.25
584.56	138.25
584.77	127.25
584.981	118.25
585.191	127.25
585.401	119.25
585.611	132.25
585.821	124.25
586.032	127.25
586.242	117.25
586.452	131.25
586.662	114.25
586.872	130.25
587.082	120.25
587.292	105.25
587.502	127.25
587.713	109.25
587.923	128.25
588.133	126.25
588.343	144.25
588.553	122.25
588.762	136.25
588.972	125.25
589.182	128.25
589.392	120.25
589.602	131.25
589.812	112.25
590.022	134.25
590.232	114.25
590.441	117.25
590.651	125.25
590.861	139.25
591.071	125.25
591.281	146.25
591.49	130.25
591.7	122.25
591.91	130.25
592.119	126.25
592.329	146.25
592.539	138.25
592.748	132.25
592.958	125.25
593.167	128.25
593.377	127.25
593.587	157.25
593.796	132.25
594.006	140.25
594.215	141.25
594.424	124.25
594.634	136.25
594.843	142.25
595.053	126.25
595.262	122.25
595.472	128.25
595.681	133.25
595.89	124.25
596.1	124.25
596.309	135.25
596.518	126.25
596.727	128.25
596.937	128.25
597.146	115.25
597.355	141.25
597.564	133.25
597.774	122.25
597.983	124.25
598.192	104.25
598.401	117.25
598.61	117.25
598.819	121.25
599.028	129.25
599.237	112.25
599.446	127.25
599.655	112.25
599.864	111.25
600.073	116.25
600.282	112.25
600.491	112.25
600.7	123.25
600.909	131.25
601.118	125.25
601.327	126.25
601.536	118.25
601.745	126.25
601.953	122.25
602.162	135.25
602.371	130.25
602.58	119.25
602.789	141.25
602.997	117.25
603.206	119.25
603.415	114.25
603.623	122.25
603.832	118.25
604.041	129.25
604.249	119.25
604.458	121.25
604.666	111.25
604.875	126.25
605.084	101.25
605.292	98.25
605.501	123.25
605.709	124.25
605.918	115.25
606.126	124.25
606.334	115.25
606.543	108.25
606.751	118.25
606.96	130.25
607.168	118.25
607.376	98.25
607.585	122.25
607.793	118.25
608.001	109.25
608.21	103.25
608.418	119.25
608.626	110.25
608.834	120.25
609.043	122.25
609.251	104.25
609.459	102.25
609.667	112.25
609.875	126.25
610.083	116.25
610.291	117.25
610.499	120.25
610.707	118.25
610.916	104.25
611.124	101.25
611.332	116.25
611.54	126.25
611.748	124.25
611.955	112.25
612.163	113.25
612.371	120.25
612.579	111.25
612.787	116.25
612.995	118.25
613.203	112.25
613.411	108.25
613.618	113.25
613.826	117.25
614.034	112.25
614.242	128.25
614.449	117.25
614.657	114.25
614.865	120.25
615.072	106.25
615.28	116.25
615.488	111.25
615.695	123.25
615.903	115.25
616.111	126.25
616.318	120.25
616.526	120.25
616.733	132.25
616.941	126.25
617.148	115.25
617.356	119.25
617.563	113.25
617.771	119.25
617.978	120.25
618.185	131.25
618.393	98.25
618.6	120.25
618.807	119.25
619.015	109.25
619.222	106.25
619.429	111.25
619.637	118.25
619.844	112.25
620.051	118.25
620.258	126.25
620.466	102.25
620.673	95.25
620.88	117.25
621.087	119.25
621.294	131.25
621.501	104.25
621.708	114.25
621.915	110.25
622.122	115.25
622.329	122.25
622.536	120.25
622.743	112.25
622.95	102.25
623.157	113.25
623.364	104.25
623.571	104.25
623.778	107.25
623.985	128.25
624.192	114.25
624.399	99.25
624.606	113.25
624.812	109.25
625.019	106.25
625.226	120.25
625.433	128.25
625.639	119.25
625.846	112.25
626.053	98.25
626.259	118.25
626.466	108.25
626.673	97.25
626.879	95.25
627.086	102.25
627.293	113.25
627.499	112.25
627.706	111.25
627.912	102.25
628.119	97.25
628.325	108.25
628.532	110.25
628.738	126.25
628.945	111.25
629.151	108.25
629.357	109.25
629.564	108.25
629.77	102.25
629.976	105.25
630.183	117.25
630.389	99.25
630.595	114.25
630.802	108.25
631.008	112.25
631.214	119.25
631.42	114.25
631.627	117.25
631.833	100.25
632.039	121.25
632.245	93.25
632.451	115.25
632.657	112.25
632.863	111.25
633.069	120.25
633.275	116.25
633.481	95.25
633.688	108.25
633.893	118.25
634.099	108.25
634.305	110.25
634.511	97.25
634.717	102.25
634.923	101.25
635.129	104.25
635.335	105.25
635.541	103.25
635.747	112.25
635.952	115.25
636.158	101.25
636.364	98.25
636.57	93.25
636.775	114.25
636.981	115.25
637.187	101.25
637.392	100.25
637.598	103.25
637.804	113.25
638.009	100.25
638.215	80.25
638.421	102.25
638.626	102.25
638.832	107.25
639.037	112.25
639.243	104.25
639.448	110.25
639.654	110.25
639.859	100.25
640.065	96.25
640.27	130.25
640.475	101.25
640.681	94.25
640.886	107.25
641.091	100.25
641.297	113.25
641.502	102.25
641.707	107.25
641.913	108.25
642.118	92.25
642.323	103.25
642.528	99.25
642.733	103.25
642.939	108.25
643.144	98.25
643.349	103.25
643.554	107.25
643.759	106.25
643.964	85.25
644.169	107.25
644.374	98.25
644.579	109.25
644.784	93.25
644.989	99.25
645.194	99.25
645.399	103.25
645.604	103.25
645.809	95.25
646.014	104.25
646.219	90.25
646.423	99.25
646.628	102.25
646.833	105.25
647.038	93.25
647.243	109.25
647.447	108.25
647.652	94.25
647.857	102.25
648.062	111.25
648.266	111.25
648.471	99.25
648.676	103.25
648.88	103.25
649.085	93.25
649.289	96.25
649.494	91.25
649.698	115.25
649.903	94.25
650.107	113.25
650.312	112.25
650.516	97.25
650.721	112.25
650.925	93.25
651.13	98.25
651.334	104.25
651.539	104.25
651.743	87.25
651.947	101.25
652.152	94.25
652.356	98.25
652.56	110.25
652.764	96.25
652.969	98.25
653.173	100.25
653.377	87.25
653.581	108.25
653.785	79.25
653.99	101.25
654.194	96.25
654.398	91.25
654.602	90.25
654.806	96.25
655.01	99.25
655.214	91.25
655.418	95.25
655.622	92.25
655.826	102.25
656.03	94.25
656.234	104.25
656.438	82.25
656.642	99.25
656.846	91.25
657.049	104.25
657.253	107.25
657.457	101.25
657.661	98.25
657.865	82.25
658.068	85.25
658.272	97.25
658.476	83.25
658.68	82.25
658.883	71.25
659.087	98.25
659.291	86.25
659.494	86.25
659.698	97.25
659.901	95.25
660.105	87.25
660.309	84.25
660.512	81.25
660.716	80.25
660.919	87.25
661.123	85.25
661.326	77.25
661.53	79.25
661.733	77.25
661.936	86.25
662.14	84.25
662.343	91.25
662.546	79.25
662.75	97.25
662.953	73.25
663.156	99.25
663.36	93.25
663.563	87.25
663.766	75.25
663.969	78.25
664.173	71.25
664.376	89.25
664.579	76.25
664.782	65.25
664.985	65.25
665.188	94.25
665.391	79.25
665.594	78.25
665.797	83.25
666	70.25
666.203	76.25
666.406	82.25
666.609	79.25
666.812	87.25
667.015	71.25
667.218	96.25
667.421	71.25
667.624	73.25
667.827	88.25
668.03	80.25
668.232	75.25
668.435	87.25
668.638	92.25
668.841	87.25
669.043	77.25
669.246	98.25
669.449	81.25
669.651	78.25
669.854	74.25
670.057	85.25
670.259	83.25
670.462	92.25
670.665	90.25
670.867	87.25
671.07	85.25
671.272	94.25
671.475	89.25
671.677	66.25
671.88	75.25
672.082	102.25
672.284	83.25
672.487	72.25
672.689	79.25
672.892	78.25
