Data from SampD_HRD10591_00035.txt Node
Date: Mon Jan 19 11:41:33 EST 2026
User: Yrep
Spectrometer: HR+D1059
Trigger mode: 0
Integration Time (sec): 3.443000E-1
Scans to average: 1
Electric dark correction enabled: true
Nonlinearity correction enabled: false
Boxcar width: 0
XAxis mode: Wavelengths
Number of Pixels in Spectrum: 2048
>>>>>Begin Spectral Data<<<<<
223.165	-20.69
223.4	-20.69
223.635	-20.69
223.869	-26.69
224.104	-27.69
224.338	-6.69
224.573	-23.69
224.808	1.31
225.042	-4.69
225.277	-14.69
225.511	-8.69
225.746	11.31
225.98	0.31
226.215	22.31
226.449	26.31
226.683	17.31
226.918	23.31
227.152	31.31
227.387	43.31
227.621	41.31
227.856	56.31
228.09	44.31
228.324	38.31
228.559	53.31
228.793	48.31
229.027	59.31
229.262	79.31
229.496	78.31
229.73	87.31
229.964	74.31
230.199	81.31
230.433	80.31
230.667	85.31
230.901	100.31
231.136	80.31
231.37	90.31
231.604	87.31
231.838	93.31
232.072	83.31
232.306	88.31
232.541	99.31
232.775	83.31
233.009	72.31
233.243	91.31
233.477	103.31
233.711	92.31
233.945	71.31
234.179	81.31
234.413	92.31
234.647	87.31
234.881	84.31
235.115	76.31
235.349	80.31
235.583	76.31
235.817	91.31
236.051	70.31
236.285	77.31
236.519	91.31
236.753	76.31
236.987	84.31
237.221	87.31
237.455	81.31
237.689	82.31
237.922	82.31
238.156	78.31
238.39	79.31
238.624	84.31
238.858	88.31
239.091	92.31
239.325	90.31
239.559	69.31
239.793	99.31
240.027	98.31
240.26	91.31
240.494	85.31
240.728	87.31
240.961	82.31
241.195	94.31
241.429	71.31
241.662	77.31
241.896	80.31
242.13	84.31
242.363	103.31
242.597	90.31
242.83	88.31
243.064	78.31
243.298	84.31
243.531	81.31
243.765	86.31
243.998	85.31
244.232	87.31
244.465	99.31
244.699	84.31
244.932	78.31
245.166	93.31
245.399	88.31
245.633	80.31
245.866	84.31
246.099	83.31
246.333	95.31
246.566	84.31
246.8	89.31
247.033	90.31
247.266	94.31
247.5	92.31
247.733	95.31
247.966	86.31
248.2	92.31
248.433	90.31
248.666	95.31
248.899	86.31
249.133	101.31
249.366	93.31
249.599	103.31
249.832	77.31
250.066	100.31
250.299	93.31
250.532	103.31
250.765	96.31
250.998	90.31
251.231	78.31
251.465	95.31
251.698	88.31
251.931	89.31
252.164	74.31
252.397	97.31
252.63	109.31
252.863	82.31
253.096	93.31
253.329	92.31
253.562	93.31
253.795	65.31
254.028	100.31
254.261	96.31
254.494	97.31
254.727	100.31
254.96	95.31
255.193	100.31
255.426	83.31
255.659	100.31
255.892	101.31
256.124	97.31
256.357	90.31
256.59	101.31
256.823	86.31
257.056	97.31
257.289	98.31
257.521	98.31
257.754	95.31
257.987	83.31
258.22	90.31
258.452	93.31
258.685	80.31
258.918	100.31
259.151	91.31
259.383	86.31
259.616	104.31
259.849	101.31
260.081	98.31
260.314	103.31
260.547	91.31
260.779	96.31
261.012	101.31
261.244	98.31
261.477	100.31
261.71	92.31
261.942	104.31
262.175	102.31
262.407	111.31
262.64	90.31
262.872	100.31
263.105	97.31
263.337	102.31
263.57	103.31
263.802	108.31
264.035	100.31
264.267	102.31
264.499	120.31
264.732	101.31
264.964	89.31
265.197	96.31
265.429	98.31
265.661	89.31
265.894	83.31
266.126	112.31
266.358	105.31
266.591	108.31
266.823	109.31
267.055	87.31
267.287	97.31
267.52	107.31
267.752	119.31
267.984	115.31
268.216	110.31
268.448	94.31
268.681	87.31
268.913	92.31
269.145	110.31
269.377	99.31
269.609	101.31
269.841	90.31
270.073	108.31
270.306	118.31
270.538	98.31
270.77	101.31
271.002	113.31
271.234	118.31
271.466	106.31
271.698	102.31
271.93	114.31
272.162	88.31
272.394	117.31
272.626	98.31
272.858	109.31
273.09	106.31
273.322	120.31
273.553	106.31
273.785	97.31
274.017	108.31
274.249	103.31
274.481	129.31
274.713	104.31
274.945	113.31
275.176	107.31
275.408	114.31
275.64	103.31
275.872	117.31
276.104	106.31
276.335	100.31
276.567	102.31
276.799	108.31
277.031	103.31
277.262	116.31
277.494	111.31
277.726	122.31
277.957	112.31
278.189	112.31
278.421	109.31
278.652	114.31
278.884	102.31
279.115	112.31
279.347	100.31
279.579	114.31
279.81	115.31
280.042	117.31
280.273	108.31
280.505	114.31
280.736	123.31
280.968	124.31
281.199	128.31
281.431	100.31
281.662	92.31
281.894	129.31
282.125	113.31
282.356	129.31
282.588	109.31
282.819	122.31
283.051	114.31
283.282	109.31
283.513	127.31
283.745	118.31
283.976	116.31
284.207	113.31
284.439	125.31
284.67	130.31
284.901	118.31
285.132	111.31
285.364	119.31
285.595	128.31
285.826	136.31
286.057	106.31
286.288	124.31
286.52	125.31
286.751	123.31
286.982	125.31
287.213	119.31
287.444	121.31
287.675	120.31
287.906	108.31
288.138	115.31
288.369	122.31
288.6	97.31
288.831	112.31
289.062	126.31
289.293	117.31
289.524	112.31
289.755	121.31
289.986	121.31
290.217	117.31
290.448	118.31
290.679	133.31
290.91	119.31
291.141	112.31
291.371	119.31
291.602	115.31
291.833	123.31
292.064	128.31
292.295	122.31
292.526	115.31
292.757	132.31
292.987	136.31
293.218	130.31
293.449	126.31
293.68	131.31
293.91	123.31
294.141	138.31
294.372	117.31
294.603	131.31
294.833	124.31
295.064	83.31
295.295	115.31
295.525	113.31
295.756	124.31
295.987	116.31
296.217	134.31
296.448	115.31
296.679	118.31
296.909	113.31
297.14	117.31
297.37	120.31
297.601	126.31
297.831	120.31
298.062	139.31
298.292	127.31
298.523	132.31
298.753	132.31
298.984	119.31
299.214	125.31
299.445	111.31
299.675	123.31
299.905	136.31
300.136	122.31
300.366	130.31
300.597	132.31
300.827	117.31
301.057	123.31
301.288	113.31
301.518	124.31
301.748	130.31
301.979	147.31
302.209	139.31
302.439	138.31
302.669	132.31
302.9	127.31
303.13	116.31
303.36	117.31
303.59	115.31
303.82	128.31
304.051	129.31
304.281	139.31
304.511	146.31
304.741	118.31
304.971	113.31
305.201	129.31
305.431	124.31
305.661	135.31
305.891	140.31
306.121	129.31
306.352	120.31
306.582	117.31
306.812	135.31
307.042	127.31
307.272	136.31
307.502	125.31
307.731	126.31
307.961	135.31
308.191	122.31
308.421	134.31
308.651	133.31
308.881	132.31
309.111	130.31
309.341	117.31
309.571	121.31
309.8	125.31
310.03	127.31
310.26	119.31
310.49	123.31
310.72	138.31
310.949	133.31
311.179	125.31
311.409	121.31
311.639	127.31
311.868	137.31
312.098	139.31
312.328	139.31
312.557	126.31
312.787	130.31
313.017	131.31
313.246	138.31
313.476	118.31
313.706	133.31
313.935	125.31
314.165	127.31
314.394	123.31
314.624	130.31
314.853	139.31
315.083	126.31
315.312	143.31
315.542	123.31
315.771	139.31
316.001	131.31
316.23	141.31
316.46	120.31
316.689	125.31
316.919	110.31
317.148	140.31
317.377	125.31
317.607	130.31
317.836	126.31
318.065	136.31
318.295	134.31
318.524	130.31
318.753	126.31
318.983	135.31
319.212	132.31
319.441	118.31
319.67	131.31
319.9	136.31
320.129	132.31
320.358	142.31
320.587	137.31
320.816	134.31
321.046	148.31
321.275	130.31
321.504	122.31
321.733	133.31
321.962	129.31
322.191	134.31
322.42	126.31
322.649	134.31
322.878	128.31
323.108	123.31
323.337	139.31
323.566	127.31
323.795	120.31
324.024	132.31
324.253	123.31
324.482	127.31
324.71	136.31
324.939	137.31
325.168	135.31
325.397	139.31
325.626	127.31
325.855	142.31
326.084	122.31
326.313	134.31
326.542	127.31
326.77	140.31
326.999	126.31
327.228	127.31
327.457	134.31
327.686	140.31
327.914	130.31
328.143	140.31
328.372	134.31
328.6	118.31
328.829	142.31
329.058	135.31
329.287	124.31
329.515	133.31
329.744	158.31
329.972	145.31
330.201	133.31
330.43	146.31
330.658	138.31
330.887	140.31
331.115	142.31
331.344	144.31
331.572	141.31
331.801	133.31
332.03	139.31
332.258	156.31
332.486	148.31
332.715	151.31
332.943	155.31
333.172	166.31
333.4	146.31
333.629	163.31
333.857	156.31
334.085	165.31
334.314	164.31
334.542	142.31
334.771	152.31
334.999	135.31
335.227	146.31
335.455	133.31
335.684	159.31
335.912	159.31
336.14	149.31
336.369	142.31
336.597	134.31
336.825	150.31
337.053	132.31
337.281	145.31
337.51	130.31
337.738	153.31
337.966	141.31
338.194	133.31
338.422	137.31
338.65	154.31
338.878	142.31
339.106	141.31
339.334	154.31
339.562	123.31
339.79	146.31
340.018	126.31
340.246	126.31
340.474	136.31
340.702	146.31
340.93	156.31
341.158	140.31
341.386	141.31
341.614	131.31
341.842	132.31
342.07	141.31
342.298	138.31
342.526	126.31
342.754	140.31
342.981	140.31
343.209	136.31
343.437	168.31
343.665	153.31
343.893	156.31
344.12	155.31
344.348	130.31
344.576	153.31
344.804	153.31
345.031	143.31
345.259	128.31
345.487	144.31
345.714	141.31
345.942	143.31
346.17	150.31
346.397	139.31
346.625	132.31
346.853	139.31
347.08	134.31
347.308	144.31
347.535	127.31
347.763	138.31
347.99	152.31
348.218	136.31
348.445	115.31
348.673	144.31
348.9	128.31
349.128	140.31
349.355	120.31
349.583	130.31
349.81	122.31
350.037	126.31
350.265	147.31
350.492	128.31
350.72	134.31
350.947	148.31
351.174	132.31
351.402	134.31
351.629	138.31
351.856	132.31
352.083	140.31
352.311	140.31
352.538	140.31
352.765	140.31
352.992	150.31
353.22	135.31
353.447	141.31
353.674	136.31
353.901	142.31
354.128	136.31
354.355	155.31
354.583	146.31
354.81	138.31
355.037	130.31
355.264	156.31
355.491	142.31
355.718	131.31
355.945	138.31
356.172	116.31
356.399	138.31
356.626	132.31
356.853	122.31
357.08	141.31
357.307	142.31
357.534	152.31
357.761	143.31
357.988	148.31
358.215	158.31
358.441	138.31
358.668	117.31
358.895	141.31
359.122	131.31
359.349	148.31
359.576	134.31
359.802	129.31
360.029	130.31
360.256	141.31
360.483	138.31
360.709	127.31
360.936	163.31
361.163	142.31
361.39	128.31
361.616	154.31
361.843	140.31
362.07	145.31
362.296	136.31
362.523	142.31
362.749	131.31
362.976	128.31
363.203	134.31
363.429	124.31
363.656	126.31
363.882	126.31
364.109	149.31
364.335	144.31
364.562	115.31
364.788	140.31
365.015	131.31
365.241	142.31
365.468	140.31
365.694	128.31
365.92	128.31
366.147	135.31
366.373	130.31
366.599	136.31
366.826	140.31
367.052	135.31
367.278	147.31
367.505	141.31
367.731	158.31
367.957	125.31
368.184	145.31
368.41	136.31
368.636	148.31
368.862	122.31
369.089	142.31
369.315	129.31
369.541	139.31
369.767	134.31
369.993	130.31
370.219	136.31
370.445	141.31
370.672	148.31
370.898	135.31
371.124	144.31
371.35	144.31
371.576	145.31
371.802	131.31
372.028	141.31
372.254	131.31
372.48	138.31
372.706	147.31
372.932	142.31
373.158	138.31
373.384	144.31
373.61	127.31
373.835	142.31
374.061	132.31
374.287	134.31
374.513	144.31
374.739	135.31
374.965	146.31
375.191	143.31
375.416	144.31
375.642	157.31
375.868	159.31
376.094	157.31
376.319	145.31
376.545	134.31
376.771	135.31
376.997	152.31
377.222	147.31
377.448	147.31
377.674	141.31
377.899	146.31
378.125	141.31
378.35	146.31
378.576	156.31
378.802	145.31
379.027	148.31
379.253	146.31
379.478	134.31
379.704	142.31
379.929	135.31
380.155	135.31
380.38	141.31
380.606	132.31
380.831	148.31
381.057	160.31
381.282	145.31
381.507	142.31
381.733	159.31
381.958	162.31
382.184	143.31
382.409	151.31
382.634	146.31
382.86	133.31
383.085	153.31
383.31	156.31
383.535	146.31
383.761	159.31
383.986	152.31
384.211	147.31
384.436	155.31
384.662	140.31
384.887	172.31
385.112	164.31
385.337	147.31
385.562	152.31
385.787	166.31
386.013	152.31
386.238	136.31
386.463	152.31
386.688	185.31
386.913	165.31
387.138	160.31
387.363	141.31
387.588	156.31
387.813	156.31
388.038	148.31
388.263	151.31
388.488	167.31
388.713	148.31
388.938	158.31
389.163	166.31
389.387	166.31
389.612	163.31
389.837	158.31
390.062	170.31
390.287	156.31
390.512	134.31
390.736	140.31
390.961	164.31
391.186	156.31
391.411	162.31
391.636	150.31
391.86	181.31
392.085	173.31
392.31	174.31
392.534	173.31
392.759	175.31
392.984	161.31
393.208	173.31
393.433	155.31
393.658	163.31
393.882	171.31
394.107	164.31
394.331	163.31
394.556	164.31
394.78	168.31
395.005	166.31
395.229	158.31
395.454	165.31
395.678	166.31
395.903	166.31
396.127	173.31
396.352	160.31
396.576	163.31
396.801	159.31
397.025	175.31
397.249	172.31
397.474	178.31
397.698	171.31
397.922	173.31
398.147	163.31
398.371	174.31
398.595	191.31
398.82	202.31
399.044	186.31
399.268	218.31
399.492	221.31
399.717	242.31
399.941	233.31
400.165	196.31
400.389	194.31
400.613	173.31
400.837	182.31
401.062	184.31
401.286	182.31
401.51	167.31
401.734	172.31
401.958	191.31
402.182	174.31
402.406	178.31
402.63	194.31
402.854	204.31
403.078	196.31
403.302	197.31
403.526	198.31
403.75	215.31
403.974	209.31
404.198	191.31
404.422	191.31
404.645	194.31
404.869	202.31
405.093	193.31
405.317	184.31
405.541	219.31
405.765	198.31
405.988	196.31
406.212	185.31
406.436	191.31
406.66	190.31
406.883	211.31
407.107	207.31
407.331	220.31
407.555	204.31
407.778	203.31
408.002	208.31
408.226	197.31
408.449	194.31
408.673	197.31
408.896	188.31
409.12	190.31
409.344	187.31
409.567	191.31
409.791	179.31
410.014	200.31
410.238	185.31
410.461	200.31
410.685	189.31
410.908	174.31
411.132	194.31
411.355	185.31
411.578	198.31
411.802	195.31
412.025	190.31
412.249	183.31
412.472	163.31
412.695	171.31
412.919	186.31
413.142	203.31
413.365	189.31
413.589	170.31
413.812	170.31
414.035	190.31
414.258	180.31
414.482	166.31
414.705	181.31
414.928	195.31
415.151	182.31
415.374	169.31
415.597	190.31
415.821	195.31
416.044	176.31
416.267	176.31
416.49	190.31
416.713	172.31
416.936	178.31
417.159	183.31
417.382	162.31
417.605	181.31
417.828	174.31
418.051	156.31
418.274	173.31
418.497	176.31
418.72	171.31
418.943	193.31
419.166	182.31
419.389	186.31
419.611	185.31
419.834	196.31
420.057	193.31
420.28	183.31
420.503	176.31
420.726	173.31
420.948	169.31
421.171	182.31
421.394	160.31
421.617	183.31
421.839	180.31
422.062	178.31
422.285	172.31
422.507	190.31
422.73	191.31
422.953	195.31
423.175	191.31
423.398	190.31
423.621	195.31
423.843	190.31
424.066	186.31
424.288	184.31
424.511	186.31
424.733	202.31
424.956	183.31
425.178	194.31
425.401	189.31
425.623	170.31
425.846	172.31
426.068	177.31
426.291	184.31
426.513	183.31
426.735	191.31
426.958	180.31
427.18	185.31
427.402	169.31
427.625	166.31
427.847	170.31
428.069	162.31
428.292	189.31
428.514	179.31
428.736	172.31
428.958	155.31
429.181	166.31
429.403	194.31
429.625	162.31
429.847	170.31
430.069	166.31
430.292	184.31
430.514	149.31
430.736	150.31
430.958	162.31
431.18	158.31
431.402	162.31
431.624	151.31
431.846	162.31
432.068	183.31
432.29	180.31
432.512	180.31
432.734	171.31
432.956	175.31
433.178	172.31
433.4	169.31
433.622	163.31
433.844	182.31
434.066	186.31
434.287	188.31
434.509	180.31
434.731	182.31
434.953	176.31
435.175	181.31
435.397	184.31
435.618	155.31
435.84	176.31
436.062	192.31
436.284	171.31
436.505	172.31
436.727	183.31
436.949	183.31
437.17	172.31
437.392	166.31
437.614	162.31
437.835	155.31
438.057	162.31
438.278	174.31
438.5	168.31
438.721	159.31
438.943	175.31
439.165	164.31
439.386	179.31
439.608	174.31
439.829	181.31
440.05	168.31
440.272	161.31
440.493	173.31
440.715	178.31
440.936	183.31
441.158	191.31
441.379	186.31
441.6	186.31
441.822	175.31
442.043	193.31
442.264	182.31
442.486	173.31
442.707	174.31
442.928	187.31
443.149	189.31
443.371	186.31
443.592	182.31
443.813	184.31
444.034	184.31
444.255	192.31
444.476	202.31
444.698	196.31
444.919	216.31
445.14	452.31
445.361	303.31
445.582	180.31
445.803	178.31
446.024	177.31
446.245	189.31
446.466	172.31
446.687	167.31
446.908	156.31
447.129	191.31
447.35	168.31
447.571	173.31
447.792	166.31
448.013	175.31
448.234	150.31
448.455	160.31
448.675	158.31
448.896	150.31
449.117	144.31
449.338	151.31
449.559	168.31
449.779	163.31
450	164.31
450.221	159.31
450.442	151.31
450.662	168.31
450.883	179.31
451.104	172.31
451.324	161.31
451.545	175.31
451.766	164.31
451.986	178.31
452.207	164.31
452.428	157.31
452.648	158.31
452.869	162.31
453.089	172.31
453.31	148.31
453.53	147.31
453.751	155.31
453.971	149.31
454.192	155.31
454.412	158.31
454.633	153.31
454.853	166.31
455.073	162.31
455.294	156.31
455.514	173.31
455.734	151.31
455.955	166.31
456.175	159.31
456.395	152.31
456.616	133.31
456.836	162.31
457.056	154.31
457.276	159.31
457.497	146.31
457.717	147.31
457.937	147.31
458.157	157.31
458.377	156.31
458.598	157.31
458.818	164.31
459.038	159.31
459.258	151.31
459.478	160.31
459.698	168.31
459.918	162.31
460.138	185.31
460.358	169.31
460.578	187.31
460.798	191.31
461.018	181.31
461.238	191.31
461.458	196.31
461.678	168.31
461.898	203.31
462.118	202.31
462.338	186.31
462.558	206.31
462.777	215.31
462.997	216.31
463.217	214.31
463.437	223.31
463.657	218.31
463.876	204.31
464.096	213.31
464.316	205.31
464.536	198.31
464.755	209.31
464.975	182.31
465.195	183.31
465.414	187.31
465.634	173.31
465.854	191.31
466.073	161.31
466.293	176.31
466.512	164.31
466.732	167.31
466.951	159.31
467.171	174.31
467.391	162.31
467.61	170.31
467.829	161.31
468.049	158.31
468.268	159.31
468.488	172.31
468.707	179.31
468.927	163.31
469.146	157.31
469.365	168.31
469.585	168.31
469.804	171.31
470.023	165.31
470.243	182.31
470.462	183.31
470.681	178.31
470.901	160.31
471.12	154.31
471.339	174.31
471.558	159.31
471.777	164.31
471.997	172.31
472.216	162.31
472.435	157.31
472.654	162.31
472.873	173.31
473.092	172.31
473.311	163.31
473.53	165.31
473.749	172.31
473.968	169.31
474.187	164.31
474.406	160.31
474.625	160.31
474.844	173.31
475.063	166.31
475.282	163.31
475.501	159.31
475.72	176.31
475.939	175.31
476.158	157.31
476.377	158.31
476.596	178.31
476.814	172.31
477.033	178.31
477.252	176.31
477.471	175.31
477.69	170.31
477.908	165.31
478.127	190.31
478.346	181.31
478.564	198.31
478.783	169.31
479.002	174.31
479.22	193.31
479.439	204.31
479.658	186.31
479.876	176.31
480.095	194.31
480.313	187.31
480.532	204.31
480.751	182.31
480.969	166.31
481.188	194.31
481.406	193.31
481.624	163.31
481.843	164.31
482.061	146.31
482.28	181.31
482.498	155.31
482.717	164.31
482.935	171.31
483.153	171.31
483.372	196.31
483.59	170.31
483.808	166.31
484.027	186.31
484.245	190.31
484.463	174.31
484.681	220.31
484.9	191.31
485.118	188.31
485.336	165.31
485.554	170.31
485.772	170.31
485.99	184.31
486.209	183.31
486.427	170.31
486.645	185.31
486.863	182.31
487.081	176.31
487.299	188.31
487.517	188.31
487.735	189.31
487.953	190.31
488.171	187.31
488.389	184.31
488.607	174.31
488.825	167.31
489.043	180.31
489.261	190.31
489.479	179.31
489.696	185.31
489.914	175.31
490.132	181.31
490.35	193.31
490.568	181.31
490.786	190.31
491.003	175.31
491.221	182.31
491.439	171.31
491.657	199.31
491.874	202.31
492.092	195.31
492.31	195.31
492.527	193.31
492.745	180.31
492.963	199.31
493.18	199.31
493.398	186.31
493.615	194.31
493.833	176.31
494.05	193.31
494.268	184.31
494.485	192.31
494.703	203.31
494.92	189.31
495.138	185.31
495.355	195.31
495.573	192.31
495.79	194.31
496.008	202.31
496.225	197.31
496.442	209.31
496.66	202.31
496.877	194.31
497.094	215.31
497.312	220.31
497.529	192.31
497.746	219.31
497.963	198.31
498.181	214.31
498.398	228.31
498.615	237.31
498.832	238.31
499.049	261.31
499.267	278.31
499.484	284.31
499.701	301.31
499.918	359.31
500.135	380.31
500.352	435.31
500.569	424.31
500.786	412.31
501.003	387.31
501.22	342.31
501.437	334.31
501.654	282.31
501.871	271.31
502.088	247.31
502.305	237.31
502.522	244.31
502.739	231.31
502.956	226.31
503.172	225.31
503.389	205.31
503.606	199.31
503.823	206.31
504.04	223.31
504.256	228.31
504.473	218.31
504.69	204.31
504.907	219.31
505.123	190.31
505.34	212.31
505.557	199.31
505.773	184.31
505.99	190.31
506.207	176.31
506.423	173.31
506.64	185.31
506.856	172.31
507.073	182.31
507.289	183.31
507.506	165.31
507.722	167.31
507.939	164.31
508.155	181.31
508.372	173.31
508.588	171.31
508.805	178.31
509.021	168.31
509.238	175.31
509.454	163.31
509.67	157.31
509.887	173.31
510.103	159.31
510.319	174.31
510.536	169.31
510.752	163.31
510.968	172.31
511.184	166.31
511.401	168.31
511.617	180.31
511.833	169.31
512.049	158.31
512.265	157.31
512.481	154.31
512.698	160.31
512.914	171.31
513.13	155.31
513.346	156.31
513.562	169.31
513.778	164.31
513.994	174.31
514.21	161.31
514.426	178.31
514.642	172.31
514.858	171.31
515.074	168.31
515.29	176.31
515.506	179.31
515.721	177.31
515.937	184.31
516.153	149.31
516.369	169.31
516.585	178.31
516.801	190.31
517.016	211.31
517.232	210.31
517.448	205.31
517.664	215.31
517.879	206.31
518.095	206.31
518.311	201.31
518.527	204.31
518.742	184.31
518.958	188.31
519.173	184.31
519.389	187.31
519.605	166.31
519.82	176.31
520.036	163.31
520.251	172.31
520.467	170.31
520.682	164.31
520.898	165.31
521.113	165.31
521.329	166.31
521.544	165.31
521.76	155.31
521.975	172.31
522.19	159.31
522.406	167.31
522.621	159.31
522.836	155.31
523.052	153.31
523.267	164.31
523.482	157.31
523.698	156.31
523.913	167.31
524.128	175.31
524.343	148.31
524.559	177.31
524.774	166.31
524.989	163.31
525.204	170.31
525.419	161.31
525.634	158.31
525.849	179.31
526.064	166.31
526.28	168.31
526.495	158.31
526.71	154.31
526.925	168.31
527.14	154.31
527.355	135.31
527.57	138.31
527.785	164.31
527.999	158.31
528.214	162.31
528.429	164.31
528.644	165.31
528.859	171.31
529.074	167.31
529.289	165.31
529.503	143.31
529.718	168.31
529.933	162.31
530.148	146.31
530.363	151.31
530.577	172.31
530.792	156.31
531.007	141.31
531.221	174.31
531.436	151.31
531.651	159.31
531.865	156.31
532.08	160.31
532.295	165.31
532.509	159.31
532.724	158.31
532.938	156.31
533.153	169.31
533.367	167.31
533.582	155.31
533.796	151.31
534.011	161.31
534.225	147.31
534.44	155.31
534.654	137.31
534.868	154.31
535.083	177.31
535.297	161.31
535.511	156.31
535.726	159.31
535.94	158.31
536.154	153.31
536.369	158.31
536.583	148.31
536.797	154.31
537.011	163.31
537.225	149.31
537.44	155.31
537.654	174.31
537.868	149.31
538.082	148.31
538.296	146.31
538.51	158.31
538.724	148.31
538.938	166.31
539.153	170.31
539.367	152.31
539.581	152.31
539.795	138.31
540.009	133.31
540.222	152.31
540.436	157.31
540.65	143.31
540.864	143.31
541.078	148.31
541.292	167.31
541.506	162.31
541.72	164.31
541.934	169.31
542.147	166.31
542.361	161.31
542.575	151.31
542.789	164.31
543.002	157.31
543.216	162.31
543.43	162.31
543.644	154.31
543.857	182.31
544.071	173.31
544.285	174.31
544.498	164.31
544.712	163.31
544.925	157.31
545.139	166.31
545.352	178.31
545.566	172.31
545.779	172.31
545.993	176.31
546.206	156.31
546.42	164.31
546.633	168.31
546.847	186.31
547.06	187.31
547.274	169.31
547.487	159.31
547.7	172.31
547.914	154.31
548.127	161.31
548.34	165.31
548.554	176.31
548.767	175.31
548.98	175.31
549.193	154.31
549.407	158.31
549.62	165.31
549.833	164.31
550.046	159.31
550.259	157.31
550.473	151.31
550.686	174.31
550.899	148.31
551.112	161.31
551.325	173.31
551.538	158.31
551.751	158.31
551.964	174.31
552.177	147.31
552.39	155.31
552.603	168.31
552.816	176.31
553.029	168.31
553.242	193.31
553.455	162.31
553.667	191.31
553.88	176.31
554.093	183.31
554.306	172.31
554.519	174.31
554.732	167.31
554.944	186.31
555.157	161.31
555.37	154.31
555.583	147.31
555.795	158.31
556.008	136.31
556.221	154.31
556.433	166.31
556.646	157.31
556.859	158.31
557.071	154.31
557.284	134.31
557.496	160.31
557.709	147.31
557.921	154.31
558.134	149.31
558.346	157.31
558.559	144.31
558.771	152.31
558.984	167.31
559.196	149.31
559.409	155.31
559.621	159.31
559.833	143.31
560.046	127.31
560.258	130.31
560.47	136.31
560.683	142.31
560.895	147.31
561.107	150.31
561.32	141.31
561.532	144.31
561.744	144.31
561.956	156.31
562.168	136.31
562.381	156.31
562.593	150.31
562.805	161.31
563.017	165.31
563.229	147.31
563.441	151.31
563.653	145.31
563.865	139.31
564.077	159.31
564.289	145.31
564.501	156.31
564.713	164.31
564.925	148.31
565.137	150.31
565.349	164.31
565.561	168.31
565.773	180.31
565.985	178.31
566.197	192.31
566.408	190.31
566.62	187.31
566.832	194.31
567.044	202.31
567.255	179.31
567.467	197.31
567.679	222.31
567.891	224.31
568.102	210.31
568.314	205.31
568.526	206.31
568.737	195.31
568.949	167.31
569.161	166.31
569.372	160.31
569.584	160.31
569.795	149.31
570.007	152.31
570.218	141.31
570.43	138.31
570.641	142.31
570.853	157.31
571.064	136.31
571.276	146.31
571.487	136.31
571.698	149.31
571.91	147.31
572.121	134.31
572.333	136.31
572.544	133.31
572.755	147.31
572.966	113.31
573.178	130.31
573.389	129.31
573.6	135.31
573.811	138.31
574.023	120.31
574.234	138.31
574.445	139.31
574.656	141.31
574.867	127.31
575.078	127.31
575.289	116.31
575.501	125.31
575.712	131.31
575.923	117.31
576.134	149.31
576.345	129.31
576.556	113.31
576.767	144.31
576.978	128.31
577.188	138.31
577.399	122.31
577.61	141.31
577.821	148.31
578.032	115.31
578.243	128.31
578.454	120.31
578.665	135.31
578.875	142.31
579.086	118.31
579.297	118.31
579.508	143.31
579.718	116.31
579.929	124.31
580.14	127.31
580.35	110.31
580.561	124.31
580.772	127.31
580.982	124.31
581.193	121.31
581.403	144.31
581.614	118.31
581.825	119.31
582.035	119.31
582.246	138.31
582.456	122.31
582.667	109.31
582.877	139.31
583.087	128.31
583.298	129.31
583.508	119.31
583.719	123.31
583.929	134.31
584.139	120.31
584.35	117.31
584.56	133.31
584.77	130.31
584.981	123.31
585.191	119.31
585.401	110.31
585.611	118.31
585.821	123.31
586.032	139.31
586.242	113.31
586.452	111.31
586.662	112.31
586.872	125.31
587.082	114.31
587.292	120.31
587.502	123.31
587.713	129.31
587.923	127.31
588.133	122.31
588.343	124.31
588.553	138.31
588.762	123.31
588.972	129.31
589.182	114.31
589.392	116.31
589.602	118.31
589.812	123.31
590.022	122.31
590.232	146.31
590.441	126.31
590.651	127.31
590.861	127.31
591.071	132.31
591.281	133.31
591.49	117.31
591.7	116.31
591.91	130.31
592.119	144.31
592.329	123.31
592.539	123.31
592.748	119.31
592.958	125.31
593.167	128.31
593.377	131.31
593.587	142.31
593.796	139.31
594.006	140.31
594.215	140.31
594.424	129.31
594.634	146.31
594.843	127.31
595.053	122.31
595.262	119.31
595.472	133.31
595.681	126.31
595.89	127.31
596.1	110.31
596.309	134.31
596.518	132.31
596.727	118.31
596.937	107.31
597.146	117.31
597.355	118.31
597.564	119.31
597.774	138.31
597.983	122.31
598.192	114.31
598.401	106.31
598.61	123.31
598.819	112.31
599.028	128.31
599.237	111.31
599.446	116.31
599.655	119.31
599.864	114.31
600.073	108.31
600.282	108.31
600.491	99.31
600.7	102.31
600.909	108.31
601.118	113.31
601.327	113.31
601.536	123.31
601.745	113.31
601.953	116.31
602.162	134.31
602.371	107.31
602.58	95.31
602.789	119.31
602.997	122.31
603.206	117.31
603.415	112.31
603.623	114.31
603.832	111.31
604.041	109.31
604.249	109.31
604.458	114.31
604.666	110.31
604.875	119.31
605.084	118.31
605.292	113.31
605.501	112.31
605.709	102.31
605.918	117.31
606.126	127.31
606.334	122.31
606.543	116.31
606.751	117.31
606.96	140.31
607.168	121.31
607.376	120.31
607.585	115.31
607.793	123.31
608.001	116.31
608.21	102.31
608.418	107.31
608.626	122.31
608.834	118.31
609.043	117.31
609.251	112.31
609.459	115.31
609.667	118.31
609.875	117.31
610.083	116.31
610.291	116.31
610.499	107.31
610.707	102.31
610.916	111.31
611.124	113.31
611.332	111.31
611.54	108.31
611.748	104.31
611.955	113.31
612.163	118.31
612.371	123.31
612.579	99.31
612.787	118.31
612.995	106.31
613.203	126.31
613.411	104.31
613.618	104.31
613.826	107.31
614.034	118.31
614.242	125.31
614.449	104.31
614.657	106.31
614.865	118.31
615.072	115.31
615.28	116.31
615.488	119.31
615.695	114.31
615.903	114.31
616.111	115.31
616.318	133.31
616.526	123.31
616.733	131.31
616.941	107.31
617.148	140.31
617.356	107.31
617.563	106.31
617.771	115.31
617.978	110.31
618.185	122.31
618.393	107.31
618.6	106.31
618.807	100.31
619.015	118.31
619.222	109.31
619.429	112.31
619.637	110.31
619.844	100.31
620.051	117.31
620.258	110.31
620.466	112.31
620.673	102.31
620.88	104.31
621.087	113.31
621.294	122.31
621.501	109.31
621.708	97.31
621.915	106.31
622.122	120.31
622.329	116.31
622.536	119.31
622.743	107.31
622.95	118.31
623.157	99.31
623.364	118.31
623.571	105.31
623.778	95.31
623.985	117.31
624.192	115.31
624.399	99.31
624.606	122.31
624.812	101.31
625.019	94.31
625.226	102.31
625.433	105.31
625.639	111.31
625.846	105.31
626.053	94.31
626.259	100.31
626.466	112.31
626.673	110.31
626.879	104.31
627.086	109.31
627.293	95.31
627.499	100.31
627.706	113.31
627.912	85.31
628.119	103.31
628.325	114.31
628.532	104.31
628.738	114.31
628.945	109.31
629.151	102.31
629.357	104.31
629.564	113.31
629.77	104.31
629.976	108.31
630.183	84.31
630.389	99.31
630.595	101.31
630.802	103.31
631.008	108.31
631.214	106.31
631.42	119.31
631.627	133.31
631.833	101.31
632.039	95.31
632.245	94.31
632.451	111.31
632.657	107.31
632.863	95.31
633.069	92.31
633.275	116.31
633.481	103.31
633.688	94.31
633.893	99.31
634.099	98.31
634.305	102.31
634.511	110.31
634.717	108.31
634.923	91.31
635.129	99.31
635.335	104.31
635.541	103.31
635.747	100.31
635.952	98.31
636.158	114.31
636.364	104.31
636.57	103.31
636.775	124.31
636.981	100.31
637.187	86.31
637.392	106.31
637.598	106.31
637.804	111.31
638.009	101.31
638.215	96.31
638.421	90.31
638.626	116.31
638.832	120.31
639.037	104.31
639.243	111.31
639.448	108.31
639.654	108.31
639.859	103.31
640.065	90.31
640.27	113.31
640.475	91.31
640.681	105.31
640.886	95.31
641.091	94.31
641.297	110.31
641.502	86.31
641.707	102.31
641.913	103.31
642.118	98.31
642.323	97.31
642.528	115.31
642.733	96.31
642.939	93.31
643.144	93.31
643.349	106.31
643.554	81.31
643.759	104.31
643.964	100.31
644.169	102.31
644.374	88.31
644.579	101.31
644.784	99.31
644.989	95.31
645.194	113.31
645.399	103.31
645.604	107.31
645.809	90.31
646.014	94.31
646.219	71.31
646.423	91.31
646.628	86.31
646.833	88.31
647.038	115.31
647.243	111.31
647.447	110.31
647.652	95.31
647.857	111.31
648.062	106.31
648.266	102.31
648.471	99.31
648.676	112.31
648.88	90.31
649.085	95.31
649.289	108.31
649.494	90.31
649.698	108.31
649.903	107.31
650.107	107.31
650.312	106.31
650.516	99.31
650.721	90.31
650.925	98.31
651.13	87.31
651.334	92.31
651.539	95.31
651.743	94.31
651.947	95.31
652.152	102.31
652.356	103.31
652.56	91.31
652.764	81.31
652.969	95.31
653.173	97.31
653.377	92.31
653.581	88.31
653.785	100.31
653.99	94.31
654.194	94.31
654.398	84.31
654.602	89.31
654.806	88.31
655.01	84.31
655.214	93.31
655.418	93.31
655.622	78.31
655.826	88.31
656.03	91.31
656.234	103.31
656.438	102.31
656.642	89.31
656.846	84.31
657.049	78.31
657.253	91.31
657.457	98.31
657.661	84.31
657.865	102.31
658.068	91.31
658.272	84.31
658.476	89.31
658.68	101.31
658.883	76.31
659.087	78.31
659.291	75.31
659.494	88.31
659.698	71.31
659.901	88.31
660.105	82.31
660.309	82.31
660.512	79.31
660.716	74.31
660.919	86.31
661.123	87.31
661.326	98.31
661.53	90.31
661.733	79.31
661.936	95.31
662.14	85.31
662.343	76.31
662.546	80.31
662.75	86.31
662.953	96.31
663.156	102.31
663.36	92.31
663.563	84.31
663.766	69.31
663.969	71.31
664.173	71.31
664.376	75.31
664.579	79.31
664.782	77.31
664.985	71.31
665.188	79.31
665.391	77.31
665.594	70.31
665.797	75.31
666	88.31
666.203	76.31
666.406	78.31
666.609	88.31
666.812	90.31
667.015	85.31
667.218	84.31
667.421	82.31
667.624	79.31
667.827	79.31
668.03	82.31
668.232	95.31
668.435	76.31
668.638	82.31
668.841	89.31
669.043	78.31
669.246	79.31
669.449	69.31
669.651	74.31
669.854	62.31
670.057	74.31
670.259	67.31
670.462	84.31
670.665	79.31
670.867	84.31
671.07	91.31
671.272	82.31
671.475	80.31
671.677	74.31
671.88	61.31
672.082	83.31
672.284	94.31
672.487	71.31
672.689	88.31
672.892	78.31
