Data from SampD_HRD10591_00038.txt Node
Date: Mon Jan 19 11:41:34 EST 2026
User: Yrep
Spectrometer: HR+D1059
Trigger mode: 0
Integration Time (sec): 3.443000E-1
Scans to average: 1
Electric dark correction enabled: true
Nonlinearity correction enabled: false
Boxcar width: 0
XAxis mode: Wavelengths
Number of Pixels in Spectrum: 2048
>>>>>Begin Spectral Data<<<<<
223.165	-17.5
223.4	-17.5
223.635	-17.5
223.869	-35.5
224.104	-17.5
224.338	-30.5
224.573	-28.5
224.808	-22.5
225.042	2.5
225.277	-9.5
225.511	10.5
225.746	11.5
225.98	1.5
226.215	17.5
226.449	32.5
226.683	14.5
226.918	35.5
227.152	35.5
227.387	45.5
227.621	50.5
227.856	41.5
228.09	42.5
228.324	56.5
228.559	49.5
228.793	63.5
229.027	86.5
229.262	65.5
229.496	75.5
229.73	61.5
229.964	77.5
230.199	77.5
230.433	65.5
230.667	76.5
230.901	74.5
231.136	75.5
231.37	75.5
231.604	83.5
231.838	95.5
232.072	71.5
232.306	84.5
232.541	69.5
232.775	77.5
233.009	70.5
233.243	92.5
233.477	74.5
233.711	85.5
233.945	88.5
234.179	90.5
234.413	67.5
234.647	87.5
234.881	79.5
235.115	70.5
235.349	93.5
235.583	101.5
235.817	83.5
236.051	86.5
236.285	71.5
236.519	91.5
236.753	74.5
236.987	81.5
237.221	70.5
237.455	88.5
237.689	73.5
237.922	84.5
238.156	81.5
238.39	66.5
238.624	75.5
238.858	84.5
239.091	86.5
239.325	82.5
239.559	82.5
239.793	87.5
240.027	91.5
240.26	90.5
240.494	93.5
240.728	67.5
240.961	73.5
241.195	81.5
241.429	88.5
241.662	74.5
241.896	85.5
242.13	73.5
242.363	79.5
242.597	82.5
242.83	83.5
243.064	82.5
243.298	70.5
243.531	70.5
243.765	89.5
243.998	73.5
244.232	82.5
244.465	81.5
244.699	71.5
244.932	84.5
245.166	92.5
245.399	81.5
245.633	80.5
245.866	91.5
246.099	81.5
246.333	79.5
246.566	86.5
246.8	91.5
247.033	86.5
247.266	70.5
247.5	87.5
247.733	93.5
247.966	89.5
248.2	82.5
248.433	89.5
248.666	89.5
248.899	89.5
249.133	85.5
249.366	109.5
249.599	87.5
249.832	83.5
250.066	73.5
250.299	72.5
250.532	80.5
250.765	79.5
250.998	91.5
251.231	88.5
251.465	86.5
251.698	80.5
251.931	81.5
252.164	71.5
252.397	73.5
252.63	101.5
252.863	96.5
253.096	89.5
253.329	89.5
253.562	69.5
253.795	81.5
254.028	75.5
254.261	78.5
254.494	100.5
254.727	79.5
254.96	83.5
255.193	81.5
255.426	70.5
255.659	84.5
255.892	86.5
256.124	92.5
256.357	99.5
256.59	93.5
256.823	91.5
257.056	85.5
257.289	92.5
257.521	85.5
257.754	78.5
257.987	80.5
258.22	85.5
258.452	74.5
258.685	85.5
258.918	104.5
259.151	77.5
259.383	100.5
259.616	82.5
259.849	86.5
260.081	88.5
260.314	99.5
260.547	78.5
260.779	81.5
261.012	95.5
261.244	83.5
261.477	113.5
261.71	82.5
261.942	85.5
262.175	89.5
262.407	85.5
262.64	90.5
262.872	98.5
263.105	92.5
263.337	109.5
263.57	102.5
263.802	76.5
264.035	69.5
264.267	94.5
264.499	102.5
264.732	90.5
264.964	94.5
265.197	95.5
265.429	97.5
265.661	97.5
265.894	96.5
266.126	95.5
266.358	107.5
266.591	92.5
266.823	91.5
267.055	87.5
267.287	90.5
267.52	100.5
267.752	102.5
267.984	93.5
268.216	94.5
268.448	96.5
268.681	92.5
268.913	90.5
269.145	96.5
269.377	107.5
269.609	84.5
269.841	89.5
270.073	88.5
270.306	84.5
270.538	79.5
270.77	97.5
271.002	89.5
271.234	94.5
271.466	107.5
271.698	94.5
271.93	87.5
272.162	85.5
272.394	107.5
272.626	98.5
272.858	94.5
273.09	89.5
273.322	101.5
273.553	94.5
273.785	104.5
274.017	96.5
274.249	91.5
274.481	81.5
274.713	79.5
274.945	91.5
275.176	86.5
275.408	99.5
275.64	111.5
275.872	90.5
276.104	102.5
276.335	100.5
276.567	91.5
276.799	95.5
277.031	93.5
277.262	89.5
277.494	106.5
277.726	111.5
277.957	97.5
278.189	99.5
278.421	91.5
278.652	89.5
278.884	97.5
279.115	103.5
279.347	95.5
279.579	116.5
279.81	95.5
280.042	82.5
280.273	82.5
280.505	82.5
280.736	92.5
280.968	99.5
281.199	110.5
281.431	101.5
281.662	100.5
281.894	90.5
282.125	91.5
282.356	102.5
282.588	83.5
282.819	91.5
283.051	89.5
283.282	98.5
283.513	107.5
283.745	90.5
283.976	103.5
284.207	101.5
284.439	95.5
284.67	100.5
284.901	87.5
285.132	100.5
285.364	85.5
285.595	100.5
285.826	110.5
286.057	113.5
286.288	98.5
286.52	96.5
286.751	92.5
286.982	99.5
287.213	99.5
287.444	113.5
287.675	96.5
287.906	95.5
288.138	101.5
288.369	110.5
288.6	85.5
288.831	98.5
289.062	114.5
289.293	89.5
289.524	103.5
289.755	95.5
289.986	96.5
290.217	91.5
290.448	88.5
290.679	97.5
290.91	106.5
291.141	94.5
291.371	94.5
291.602	103.5
291.833	108.5
292.064	91.5
292.295	98.5
292.526	98.5
292.757	88.5
292.987	103.5
293.218	96.5
293.449	100.5
293.68	104.5
293.91	83.5
294.141	117.5
294.372	93.5
294.603	102.5
294.833	99.5
295.064	102.5
295.295	94.5
295.525	90.5
295.756	106.5
295.987	108.5
296.217	104.5
296.448	100.5
296.679	97.5
296.909	98.5
297.14	101.5
297.37	101.5
297.601	100.5
297.831	95.5
298.062	114.5
298.292	103.5
298.523	121.5
298.753	93.5
298.984	106.5
299.214	97.5
299.445	103.5
299.675	105.5
299.905	101.5
300.136	89.5
300.366	107.5
300.597	93.5
300.827	115.5
301.057	92.5
301.288	81.5
301.518	92.5
301.748	106.5
301.979	145.5
302.209	98.5
302.439	93.5
302.669	106.5
302.9	97.5
303.13	110.5
303.36	106.5
303.59	86.5
303.82	98.5
304.051	112.5
304.281	89.5
304.511	109.5
304.741	102.5
304.971	111.5
305.201	107.5
305.431	108.5
305.661	116.5
305.891	114.5
306.121	102.5
306.352	98.5
306.582	83.5
306.812	101.5
307.042	102.5
307.272	123.5
307.502	106.5
307.731	117.5
307.961	99.5
308.191	99.5
308.421	111.5
308.651	83.5
308.881	101.5
309.111	93.5
309.341	91.5
309.571	96.5
309.8	99.5
310.03	99.5
310.26	101.5
310.49	96.5
310.72	98.5
310.949	92.5
311.179	125.5
311.409	102.5
311.639	98.5
311.868	112.5
312.098	116.5
312.328	97.5
312.557	97.5
312.787	105.5
313.017	110.5
313.246	105.5
313.476	101.5
313.706	101.5
313.935	104.5
314.165	110.5
314.394	111.5
314.624	107.5
314.853	116.5
315.083	104.5
315.312	114.5
315.542	102.5
315.771	117.5
316.001	92.5
316.23	112.5
316.46	109.5
316.689	98.5
316.919	111.5
317.148	97.5
317.377	114.5
317.607	107.5
317.836	98.5
318.065	102.5
318.295	106.5
318.524	97.5
318.753	93.5
318.983	102.5
319.212	99.5
319.441	112.5
319.67	114.5
319.9	104.5
320.129	94.5
320.358	96.5
320.587	117.5
320.816	100.5
321.046	107.5
321.275	102.5
321.504	105.5
321.733	102.5
321.962	108.5
322.191	103.5
322.42	98.5
322.649	106.5
322.878	102.5
323.108	108.5
323.337	110.5
323.566	94.5
323.795	104.5
324.024	109.5
324.253	109.5
324.482	102.5
324.71	102.5
324.939	113.5
325.168	99.5
325.397	97.5
325.626	102.5
325.855	106.5
326.084	112.5
326.313	99.5
326.542	112.5
326.77	109.5
326.999	95.5
327.228	116.5
327.457	103.5
327.686	108.5
327.914	96.5
328.143	103.5
328.372	101.5
328.6	103.5
328.829	99.5
329.058	89.5
329.287	107.5
329.515	101.5
329.744	98.5
329.972	93.5
330.201	110.5
330.43	107.5
330.658	99.5
330.887	101.5
331.115	110.5
331.344	100.5
331.572	107.5
331.801	110.5
332.03	95.5
332.258	112.5
332.486	99.5
332.715	100.5
332.943	107.5
333.172	107.5
333.4	102.5
333.629	121.5
333.857	121.5
334.085	134.5
334.314	108.5
334.542	118.5
334.771	130.5
334.999	116.5
335.227	96.5
335.455	109.5
335.684	117.5
335.912	114.5
336.14	111.5
336.369	113.5
336.597	118.5
336.825	108.5
337.053	103.5
337.281	103.5
337.51	95.5
337.738	118.5
337.966	101.5
338.194	111.5
338.422	98.5
338.65	122.5
338.878	123.5
339.106	102.5
339.334	113.5
339.562	103.5
339.79	112.5
340.018	111.5
340.246	108.5
340.474	118.5
340.702	117.5
340.93	102.5
341.158	107.5
341.386	111.5
341.614	88.5
341.842	97.5
342.07	99.5
342.298	102.5
342.526	105.5
342.754	94.5
342.981	113.5
343.209	107.5
343.437	134.5
343.665	118.5
343.893	106.5
344.12	116.5
344.348	102.5
344.576	115.5
344.804	115.5
345.031	88.5
345.259	107.5
345.487	102.5
345.714	116.5
345.942	110.5
346.17	121.5
346.397	109.5
346.625	100.5
346.853	112.5
347.08	100.5
347.308	113.5
347.535	121.5
347.763	111.5
347.99	111.5
348.218	117.5
348.445	94.5
348.673	103.5
348.9	97.5
349.128	105.5
349.355	90.5
349.583	97.5
349.81	121.5
350.037	110.5
350.265	115.5
350.492	92.5
350.72	93.5
350.947	116.5
351.174	95.5
351.402	97.5
351.629	100.5
351.856	102.5
352.083	101.5
352.311	107.5
352.538	94.5
352.765	103.5
352.992	116.5
353.22	113.5
353.447	93.5
353.674	91.5
353.901	113.5
354.128	110.5
354.355	97.5
354.583	102.5
354.81	96.5
355.037	105.5
355.264	109.5
355.491	116.5
355.718	115.5
355.945	102.5
356.172	110.5
356.399	108.5
356.626	102.5
356.853	98.5
357.08	106.5
357.307	99.5
357.534	111.5
357.761	115.5
357.988	102.5
358.215	111.5
358.441	102.5
358.668	121.5
358.895	109.5
359.122	106.5
359.349	109.5
359.576	102.5
359.802	110.5
360.029	103.5
360.256	114.5
360.483	100.5
360.709	106.5
360.936	121.5
361.163	109.5
361.39	109.5
361.616	107.5
361.843	115.5
362.07	103.5
362.296	112.5
362.523	103.5
362.749	96.5
362.976	92.5
363.203	122.5
363.429	104.5
363.656	102.5
363.882	89.5
364.109	123.5
364.335	116.5
364.562	101.5
364.788	95.5
365.015	106.5
365.241	97.5
365.468	107.5
365.694	101.5
365.92	89.5
366.147	107.5
366.373	107.5
366.599	106.5
366.826	100.5
367.052	101.5
367.278	98.5
367.505	95.5
367.731	112.5
367.957	105.5
368.184	108.5
368.41	113.5
368.636	116.5
368.862	111.5
369.089	91.5
369.315	112.5
369.541	107.5
369.767	100.5
369.993	107.5
370.219	112.5
370.445	108.5
370.672	102.5
370.898	103.5
371.124	107.5
371.35	107.5
371.576	105.5
371.802	108.5
372.028	113.5
372.254	106.5
372.48	82.5
372.706	114.5
372.932	103.5
373.158	119.5
373.384	107.5
373.61	106.5
373.835	111.5
374.061	106.5
374.287	116.5
374.513	111.5
374.739	108.5
374.965	113.5
375.191	94.5
375.416	108.5
375.642	116.5
375.868	108.5
376.094	106.5
376.319	116.5
376.545	102.5
376.771	103.5
376.997	112.5
377.222	117.5
377.448	111.5
377.674	122.5
377.899	125.5
378.125	90.5
378.35	115.5
378.576	103.5
378.802	117.5
379.027	98.5
379.253	95.5
379.478	109.5
379.704	102.5
379.929	105.5
380.155	113.5
380.38	105.5
380.606	100.5
380.831	128.5
381.057	114.5
381.282	105.5
381.507	109.5
381.733	106.5
381.958	99.5
382.184	113.5
382.409	111.5
382.634	95.5
382.86	107.5
383.085	121.5
383.31	116.5
383.535	115.5
383.761	123.5
383.986	127.5
384.211	116.5
384.436	102.5
384.662	102.5
384.887	117.5
385.112	125.5
385.337	121.5
385.562	110.5
385.787	111.5
386.013	122.5
386.238	118.5
386.463	115.5
386.688	135.5
386.913	97.5
387.138	106.5
387.363	105.5
387.588	124.5
387.813	108.5
388.038	114.5
388.263	116.5
388.488	110.5
388.713	119.5
388.938	118.5
389.163	114.5
389.387	101.5
389.612	125.5
389.837	125.5
390.062	122.5
390.287	115.5
390.512	112.5
390.736	124.5
390.961	103.5
391.186	110.5
391.411	131.5
391.636	109.5
391.86	130.5
392.085	127.5
392.31	126.5
392.534	126.5
392.759	117.5
392.984	117.5
393.208	121.5
393.433	127.5
393.658	121.5
393.882	112.5
394.107	103.5
394.331	111.5
394.556	103.5
394.78	124.5
395.005	119.5
395.229	107.5
395.454	112.5
395.678	118.5
395.903	114.5
396.127	121.5
396.352	118.5
396.576	113.5
396.801	113.5
397.025	109.5
397.249	112.5
397.474	114.5
397.698	119.5
397.922	114.5
398.147	106.5
398.371	109.5
398.595	138.5
398.82	110.5
399.044	120.5
399.268	134.5
399.492	141.5
399.717	155.5
399.941	153.5
400.165	131.5
400.389	121.5
400.613	134.5
400.837	124.5
401.062	115.5
401.286	122.5
401.51	130.5
401.734	112.5
401.958	129.5
402.182	121.5
402.406	126.5
402.63	120.5
402.854	117.5
403.078	131.5
403.302	128.5
403.526	139.5
403.75	139.5
403.974	141.5
404.198	125.5
404.422	134.5
404.645	130.5
404.869	121.5
405.093	111.5
405.317	141.5
405.541	141.5
405.765	138.5
405.988	129.5
406.212	134.5
406.436	116.5
406.66	147.5
406.883	139.5
407.107	147.5
407.331	144.5
407.555	145.5
407.778	133.5
408.002	126.5
408.226	130.5
408.449	139.5
408.673	137.5
408.896	134.5
409.12	140.5
409.344	140.5
409.567	143.5
409.791	136.5
410.014	141.5
410.238	126.5
410.461	131.5
410.685	134.5
410.908	141.5
411.132	135.5
411.355	134.5
411.578	118.5
411.802	125.5
412.025	134.5
412.249	142.5
412.472	125.5
412.695	113.5
412.919	126.5
413.142	116.5
413.365	121.5
413.589	106.5
413.812	125.5
414.035	137.5
414.258	116.5
414.482	131.5
414.705	108.5
414.928	118.5
415.151	116.5
415.374	126.5
415.597	127.5
415.821	123.5
416.044	118.5
416.267	121.5
416.49	137.5
416.713	127.5
416.936	137.5
417.159	123.5
417.382	114.5
417.605	115.5
417.828	127.5
418.051	125.5
418.274	121.5
418.497	117.5
418.72	115.5
418.943	133.5
419.166	108.5
419.389	134.5
419.611	130.5
419.834	130.5
420.057	120.5
420.28	125.5
420.503	149.5
420.726	118.5
420.948	127.5
421.171	114.5
421.394	102.5
421.617	109.5
421.839	111.5
422.062	121.5
422.285	117.5
422.507	126.5
422.73	129.5
422.953	124.5
423.175	131.5
423.398	129.5
423.621	149.5
423.843	139.5
424.066	130.5
424.288	134.5
424.511	124.5
424.733	124.5
424.956	130.5
425.178	127.5
425.401	109.5
425.623	126.5
425.846	118.5
426.068	123.5
426.291	122.5
426.513	112.5
426.735	122.5
426.958	130.5
427.18	125.5
427.402	127.5
427.625	119.5
427.847	107.5
428.069	133.5
428.292	126.5
428.514	122.5
428.736	123.5
428.958	139.5
429.181	121.5
429.403	114.5
429.625	111.5
429.847	116.5
430.069	119.5
430.292	122.5
430.514	123.5
430.736	100.5
430.958	106.5
431.18	114.5
431.402	112.5
431.624	127.5
431.846	125.5
432.068	122.5
432.29	132.5
432.512	119.5
432.734	125.5
432.956	103.5
433.178	129.5
433.4	125.5
433.622	119.5
433.844	128.5
434.066	130.5
434.287	119.5
434.509	125.5
434.731	117.5
434.953	121.5
435.175	127.5
435.397	129.5
435.618	121.5
435.84	108.5
436.062	126.5
436.284	128.5
436.505	122.5
436.727	122.5
436.949	123.5
437.17	113.5
437.392	118.5
437.614	101.5
437.835	126.5
438.057	110.5
438.278	105.5
438.5	114.5
438.721	111.5
438.943	124.5
439.165	129.5
439.386	130.5
439.608	129.5
439.829	117.5
440.05	123.5
440.272	117.5
440.493	132.5
440.715	123.5
440.936	113.5
441.158	135.5
441.379	132.5
441.6	137.5
441.822	134.5
442.043	142.5
442.264	137.5
442.486	123.5
442.707	120.5
442.928	123.5
443.149	109.5
443.371	140.5
443.592	116.5
443.813	143.5
444.034	116.5
444.255	142.5
444.476	129.5
444.698	137.5
444.919	149.5
445.14	407.5
445.361	254.5
445.582	153.5
445.803	130.5
446.024	122.5
446.245	145.5
446.466	112.5
446.687	131.5
446.908	122.5
447.129	122.5
447.35	108.5
447.571	118.5
447.792	126.5
448.013	123.5
448.234	106.5
448.455	109.5
448.675	118.5
448.896	109.5
449.117	116.5
449.338	125.5
449.559	122.5
449.779	105.5
450	111.5
450.221	123.5
450.442	116.5
450.662	118.5
450.883	122.5
451.104	118.5
451.324	112.5
451.545	121.5
451.766	120.5
451.986	113.5
452.207	111.5
452.428	114.5
452.648	129.5
452.869	119.5
453.089	101.5
453.31	94.5
453.53	122.5
453.751	109.5
453.971	108.5
454.192	100.5
454.412	116.5
454.633	101.5
454.853	100.5
455.073	92.5
455.294	103.5
455.514	137.5
455.734	118.5
455.955	111.5
456.175	115.5
456.395	110.5
456.616	107.5
456.836	111.5
457.056	121.5
457.276	106.5
457.497	110.5
457.717	116.5
457.937	131.5
458.157	112.5
458.377	108.5
458.598	98.5
458.818	105.5
459.038	103.5
459.258	112.5
459.478	109.5
459.698	116.5
459.918	116.5
460.138	115.5
460.358	120.5
460.578	126.5
460.798	121.5
461.018	132.5
461.238	137.5
461.458	133.5
461.678	137.5
461.898	128.5
462.118	127.5
462.338	145.5
462.558	155.5
462.777	137.5
462.997	143.5
463.217	145.5
463.437	153.5
463.657	133.5
463.876	135.5
464.096	135.5
464.316	135.5
464.536	146.5
464.755	143.5
464.975	137.5
465.195	139.5
465.414	131.5
465.634	123.5
465.854	130.5
466.073	109.5
466.293	127.5
466.512	113.5
466.732	112.5
466.951	119.5
467.171	115.5
467.391	118.5
467.61	118.5
467.829	114.5
468.049	122.5
468.268	131.5
468.488	118.5
468.707	111.5
468.927	104.5
469.146	107.5
469.365	101.5
469.585	118.5
469.804	124.5
470.023	129.5
470.243	133.5
470.462	120.5
470.681	118.5
470.901	124.5
471.12	122.5
471.339	126.5
471.558	121.5
471.777	119.5
471.997	117.5
472.216	107.5
472.435	124.5
472.654	130.5
472.873	119.5
473.092	101.5
473.311	128.5
473.53	107.5
473.749	129.5
473.968	120.5
474.187	104.5
474.406	120.5
474.625	123.5
474.844	110.5
475.063	113.5
475.282	116.5
475.501	122.5
475.72	118.5
475.939	125.5
476.158	115.5
476.377	122.5
476.596	117.5
476.814	123.5
477.033	117.5
477.252	114.5
477.471	111.5
477.69	124.5
477.908	109.5
478.127	132.5
478.346	127.5
478.564	115.5
478.783	121.5
479.002	126.5
479.22	121.5
479.439	117.5
479.658	116.5
479.876	127.5
480.095	102.5
480.313	124.5
480.532	134.5
480.751	126.5
480.969	113.5
481.188	122.5
481.406	118.5
481.624	128.5
481.843	121.5
482.061	114.5
482.28	137.5
482.498	118.5
482.717	117.5
482.935	122.5
483.153	121.5
483.372	133.5
483.59	131.5
483.808	113.5
484.027	122.5
484.245	122.5
484.463	127.5
484.681	140.5
484.9	130.5
485.118	133.5
485.336	110.5
485.554	132.5
485.772	119.5
485.99	117.5
486.209	119.5
486.427	129.5
486.645	127.5
486.863	119.5
487.081	112.5
487.299	134.5
487.517	139.5
487.735	125.5
487.953	128.5
488.171	135.5
488.389	146.5
488.607	124.5
488.825	116.5
489.043	134.5
489.261	151.5
489.479	124.5
489.696	137.5
489.914	123.5
490.132	131.5
490.35	146.5
490.568	121.5
490.786	125.5
491.003	133.5
491.221	112.5
491.439	129.5
491.657	126.5
491.874	134.5
492.092	124.5
492.31	127.5
492.527	121.5
492.745	125.5
492.963	127.5
493.18	133.5
493.398	121.5
493.615	133.5
493.833	137.5
494.05	114.5
494.268	132.5
494.485	127.5
494.703	138.5
494.92	130.5
495.138	133.5
495.355	122.5
495.573	144.5
495.79	126.5
496.008	126.5
496.225	139.5
496.442	129.5
496.66	149.5
496.877	126.5
497.094	145.5
497.312	145.5
497.529	146.5
497.746	138.5
497.963	145.5
498.181	126.5
498.398	139.5
498.615	154.5
498.832	171.5
499.049	154.5
499.267	182.5
499.484	169.5
499.701	185.5
499.918	207.5
500.135	225.5
500.352	242.5
500.569	242.5
500.786	242.5
501.003	208.5
501.22	209.5
501.437	165.5
501.654	164.5
501.871	178.5
502.088	161.5
502.305	154.5
502.522	148.5
502.739	148.5
502.956	166.5
503.172	142.5
503.389	123.5
503.606	140.5
503.823	122.5
504.04	129.5
504.256	155.5
504.473	141.5
504.69	143.5
504.907	148.5
505.123	122.5
505.34	139.5
505.557	117.5
505.773	129.5
505.99	119.5
506.207	111.5
506.423	124.5
506.64	125.5
506.856	125.5
507.073	117.5
507.289	128.5
507.506	115.5
507.722	112.5
507.939	112.5
508.155	140.5
508.372	129.5
508.588	121.5
508.805	121.5
509.021	118.5
509.238	120.5
509.454	117.5
509.67	117.5
509.887	115.5
510.103	118.5
510.319	109.5
510.536	123.5
510.752	113.5
510.968	118.5
511.184	106.5
511.401	109.5
511.617	113.5
511.833	113.5
512.049	132.5
512.265	113.5
512.481	114.5
512.698	113.5
512.914	124.5
513.13	124.5
513.346	119.5
513.562	133.5
513.778	134.5
513.994	105.5
514.21	132.5
514.426	126.5
514.642	125.5
514.858	128.5
515.074	120.5
515.29	127.5
515.506	122.5
515.721	116.5
515.937	125.5
516.153	129.5
516.369	121.5
516.585	127.5
516.801	128.5
517.016	141.5
517.232	140.5
517.448	139.5
517.664	141.5
517.879	145.5
518.095	133.5
518.311	123.5
518.527	130.5
518.742	118.5
518.958	122.5
519.173	132.5
519.389	122.5
519.605	113.5
519.82	115.5
520.036	141.5
520.251	111.5
520.467	127.5
520.682	112.5
520.898	128.5
521.113	123.5
521.329	110.5
521.544	112.5
521.76	131.5
521.975	124.5
522.19	117.5
522.406	118.5
522.621	102.5
522.836	122.5
523.052	114.5
523.267	126.5
523.482	117.5
523.698	125.5
523.913	120.5
524.128	110.5
524.343	118.5
524.559	129.5
524.774	108.5
524.989	126.5
525.204	103.5
525.419	111.5
525.634	102.5
525.849	111.5
526.064	115.5
526.28	119.5
526.495	113.5
526.71	117.5
526.925	108.5
527.14	106.5
527.355	116.5
527.57	121.5
527.785	130.5
527.999	116.5
528.214	128.5
528.429	127.5
528.644	113.5
528.859	114.5
529.074	127.5
529.289	127.5
529.503	114.5
529.718	124.5
529.933	123.5
530.148	113.5
530.363	122.5
530.577	119.5
530.792	116.5
531.007	102.5
531.221	119.5
531.436	121.5
531.651	116.5
531.865	116.5
532.08	113.5
532.295	116.5
532.509	99.5
532.724	103.5
532.938	112.5
533.153	114.5
533.367	123.5
533.582	107.5
533.796	107.5
534.011	110.5
534.225	109.5
534.44	112.5
534.654	107.5
534.868	118.5
535.083	123.5
535.297	115.5
535.511	119.5
535.726	110.5
535.94	116.5
536.154	113.5
536.369	107.5
536.583	96.5
536.797	113.5
537.011	114.5
537.225	113.5
537.44	116.5
537.654	114.5
537.868	97.5
538.082	105.5
538.296	107.5
538.51	129.5
538.724	123.5
538.938	110.5
539.153	115.5
539.367	115.5
539.581	123.5
539.795	121.5
540.009	124.5
540.222	113.5
540.436	104.5
540.65	113.5
540.864	103.5
541.078	126.5
541.292	127.5
541.506	119.5
541.72	131.5
541.934	122.5
542.147	118.5
542.361	127.5
542.575	129.5
542.789	119.5
543.002	117.5
543.216	115.5
543.43	103.5
543.644	113.5
543.857	118.5
544.071	136.5
544.285	121.5
544.498	104.5
544.712	123.5
544.925	115.5
545.139	122.5
545.352	117.5
545.566	109.5
545.779	114.5
545.993	107.5
546.206	107.5
546.42	112.5
546.633	116.5
546.847	125.5
547.06	109.5
547.274	120.5
547.487	125.5
547.7	116.5
547.914	128.5
548.127	121.5
548.34	105.5
548.554	125.5
548.767	117.5
548.98	122.5
549.193	109.5
549.407	115.5
549.62	116.5
549.833	107.5
550.046	116.5
550.259	133.5
550.473	119.5
550.686	113.5
550.899	118.5
551.112	122.5
551.325	110.5
551.538	110.5
551.751	118.5
551.964	117.5
552.177	126.5
552.39	101.5
552.603	124.5
552.816	118.5
553.029	127.5
553.242	123.5
553.455	118.5
553.667	141.5
553.88	124.5
554.093	116.5
554.306	115.5
554.519	127.5
554.732	115.5
554.944	114.5
555.157	117.5
555.37	123.5
555.583	107.5
555.795	121.5
556.008	121.5
556.221	126.5
556.433	129.5
556.646	109.5
556.859	119.5
557.071	102.5
557.284	91.5
557.496	109.5
557.709	112.5
557.921	107.5
558.134	121.5
558.346	121.5
558.559	119.5
558.771	114.5
558.984	115.5
559.196	114.5
559.409	117.5
559.621	121.5
559.833	116.5
560.046	118.5
560.258	101.5
560.47	110.5
560.683	121.5
560.895	109.5
561.107	103.5
561.32	113.5
561.532	116.5
561.744	107.5
561.956	117.5
562.168	122.5
562.381	112.5
562.593	104.5
562.805	124.5
563.017	107.5
563.229	121.5
563.441	129.5
563.653	112.5
563.865	115.5
564.077	116.5
564.289	108.5
564.501	121.5
564.713	103.5
564.925	100.5
565.137	110.5
565.349	117.5
565.561	121.5
565.773	116.5
565.985	119.5
566.197	130.5
566.408	112.5
566.62	134.5
566.832	139.5
567.044	122.5
567.255	136.5
567.467	141.5
567.679	138.5
567.891	150.5
568.102	141.5
568.314	158.5
568.526	133.5
568.737	138.5
568.949	128.5
569.161	110.5
569.372	109.5
569.584	116.5
569.795	130.5
570.007	120.5
570.218	103.5
570.43	111.5
570.641	91.5
570.853	118.5
571.064	117.5
571.276	112.5
571.487	114.5
571.698	114.5
571.91	111.5
572.121	110.5
572.333	92.5
572.544	97.5
572.755	105.5
572.966	102.5
573.178	103.5
573.389	126.5
573.6	111.5
573.811	104.5
574.023	86.5
574.234	107.5
574.445	123.5
574.656	116.5
574.867	113.5
575.078	95.5
575.289	107.5
575.501	110.5
575.712	87.5
575.923	108.5
576.134	98.5
576.345	98.5
576.556	118.5
576.767	129.5
576.978	102.5
577.188	101.5
577.399	97.5
577.61	100.5
577.821	103.5
578.032	109.5
578.243	105.5
578.454	117.5
578.665	98.5
578.875	98.5
579.086	102.5
579.297	94.5
579.508	100.5
579.718	112.5
579.929	120.5
580.14	100.5
580.35	99.5
580.561	109.5
580.772	102.5
580.982	101.5
581.193	100.5
581.403	102.5
581.614	89.5
581.825	96.5
582.035	94.5
582.246	100.5
582.456	103.5
582.667	103.5
582.877	109.5
583.087	106.5
583.298	97.5
583.508	121.5
583.719	99.5
583.929	114.5
584.139	78.5
584.35	107.5
584.56	103.5
584.77	104.5
584.981	82.5
585.191	86.5
585.401	92.5
585.611	100.5
585.821	110.5
586.032	95.5
586.242	102.5
586.452	101.5
586.662	97.5
586.872	91.5
587.082	99.5
587.292	99.5
587.502	122.5
587.713	108.5
587.923	93.5
588.133	86.5
588.343	101.5
588.553	89.5
588.762	118.5
588.972	107.5
589.182	108.5
589.392	108.5
589.602	107.5
589.812	97.5
590.022	114.5
590.232	93.5
590.441	112.5
590.651	97.5
590.861	97.5
591.071	86.5
591.281	78.5
591.49	101.5
591.7	94.5
591.91	101.5
592.119	99.5
592.329	108.5
592.539	99.5
592.748	112.5
592.958	99.5
593.167	100.5
593.377	111.5
593.587	125.5
593.796	99.5
594.006	119.5
594.215	107.5
594.424	100.5
594.634	106.5
594.843	113.5
595.053	98.5
595.262	100.5
595.472	98.5
595.681	97.5
595.89	107.5
596.1	110.5
596.309	102.5
596.518	98.5
596.727	102.5
596.937	103.5
597.146	90.5
597.355	98.5
597.564	110.5
597.774	114.5
597.983	106.5
598.192	94.5
598.401	93.5
598.61	101.5
598.819	111.5
599.028	91.5
599.237	101.5
599.446	109.5
599.655	107.5
599.864	100.5
600.073	89.5
600.282	108.5
600.491	89.5
600.7	99.5
600.909	104.5
601.118	97.5
601.327	105.5
601.536	89.5
601.745	92.5
601.953	79.5
602.162	97.5
602.371	94.5
602.58	95.5
602.789	100.5
602.997	115.5
603.206	92.5
603.415	93.5
603.623	87.5
603.832	89.5
604.041	94.5
604.249	103.5
604.458	106.5
604.666	97.5
604.875	103.5
605.084	88.5
605.292	90.5
605.501	80.5
605.709	84.5
605.918	108.5
606.126	99.5
606.334	99.5
606.543	108.5
606.751	101.5
606.96	103.5
607.168	91.5
607.376	103.5
607.585	106.5
607.793	90.5
608.001	95.5
608.21	95.5
608.418	94.5
608.626	110.5
608.834	92.5
609.043	99.5
609.251	96.5
609.459	98.5
609.667	106.5
609.875	90.5
610.083	93.5
610.291	92.5
610.499	102.5
610.707	85.5
610.916	96.5
611.124	89.5
611.332	90.5
611.54	89.5
611.748	81.5
611.955	99.5
612.163	88.5
612.371	94.5
612.579	87.5
612.787	95.5
612.995	97.5
613.203	114.5
613.411	95.5
613.618	92.5
613.826	100.5
614.034	92.5
614.242	107.5
614.449	79.5
614.657	91.5
614.865	92.5
615.072	91.5
615.28	97.5
615.488	103.5
615.695	106.5
615.903	97.5
616.111	93.5
616.318	104.5
616.526	92.5
616.733	89.5
616.941	86.5
617.148	82.5
617.356	88.5
617.563	87.5
617.771	107.5
617.978	102.5
618.185	92.5
618.393	103.5
618.6	106.5
618.807	90.5
619.015	102.5
619.222	82.5
619.429	93.5
619.637	89.5
619.844	82.5
620.051	90.5
620.258	103.5
620.466	99.5
620.673	89.5
620.88	87.5
621.087	94.5
621.294	101.5
621.501	87.5
621.708	76.5
621.915	98.5
622.122	90.5
622.329	95.5
622.536	101.5
622.743	82.5
622.95	109.5
623.157	108.5
623.364	93.5
623.571	98.5
623.778	84.5
623.985	99.5
624.192	93.5
624.399	116.5
624.606	94.5
624.812	96.5
625.019	94.5
625.226	79.5
625.433	95.5
625.639	87.5
625.846	84.5
626.053	71.5
626.259	78.5
626.466	101.5
626.673	90.5
626.879	85.5
627.086	107.5
627.293	90.5
627.499	92.5
627.706	99.5
627.912	100.5
628.119	83.5
628.325	96.5
628.532	92.5
628.738	82.5
628.945	86.5
629.151	85.5
629.357	105.5
629.564	86.5
629.77	101.5
629.976	93.5
630.183	90.5
630.389	93.5
630.595	89.5
630.802	89.5
631.008	87.5
631.214	103.5
631.42	87.5
631.627	106.5
631.833	95.5
632.039	89.5
632.245	85.5
632.451	91.5
632.657	83.5
632.863	81.5
633.069	93.5
633.275	90.5
633.481	65.5
633.688	79.5
633.893	106.5
634.099	98.5
634.305	103.5
634.511	94.5
634.717	76.5
634.923	91.5
635.129	96.5
635.335	87.5
635.541	87.5
635.747	106.5
635.952	75.5
636.158	96.5
636.364	96.5
636.57	82.5
636.775	89.5
636.981	85.5
637.187	93.5
637.392	98.5
637.598	97.5
637.804	106.5
638.009	97.5
638.215	91.5
638.421	98.5
638.626	94.5
638.832	90.5
639.037	93.5
639.243	93.5
639.448	89.5
639.654	100.5
639.859	93.5
640.065	86.5
640.27	99.5
640.475	88.5
640.681	81.5
640.886	91.5
641.091	84.5
641.297	94.5
641.502	86.5
641.707	92.5
641.913	95.5
642.118	67.5
642.323	87.5
642.528	105.5
642.733	89.5
642.939	94.5
643.144	92.5
643.349	99.5
643.554	104.5
643.759	79.5
643.964	89.5
644.169	91.5
644.374	89.5
644.579	100.5
644.784	91.5
644.989	95.5
645.194	95.5
645.399	94.5
645.604	93.5
645.809	89.5
646.014	77.5
646.219	99.5
646.423	89.5
646.628	99.5
646.833	94.5
647.038	100.5
647.243	95.5
647.447	82.5
647.652	82.5
647.857	71.5
648.062	100.5
648.266	89.5
648.471	82.5
648.676	99.5
648.88	78.5
649.085	61.5
649.289	86.5
649.494	81.5
649.698	100.5
649.903	97.5
650.107	94.5
650.312	95.5
650.516	100.5
650.721	91.5
650.925	99.5
651.13	97.5
651.334	87.5
651.539	97.5
651.743	84.5
651.947	83.5
652.152	89.5
652.356	87.5
652.56	86.5
652.764	83.5
652.969	90.5
653.173	90.5
653.377	79.5
653.581	81.5
653.785	70.5
653.99	78.5
654.194	91.5
654.398	85.5
654.602	75.5
654.806	79.5
655.01	85.5
655.214	82.5
655.418	79.5
655.622	91.5
655.826	78.5
656.03	81.5
656.234	84.5
656.438	94.5
656.642	91.5
656.846	85.5
657.049	77.5
657.253	112.5
657.457	88.5
657.661	100.5
657.865	90.5
658.068	99.5
658.272	75.5
658.476	71.5
658.68	91.5
658.883	89.5
659.087	90.5
659.291	98.5
659.494	95.5
659.698	90.5
659.901	78.5
660.105	79.5
660.309	75.5
660.512	92.5
660.716	90.5
660.919	74.5
661.123	82.5
661.326	96.5
661.53	82.5
661.733	65.5
661.936	79.5
662.14	91.5
662.343	85.5
662.546	70.5
662.75	90.5
662.953	92.5
663.156	105.5
663.36	90.5
663.563	74.5
663.766	85.5
663.969	77.5
664.173	81.5
664.376	79.5
664.579	78.5
664.782	93.5
664.985	77.5
665.188	68.5
665.391	86.5
665.594	68.5
665.797	69.5
666	75.5
666.203	76.5
666.406	88.5
666.609	87.5
666.812	81.5
667.015	88.5
667.218	86.5
667.421	94.5
667.624	79.5
667.827	74.5
668.03	76.5
668.232	67.5
668.435	79.5
668.638	89.5
668.841	95.5
669.043	82.5
669.246	73.5
669.449	89.5
669.651	82.5
669.854	77.5
670.057	86.5
670.259	85.5
670.462	92.5
670.665	95.5
670.867	78.5
671.07	76.5
671.272	79.5
671.475	94.5
671.677	91.5
671.88	81.5
672.082	74.5
672.284	84.5
672.487	76.5
672.689	74.5
672.892	77.5
