Data from Circ_1993_H10_HRD10591_00057.txt Node
Date: Wed Jan 03 11:44:13 EST 2024
User: Yrep
Spectrometer: HR+D1059
Trigger mode: 1
Integration Time (sec): 1.000000E-1
Scans to average: 1
Electric dark correction enabled: true
Nonlinearity correction enabled: false
Boxcar width: 0
XAxis mode: Wavelengths
Number of Pixels in Spectrum: 2048
>>>>>Begin Spectral Data<<<<<
223.165	-18.69
223.4	-18.69
223.635	-18.69
223.869	-9.69
224.104	-15.69
224.338	-16.69
224.573	-26.69
224.808	-11.69
225.042	-22.69
225.277	-2.69
225.511	3.31
225.746	7.31
225.98	17.31
226.215	10.31
226.449	13.31
226.683	19.31
226.918	18.31
227.152	35.31
227.387	30.31
227.621	34.31
227.856	37.31
228.09	46.31
228.324	52.31
228.559	47.31
228.793	48.31
229.027	66.31
229.262	72.31
229.496	58.31
229.73	84.31
229.964	78.31
230.199	81.31
230.433	76.31
230.667	85.31
230.901	86.31
231.136	68.31
231.37	73.31
231.604	94.31
231.838	71.31
232.072	80.31
232.306	74.31
232.541	78.31
232.775	75.31
233.009	63.31
233.243	73.31
233.477	74.31
233.711	85.31
233.945	82.31
234.179	79.31
234.413	68.31
234.647	70.31
234.881	61.31
235.115	77.31
235.349	85.31
235.583	90.31
235.817	79.31
236.051	70.31
236.285	79.31
236.519	79.31
236.753	75.31
236.987	73.31
237.221	74.31
237.455	79.31
237.689	81.31
237.922	60.31
238.156	62.31
238.39	60.31
238.624	71.31
238.858	66.31
239.091	69.31
239.325	72.31
239.559	78.31
239.793	80.31
240.027	84.31
240.26	65.31
240.494	65.31
240.728	75.31
240.961	81.31
241.195	65.31
241.429	69.31
241.662	77.31
241.896	65.31
242.13	80.31
242.363	76.31
242.597	74.31
242.83	76.31
243.064	65.31
243.298	60.31
243.531	68.31
243.765	87.31
243.998	67.31
244.232	83.31
244.465	81.31
244.699	67.31
244.932	78.31
245.166	76.31
245.399	91.31
245.633	72.31
245.866	79.31
246.099	82.31
246.333	79.31
246.566	75.31
246.8	78.31
247.033	80.31
247.266	76.31
247.5	70.31
247.733	72.31
247.966	87.31
248.2	70.31
248.433	84.31
248.666	79.31
248.899	67.31
249.133	81.31
249.366	87.31
249.599	87.31
249.832	99.31
250.066	61.31
250.299	79.31
250.532	71.31
250.765	72.31
250.998	73.31
251.231	79.31
251.465	92.31
251.698	68.31
251.931	64.31
252.164	78.31
252.397	67.31
252.63	68.31
252.863	75.31
253.096	74.31
253.329	69.31
253.562	98.31
253.795	76.31
254.028	90.31
254.261	82.31
254.494	72.31
254.727	79.31
254.96	80.31
255.193	83.31
255.426	74.31
255.659	77.31
255.892	83.31
256.124	79.31
256.357	91.31
256.59	78.31
256.823	73.31
257.056	78.31
257.289	63.31
257.521	90.31
257.754	78.31
257.987	82.31
258.22	75.31
258.452	71.31
258.685	75.31
258.918	67.31
259.151	81.31
259.383	78.31
259.616	83.31
259.849	82.31
260.081	78.31
260.314	68.31
260.547	80.31
260.779	78.31
261.012	65.31
261.244	74.31
261.477	87.31
261.71	96.31
261.942	110.31
262.175	103.31
262.407	82.31
262.64	62.31
262.872	57.31
263.105	76.31
263.337	75.31
263.57	77.31
263.802	72.31
264.035	79.31
264.267	70.31
264.499	81.31
264.732	87.31
264.964	72.31
265.197	76.31
265.429	75.31
265.661	72.31
265.894	86.31
266.126	86.31
266.358	78.31
266.591	88.31
266.823	94.31
267.055	74.31
267.287	75.31
267.52	86.31
267.752	87.31
267.984	80.31
268.216	91.31
268.448	89.31
268.681	82.31
268.913	81.31
269.145	83.31
269.377	90.31
269.609	80.31
269.841	84.31
270.073	85.31
270.306	85.31
270.538	80.31
270.77	73.31
271.002	86.31
271.234	78.31
271.466	92.31
271.698	72.31
271.93	81.31
272.162	91.31
272.394	68.31
272.626	82.31
272.858	79.31
273.09	62.31
273.322	67.31
273.553	70.31
273.785	88.31
274.017	86.31
274.249	90.31
274.481	65.31
274.713	78.31
274.945	65.31
275.176	87.31
275.408	82.31
275.64	81.31
275.872	93.31
276.104	84.31
276.335	81.31
276.567	84.31
276.799	98.31
277.031	95.31
277.262	87.31
277.494	90.31
277.726	83.31
277.957	80.31
278.189	86.31
278.421	99.31
278.652	78.31
278.884	80.31
279.115	71.31
279.347	78.31
279.579	70.31
279.81	77.31
280.042	80.31
280.273	74.31
280.505	81.31
280.736	84.31
280.968	84.31
281.199	78.31
281.431	79.31
281.662	82.31
281.894	79.31
282.125	99.31
282.356	105.31
282.588	116.31
282.819	96.31
283.051	88.31
283.282	83.31
283.513	71.31
283.745	88.31
283.976	75.31
284.207	94.31
284.439	85.31
284.67	83.31
284.901	86.31
285.132	86.31
285.364	97.31
285.595	83.31
285.826	85.31
286.057	83.31
286.288	90.31
286.52	86.31
286.751	96.31
286.982	83.31
287.213	80.31
287.444	80.31
287.675	82.31
287.906	99.31
288.138	88.31
288.369	93.31
288.6	104.31
288.831	85.31
289.062	82.31
289.293	78.31
289.524	88.31
289.755	91.31
289.986	74.31
290.217	98.31
290.448	97.31
290.679	85.31
290.91	78.31
291.141	96.31
291.371	87.31
291.602	76.31
291.833	86.31
292.064	67.31
292.295	96.31
292.526	81.31
292.757	91.31
292.987	83.31
293.218	80.31
293.449	86.31
293.68	91.31
293.91	88.31
294.141	73.31
294.372	89.31
294.603	91.31
294.833	91.31
295.064	92.31
295.295	103.31
295.525	79.31
295.756	103.31
295.987	93.31
296.217	122.31
296.448	106.31
296.679	80.31
296.909	91.31
297.14	81.31
297.37	85.31
297.601	87.31
297.831	77.31
298.062	82.31
298.292	76.31
298.523	106.31
298.753	97.31
298.984	87.31
299.214	90.31
299.445	82.31
299.675	76.31
299.905	86.31
300.136	90.31
300.366	102.31
300.597	81.31
300.827	101.31
301.057	78.31
301.288	105.31
301.518	76.31
301.748	86.31
301.979	87.31
302.209	76.31
302.439	104.31
302.669	95.31
302.9	85.31
303.13	91.31
303.36	82.31
303.59	90.31
303.82	116.31
304.051	97.31
304.281	103.31
304.511	91.31
304.741	76.31
304.971	97.31
305.201	84.31
305.431	75.31
305.661	83.31
305.891	77.31
306.121	96.31
306.352	87.31
306.582	108.31
306.812	98.31
307.042	79.31
307.272	98.31
307.502	103.31
307.731	96.31
307.961	102.31
308.191	75.31
308.421	88.31
308.651	93.31
308.881	84.31
309.111	76.31
309.341	94.31
309.571	83.31
309.8	97.31
310.03	104.31
310.26	89.31
310.49	92.31
310.72	94.31
310.949	94.31
311.179	96.31
311.409	99.31
311.639	80.31
311.868	96.31
312.098	80.31
312.328	96.31
312.557	87.31
312.787	94.31
313.017	98.31
313.246	105.31
313.476	91.31
313.706	87.31
313.935	85.31
314.165	84.31
314.394	99.31
314.624	91.31
314.853	89.31
315.083	92.31
315.312	75.31
315.542	91.31
315.771	84.31
316.001	83.31
316.23	91.31
316.46	103.31
316.689	73.31
316.919	100.31
317.148	95.31
317.377	82.31
317.607	83.31
317.836	87.31
318.065	97.31
318.295	83.31
318.524	94.31
318.753	95.31
318.983	83.31
319.212	99.31
319.441	99.31
319.67	96.31
319.9	97.31
320.129	91.31
320.358	84.31
320.587	88.31
320.816	97.31
321.046	97.31
321.275	86.31
321.504	94.31
321.733	89.31
321.962	103.31
322.191	90.31
322.42	91.31
322.649	115.31
322.878	96.31
323.108	99.31
323.337	112.31
323.566	114.31
323.795	133.31
324.024	170.31
324.253	322.31
324.482	635.31
324.71	1241.31
324.939	1619.31
325.168	626.31
325.397	204.31
325.626	136.31
325.855	125.31
326.084	101.31
326.313	121.31
326.542	147.31
326.77	191.31
326.999	374.31
327.228	740.31
327.457	1276.31
327.686	984.31
327.914	294.31
328.143	200.31
328.372	170.31
328.6	121.31
328.829	103.31
329.058	113.31
329.287	122.31
329.515	107.31
329.744	118.31
329.972	132.31
330.201	171.31
330.43	187.31
330.658	148.31
330.887	126.31
331.115	92.31
331.344	92.31
331.572	103.31
331.801	94.31
332.03	85.31
332.258	98.31
332.486	92.31
332.715	102.31
332.943	89.31
333.172	88.31
333.4	94.31
333.629	106.31
333.857	104.31
334.085	117.31
334.314	152.31
334.542	227.31
334.771	210.31
334.999	122.31
335.227	100.31
335.455	87.31
335.684	100.31
335.912	89.31
336.14	86.31
336.369	103.31
336.597	100.31
336.825	92.31
337.053	88.31
337.281	84.31
337.51	90.31
337.738	93.31
337.966	85.31
338.194	81.31
338.422	86.31
338.65	95.31
338.878	89.31
339.106	79.31
339.334	95.31
339.562	94.31
339.79	94.31
340.018	80.31
340.246	90.31
340.474	110.31
340.702	92.31
340.93	86.31
341.158	97.31
341.386	96.31
341.614	85.31
341.842	86.31
342.07	93.31
342.298	87.31
342.526	89.31
342.754	87.31
342.981	86.31
343.209	89.31
343.437	96.31
343.665	102.31
343.893	91.31
344.12	93.31
344.348	94.31
344.576	79.31
344.804	92.31
345.031	84.31
345.259	95.31
345.487	107.31
345.714	91.31
345.942	95.31
346.17	83.31
346.397	90.31
346.625	87.31
346.853	91.31
347.08	94.31
347.308	94.31
347.535	95.31
347.763	91.31
347.99	93.31
348.218	98.31
348.445	89.31
348.673	78.31
348.9	89.31
349.128	83.31
349.355	89.31
349.583	80.31
349.81	99.31
350.037	92.31
350.265	103.31
350.492	93.31
350.72	84.31
350.947	90.31
351.174	82.31
351.402	104.31
351.629	95.31
351.856	88.31
352.083	97.31
352.311	98.31
352.538	95.31
352.765	99.31
352.992	119.31
353.22	124.31
353.447	88.31
353.674	98.31
353.901	102.31
354.128	93.31
354.355	99.31
354.583	102.31
354.81	94.31
355.037	104.31
355.264	92.31
355.491	90.31
355.718	105.31
355.945	96.31
356.172	98.31
356.399	87.31
356.626	91.31
356.853	80.31
357.08	91.31
357.307	89.31
357.534	81.31
357.761	89.31
357.988	102.31
358.215	77.31
358.441	82.31
358.668	96.31
358.895	87.31
359.122	79.31
359.349	89.31
359.576	78.31
359.802	82.31
360.029	96.31
360.256	114.31
360.483	92.31
360.709	84.31
360.936	84.31
361.163	85.31
361.39	87.31
361.616	80.31
361.843	102.31
362.07	84.31
362.296	100.31
362.523	86.31
362.749	84.31
362.976	88.31
363.203	74.31
363.429	98.31
363.656	92.31
363.882	78.31
364.109	91.31
364.335	95.31
364.562	84.31
364.788	88.31
365.015	87.31
365.241	88.31
365.468	115.31
365.694	102.31
365.92	102.31
366.147	94.31
366.373	83.31
366.599	75.31
366.826	77.31
367.052	88.31
367.278	86.31
367.505	88.31
367.731	87.31
367.957	103.31
368.184	84.31
368.41	88.31
368.636	104.31
368.862	98.31
369.089	101.31
369.315	79.31
369.541	85.31
369.767	95.31
369.993	94.31
370.219	94.31
370.445	79.31
370.672	72.31
370.898	87.31
371.124	87.31
371.35	83.31
371.576	77.31
371.802	82.31
372.028	96.31
372.254	90.31
372.48	93.31
372.706	86.31
372.932	90.31
373.158	81.31
373.384	81.31
373.61	97.31
373.835	91.31
374.061	91.31
374.287	97.31
374.513	90.31
374.739	97.31
374.965	77.31
375.191	84.31
375.416	84.31
375.642	85.31
375.868	89.31
376.094	96.31
376.319	92.31
376.545	87.31
376.771	94.31
376.997	99.31
377.222	102.31
377.448	80.31
377.674	104.31
377.899	87.31
378.125	94.31
378.35	104.31
378.576	86.31
378.802	90.31
379.027	93.31
379.253	84.31
379.478	79.31
379.704	84.31
379.929	90.31
380.155	90.31
380.38	86.31
380.606	87.31
380.831	84.31
381.057	82.31
381.282	100.31
381.507	82.31
381.733	98.31
381.958	87.31
382.184	108.31
382.409	100.31
382.634	87.31
382.86	95.31
383.085	97.31
383.31	94.31
383.535	108.31
383.761	105.31
383.986	94.31
384.211	94.31
384.436	96.31
384.662	106.31
384.887	98.31
385.112	101.31
385.337	109.31
385.562	93.31
385.787	118.31
386.013	121.31
386.238	111.31
386.463	104.31
386.688	107.31
386.913	109.31
387.138	114.31
387.363	94.31
387.588	95.31
387.813	122.31
388.038	95.31
388.263	111.31
388.488	111.31
388.713	112.31
388.938	96.31
389.163	95.31
389.387	95.31
389.612	97.31
389.837	83.31
390.062	99.31
390.287	90.31
390.512	90.31
390.736	91.31
390.961	87.31
391.186	95.31
391.411	104.31
391.636	92.31
391.86	88.31
392.085	84.31
392.31	75.31
392.534	74.31
392.759	74.31
392.984	88.31
393.208	107.31
393.433	116.31
393.658	104.31
393.882	74.31
394.107	72.31
394.331	81.31
394.556	80.31
394.78	83.31
395.005	95.31
395.229	99.31
395.454	91.31
395.678	84.31
395.903	97.31
396.127	78.31
396.352	87.31
396.576	87.31
396.801	90.31
397.025	102.31
397.249	94.31
397.474	85.31
397.698	92.31
397.922	88.31
398.147	78.31
398.371	92.31
398.595	82.31
398.82	74.31
399.044	88.31
399.268	70.31
399.492	82.31
399.717	95.31
399.941	94.31
400.165	98.31
400.389	87.31
400.613	98.31
400.837	83.31
401.062	92.31
401.286	91.31
401.51	101.31
401.734	83.31
401.958	91.31
402.182	107.31
402.406	122.31
402.63	107.31
402.854	86.31
403.078	82.31
403.302	84.31
403.526	89.31
403.75	90.31
403.974	94.31
404.198	83.31
404.422	98.31
404.645	83.31
404.869	78.31
405.093	92.31
405.317	80.31
405.541	99.31
405.765	86.31
405.988	104.31
406.212	147.31
406.436	182.31
406.66	125.31
406.883	82.31
407.107	79.31
407.331	90.31
407.555	91.31
407.778	90.31
408.002	79.31
408.226	86.31
408.449	86.31
408.673	89.31
408.896	95.31
409.12	83.31
409.344	83.31
409.567	89.31
409.791	92.31
410.014	100.31
410.238	79.31
410.461	92.31
410.685	93.31
410.908	88.31
411.132	91.31
411.355	99.31
411.578	86.31
411.802	78.31
412.025	92.31
412.249	82.31
412.472	82.31
412.695	89.31
412.919	78.31
413.142	110.31
413.365	90.31
413.589	97.31
413.812	92.31
414.035	94.31
414.258	93.31
414.482	77.31
414.705	77.31
414.928	83.31
415.151	90.31
415.374	84.31
415.597	79.31
415.821	72.31
416.044	77.31
416.267	92.31
416.49	81.31
416.713	78.31
416.936	93.31
417.159	95.31
417.382	94.31
417.605	86.31
417.828	98.31
418.051	89.31
418.274	79.31
418.497	88.31
418.72	86.31
418.943	89.31
419.166	71.31
419.389	99.31
419.611	85.31
419.834	88.31
420.057	95.31
420.28	79.31
420.503	92.31
420.726	97.31
420.948	86.31
421.171	90.31
421.394	83.31
421.617	79.31
421.839	90.31
422.062	87.31
422.285	97.31
422.507	92.31
422.73	96.31
422.953	92.31
423.175	81.31
423.398	91.31
423.621	78.31
423.843	82.31
424.066	86.31
424.288	83.31
424.511	83.31
424.733	97.31
424.956	98.31
425.178	84.31
425.401	91.31
425.623	89.31
425.846	88.31
426.068	97.31
426.291	96.31
426.513	98.31
426.735	77.31
426.958	89.31
427.18	103.31
427.402	126.31
427.625	143.31
427.847	114.31
428.069	109.31
428.292	92.31
428.514	92.31
428.736	70.31
428.958	74.31
429.181	79.31
429.403	74.31
429.625	91.31
429.847	78.31
430.069	84.31
430.292	96.31
430.514	90.31
430.736	74.31
430.958	90.31
431.18	77.31
431.402	72.31
431.624	90.31
431.846	79.31
432.068	77.31
432.29	79.31
432.512	68.31
432.734	63.31
432.956	85.31
433.178	97.31
433.4	71.31
433.622	91.31
433.844	91.31
434.066	90.31
434.287	74.31
434.509	71.31
434.731	82.31
434.953	82.31
435.175	91.31
435.397	73.31
435.618	90.31
435.84	105.31
436.062	94.31
436.284	106.31
436.505	97.31
436.727	91.31
436.949	80.31
437.17	67.31
437.392	91.31
437.614	89.31
437.835	79.31
438.057	99.31
438.278	100.31
438.5	88.31
438.721	110.31
438.943	94.31
439.165	80.31
439.386	82.31
439.608	77.31
439.829	91.31
440.05	98.31
440.272	118.31
440.493	76.31
440.715	88.31
440.936	82.31
441.158	93.31
441.379	73.31
441.6	84.31
441.822	97.31
442.043	80.31
442.264	86.31
442.486	68.31
442.707	99.31
442.928	100.31
443.149	106.31
443.371	110.31
443.592	99.31
443.813	100.31
444.034	111.31
444.255	99.31
444.476	79.31
444.698	86.31
444.919	81.31
445.14	132.31
445.361	111.31
445.582	97.31
445.803	111.31
446.024	112.31
446.245	118.31
446.466	100.31
446.687	89.31
446.908	89.31
447.129	80.31
447.35	94.31
447.571	86.31
447.792	86.31
448.013	97.31
448.234	95.31
448.455	95.31
448.675	96.31
448.896	107.31
449.117	86.31
449.338	91.31
449.559	91.31
449.779	110.31
450	79.31
450.221	92.31
450.442	82.31
450.662	81.31
450.883	91.31
451.104	102.31
451.324	90.31
451.545	96.31
451.766	81.31
451.986	89.31
452.207	94.31
452.428	76.31
452.648	95.31
452.869	101.31
453.089	108.31
453.31	107.31
453.53	85.31
453.751	79.31
453.971	89.31
454.192	98.31
454.412	96.31
454.633	88.31
454.853	82.31
455.073	75.31
455.294	85.31
455.514	94.31
455.734	70.31
455.955	79.31
456.175	89.31
456.395	85.31
456.616	75.31
456.836	82.31
457.056	87.31
457.276	83.31
457.497	86.31
457.717	70.31
457.937	90.31
458.157	78.31
458.377	85.31
458.598	92.31
458.818	121.31
459.038	123.31
459.258	103.31
459.478	90.31
459.698	91.31
459.918	78.31
460.138	78.31
460.358	79.31
460.578	88.31
460.798	92.31
461.018	90.31
461.238	71.31
461.458	89.31
461.678	71.31
461.898	84.31
462.118	83.31
462.338	76.31
462.558	84.31
462.777	77.31
462.997	95.31
463.217	94.31
463.437	84.31
463.657	82.31
463.876	81.31
464.096	83.31
464.316	88.31
464.536	94.31
464.755	74.31
464.975	104.31
465.195	155.31
465.414	120.31
465.634	100.31
465.854	85.31
466.073	101.31
466.293	87.31
466.512	83.31
466.732	83.31
466.951	74.31
467.171	99.31
467.391	85.31
467.61	101.31
467.829	97.31
468.049	114.31
468.268	143.31
468.488	99.31
468.707	79.31
468.927	93.31
469.146	79.31
469.365	92.31
469.585	84.31
469.804	86.31
470.023	86.31
470.243	94.31
470.462	88.31
470.681	114.31
470.901	78.31
471.12	90.31
471.339	85.31
471.558	85.31
471.777	89.31
471.997	96.31
472.216	174.31
472.435	276.31
472.654	114.31
472.873	95.31
473.092	73.31
473.311	91.31
473.53	92.31
473.749	87.31
473.968	98.31
474.187	107.31
474.406	88.31
474.625	83.31
474.844	80.31
475.063	92.31
475.282	73.31
475.501	82.31
475.72	83.31
475.939	91.31
476.158	88.31
476.377	87.31
476.596	84.31
476.814	86.31
477.033	92.31
477.252	86.31
477.471	84.31
477.69	77.31
477.908	82.31
478.127	82.31
478.346	93.31
478.564	86.31
478.783	90.31
479.002	81.31
479.22	97.31
479.439	82.31
479.658	86.31
479.876	88.31
480.095	86.31
480.313	73.31
480.532	80.31
480.751	104.31
480.969	180.31
481.188	461.31
481.406	304.31
481.624	100.31
481.843	76.31
482.061	82.31
482.28	87.31
482.498	90.31
482.717	80.31
482.935	87.31
483.153	104.31
483.372	83.31
483.59	83.31
483.808	89.31
484.027	89.31
484.245	81.31
484.463	93.31
484.681	87.31
484.9	90.31
485.118	82.31
485.336	81.31
485.554	82.31
485.772	88.31
485.99	97.31
486.209	87.31
486.427	105.31
486.645	99.31
486.863	100.31
487.081	93.31
487.299	117.31
487.517	94.31
487.735	94.31
487.953	103.31
488.171	92.31
488.389	80.31
488.607	104.31
488.825	84.31
489.043	86.31
489.261	83.31
489.479	86.31
489.696	88.31
489.914	76.31
490.132	79.31
490.35	79.31
490.568	82.31
490.786	102.31
491.003	77.31
491.221	87.31
491.439	82.31
491.657	94.31
491.874	79.31
492.092	87.31
492.31	88.31
492.527	74.31
492.745	83.31
492.963	86.31
493.18	80.31
493.398	80.31
493.615	94.31
493.833	91.31
494.05	83.31
494.268	100.31
494.485	79.31
494.703	76.31
494.92	76.31
495.138	80.31
495.355	105.31
495.573	82.31
495.79	88.31
496.008	84.31
496.225	97.31
496.442	99.31
496.66	86.31
496.877	94.31
497.094	86.31
497.312	94.31
497.529	79.31
497.746	92.31
497.963	88.31
498.181	87.31
498.398	80.31
498.615	101.31
498.832	91.31
499.049	88.31
499.267	93.31
499.484	87.31
499.701	92.31
499.918	94.31
500.135	80.31
500.352	82.31
500.569	89.31
500.786	88.31
501.003	81.31
501.22	82.31
501.437	67.31
501.654	102.31
501.871	81.31
502.088	88.31
502.305	99.31
502.522	96.31
502.739	85.31
502.956	83.31
503.172	81.31
503.389	86.31
503.606	98.31
503.823	111.31
504.04	78.31
504.256	79.31
504.473	77.31
504.69	86.31
504.907	94.31
505.123	99.31
505.34	95.31
505.557	85.31
505.773	86.31
505.99	80.31
506.207	96.31
506.423	83.31
506.64	77.31
506.856	95.31
507.073	79.31
507.289	86.31
507.506	89.31
507.722	94.31
507.939	96.31
508.155	89.31
508.372	94.31
508.588	94.31
508.805	82.31
509.021	92.31
509.238	102.31
509.454	89.31
509.67	87.31
509.887	99.31
510.103	124.31
510.319	189.31
510.536	638.31
510.752	1930.31
510.968	537.31
511.184	138.31
511.401	94.31
511.617	100.31
511.833	102.31
512.049	86.31
512.265	79.31
512.481	86.31
512.698	88.31
512.914	107.31
513.13	90.31
513.346	98.31
513.562	87.31
513.778	95.31
513.994	87.31
514.21	95.31
514.426	101.31
514.642	115.31
514.858	105.31
515.074	145.31
515.29	362.31
515.506	1180.31
515.721	438.31
515.937	138.31
516.153	110.31
516.369	83.31
516.585	83.31
516.801	91.31
517.016	90.31
517.232	87.31
517.448	95.31
517.664	93.31
517.879	91.31
518.095	98.31
518.311	78.31
518.527	82.31
518.742	84.31
518.958	99.31
519.173	86.31
519.389	82.31
519.605	82.31
519.82	99.31
520.036	83.31
520.251	108.31
520.467	97.31
520.682	96.31
520.898	95.31
521.113	103.31
521.329	147.31
521.544	187.31
521.76	443.31
521.975	1905.31
522.19	1171.31
522.406	245.31
522.621	106.31
522.836	89.31
523.052	86.31
523.267	87.31
523.482	88.31
523.698	110.31
523.913	126.31
524.128	106.31
524.343	83.31
524.559	85.31
524.774	86.31
524.989	92.31
525.204	95.31
525.419	86.31
525.634	93.31
525.849	82.31
526.064	85.31
526.28	86.31
526.495	77.31
526.71	83.31
526.925	76.31
527.14	95.31
527.355	91.31
527.57	94.31
527.785	90.31
527.999	82.31
528.214	90.31
528.429	88.31
528.644	93.31
528.859	82.31
529.074	96.31
529.289	112.31
529.503	150.31
529.718	94.31
529.933	89.31
530.148	93.31
530.363	94.31
530.577	90.31
530.792	88.31
531.007	73.31
531.221	97.31
531.436	87.31
531.651	76.31
531.865	86.31
532.08	88.31
532.295	94.31
532.509	95.31
532.724	95.31
532.938	79.31
533.153	87.31
533.367	105.31
533.582	91.31
533.796	83.31
534.011	89.31
534.225	92.31
534.44	88.31
534.654	79.31
534.868	91.31
535.083	87.31
535.297	93.31
535.511	98.31
535.726	91.31
535.94	83.31
536.154	92.31
536.369	96.31
536.583	84.31
536.797	74.31
537.011	98.31
537.225	95.31
537.44	89.31
537.654	95.31
537.868	96.31
538.082	84.31
538.296	74.31
538.51	87.31
538.724	79.31
538.938	79.31
539.153	89.31
539.367	102.31
539.581	93.31
539.795	79.31
540.009	81.31
540.222	95.31
540.436	91.31
540.65	99.31
540.864	85.31
541.078	95.31
541.292	88.31
541.506	98.31
541.72	84.31
541.934	93.31
542.147	74.31
542.361	89.31
542.575	96.31
542.789	88.31
543.002	77.31
543.216	79.31
543.43	90.31
543.644	104.31
543.857	90.31
544.071	102.31
544.285	90.31
544.498	82.31
544.712	82.31
544.925	79.31
545.139	86.31
545.352	105.31
545.566	86.31
545.779	87.31
545.993	88.31
546.206	86.31
546.42	73.31
546.633	81.31
546.847	78.31
547.06	84.31
547.274	92.31
547.487	88.31
547.7	95.31
547.914	86.31
548.127	80.31
548.34	92.31
548.554	80.31
548.767	84.31
548.98	93.31
549.193	91.31
549.407	92.31
549.62	98.31
549.833	87.31
550.046	85.31
550.259	78.31
550.473	70.31
550.686	96.31
550.899	93.31
551.112	84.31
551.325	74.31
551.538	79.31
551.751	77.31
551.964	89.31
552.177	81.31
552.39	85.31
552.603	97.31
552.816	95.31
553.029	97.31
553.242	85.31
553.455	99.31
553.667	95.31
553.88	100.31
554.093	89.31
554.306	80.31
554.519	84.31
554.732	90.31
554.944	83.31
555.157	93.31
555.37	78.31
555.583	86.31
555.795	90.31
556.008	84.31
556.221	80.31
556.433	83.31
556.646	86.31
556.859	74.31
557.071	90.31
557.284	95.31
557.496	79.31
557.709	78.31
557.921	79.31
558.134	65.31
558.346	89.31
558.559	77.31
558.771	75.31
558.984	87.31
559.196	77.31
559.409	88.31
559.621	83.31
559.833	94.31
560.046	87.31
560.258	88.31
560.47	85.31
560.683	97.31
560.895	88.31
561.107	91.31
561.32	84.31
561.532	81.31
561.744	74.31
561.956	76.31
562.168	89.31
562.381	85.31
562.593	82.31
562.805	90.31
563.017	77.31
563.229	104.31
563.441	84.31
563.653	85.31
563.865	88.31
564.077	90.31
564.289	82.31
564.501	84.31
564.713	99.31
564.925	83.31
565.137	95.31
565.349	82.31
565.561	85.31
565.773	80.31
565.985	92.31
566.197	84.31
566.408	86.31
566.62	87.31
566.832	79.31
567.044	94.31
567.255	80.31
567.467	74.31
567.679	96.31
567.891	87.31
568.102	88.31
568.314	90.31
568.526	80.31
568.737	85.31
568.949	86.31
569.161	82.31
569.372	76.31
569.584	79.31
569.795	94.31
570.007	105.31
570.218	223.31
570.43	130.31
570.641	79.31
570.853	86.31
571.064	77.31
571.276	94.31
571.487	78.31
571.698	90.31
571.91	85.31
572.121	98.31
572.333	87.31
572.544	79.31
572.755	95.31
572.966	97.31
573.178	93.31
573.389	99.31
573.6	78.31
573.811	80.31
574.023	96.31
574.234	93.31
574.445	86.31
574.656	93.31
574.867	83.31
575.078	91.31
575.289	85.31
575.501	80.31
575.712	81.31
575.923	80.31
576.134	89.31
576.345	74.31
576.556	79.31
576.767	82.31
576.978	81.31
577.188	91.31
577.399	86.31
577.61	95.31
577.821	96.31
578.032	105.31
578.243	234.31
578.454	663.31
578.665	185.31
578.875	101.31
579.086	82.31
579.297	83.31
579.508	90.31
579.718	90.31
579.929	82.31
580.14	84.31
580.35	81.31
580.561	82.31
580.772	88.31
580.982	79.31
581.193	83.31
581.403	96.31
581.614	78.31
581.825	80.31
582.035	89.31
582.246	70.31
582.456	86.31
582.667	89.31
582.877	93.31
583.087	82.31
583.298	85.31
583.508	91.31
583.719	79.31
583.929	89.31
584.139	88.31
584.35	70.31
584.56	90.31
584.77	93.31
584.981	89.31
585.191	86.31
585.401	74.31
585.611	76.31
585.821	82.31
586.032	89.31
586.242	87.31
586.452	76.31
586.662	79.31
586.872	84.31
587.082	86.31
587.292	78.31
587.502	86.31
587.713	89.31
587.923	96.31
588.133	84.31
588.343	78.31
588.553	80.31
588.762	90.31
588.972	115.31
589.182	190.31
589.392	122.31
589.602	99.31
589.812	158.31
590.022	104.31
590.232	72.31
590.441	91.31
590.651	90.31
590.861	79.31
591.071	87.31
591.281	75.31
591.49	99.31
591.7	74.31
591.91	84.31
592.119	78.31
592.329	86.31
592.539	87.31
592.748	84.31
592.958	88.31
593.167	88.31
593.377	68.31
593.587	70.31
593.796	82.31
594.006	84.31
594.215	83.31
594.424	90.31
594.634	94.31
594.843	76.31
595.053	81.31
595.262	79.31
595.472	84.31
595.681	79.31
595.89	87.31
596.1	80.31
596.309	102.31
596.518	86.31
596.727	83.31
596.937	83.31
597.146	77.31
597.355	80.31
597.564	94.31
597.774	80.31
597.983	85.31
598.192	76.31
598.401	75.31
598.61	76.31
598.819	74.31
599.028	78.31
599.237	93.31
599.446	90.31
599.655	86.31
599.864	80.31
600.073	78.31
600.282	102.31
600.491	90.31
600.7	81.31
600.909	95.31
601.118	91.31
601.327	80.31
601.536	100.31
601.745	91.31
601.953	86.31
602.162	84.31
602.371	74.31
602.58	76.31
602.789	81.31
602.997	86.31
603.206	87.31
603.415	93.31
603.623	81.31
603.832	77.31
604.041	91.31
604.249	83.31
604.458	89.31
604.666	96.31
604.875	81.31
605.084	68.31
605.292	90.31
605.501	94.31
605.709	84.31
605.918	83.31
606.126	85.31
606.334	81.31
606.543	87.31
606.751	77.31
606.96	89.31
607.168	71.31
607.376	68.31
607.585	69.31
607.793	88.31
608.001	93.31
608.21	83.31
608.418	87.31
608.626	96.31
608.834	83.31
609.043	94.31
609.251	82.31
609.459	86.31
609.667	94.31
609.875	92.31
610.083	91.31
610.291	72.31
610.499	85.31
610.707	92.31
610.916	75.31
611.124	80.31
611.332	75.31
611.54	82.31
611.748	92.31
611.955	94.31
612.163	80.31
612.371	82.31
612.579	79.31
612.787	83.31
612.995	83.31
613.203	69.31
613.411	82.31
613.618	75.31
613.826	84.31
614.034	83.31
614.242	93.31
614.449	83.31
614.657	94.31
614.865	89.31
615.072	78.31
615.28	91.31
615.488	88.31
615.695	100.31
615.903	92.31
616.111	89.31
616.318	91.31
616.526	80.31
616.733	79.31
616.941	86.31
617.148	80.31
617.356	98.31
617.563	83.31
617.771	89.31
617.978	66.31
618.185	92.31
618.393	93.31
618.6	73.31
618.807	83.31
619.015	90.31
619.222	80.31
619.429	78.31
619.637	88.31
619.844	84.31
620.051	94.31
620.258	88.31
620.466	81.31
620.673	74.31
620.88	80.31
621.087	87.31
621.294	88.31
621.501	79.31
621.708	92.31
621.915	83.31
622.122	86.31
622.329	78.31
622.536	98.31
622.743	80.31
622.95	82.31
623.157	74.31
623.364	86.31
623.571	82.31
623.778	77.31
623.985	74.31
624.192	67.31
624.399	91.31
624.606	90.31
624.812	86.31
625.019	87.31
625.226	75.31
625.433	86.31
625.639	100.31
625.846	90.31
626.053	83.31
626.259	82.31
626.466	80.31
626.673	87.31
626.879	82.31
627.086	84.31
627.293	87.31
627.499	96.31
627.706	84.31
627.912	84.31
628.119	89.31
628.325	79.31
628.532	83.31
628.738	89.31
628.945	80.31
629.151	80.31
629.357	79.31
629.564	71.31
629.77	84.31
629.976	83.31
630.183	78.31
630.389	78.31
630.595	76.31
630.802	86.31
631.008	79.31
631.214	84.31
631.42	70.31
631.627	89.31
631.833	84.31
632.039	86.31
632.245	84.31
632.451	85.31
632.657	87.31
632.863	72.31
633.069	92.31
633.275	84.31
633.481	75.31
633.688	81.31
633.893	87.31
634.099	78.31
634.305	84.31
634.511	83.31
634.717	86.31
634.923	76.31
635.129	86.31
635.335	89.31
635.541	86.31
635.747	84.31
635.952	93.31
636.158	88.31
636.364	108.31
636.57	82.31
636.775	93.31
636.981	66.31
637.187	83.31
637.392	88.31
637.598	86.31
637.804	78.31
638.009	82.31
638.215	85.31
638.421	78.31
638.626	81.31
638.832	85.31
639.037	65.31
639.243	95.31
639.448	82.31
639.654	84.31
639.859	78.31
640.065	68.31
640.27	82.31
640.475	79.31
640.681	74.31
640.886	96.31
641.091	83.31
641.297	92.31
641.502	92.31
641.707	87.31
641.913	74.31
642.118	71.31
642.323	83.31
642.528	69.31
642.733	87.31
642.939	85.31
643.144	87.31
643.349	90.31
643.554	90.31
643.759	81.31
643.964	73.31
644.169	81.31
644.374	84.31
644.579	73.31
644.784	83.31
644.989	72.31
645.194	93.31
645.399	86.31
645.604	84.31
645.809	78.31
646.014	81.31
646.219	95.31
646.423	80.31
646.628	84.31
646.833	83.31
647.038	90.31
647.243	75.31
647.447	84.31
647.652	87.31
647.857	96.31
648.062	91.31
648.266	97.31
648.471	91.31
648.676	89.31
648.88	87.31
649.085	89.31
649.289	79.31
649.494	108.31
649.698	115.31
649.903	97.31
650.107	87.31
650.312	80.31
650.516	71.31
650.721	90.31
650.925	86.31
651.13	74.31
651.334	77.31
651.539	83.31
651.743	86.31
651.947	94.31
652.152	90.31
652.356	96.31
652.56	82.31
652.764	68.31
652.969	75.31
653.173	72.31
653.377	73.31
653.581	82.31
653.785	70.31
653.99	75.31
654.194	67.31
654.398	76.31
654.602	83.31
654.806	83.31
655.01	91.31
655.214	79.31
655.418	74.31
655.622	91.31
655.826	96.31
656.03	79.31
656.234	67.31
656.438	74.31
656.642	91.31
656.846	104.31
657.049	81.31
657.253	88.31
657.457	87.31
657.661	76.31
657.865	79.31
658.068	80.31
658.272	78.31
658.476	83.31
658.68	92.31
658.883	84.31
659.087	80.31
659.291	74.31
659.494	74.31
659.698	73.31
659.901	74.31
660.105	68.31
660.309	100.31
660.512	82.31
660.716	83.31
660.919	87.31
661.123	85.31
661.326	83.31
661.53	81.31
661.733	92.31
661.936	82.31
662.14	82.31
662.343	78.31
662.546	82.31
662.75	92.31
662.953	90.31
663.156	83.31
663.36	84.31
663.563	79.31
663.766	68.31
663.969	74.31
664.173	77.31
664.376	72.31
664.579	74.31
664.782	84.31
664.985	86.31
665.188	80.31
665.391	92.31
665.594	83.31
665.797	80.31
666	79.31
666.203	89.31
666.406	75.31
666.609	68.31
666.812	70.31
667.015	72.31
667.218	87.31
667.421	84.31
667.624	82.31
667.827	79.31
668.03	66.31
668.232	63.31
668.435	65.31
668.638	79.31
668.841	86.31
669.043	65.31
669.246	83.31
669.449	78.31
669.651	67.31
669.854	87.31
670.057	72.31
670.259	98.31
670.462	79.31
670.665	67.31
670.867	83.31
671.07	77.31
671.272	87.31
671.475	77.31
671.677	96.31
671.88	80.31
672.082	79.31
672.284	70.31
672.487	90.31
672.689	84.31
672.892	88.31
