Data from Circ_1993_H10_HRD10591_00074.txt Node
Date: Wed Jan 03 11:44:16 EST 2024
User: Yrep
Spectrometer: HR+D1059
Trigger mode: 1
Integration Time (sec): 1.000000E-1
Scans to average: 1
Electric dark correction enabled: true
Nonlinearity correction enabled: false
Boxcar width: 0
XAxis mode: Wavelengths
Number of Pixels in Spectrum: 2048
>>>>>Begin Spectral Data<<<<<
223.165	-29.88
223.4	-29.88
223.635	-29.88
223.869	-23.88
224.104	-20.88
224.338	-19.88
224.573	-10.88
224.808	-0.88
225.042	-6.88
225.277	-13.88
225.511	-3.88
225.746	13.12
225.98	5.12
226.215	11.12
226.449	26.12
226.683	25.12
226.918	15.12
227.152	35.12
227.387	43.12
227.621	39.12
227.856	43.12
228.09	45.12
228.324	35.12
228.559	65.12
228.793	55.12
229.027	55.12
229.262	61.12
229.496	83.12
229.73	77.12
229.964	80.12
230.199	62.12
230.433	71.12
230.667	82.12
230.901	73.12
231.136	92.12
231.37	74.12
231.604	73.12
231.838	93.12
232.072	84.12
232.306	79.12
232.541	89.12
232.775	89.12
233.009	79.12
233.243	76.12
233.477	69.12
233.711	79.12
233.945	97.12
234.179	79.12
234.413	78.12
234.647	101.12
234.881	70.12
235.115	84.12
235.349	75.12
235.583	90.12
235.817	87.12
236.051	81.12
236.285	90.12
236.519	69.12
236.753	70.12
236.987	98.12
237.221	83.12
237.455	83.12
237.689	78.12
237.922	71.12
238.156	65.12
238.39	83.12
238.624	86.12
238.858	82.12
239.091	70.12
239.325	80.12
239.559	83.12
239.793	82.12
240.027	74.12
240.26	83.12
240.494	78.12
240.728	72.12
240.961	77.12
241.195	69.12
241.429	65.12
241.662	76.12
241.896	71.12
242.13	73.12
242.363	73.12
242.597	77.12
242.83	76.12
243.064	82.12
243.298	78.12
243.531	80.12
243.765	84.12
243.998	75.12
244.232	85.12
244.465	78.12
244.699	91.12
244.932	90.12
245.166	81.12
245.399	79.12
245.633	69.12
245.866	62.12
246.099	85.12
246.333	77.12
246.566	76.12
246.8	82.12
247.033	84.12
247.266	70.12
247.5	84.12
247.733	65.12
247.966	81.12
248.2	75.12
248.433	93.12
248.666	69.12
248.899	92.12
249.133	98.12
249.366	95.12
249.599	92.12
249.832	79.12
250.066	96.12
250.299	91.12
250.532	87.12
250.765	77.12
250.998	78.12
251.231	87.12
251.465	66.12
251.698	84.12
251.931	78.12
252.164	76.12
252.397	94.12
252.63	69.12
252.863	95.12
253.096	84.12
253.329	89.12
253.562	78.12
253.795	76.12
254.028	86.12
254.261	77.12
254.494	87.12
254.727	89.12
254.96	75.12
255.193	92.12
255.426	71.12
255.659	82.12
255.892	82.12
256.124	97.12
256.357	80.12
256.59	90.12
256.823	86.12
257.056	87.12
257.289	91.12
257.521	70.12
257.754	81.12
257.987	77.12
258.22	86.12
258.452	85.12
258.685	77.12
258.918	76.12
259.151	79.12
259.383	66.12
259.616	83.12
259.849	81.12
260.081	85.12
260.314	73.12
260.547	76.12
260.779	89.12
261.012	88.12
261.244	84.12
261.477	96.12
261.71	81.12
261.942	86.12
262.175	107.12
262.407	78.12
262.64	83.12
262.872	87.12
263.105	99.12
263.337	85.12
263.57	107.12
263.802	89.12
264.035	72.12
264.267	85.12
264.499	86.12
264.732	97.12
264.964	100.12
265.197	88.12
265.429	84.12
265.661	77.12
265.894	77.12
266.126	70.12
266.358	70.12
266.591	78.12
266.823	79.12
267.055	83.12
267.287	93.12
267.52	86.12
267.752	86.12
267.984	81.12
268.216	70.12
268.448	81.12
268.681	86.12
268.913	89.12
269.145	87.12
269.377	87.12
269.609	85.12
269.841	98.12
270.073	80.12
270.306	80.12
270.538	86.12
270.77	92.12
271.002	78.12
271.234	76.12
271.466	84.12
271.698	79.12
271.93	87.12
272.162	89.12
272.394	93.12
272.626	84.12
272.858	75.12
273.09	84.12
273.322	83.12
273.553	95.12
273.785	89.12
274.017	80.12
274.249	88.12
274.481	91.12
274.713	78.12
274.945	86.12
275.176	90.12
275.408	94.12
275.64	95.12
275.872	75.12
276.104	86.12
276.335	94.12
276.567	79.12
276.799	97.12
277.031	104.12
277.262	91.12
277.494	97.12
277.726	79.12
277.957	94.12
278.189	77.12
278.421	87.12
278.652	91.12
278.884	91.12
279.115	83.12
279.347	95.12
279.579	92.12
279.81	84.12
280.042	98.12
280.273	93.12
280.505	99.12
280.736	82.12
280.968	85.12
281.199	97.12
281.431	93.12
281.662	93.12
281.894	102.12
282.125	110.12
282.356	108.12
282.588	137.12
282.819	112.12
283.051	99.12
283.282	86.12
283.513	92.12
283.745	73.12
283.976	101.12
284.207	86.12
284.439	68.12
284.67	89.12
284.901	76.12
285.132	92.12
285.364	83.12
285.595	98.12
285.826	92.12
286.057	93.12
286.288	81.12
286.52	93.12
286.751	79.12
286.982	84.12
287.213	95.12
287.444	81.12
287.675	79.12
287.906	92.12
288.138	91.12
288.369	98.12
288.6	96.12
288.831	94.12
289.062	87.12
289.293	88.12
289.524	81.12
289.755	86.12
289.986	78.12
290.217	84.12
290.448	86.12
290.679	86.12
290.91	101.12
291.141	98.12
291.371	77.12
291.602	77.12
291.833	81.12
292.064	95.12
292.295	96.12
292.526	94.12
292.757	82.12
292.987	89.12
293.218	80.12
293.449	90.12
293.68	84.12
293.91	95.12
294.141	95.12
294.372	94.12
294.603	99.12
294.833	86.12
295.064	93.12
295.295	92.12
295.525	80.12
295.756	88.12
295.987	102.12
296.217	122.12
296.448	106.12
296.679	91.12
296.909	83.12
297.14	87.12
297.37	92.12
297.601	99.12
297.831	87.12
298.062	86.12
298.292	74.12
298.523	90.12
298.753	88.12
298.984	87.12
299.214	111.12
299.445	103.12
299.675	101.12
299.905	92.12
300.136	87.12
300.366	88.12
300.597	95.12
300.827	114.12
301.057	104.12
301.288	97.12
301.518	93.12
301.748	87.12
301.979	111.12
302.209	91.12
302.439	96.12
302.669	78.12
302.9	89.12
303.13	93.12
303.36	112.12
303.59	94.12
303.82	109.12
304.051	93.12
304.281	93.12
304.511	95.12
304.741	88.12
304.971	91.12
305.201	96.12
305.431	103.12
305.661	110.12
305.891	98.12
306.121	92.12
306.352	114.12
306.582	112.12
306.812	92.12
307.042	106.12
307.272	97.12
307.502	104.12
307.731	116.12
307.961	100.12
308.191	93.12
308.421	93.12
308.651	103.12
308.881	97.12
309.111	107.12
309.341	91.12
309.571	98.12
309.8	101.12
310.03	95.12
310.26	95.12
310.49	91.12
310.72	96.12
310.949	101.12
311.179	103.12
311.409	95.12
311.639	93.12
311.868	93.12
312.098	81.12
312.328	95.12
312.557	95.12
312.787	106.12
313.017	92.12
313.246	82.12
313.476	107.12
313.706	93.12
313.935	91.12
314.165	94.12
314.394	97.12
314.624	90.12
314.853	99.12
315.083	67.12
315.312	101.12
315.542	100.12
315.771	91.12
316.001	76.12
316.23	89.12
316.46	85.12
316.689	76.12
316.919	92.12
317.148	90.12
317.377	103.12
317.607	112.12
317.836	93.12
318.065	87.12
318.295	88.12
318.524	86.12
318.753	86.12
318.983	100.12
319.212	86.12
319.441	111.12
319.67	93.12
319.9	87.12
320.129	101.12
320.358	88.12
320.587	91.12
320.816	99.12
321.046	91.12
321.275	93.12
321.504	97.12
321.733	91.12
321.962	101.12
322.191	99.12
322.42	103.12
322.649	125.12
322.878	99.12
323.108	118.12
323.337	129.12
323.566	114.12
323.795	143.12
324.024	199.12
324.253	367.12
324.482	747.12
324.71	1561.12
324.939	2063.12
325.168	722.12
325.397	226.12
325.626	149.12
325.855	116.12
326.084	134.12
326.313	125.12
326.542	149.12
326.77	221.12
326.999	440.12
327.228	897.12
327.457	1577.12
327.686	1275.12
327.914	363.12
328.143	195.12
328.372	198.12
328.6	141.12
328.829	129.12
329.058	124.12
329.287	129.12
329.515	117.12
329.744	131.12
329.972	146.12
330.201	229.12
330.43	257.12
330.658	167.12
330.887	158.12
331.115	107.12
331.344	111.12
331.572	99.12
331.801	109.12
332.03	104.12
332.258	91.12
332.486	90.12
332.715	104.12
332.943	99.12
333.172	102.12
333.4	104.12
333.629	128.12
333.857	122.12
334.085	155.12
334.314	197.12
334.542	329.12
334.771	310.12
334.999	149.12
335.227	105.12
335.455	102.12
335.684	95.12
335.912	103.12
336.14	104.12
336.369	90.12
336.597	99.12
336.825	93.12
337.053	85.12
337.281	114.12
337.51	88.12
337.738	106.12
337.966	87.12
338.194	99.12
338.422	102.12
338.65	102.12
338.878	89.12
339.106	84.12
339.334	96.12
339.562	81.12
339.79	83.12
340.018	101.12
340.246	91.12
340.474	96.12
340.702	97.12
340.93	86.12
341.158	94.12
341.386	92.12
341.614	85.12
341.842	93.12
342.07	104.12
342.298	82.12
342.526	88.12
342.754	96.12
342.981	91.12
343.209	88.12
343.437	95.12
343.665	98.12
343.893	85.12
344.12	94.12
344.348	89.12
344.576	85.12
344.804	89.12
345.031	91.12
345.259	93.12
345.487	99.12
345.714	103.12
345.942	84.12
346.17	85.12
346.397	91.12
346.625	108.12
346.853	99.12
347.08	107.12
347.308	96.12
347.535	105.12
347.763	101.12
347.99	93.12
348.218	119.12
348.445	98.12
348.673	97.12
348.9	109.12
349.128	93.12
349.355	84.12
349.583	106.12
349.81	93.12
350.037	101.12
350.265	90.12
350.492	86.12
350.72	93.12
350.947	96.12
351.174	109.12
351.402	108.12
351.629	94.12
351.856	109.12
352.083	100.12
352.311	104.12
352.538	99.12
352.765	97.12
352.992	111.12
353.22	97.12
353.447	91.12
353.674	99.12
353.901	92.12
354.128	94.12
354.355	107.12
354.583	89.12
354.81	96.12
355.037	97.12
355.264	103.12
355.491	91.12
355.718	81.12
355.945	86.12
356.172	80.12
356.399	107.12
356.626	103.12
356.853	98.12
357.08	108.12
357.307	107.12
357.534	94.12
357.761	77.12
357.988	101.12
358.215	98.12
358.441	86.12
358.668	92.12
358.895	94.12
359.122	81.12
359.349	90.12
359.576	99.12
359.802	93.12
360.029	105.12
360.256	114.12
360.483	97.12
360.709	79.12
360.936	87.12
361.163	93.12
361.39	85.12
361.616	105.12
361.843	93.12
362.07	90.12
362.296	94.12
362.523	92.12
362.749	84.12
362.976	100.12
363.203	98.12
363.429	85.12
363.656	93.12
363.882	83.12
364.109	105.12
364.335	81.12
364.562	93.12
364.788	106.12
365.015	91.12
365.241	105.12
365.468	105.12
365.694	95.12
365.92	87.12
366.147	94.12
366.373	86.12
366.599	89.12
366.826	92.12
367.052	95.12
367.278	93.12
367.505	98.12
367.731	80.12
367.957	72.12
368.184	91.12
368.41	101.12
368.636	100.12
368.862	108.12
369.089	102.12
369.315	91.12
369.541	98.12
369.767	100.12
369.993	97.12
370.219	96.12
370.445	94.12
370.672	74.12
370.898	81.12
371.124	78.12
371.35	103.12
371.576	82.12
371.802	84.12
372.028	95.12
372.254	96.12
372.48	91.12
372.706	79.12
372.932	103.12
373.158	93.12
373.384	86.12
373.61	91.12
373.835	83.12
374.061	83.12
374.287	83.12
374.513	81.12
374.739	94.12
374.965	83.12
375.191	89.12
375.416	75.12
375.642	96.12
375.868	97.12
376.094	88.12
376.319	81.12
376.545	84.12
376.771	89.12
376.997	79.12
377.222	98.12
377.448	89.12
377.674	86.12
377.899	100.12
378.125	107.12
378.35	93.12
378.576	100.12
378.802	87.12
379.027	83.12
379.253	87.12
379.478	102.12
379.704	85.12
379.929	82.12
380.155	89.12
380.38	93.12
380.606	93.12
380.831	81.12
381.057	109.12
381.282	89.12
381.507	92.12
381.733	85.12
381.958	96.12
382.184	100.12
382.409	104.12
382.634	103.12
382.86	110.12
383.085	103.12
383.31	102.12
383.535	110.12
383.761	90.12
383.986	95.12
384.211	94.12
384.436	104.12
384.662	119.12
384.887	105.12
385.112	107.12
385.337	110.12
385.562	108.12
385.787	103.12
386.013	99.12
386.238	116.12
386.463	109.12
386.688	106.12
386.913	103.12
387.138	118.12
387.363	106.12
387.588	107.12
387.813	91.12
388.038	105.12
388.263	109.12
388.488	100.12
388.713	86.12
388.938	94.12
389.163	100.12
389.387	86.12
389.612	94.12
389.837	109.12
390.062	95.12
390.287	82.12
390.512	98.12
390.736	92.12
390.961	95.12
391.186	95.12
391.411	90.12
391.636	92.12
391.86	92.12
392.085	78.12
392.31	99.12
392.534	90.12
392.759	90.12
392.984	82.12
393.208	107.12
393.433	117.12
393.658	98.12
393.882	95.12
394.107	88.12
394.331	93.12
394.556	95.12
394.78	100.12
395.005	87.12
395.229	88.12
395.454	79.12
395.678	83.12
395.903	77.12
396.127	89.12
396.352	84.12
396.576	82.12
396.801	104.12
397.025	107.12
397.249	88.12
397.474	98.12
397.698	91.12
397.922	84.12
398.147	83.12
398.371	77.12
398.595	93.12
398.82	77.12
399.044	83.12
399.268	86.12
399.492	95.12
399.717	90.12
399.941	88.12
400.165	86.12
400.389	83.12
400.613	77.12
400.837	81.12
401.062	102.12
401.286	89.12
401.51	96.12
401.734	92.12
401.958	87.12
402.182	119.12
402.406	127.12
402.63	103.12
402.854	89.12
403.078	99.12
403.302	87.12
403.526	94.12
403.75	93.12
403.974	69.12
404.198	93.12
404.422	96.12
404.645	107.12
404.869	99.12
405.093	90.12
405.317	108.12
405.541	102.12
405.765	100.12
405.988	117.12
406.212	133.12
406.436	205.12
406.66	131.12
406.883	92.12
407.107	85.12
407.331	103.12
407.555	98.12
407.778	101.12
408.002	92.12
408.226	93.12
408.449	81.12
408.673	89.12
408.896	90.12
409.12	101.12
409.344	97.12
409.567	86.12
409.791	92.12
410.014	91.12
410.238	109.12
410.461	97.12
410.685	87.12
410.908	96.12
411.132	100.12
411.355	114.12
411.578	93.12
411.802	79.12
412.025	100.12
412.249	85.12
412.472	114.12
412.695	115.12
412.919	98.12
413.142	79.12
413.365	78.12
413.589	81.12
413.812	107.12
414.035	87.12
414.258	85.12
414.482	95.12
414.705	92.12
414.928	94.12
415.151	91.12
415.374	101.12
415.597	89.12
415.821	87.12
416.044	81.12
416.267	91.12
416.49	87.12
416.713	91.12
416.936	75.12
417.159	91.12
417.382	87.12
417.605	93.12
417.828	81.12
418.051	89.12
418.274	96.12
418.497	87.12
418.72	95.12
418.943	91.12
419.166	93.12
419.389	74.12
419.611	81.12
419.834	107.12
420.057	96.12
420.28	90.12
420.503	85.12
420.726	86.12
420.948	93.12
421.171	79.12
421.394	102.12
421.617	96.12
421.839	82.12
422.062	90.12
422.285	102.12
422.507	112.12
422.73	106.12
422.953	108.12
423.175	85.12
423.398	90.12
423.621	79.12
423.843	75.12
424.066	83.12
424.288	91.12
424.511	86.12
424.733	114.12
424.956	117.12
425.178	93.12
425.401	103.12
425.623	97.12
425.846	84.12
426.068	98.12
426.291	86.12
426.513	90.12
426.735	99.12
426.958	94.12
427.18	107.12
427.402	137.12
427.625	160.12
427.847	149.12
428.069	125.12
428.292	81.12
428.514	92.12
428.736	100.12
428.958	75.12
429.181	99.12
429.403	83.12
429.625	91.12
429.847	93.12
430.069	101.12
430.292	100.12
430.514	97.12
430.736	87.12
430.958	81.12
431.18	89.12
431.402	87.12
431.624	93.12
431.846	77.12
432.068	90.12
432.29	76.12
432.512	84.12
432.734	78.12
432.956	89.12
433.178	91.12
433.4	90.12
433.622	94.12
433.844	90.12
434.066	95.12
434.287	93.12
434.509	93.12
434.731	92.12
434.953	95.12
435.175	94.12
435.397	101.12
435.618	103.12
435.84	108.12
436.062	137.12
436.284	131.12
436.505	103.12
436.727	100.12
436.949	92.12
437.17	76.12
437.392	67.12
437.614	88.12
437.835	90.12
438.057	133.12
438.278	122.12
438.5	114.12
438.721	115.12
438.943	100.12
439.165	91.12
439.386	88.12
439.608	93.12
439.829	107.12
440.05	126.12
440.272	139.12
440.493	89.12
440.715	98.12
440.936	99.12
441.158	85.12
441.379	75.12
441.6	82.12
441.822	90.12
442.043	105.12
442.264	99.12
442.486	102.12
442.707	92.12
442.928	100.12
443.149	119.12
443.371	121.12
443.592	117.12
443.813	112.12
444.034	111.12
444.255	85.12
444.476	98.12
444.698	105.12
444.919	104.12
445.14	130.12
445.361	124.12
445.582	119.12
445.803	134.12
446.024	145.12
446.245	138.12
446.466	114.12
446.687	94.12
446.908	98.12
447.129	85.12
447.35	97.12
447.571	82.12
447.792	85.12
448.013	79.12
448.234	99.12
448.455	103.12
448.675	118.12
448.896	129.12
449.117	95.12
449.338	113.12
449.559	127.12
449.779	143.12
450	97.12
450.221	73.12
450.442	101.12
450.662	95.12
450.883	115.12
451.104	117.12
451.324	84.12
451.545	85.12
451.766	85.12
451.986	88.12
452.207	86.12
452.428	87.12
452.648	113.12
452.869	116.12
453.089	93.12
453.31	106.12
453.53	101.12
453.751	93.12
453.971	88.12
454.192	103.12
454.412	86.12
454.633	91.12
454.853	71.12
455.073	85.12
455.294	98.12
455.514	102.12
455.734	77.12
455.955	78.12
456.175	75.12
456.395	79.12
456.616	82.12
456.836	97.12
457.056	81.12
457.276	89.12
457.497	75.12
457.717	83.12
457.937	80.12
458.157	70.12
458.377	78.12
458.598	100.12
458.818	145.12
459.038	145.12
459.258	125.12
459.478	98.12
459.698	78.12
459.918	92.12
460.138	80.12
460.358	75.12
460.578	85.12
460.798	90.12
461.018	92.12
461.238	72.12
461.458	82.12
461.678	77.12
461.898	84.12
462.118	83.12
462.338	80.12
462.558	78.12
462.777	87.12
462.997	85.12
463.217	92.12
463.437	100.12
463.657	95.12
463.876	83.12
464.096	85.12
464.316	86.12
464.536	75.12
464.755	83.12
464.975	109.12
465.195	154.12
465.414	144.12
465.634	96.12
465.854	93.12
466.073	97.12
466.293	95.12
466.512	83.12
466.732	81.12
466.951	93.12
467.171	99.12
467.391	107.12
467.61	94.12
467.829	115.12
468.049	142.12
468.268	167.12
468.488	100.12
468.707	87.12
468.927	92.12
469.146	99.12
469.365	87.12
469.585	93.12
469.804	100.12
470.023	98.12
470.243	94.12
470.462	98.12
470.681	110.12
470.901	83.12
471.12	82.12
471.339	92.12
471.558	86.12
471.777	105.12
471.997	97.12
472.216	225.12
472.435	406.12
472.654	155.12
472.873	102.12
473.092	94.12
473.311	95.12
473.53	91.12
473.749	75.12
473.968	87.12
474.187	86.12
474.406	94.12
474.625	91.12
474.844	78.12
475.063	79.12
475.282	92.12
475.501	99.12
475.72	81.12
475.939	76.12
476.158	86.12
476.377	86.12
476.596	89.12
476.814	92.12
477.033	87.12
477.252	79.12
477.471	82.12
477.69	82.12
477.908	85.12
478.127	100.12
478.346	88.12
478.564	90.12
478.783	88.12
479.002	97.12
479.22	108.12
479.439	105.12
479.658	97.12
479.876	87.12
480.095	97.12
480.313	94.12
480.532	98.12
480.751	120.12
480.969	239.12
481.188	686.12
481.406	442.12
481.624	123.12
481.843	100.12
482.061	85.12
482.28	80.12
482.498	89.12
482.717	77.12
482.935	80.12
483.153	101.12
483.372	90.12
483.59	85.12
483.808	102.12
484.027	111.12
484.245	74.12
484.463	97.12
484.681	89.12
484.9	96.12
485.118	98.12
485.336	115.12
485.554	110.12
485.772	102.12
485.99	88.12
486.209	103.12
486.427	114.12
486.645	117.12
486.863	103.12
487.081	93.12
487.299	100.12
487.517	88.12
487.735	94.12
487.953	97.12
488.171	94.12
488.389	95.12
488.607	107.12
488.825	82.12
489.043	97.12
489.261	102.12
489.479	78.12
489.696	88.12
489.914	86.12
490.132	98.12
490.35	94.12
490.568	102.12
490.786	97.12
491.003	80.12
491.221	89.12
491.439	77.12
491.657	96.12
491.874	86.12
492.092	95.12
492.31	84.12
492.527	94.12
492.745	86.12
492.963	93.12
493.18	79.12
493.398	93.12
493.615	99.12
493.833	86.12
494.05	87.12
494.268	88.12
494.485	85.12
494.703	94.12
494.92	84.12
495.138	82.12
495.355	95.12
495.573	84.12
495.79	110.12
496.008	95.12
496.225	92.12
496.442	105.12
496.66	95.12
496.877	87.12
497.094	85.12
497.312	85.12
497.529	94.12
497.746	89.12
497.963	96.12
498.181	88.12
498.398	105.12
498.615	102.12
498.832	97.12
499.049	90.12
499.267	90.12
499.484	79.12
499.701	86.12
499.918	86.12
500.135	89.12
500.352	99.12
500.569	104.12
500.786	89.12
501.003	90.12
501.22	87.12
501.437	83.12
501.654	104.12
501.871	114.12
502.088	83.12
502.305	86.12
502.522	98.12
502.739	89.12
502.956	82.12
503.172	101.12
503.389	94.12
503.606	101.12
503.823	95.12
504.04	95.12
504.256	89.12
504.473	97.12
504.69	90.12
504.907	84.12
505.123	82.12
505.34	88.12
505.557	105.12
505.773	98.12
505.99	111.12
506.207	83.12
506.423	86.12
506.64	77.12
506.856	87.12
507.073	86.12
507.289	104.12
507.506	99.12
507.722	103.12
507.939	100.12
508.155	105.12
508.372	96.12
508.588	88.12
508.805	91.12
509.021	105.12
509.238	99.12
509.454	99.12
509.67	106.12
509.887	101.12
510.103	116.12
510.319	194.12
510.536	660.12
510.752	2050.12
510.968	575.12
511.184	155.12
511.401	106.12
511.617	97.12
511.833	82.12
512.049	91.12
512.265	91.12
512.481	105.12
512.698	98.12
512.914	97.12
513.13	110.12
513.346	85.12
513.562	90.12
513.778	91.12
513.994	90.12
514.21	101.12
514.426	109.12
514.642	118.12
514.858	110.12
515.074	159.12
515.29	402.12
515.506	1258.12
515.721	462.12
515.937	141.12
516.153	103.12
516.369	98.12
516.585	100.12
516.801	86.12
517.016	90.12
517.232	101.12
517.448	99.12
517.664	94.12
517.879	88.12
518.095	93.12
518.311	84.12
518.527	95.12
518.742	105.12
518.958	97.12
519.173	85.12
519.389	96.12
519.605	102.12
519.82	86.12
520.036	87.12
520.251	117.12
520.467	127.12
520.682	117.12
520.898	118.12
521.113	114.12
521.329	124.12
521.544	201.12
521.76	500.12
521.975	2108.12
522.19	1264.12
522.406	279.12
522.621	113.12
522.836	105.12
523.052	84.12
523.267	86.12
523.482	85.12
523.698	80.12
523.913	120.12
524.128	105.12
524.343	100.12
524.559	95.12
524.774	96.12
524.989	94.12
525.204	113.12
525.419	111.12
525.634	93.12
525.849	85.12
526.064	89.12
526.28	87.12
526.495	99.12
526.71	81.12
526.925	100.12
527.14	97.12
527.355	81.12
527.57	85.12
527.785	92.12
527.999	88.12
528.214	78.12
528.429	99.12
528.644	108.12
528.859	88.12
529.074	96.12
529.289	117.12
529.503	161.12
529.718	95.12
529.933	84.12
530.148	103.12
530.363	100.12
530.577	102.12
530.792	91.12
531.007	95.12
531.221	87.12
531.436	88.12
531.651	98.12
531.865	97.12
532.08	88.12
532.295	86.12
532.509	93.12
532.724	96.12
532.938	96.12
533.153	95.12
533.367	87.12
533.582	103.12
533.796	108.12
534.011	83.12
534.225	99.12
534.44	78.12
534.654	93.12
534.868	99.12
535.083	103.12
535.297	93.12
535.511	86.12
535.726	103.12
535.94	106.12
536.154	87.12
536.369	90.12
536.583	92.12
536.797	102.12
537.011	100.12
537.225	90.12
537.44	90.12
537.654	97.12
537.868	87.12
538.082	87.12
538.296	74.12
538.51	84.12
538.724	94.12
538.938	90.12
539.153	101.12
539.367	115.12
539.581	101.12
539.795	91.12
540.009	99.12
540.222	105.12
540.436	99.12
540.65	93.12
540.864	91.12
541.078	89.12
541.292	95.12
541.506	89.12
541.72	99.12
541.934	74.12
542.147	86.12
542.361	95.12
542.575	85.12
542.789	71.12
543.002	92.12
543.216	87.12
543.43	90.12
543.644	95.12
543.857	97.12
544.071	84.12
544.285	98.12
544.498	79.12
544.712	89.12
544.925	90.12
545.139	98.12
545.352	97.12
545.566	89.12
545.779	92.12
545.993	86.12
546.206	88.12
546.42	91.12
546.633	82.12
546.847	78.12
547.06	90.12
547.274	101.12
547.487	95.12
547.7	92.12
547.914	94.12
548.127	86.12
548.34	97.12
548.554	93.12
548.767	111.12
548.98	112.12
549.193	91.12
549.407	88.12
549.62	88.12
549.833	77.12
550.046	95.12
550.259	74.12
550.473	78.12
550.686	107.12
550.899	98.12
551.112	87.12
551.325	88.12
551.538	102.12
551.751	87.12
551.964	94.12
552.177	84.12
552.39	94.12
552.603	84.12
552.816	94.12
553.029	79.12
553.242	92.12
553.455	93.12
553.667	95.12
553.88	95.12
554.093	90.12
554.306	93.12
554.519	102.12
554.732	108.12
554.944	91.12
555.157	89.12
555.37	92.12
555.583	89.12
555.795	93.12
556.008	79.12
556.221	92.12
556.433	93.12
556.646	91.12
556.859	104.12
557.071	94.12
557.284	94.12
557.496	98.12
557.709	96.12
557.921	81.12
558.134	89.12
558.346	103.12
558.559	93.12
558.771	89.12
558.984	102.12
559.196	93.12
559.409	100.12
559.621	87.12
559.833	105.12
560.046	89.12
560.258	100.12
560.47	103.12
560.683	81.12
560.895	103.12
561.107	98.12
561.32	90.12
561.532	93.12
561.744	95.12
561.956	100.12
562.168	81.12
562.381	86.12
562.593	105.12
562.805	90.12
563.017	92.12
563.229	100.12
563.441	78.12
563.653	101.12
563.865	91.12
564.077	105.12
564.289	82.12
564.501	85.12
564.713	86.12
564.925	98.12
565.137	109.12
565.349	102.12
565.561	101.12
565.773	89.12
565.985	96.12
566.197	83.12
566.408	91.12
566.62	77.12
566.832	91.12
567.044	86.12
567.255	83.12
567.467	90.12
567.679	93.12
567.891	93.12
568.102	92.12
568.314	97.12
568.526	71.12
568.737	83.12
568.949	91.12
569.161	87.12
569.372	82.12
569.584	87.12
569.795	102.12
570.007	122.12
570.218	207.12
570.43	110.12
570.641	89.12
570.853	94.12
571.064	87.12
571.276	83.12
571.487	76.12
571.698	87.12
571.91	99.12
572.121	79.12
572.333	89.12
572.544	81.12
572.755	94.12
572.966	101.12
573.178	83.12
573.389	83.12
573.6	100.12
573.811	87.12
574.023	92.12
574.234	88.12
574.445	85.12
574.656	89.12
574.867	97.12
575.078	95.12
575.289	77.12
575.501	90.12
575.712	102.12
575.923	81.12
576.134	96.12
576.345	98.12
576.556	82.12
576.767	82.12
576.978	79.12
577.188	85.12
577.399	93.12
577.61	86.12
577.821	114.12
578.032	116.12
578.243	238.12
578.454	656.12
578.665	204.12
578.875	101.12
579.086	97.12
579.297	89.12
579.508	85.12
579.718	83.12
579.929	89.12
580.14	89.12
580.35	89.12
580.561	89.12
580.772	93.12
580.982	85.12
581.193	93.12
581.403	100.12
581.614	93.12
581.825	96.12
582.035	95.12
582.246	95.12
582.456	78.12
582.667	96.12
582.877	83.12
583.087	89.12
583.298	72.12
583.508	90.12
583.719	83.12
583.929	87.12
584.139	92.12
584.35	79.12
584.56	70.12
584.77	71.12
584.981	80.12
585.191	87.12
585.401	86.12
585.611	93.12
585.821	82.12
586.032	83.12
586.242	92.12
586.452	85.12
586.662	89.12
586.872	85.12
587.082	82.12
587.292	74.12
587.502	100.12
587.713	85.12
587.923	101.12
588.133	94.12
588.343	95.12
588.553	90.12
588.762	90.12
588.972	91.12
589.182	178.12
589.392	116.12
589.602	109.12
589.812	149.12
590.022	107.12
590.232	84.12
590.441	91.12
590.651	86.12
590.861	93.12
591.071	70.12
591.281	82.12
591.49	97.12
591.7	89.12
591.91	82.12
592.119	69.12
592.329	81.12
592.539	84.12
592.748	84.12
592.958	93.12
593.167	104.12
593.377	103.12
593.587	89.12
593.796	80.12
594.006	73.12
594.215	94.12
594.424	82.12
594.634	71.12
594.843	95.12
595.053	87.12
595.262	92.12
595.472	98.12
595.681	90.12
595.89	92.12
596.1	92.12
596.309	91.12
596.518	91.12
596.727	91.12
596.937	92.12
597.146	90.12
597.355	92.12
597.564	93.12
597.774	74.12
597.983	91.12
598.192	97.12
598.401	85.12
598.61	89.12
598.819	84.12
599.028	86.12
599.237	87.12
599.446	88.12
599.655	90.12
599.864	81.12
600.073	90.12
600.282	83.12
600.491	86.12
600.7	97.12
600.909	91.12
601.118	100.12
601.327	92.12
601.536	97.12
601.745	97.12
601.953	89.12
602.162	79.12
602.371	79.12
602.58	89.12
602.789	83.12
602.997	93.12
603.206	92.12
603.415	83.12
603.623	62.12
603.832	76.12
604.041	95.12
604.249	89.12
604.458	99.12
604.666	95.12
604.875	94.12
605.084	83.12
605.292	93.12
605.501	91.12
605.709	90.12
605.918	87.12
606.126	99.12
606.334	80.12
606.543	86.12
606.751	75.12
606.96	76.12
607.168	87.12
607.376	82.12
607.585	91.12
607.793	80.12
608.001	69.12
608.21	85.12
608.418	70.12
608.626	64.12
608.834	88.12
609.043	86.12
609.251	85.12
609.459	70.12
609.667	89.12
609.875	75.12
610.083	87.12
610.291	96.12
610.499	77.12
610.707	58.12
610.916	95.12
611.124	89.12
611.332	101.12
611.54	99.12
611.748	95.12
611.955	88.12
612.163	99.12
612.371	90.12
612.579	82.12
612.787	82.12
612.995	95.12
613.203	90.12
613.411	87.12
613.618	73.12
613.826	82.12
614.034	82.12
614.242	80.12
614.449	86.12
614.657	67.12
614.865	79.12
615.072	73.12
615.28	82.12
615.488	85.12
615.695	87.12
615.903	86.12
616.111	94.12
616.318	102.12
616.526	103.12
616.733	107.12
616.941	105.12
617.148	90.12
617.356	91.12
617.563	85.12
617.771	85.12
617.978	89.12
618.185	85.12
618.393	93.12
618.6	81.12
618.807	75.12
619.015	91.12
619.222	84.12
619.429	73.12
619.637	83.12
619.844	94.12
620.051	91.12
620.258	87.12
620.466	77.12
620.673	86.12
620.88	78.12
621.087	82.12
621.294	94.12
621.501	80.12
621.708	87.12
621.915	101.12
622.122	87.12
622.329	86.12
622.536	81.12
622.743	92.12
622.95	97.12
623.157	89.12
623.364	91.12
623.571	78.12
623.778	91.12
623.985	92.12
624.192	95.12
624.399	95.12
624.606	94.12
624.812	90.12
625.019	79.12
625.226	94.12
625.433	103.12
625.639	86.12
625.846	81.12
626.053	80.12
626.259	90.12
626.466	77.12
626.673	81.12
626.879	85.12
627.086	92.12
627.293	94.12
627.499	93.12
627.706	74.12
627.912	88.12
628.119	92.12
628.325	100.12
628.532	97.12
628.738	80.12
628.945	93.12
629.151	80.12
629.357	90.12
629.564	89.12
629.77	79.12
629.976	81.12
630.183	74.12
630.389	87.12
630.595	94.12
630.802	75.12
631.008	83.12
631.214	100.12
631.42	100.12
631.627	89.12
631.833	91.12
632.039	89.12
632.245	84.12
632.451	79.12
632.657	88.12
632.863	100.12
633.069	83.12
633.275	82.12
633.481	86.12
633.688	96.12
633.893	95.12
634.099	83.12
634.305	83.12
634.511	82.12
634.717	91.12
634.923	86.12
635.129	66.12
635.335	90.12
635.541	92.12
635.747	94.12
635.952	77.12
636.158	85.12
636.364	113.12
636.57	102.12
636.775	83.12
636.981	79.12
637.187	73.12
637.392	86.12
637.598	85.12
637.804	85.12
638.009	95.12
638.215	83.12
638.421	82.12
638.626	86.12
638.832	83.12
639.037	77.12
639.243	79.12
639.448	73.12
639.654	85.12
639.859	85.12
640.065	79.12
640.27	89.12
640.475	70.12
640.681	85.12
640.886	85.12
641.091	79.12
641.297	78.12
641.502	90.12
641.707	86.12
641.913	89.12
642.118	89.12
642.323	76.12
642.528	79.12
642.733	89.12
642.939	93.12
643.144	88.12
643.349	77.12
643.554	84.12
643.759	78.12
643.964	81.12
644.169	98.12
644.374	98.12
644.579	95.12
644.784	92.12
644.989	96.12
645.194	77.12
645.399	87.12
645.604	81.12
645.809	93.12
646.014	83.12
646.219	71.12
646.423	70.12
646.628	93.12
646.833	89.12
647.038	85.12
647.243	85.12
647.447	92.12
647.652	88.12
647.857	76.12
648.062	93.12
648.266	91.12
648.471	97.12
648.676	98.12
648.88	64.12
649.085	99.12
649.289	88.12
649.494	107.12
649.698	129.12
649.903	106.12
650.107	84.12
650.312	85.12
650.516	85.12
650.721	79.12
650.925	84.12
651.13	67.12
651.334	67.12
651.539	93.12
651.743	87.12
651.947	90.12
652.152	85.12
652.356	87.12
652.56	91.12
652.764	81.12
652.969	89.12
653.173	81.12
653.377	88.12
653.581	93.12
653.785	89.12
653.99	103.12
654.194	88.12
654.398	101.12
654.602	101.12
654.806	90.12
655.01	100.12
655.214	91.12
655.418	91.12
655.622	82.12
655.826	92.12
656.03	100.12
656.234	84.12
656.438	104.12
656.642	103.12
656.846	99.12
657.049	84.12
657.253	89.12
657.457	65.12
657.661	102.12
657.865	95.12
658.068	91.12
658.272	75.12
658.476	82.12
658.68	89.12
658.883	75.12
659.087	77.12
659.291	70.12
659.494	85.12
659.698	82.12
659.901	85.12
660.105	85.12
660.309	81.12
660.512	90.12
660.716	82.12
660.919	83.12
661.123	74.12
661.326	69.12
661.53	84.12
661.733	78.12
661.936	79.12
662.14	67.12
662.343	81.12
662.546	87.12
662.75	79.12
662.953	76.12
663.156	76.12
663.36	70.12
663.563	83.12
663.766	74.12
663.969	87.12
664.173	103.12
664.376	82.12
664.579	77.12
664.782	81.12
664.985	77.12
665.188	73.12
665.391	79.12
665.594	83.12
665.797	77.12
666	79.12
666.203	69.12
666.406	70.12
666.609	69.12
666.812	79.12
667.015	86.12
667.218	87.12
667.421	85.12
667.624	81.12
667.827	91.12
668.03	89.12
668.232	60.12
668.435	73.12
668.638	65.12
668.841	93.12
669.043	82.12
669.246	87.12
669.449	86.12
669.651	77.12
669.854	84.12
670.057	71.12
670.259	83.12
670.462	82.12
670.665	90.12
670.867	73.12
671.07	75.12
671.272	82.12
671.475	84.12
671.677	92.12
671.88	69.12
672.082	75.12
672.284	80.12
672.487	66.12
672.689	89.12
672.892	79.12
