Data from Circ_1993_H10_HRD10591_00084.txt Node
Date: Wed Jan 03 11:44:18 EST 2024
User: Yrep
Spectrometer: HR+D1059
Trigger mode: 1
Integration Time (sec): 1.000000E-1
Scans to average: 1
Electric dark correction enabled: true
Nonlinearity correction enabled: false
Boxcar width: 0
XAxis mode: Wavelengths
Number of Pixels in Spectrum: 2048
>>>>>Begin Spectral Data<<<<<
223.165	-12.44
223.4	-12.44
223.635	-12.44
223.869	-26.44
224.104	-11.44
224.338	-19.44
224.573	-18.44
224.808	-11.44
225.042	-6.44
225.277	-23.44
225.511	-10.44
225.746	2.56
225.98	-0.44
226.215	13.56
226.449	22.56
226.683	19.56
226.918	40.56
227.152	41.56
227.387	43.56
227.621	47.56
227.856	61.56
228.09	29.56
228.324	44.56
228.559	72.56
228.793	65.56
229.027	72.56
229.262	75.56
229.496	77.56
229.73	72.56
229.964	83.56
230.199	74.56
230.433	75.56
230.667	70.56
230.901	73.56
231.136	72.56
231.37	76.56
231.604	68.56
231.838	72.56
232.072	87.56
232.306	77.56
232.541	76.56
232.775	89.56
233.009	69.56
233.243	90.56
233.477	73.56
233.711	90.56
233.945	66.56
234.179	77.56
234.413	79.56
234.647	68.56
234.881	85.56
235.115	75.56
235.349	80.56
235.583	88.56
235.817	88.56
236.051	66.56
236.285	68.56
236.519	72.56
236.753	82.56
236.987	86.56
237.221	77.56
237.455	96.56
237.689	76.56
237.922	74.56
238.156	69.56
238.39	69.56
238.624	81.56
238.858	72.56
239.091	85.56
239.325	74.56
239.559	78.56
239.793	77.56
240.027	84.56
240.26	65.56
240.494	74.56
240.728	73.56
240.961	73.56
241.195	86.56
241.429	84.56
241.662	78.56
241.896	88.56
242.13	75.56
242.363	82.56
242.597	78.56
242.83	69.56
243.064	74.56
243.298	81.56
243.531	81.56
243.765	70.56
243.998	76.56
244.232	82.56
244.465	80.56
244.699	75.56
244.932	79.56
245.166	74.56
245.399	79.56
245.633	80.56
245.866	80.56
246.099	82.56
246.333	80.56
246.566	56.56
246.8	89.56
247.033	62.56
247.266	69.56
247.5	68.56
247.733	62.56
247.966	77.56
248.2	86.56
248.433	76.56
248.666	83.56
248.899	77.56
249.133	83.56
249.366	92.56
249.599	92.56
249.832	94.56
250.066	76.56
250.299	67.56
250.532	82.56
250.765	70.56
250.998	71.56
251.231	84.56
251.465	80.56
251.698	71.56
251.931	84.56
252.164	80.56
252.397	91.56
252.63	88.56
252.863	86.56
253.096	78.56
253.329	93.56
253.562	76.56
253.795	83.56
254.028	80.56
254.261	67.56
254.494	66.56
254.727	70.56
254.96	88.56
255.193	96.56
255.426	72.56
255.659	79.56
255.892	80.56
256.124	77.56
256.357	82.56
256.59	83.56
256.823	78.56
257.056	77.56
257.289	81.56
257.521	80.56
257.754	83.56
257.987	82.56
258.22	75.56
258.452	70.56
258.685	91.56
258.918	80.56
259.151	96.56
259.383	86.56
259.616	75.56
259.849	80.56
260.081	78.56
260.314	84.56
260.547	66.56
260.779	68.56
261.012	81.56
261.244	72.56
261.477	76.56
261.71	89.56
261.942	98.56
262.175	113.56
262.407	106.56
262.64	85.56
262.872	84.56
263.105	69.56
263.337	75.56
263.57	86.56
263.802	85.56
264.035	77.56
264.267	81.56
264.499	75.56
264.732	72.56
264.964	81.56
265.197	78.56
265.429	91.56
265.661	78.56
265.894	81.56
266.126	88.56
266.358	79.56
266.591	85.56
266.823	79.56
267.055	87.56
267.287	79.56
267.52	60.56
267.752	80.56
267.984	97.56
268.216	91.56
268.448	87.56
268.681	91.56
268.913	82.56
269.145	89.56
269.377	88.56
269.609	78.56
269.841	63.56
270.073	88.56
270.306	90.56
270.538	85.56
270.77	86.56
271.002	91.56
271.234	90.56
271.466	81.56
271.698	86.56
271.93	76.56
272.162	93.56
272.394	84.56
272.626	89.56
272.858	83.56
273.09	91.56
273.322	86.56
273.553	83.56
273.785	85.56
274.017	94.56
274.249	72.56
274.481	87.56
274.713	96.56
274.945	86.56
275.176	82.56
275.408	93.56
275.64	88.56
275.872	89.56
276.104	94.56
276.335	92.56
276.567	104.56
276.799	91.56
277.031	104.56
277.262	98.56
277.494	81.56
277.726	79.56
277.957	78.56
278.189	83.56
278.421	82.56
278.652	76.56
278.884	96.56
279.115	93.56
279.347	86.56
279.579	87.56
279.81	91.56
280.042	98.56
280.273	99.56
280.505	94.56
280.736	85.56
280.968	93.56
281.199	100.56
281.431	92.56
281.662	99.56
281.894	76.56
282.125	103.56
282.356	96.56
282.588	119.56
282.819	95.56
283.051	83.56
283.282	85.56
283.513	84.56
283.745	90.56
283.976	85.56
284.207	85.56
284.439	77.56
284.67	87.56
284.901	82.56
285.132	88.56
285.364	78.56
285.595	93.56
285.826	83.56
286.057	83.56
286.288	76.56
286.52	88.56
286.751	86.56
286.982	80.56
287.213	90.56
287.444	92.56
287.675	78.56
287.906	74.56
288.138	83.56
288.369	85.56
288.6	102.56
288.831	94.56
289.062	93.56
289.293	93.56
289.524	85.56
289.755	84.56
289.986	88.56
290.217	92.56
290.448	96.56
290.679	95.56
290.91	99.56
291.141	94.56
291.371	90.56
291.602	89.56
291.833	79.56
292.064	88.56
292.295	80.56
292.526	100.56
292.757	74.56
292.987	81.56
293.218	96.56
293.449	70.56
293.68	82.56
293.91	85.56
294.141	102.56
294.372	95.56
294.603	82.56
294.833	79.56
295.064	87.56
295.295	89.56
295.525	98.56
295.756	88.56
295.987	106.56
296.217	148.56
296.448	115.56
296.679	108.56
296.909	106.56
297.14	70.56
297.37	94.56
297.601	92.56
297.831	92.56
298.062	77.56
298.292	83.56
298.523	84.56
298.753	86.56
298.984	64.56
299.214	79.56
299.445	73.56
299.675	96.56
299.905	94.56
300.136	87.56
300.366	80.56
300.597	99.56
300.827	86.56
301.057	106.56
301.288	100.56
301.518	80.56
301.748	94.56
301.979	103.56
302.209	90.56
302.439	77.56
302.669	93.56
302.9	92.56
303.13	97.56
303.36	88.56
303.59	96.56
303.82	112.56
304.051	97.56
304.281	87.56
304.511	101.56
304.741	94.56
304.971	99.56
305.201	86.56
305.431	75.56
305.661	86.56
305.891	99.56
306.121	85.56
306.352	84.56
306.582	102.56
306.812	95.56
307.042	88.56
307.272	112.56
307.502	103.56
307.731	109.56
307.961	85.56
308.191	84.56
308.421	91.56
308.651	100.56
308.881	94.56
309.111	74.56
309.341	96.56
309.571	94.56
309.8	96.56
310.03	94.56
310.26	98.56
310.49	107.56
310.72	96.56
310.949	91.56
311.179	101.56
311.409	80.56
311.639	81.56
311.868	88.56
312.098	82.56
312.328	96.56
312.557	90.56
312.787	103.56
313.017	93.56
313.246	106.56
313.476	96.56
313.706	85.56
313.935	78.56
314.165	99.56
314.394	96.56
314.624	91.56
314.853	92.56
315.083	103.56
315.312	95.56
315.542	97.56
315.771	89.56
316.001	77.56
316.23	93.56
316.46	76.56
316.689	81.56
316.919	104.56
317.148	87.56
317.377	84.56
317.607	84.56
317.836	82.56
318.065	79.56
318.295	94.56
318.524	99.56
318.753	105.56
318.983	81.56
319.212	87.56
319.441	100.56
319.67	96.56
319.9	84.56
320.129	99.56
320.358	93.56
320.587	102.56
320.816	88.56
321.046	97.56
321.275	84.56
321.504	89.56
321.733	97.56
321.962	89.56
322.191	100.56
322.42	99.56
322.649	109.56
322.878	118.56
323.108	115.56
323.337	110.56
323.566	123.56
323.795	153.56
324.024	175.56
324.253	352.56
324.482	708.56
324.71	1462.56
324.939	1915.56
325.168	691.56
325.397	206.56
325.626	136.56
325.855	124.56
326.084	124.56
326.313	132.56
326.542	144.56
326.77	198.56
326.999	417.56
327.228	804.56
327.457	1445.56
327.686	1173.56
327.914	341.56
328.143	217.56
328.372	188.56
328.6	132.56
328.829	122.56
329.058	125.56
329.287	118.56
329.515	112.56
329.744	128.56
329.972	153.56
330.201	202.56
330.43	278.56
330.658	178.56
330.887	143.56
331.115	117.56
331.344	100.56
331.572	93.56
331.801	97.56
332.03	93.56
332.258	91.56
332.486	107.56
332.715	106.56
332.943	86.56
333.172	101.56
333.4	108.56
333.629	103.56
333.857	122.56
334.085	129.56
334.314	204.56
334.542	344.56
334.771	324.56
334.999	136.56
335.227	100.56
335.455	84.56
335.684	83.56
335.912	85.56
336.14	99.56
336.369	109.56
336.597	106.56
336.825	106.56
337.053	79.56
337.281	100.56
337.51	87.56
337.738	73.56
337.966	88.56
338.194	93.56
338.422	104.56
338.65	98.56
338.878	104.56
339.106	82.56
339.334	97.56
339.562	82.56
339.79	86.56
340.018	89.56
340.246	103.56
340.474	83.56
340.702	94.56
340.93	92.56
341.158	100.56
341.386	90.56
341.614	94.56
341.842	96.56
342.07	88.56
342.298	100.56
342.526	98.56
342.754	83.56
342.981	90.56
343.209	97.56
343.437	88.56
343.665	82.56
343.893	85.56
344.12	104.56
344.348	81.56
344.576	97.56
344.804	90.56
345.031	96.56
345.259	96.56
345.487	99.56
345.714	96.56
345.942	103.56
346.17	91.56
346.397	92.56
346.625	90.56
346.853	90.56
347.08	95.56
347.308	88.56
347.535	103.56
347.763	102.56
347.99	96.56
348.218	91.56
348.445	103.56
348.673	100.56
348.9	85.56
349.128	89.56
349.355	83.56
349.583	99.56
349.81	91.56
350.037	99.56
350.265	91.56
350.492	97.56
350.72	94.56
350.947	80.56
351.174	101.56
351.402	115.56
351.629	103.56
351.856	97.56
352.083	111.56
352.311	98.56
352.538	92.56
352.765	103.56
352.992	108.56
353.22	101.56
353.447	102.56
353.674	90.56
353.901	85.56
354.128	93.56
354.355	105.56
354.583	99.56
354.81	98.56
355.037	99.56
355.264	90.56
355.491	93.56
355.718	83.56
355.945	78.56
356.172	102.56
356.399	102.56
356.626	90.56
356.853	89.56
357.08	78.56
357.307	84.56
357.534	86.56
357.761	93.56
357.988	112.56
358.215	85.56
358.441	89.56
358.668	74.56
358.895	96.56
359.122	89.56
359.349	86.56
359.576	98.56
359.802	104.56
360.029	102.56
360.256	102.56
360.483	101.56
360.709	99.56
360.936	89.56
361.163	103.56
361.39	80.56
361.616	106.56
361.843	83.56
362.07	83.56
362.296	84.56
362.523	88.56
362.749	89.56
362.976	92.56
363.203	73.56
363.429	86.56
363.656	84.56
363.882	88.56
364.109	87.56
364.335	96.56
364.562	86.56
364.788	83.56
365.015	89.56
365.241	96.56
365.468	100.56
365.694	86.56
365.92	90.56
366.147	90.56
366.373	81.56
366.599	98.56
366.826	86.56
367.052	93.56
367.278	105.56
367.505	91.56
367.731	89.56
367.957	113.56
368.184	79.56
368.41	100.56
368.636	105.56
368.862	105.56
369.089	95.56
369.315	92.56
369.541	78.56
369.767	101.56
369.993	74.56
370.219	88.56
370.445	88.56
370.672	83.56
370.898	99.56
371.124	98.56
371.35	91.56
371.576	77.56
371.802	94.56
372.028	88.56
372.254	87.56
372.48	86.56
372.706	83.56
372.932	79.56
373.158	85.56
373.384	91.56
373.61	83.56
373.835	89.56
374.061	85.56
374.287	101.56
374.513	100.56
374.739	93.56
374.965	98.56
375.191	74.56
375.416	106.56
375.642	92.56
375.868	94.56
376.094	86.56
376.319	86.56
376.545	98.56
376.771	81.56
376.997	105.56
377.222	88.56
377.448	97.56
377.674	100.56
377.899	92.56
378.125	82.56
378.35	84.56
378.576	92.56
378.802	92.56
379.027	94.56
379.253	87.56
379.478	88.56
379.704	100.56
379.929	96.56
380.155	102.56
380.38	88.56
380.606	83.56
380.831	91.56
381.057	98.56
381.282	93.56
381.507	98.56
381.733	85.56
381.958	83.56
382.184	94.56
382.409	83.56
382.634	85.56
382.86	89.56
383.085	106.56
383.31	98.56
383.535	81.56
383.761	107.56
383.986	97.56
384.211	111.56
384.436	92.56
384.662	113.56
384.887	109.56
385.112	97.56
385.337	106.56
385.562	102.56
385.787	112.56
386.013	131.56
386.238	115.56
386.463	80.56
386.688	99.56
386.913	94.56
387.138	92.56
387.363	113.56
387.588	109.56
387.813	100.56
388.038	96.56
388.263	105.56
388.488	107.56
388.713	96.56
388.938	97.56
389.163	99.56
389.387	82.56
389.612	94.56
389.837	85.56
390.062	93.56
390.287	98.56
390.512	94.56
390.736	78.56
390.961	84.56
391.186	100.56
391.411	100.56
391.636	88.56
391.86	80.56
392.085	75.56
392.31	80.56
392.534	91.56
392.759	93.56
392.984	70.56
393.208	85.56
393.433	105.56
393.658	100.56
393.882	91.56
394.107	88.56
394.331	100.56
394.556	91.56
394.78	96.56
395.005	68.56
395.229	83.56
395.454	86.56
395.678	101.56
395.903	88.56
396.127	99.56
396.352	94.56
396.576	85.56
396.801	80.56
397.025	107.56
397.249	96.56
397.474	96.56
397.698	86.56
397.922	77.56
398.147	75.56
398.371	88.56
398.595	95.56
398.82	75.56
399.044	97.56
399.268	92.56
399.492	84.56
399.717	91.56
399.941	110.56
400.165	96.56
400.389	85.56
400.613	84.56
400.837	89.56
401.062	77.56
401.286	80.56
401.51	86.56
401.734	94.56
401.958	111.56
402.182	117.56
402.406	126.56
402.63	128.56
402.854	88.56
403.078	91.56
403.302	85.56
403.526	82.56
403.75	76.56
403.974	85.56
404.198	76.56
404.422	71.56
404.645	88.56
404.869	90.56
405.093	94.56
405.317	110.56
405.541	112.56
405.765	89.56
405.988	110.56
406.212	163.56
406.436	198.56
406.66	136.56
406.883	102.56
407.107	76.56
407.331	92.56
407.555	90.56
407.778	80.56
408.002	90.56
408.226	84.56
408.449	96.56
408.673	83.56
408.896	100.56
409.12	97.56
409.344	83.56
409.567	87.56
409.791	77.56
410.014	91.56
410.238	103.56
410.461	92.56
410.685	94.56
410.908	111.56
411.132	102.56
411.355	98.56
411.578	96.56
411.802	90.56
412.025	100.56
412.249	93.56
412.472	96.56
412.695	94.56
412.919	95.56
413.142	86.56
413.365	85.56
413.589	83.56
413.812	80.56
414.035	89.56
414.258	83.56
414.482	79.56
414.705	84.56
414.928	91.56
415.151	92.56
415.374	76.56
415.597	94.56
415.821	104.56
416.044	98.56
416.267	97.56
416.49	79.56
416.713	77.56
416.936	94.56
417.159	81.56
417.382	85.56
417.605	101.56
417.828	95.56
418.051	101.56
418.274	92.56
418.497	85.56
418.72	85.56
418.943	86.56
419.166	90.56
419.389	90.56
419.611	72.56
419.834	91.56
420.057	82.56
420.28	76.56
420.503	73.56
420.726	85.56
420.948	61.56
421.171	80.56
421.394	89.56
421.617	91.56
421.839	80.56
422.062	76.56
422.285	89.56
422.507	87.56
422.73	97.56
422.953	94.56
423.175	84.56
423.398	88.56
423.621	84.56
423.843	97.56
424.066	90.56
424.288	108.56
424.511	95.56
424.733	93.56
424.956	103.56
425.178	86.56
425.401	88.56
425.623	86.56
425.846	79.56
426.068	85.56
426.291	92.56
426.513	93.56
426.735	88.56
426.958	105.56
427.18	93.56
427.402	114.56
427.625	152.56
427.847	142.56
428.069	124.56
428.292	96.56
428.514	93.56
428.736	85.56
428.958	73.56
429.181	88.56
429.403	101.56
429.625	76.56
429.847	91.56
430.069	89.56
430.292	93.56
430.514	89.56
430.736	94.56
430.958	96.56
431.18	69.56
431.402	93.56
431.624	78.56
431.846	90.56
432.068	94.56
432.29	89.56
432.512	84.56
432.734	88.56
432.956	99.56
433.178	105.56
433.4	92.56
433.622	89.56
433.844	110.56
434.066	97.56
434.287	93.56
434.509	86.56
434.731	82.56
434.953	89.56
435.175	81.56
435.397	82.56
435.618	95.56
435.84	99.56
436.062	128.56
436.284	101.56
436.505	101.56
436.727	107.56
436.949	83.56
437.17	82.56
437.392	69.56
437.614	93.56
437.835	96.56
438.057	119.56
438.278	104.56
438.5	101.56
438.721	113.56
438.943	102.56
439.165	85.56
439.386	96.56
439.608	87.56
439.829	90.56
440.05	104.56
440.272	125.56
440.493	93.56
440.715	93.56
440.936	80.56
441.158	92.56
441.379	96.56
441.6	79.56
441.822	97.56
442.043	96.56
442.264	107.56
442.486	89.56
442.707	98.56
442.928	89.56
443.149	118.56
443.371	94.56
443.592	106.56
443.813	105.56
444.034	111.56
444.255	90.56
444.476	85.56
444.698	75.56
444.919	91.56
445.14	141.56
445.361	127.56
445.582	113.56
445.803	117.56
446.024	132.56
446.245	105.56
446.466	104.56
446.687	94.56
446.908	94.56
447.129	96.56
447.35	81.56
447.571	81.56
447.792	89.56
448.013	80.56
448.234	93.56
448.455	82.56
448.675	102.56
448.896	113.56
449.117	72.56
449.338	114.56
449.559	109.56
449.779	131.56
450	93.56
450.221	89.56
450.442	91.56
450.662	111.56
450.883	91.56
451.104	86.56
451.324	94.56
451.545	84.56
451.766	77.56
451.986	88.56
452.207	87.56
452.428	86.56
452.648	104.56
452.869	110.56
453.089	100.56
453.31	104.56
453.53	83.56
453.751	85.56
453.971	89.56
454.192	101.56
454.412	75.56
454.633	74.56
454.853	78.56
455.073	85.56
455.294	68.56
455.514	85.56
455.734	77.56
455.955	78.56
456.175	82.56
456.395	80.56
456.616	88.56
456.836	74.56
457.056	77.56
457.276	69.56
457.497	85.56
457.717	80.56
457.937	93.56
458.157	69.56
458.377	93.56
458.598	92.56
458.818	129.56
459.038	137.56
459.258	100.56
459.478	88.56
459.698	76.56
459.918	85.56
460.138	75.56
460.358	81.56
460.578	112.56
460.798	83.56
461.018	86.56
461.238	89.56
461.458	85.56
461.678	95.56
461.898	86.56
462.118	98.56
462.338	79.56
462.558	97.56
462.777	91.56
462.997	99.56
463.217	72.56
463.437	95.56
463.657	79.56
463.876	84.56
464.096	101.56
464.316	80.56
464.536	78.56
464.755	82.56
464.975	98.56
465.195	143.56
465.414	141.56
465.634	80.56
465.854	74.56
466.073	85.56
466.293	90.56
466.512	87.56
466.732	91.56
466.951	89.56
467.171	76.56
467.391	95.56
467.61	101.56
467.829	103.56
468.049	158.56
468.268	193.56
468.488	99.56
468.707	80.56
468.927	86.56
469.146	78.56
469.365	84.56
469.585	96.56
469.804	88.56
470.023	99.56
470.243	92.56
470.462	77.56
470.681	123.56
470.901	84.56
471.12	91.56
471.339	86.56
471.558	85.56
471.777	96.56
471.997	95.56
472.216	245.56
472.435	436.56
472.654	162.56
472.873	101.56
473.092	82.56
473.311	74.56
473.53	91.56
473.749	100.56
473.968	115.56
474.187	90.56
474.406	89.56
474.625	81.56
474.844	66.56
475.063	86.56
475.282	82.56
475.501	97.56
475.72	89.56
475.939	93.56
476.158	79.56
476.377	84.56
476.596	88.56
476.814	93.56
477.033	94.56
477.252	91.56
477.471	84.56
477.69	97.56
477.908	83.56
478.127	100.56
478.346	74.56
478.564	86.56
478.783	102.56
479.002	93.56
479.22	95.56
479.439	94.56
479.658	92.56
479.876	107.56
480.095	92.56
480.313	107.56
480.532	96.56
480.751	125.56
480.969	253.56
481.188	753.56
481.406	450.56
481.624	129.56
481.843	98.56
482.061	100.56
482.28	99.56
482.498	77.56
482.717	90.56
482.935	94.56
483.153	93.56
483.372	86.56
483.59	92.56
483.808	83.56
484.027	95.56
484.245	78.56
484.463	81.56
484.681	84.56
484.9	86.56
485.118	93.56
485.336	89.56
485.554	113.56
485.772	106.56
485.99	93.56
486.209	118.56
486.427	89.56
486.645	92.56
486.863	117.56
487.081	110.56
487.299	98.56
487.517	105.56
487.735	101.56
487.953	95.56
488.171	87.56
488.389	93.56
488.607	109.56
488.825	93.56
489.043	88.56
489.261	93.56
489.479	81.56
489.696	78.56
489.914	84.56
490.132	90.56
490.35	97.56
490.568	90.56
490.786	79.56
491.003	92.56
491.221	84.56
491.439	98.56
491.657	84.56
491.874	88.56
492.092	81.56
492.31	97.56
492.527	86.56
492.745	106.56
492.963	86.56
493.18	86.56
493.398	80.56
493.615	104.56
493.833	97.56
494.05	104.56
494.268	80.56
494.485	77.56
494.703	90.56
494.92	83.56
495.138	78.56
495.355	100.56
495.573	91.56
495.79	97.56
496.008	97.56
496.225	89.56
496.442	75.56
496.66	84.56
496.877	82.56
497.094	89.56
497.312	95.56
497.529	97.56
497.746	83.56
497.963	97.56
498.181	107.56
498.398	87.56
498.615	100.56
498.832	103.56
499.049	87.56
499.267	85.56
499.484	74.56
499.701	83.56
499.918	88.56
500.135	88.56
500.352	90.56
500.569	102.56
500.786	81.56
501.003	83.56
501.22	85.56
501.437	96.56
501.654	93.56
501.871	89.56
502.088	81.56
502.305	94.56
502.522	97.56
502.739	92.56
502.956	86.56
503.172	99.56
503.389	88.56
503.606	92.56
503.823	92.56
504.04	82.56
504.256	95.56
504.473	74.56
504.69	93.56
504.907	100.56
505.123	97.56
505.34	95.56
505.557	81.56
505.773	80.56
505.99	80.56
506.207	80.56
506.423	84.56
506.64	87.56
506.856	86.56
507.073	99.56
507.289	89.56
507.506	84.56
507.722	100.56
507.939	104.56
508.155	90.56
508.372	88.56
508.588	93.56
508.805	97.56
509.021	100.56
509.238	86.56
509.454	97.56
509.67	106.56
509.887	103.56
510.103	117.56
510.319	191.56
510.536	675.56
510.752	2012.56
510.968	558.56
511.184	145.56
511.401	94.56
511.617	109.56
511.833	91.56
512.049	95.56
512.265	86.56
512.481	88.56
512.698	88.56
512.914	100.56
513.13	92.56
513.346	101.56
513.562	95.56
513.778	94.56
513.994	86.56
514.21	102.56
514.426	106.56
514.642	127.56
514.858	110.56
515.074	165.56
515.29	394.56
515.506	1252.56
515.721	473.56
515.937	144.56
516.153	113.56
516.369	106.56
516.585	92.56
516.801	91.56
517.016	98.56
517.232	85.56
517.448	90.56
517.664	104.56
517.879	91.56
518.095	88.56
518.311	97.56
518.527	98.56
518.742	83.56
518.958	94.56
519.173	98.56
519.389	95.56
519.605	100.56
519.82	92.56
520.036	95.56
520.251	104.56
520.467	111.56
520.682	92.56
520.898	104.56
521.113	106.56
521.329	126.56
521.544	185.56
521.76	481.56
521.975	2017.56
522.19	1200.56
522.406	259.56
522.621	97.56
522.836	91.56
523.052	92.56
523.267	95.56
523.482	88.56
523.698	102.56
523.913	112.56
524.128	96.56
524.343	84.56
524.559	86.56
524.774	94.56
524.989	88.56
525.204	89.56
525.419	91.56
525.634	97.56
525.849	89.56
526.064	83.56
526.28	98.56
526.495	95.56
526.71	84.56
526.925	93.56
527.14	100.56
527.355	88.56
527.57	89.56
527.785	95.56
527.999	88.56
528.214	84.56
528.429	89.56
528.644	91.56
528.859	88.56
529.074	102.56
529.289	119.56
529.503	163.56
529.718	102.56
529.933	92.56
530.148	86.56
530.363	97.56
530.577	91.56
530.792	97.56
531.007	95.56
531.221	107.56
531.436	95.56
531.651	93.56
531.865	100.56
532.08	88.56
532.295	95.56
532.509	93.56
532.724	94.56
532.938	104.56
533.153	92.56
533.367	106.56
533.582	93.56
533.796	85.56
534.011	81.56
534.225	88.56
534.44	92.56
534.654	79.56
534.868	95.56
535.083	91.56
535.297	90.56
535.511	104.56
535.726	113.56
535.94	94.56
536.154	104.56
536.369	89.56
536.583	81.56
536.797	97.56
537.011	87.56
537.225	106.56
537.44	78.56
537.654	68.56
537.868	82.56
538.082	83.56
538.296	99.56
538.51	78.56
538.724	90.56
538.938	92.56
539.153	100.56
539.367	95.56
539.581	85.56
539.795	81.56
540.009	88.56
540.222	90.56
540.436	99.56
540.65	94.56
540.864	101.56
541.078	89.56
541.292	83.56
541.506	85.56
541.72	90.56
541.934	88.56
542.147	102.56
542.361	94.56
542.575	93.56
542.789	84.56
543.002	86.56
543.216	91.56
543.43	99.56
543.644	85.56
543.857	82.56
544.071	68.56
544.285	84.56
544.498	108.56
544.712	90.56
544.925	94.56
545.139	94.56
545.352	82.56
545.566	75.56
545.779	92.56
545.993	89.56
546.206	94.56
546.42	83.56
546.633	89.56
546.847	81.56
547.06	90.56
547.274	87.56
547.487	86.56
547.7	93.56
547.914	97.56
548.127	92.56
548.34	100.56
548.554	92.56
548.767	90.56
548.98	78.56
549.193	83.56
549.407	89.56
549.62	89.56
549.833	83.56
550.046	96.56
550.259	107.56
550.473	91.56
550.686	74.56
550.899	95.56
551.112	75.56
551.325	87.56
551.538	85.56
551.751	88.56
551.964	88.56
552.177	82.56
552.39	92.56
552.603	89.56
552.816	92.56
553.029	94.56
553.242	84.56
553.455	93.56
553.667	103.56
553.88	102.56
554.093	80.56
554.306	99.56
554.519	78.56
554.732	74.56
554.944	88.56
555.157	89.56
555.37	101.56
555.583	91.56
555.795	80.56
556.008	102.56
556.221	84.56
556.433	83.56
556.646	85.56
556.859	79.56
557.071	81.56
557.284	78.56
557.496	93.56
557.709	94.56
557.921	103.56
558.134	91.56
558.346	81.56
558.559	91.56
558.771	86.56
558.984	95.56
559.196	93.56
559.409	98.56
559.621	107.56
559.833	90.56
560.046	85.56
560.258	84.56
560.47	91.56
560.683	94.56
560.895	81.56
561.107	74.56
561.32	89.56
561.532	77.56
561.744	80.56
561.956	80.56
562.168	90.56
562.381	78.56
562.593	93.56
562.805	95.56
563.017	87.56
563.229	84.56
563.441	89.56
563.653	78.56
563.865	86.56
564.077	84.56
564.289	95.56
564.501	97.56
564.713	89.56
564.925	84.56
565.137	94.56
565.349	82.56
565.561	91.56
565.773	94.56
565.985	86.56
566.197	95.56
566.408	89.56
566.62	94.56
566.832	80.56
567.044	90.56
567.255	89.56
567.467	86.56
567.679	93.56
567.891	79.56
568.102	76.56
568.314	94.56
568.526	89.56
568.737	81.56
568.949	93.56
569.161	74.56
569.372	78.56
569.584	77.56
569.795	95.56
570.007	99.56
570.218	209.56
570.43	125.56
570.641	94.56
570.853	88.56
571.064	84.56
571.276	71.56
571.487	99.56
571.698	85.56
571.91	71.56
572.121	99.56
572.333	85.56
572.544	83.56
572.755	84.56
572.966	88.56
573.178	82.56
573.389	88.56
573.6	78.56
573.811	91.56
574.023	81.56
574.234	92.56
574.445	86.56
574.656	94.56
574.867	92.56
575.078	76.56
575.289	90.56
575.501	93.56
575.712	86.56
575.923	89.56
576.134	95.56
576.345	81.56
576.556	104.56
576.767	94.56
576.978	94.56
577.188	100.56
577.399	110.56
577.61	76.56
577.821	94.56
578.032	117.56
578.243	235.56
578.454	664.56
578.665	192.56
578.875	100.56
579.086	85.56
579.297	84.56
579.508	75.56
579.718	80.56
579.929	74.56
580.14	90.56
580.35	77.56
580.561	82.56
580.772	82.56
580.982	79.56
581.193	85.56
581.403	92.56
581.614	85.56
581.825	90.56
582.035	97.56
582.246	105.56
582.456	83.56
582.667	91.56
582.877	97.56
583.087	90.56
583.298	82.56
583.508	88.56
583.719	96.56
583.929	100.56
584.139	75.56
584.35	86.56
584.56	85.56
584.77	87.56
584.981	91.56
585.191	94.56
585.401	79.56
585.611	78.56
585.821	76.56
586.032	90.56
586.242	83.56
586.452	76.56
586.662	93.56
586.872	80.56
587.082	88.56
587.292	85.56
587.502	92.56
587.713	95.56
587.923	78.56
588.133	93.56
588.343	103.56
588.553	96.56
588.762	98.56
588.972	93.56
589.182	163.56
589.392	113.56
589.602	101.56
589.812	120.56
590.022	110.56
590.232	85.56
590.441	90.56
590.651	83.56
590.861	83.56
591.071	87.56
591.281	79.56
591.49	93.56
591.7	92.56
591.91	80.56
592.119	77.56
592.329	91.56
592.539	92.56
592.748	80.56
592.958	83.56
593.167	79.56
593.377	97.56
593.587	89.56
593.796	88.56
594.006	92.56
594.215	74.56
594.424	68.56
594.634	82.56
594.843	109.56
595.053	87.56
595.262	88.56
595.472	85.56
595.681	103.56
595.89	94.56
596.1	92.56
596.309	87.56
596.518	84.56
596.727	81.56
596.937	89.56
597.146	90.56
597.355	88.56
597.564	81.56
597.774	92.56
597.983	73.56
598.192	78.56
598.401	86.56
598.61	98.56
598.819	90.56
599.028	91.56
599.237	87.56
599.446	100.56
599.655	95.56
599.864	102.56
600.073	82.56
600.282	102.56
600.491	97.56
600.7	85.56
600.909	90.56
601.118	80.56
601.327	83.56
601.536	93.56
601.745	86.56
601.953	86.56
602.162	82.56
602.371	92.56
602.58	78.56
602.789	75.56
602.997	86.56
603.206	88.56
603.415	91.56
603.623	79.56
603.832	83.56
604.041	85.56
604.249	76.56
604.458	83.56
604.666	87.56
604.875	94.56
605.084	101.56
605.292	82.56
605.501	75.56
605.709	90.56
605.918	90.56
606.126	97.56
606.334	81.56
606.543	84.56
606.751	95.56
606.96	84.56
607.168	90.56
607.376	90.56
607.585	89.56
607.793	94.56
608.001	92.56
608.21	84.56
608.418	91.56
608.626	84.56
608.834	92.56
609.043	94.56
609.251	104.56
609.459	88.56
609.667	94.56
609.875	70.56
610.083	69.56
610.291	76.56
610.499	79.56
610.707	95.56
610.916	91.56
611.124	98.56
611.332	89.56
611.54	83.56
611.748	88.56
611.955	91.56
612.163	91.56
612.371	90.56
612.579	86.56
612.787	80.56
612.995	96.56
613.203	91.56
613.411	100.56
613.618	89.56
613.826	79.56
614.034	88.56
614.242	96.56
614.449	91.56
614.657	78.56
614.865	94.56
615.072	92.56
615.28	88.56
615.488	89.56
615.695	98.56
615.903	103.56
616.111	83.56
616.318	105.56
616.526	89.56
616.733	76.56
616.941	92.56
617.148	83.56
617.356	74.56
617.563	83.56
617.771	96.56
617.978	87.56
618.185	77.56
618.393	81.56
618.6	95.56
618.807	82.56
619.015	85.56
619.222	87.56
619.429	91.56
619.637	92.56
619.844	84.56
620.051	77.56
620.258	94.56
620.466	86.56
620.673	96.56
620.88	85.56
621.087	82.56
621.294	81.56
621.501	85.56
621.708	89.56
621.915	89.56
622.122	85.56
622.329	68.56
622.536	84.56
622.743	61.56
622.95	85.56
623.157	90.56
623.364	86.56
623.571	88.56
623.778	81.56
623.985	94.56
624.192	85.56
624.399	81.56
624.606	71.56
624.812	85.56
625.019	75.56
625.226	84.56
625.433	80.56
625.639	80.56
625.846	86.56
626.053	68.56
626.259	93.56
626.466	77.56
626.673	80.56
626.879	92.56
627.086	99.56
627.293	81.56
627.499	80.56
627.706	85.56
627.912	83.56
628.119	91.56
628.325	87.56
628.532	91.56
628.738	83.56
628.945	82.56
629.151	78.56
629.357	70.56
629.564	82.56
629.77	78.56
629.976	84.56
630.183	81.56
630.389	99.56
630.595	93.56
630.802	93.56
631.008	88.56
631.214	77.56
631.42	76.56
631.627	82.56
631.833	80.56
632.039	68.56
632.245	95.56
632.451	87.56
632.657	83.56
632.863	91.56
633.069	72.56
633.275	81.56
633.481	66.56
633.688	77.56
633.893	88.56
634.099	86.56
634.305	86.56
634.511	98.56
634.717	89.56
634.923	78.56
635.129	65.56
635.335	92.56
635.541	79.56
635.747	88.56
635.952	80.56
636.158	92.56
636.364	118.56
636.57	109.56
636.775	92.56
636.981	80.56
637.187	77.56
637.392	74.56
637.598	93.56
637.804	76.56
638.009	82.56
638.215	78.56
638.421	86.56
638.626	87.56
638.832	84.56
639.037	88.56
639.243	76.56
639.448	89.56
639.654	102.56
639.859	85.56
640.065	73.56
640.27	82.56
640.475	69.56
640.681	85.56
640.886	78.56
641.091	83.56
641.297	77.56
641.502	68.56
641.707	82.56
641.913	90.56
642.118	85.56
642.323	74.56
642.528	94.56
642.733	84.56
642.939	101.56
643.144	76.56
643.349	84.56
643.554	84.56
643.759	92.56
643.964	101.56
644.169	100.56
644.374	75.56
644.579	102.56
644.784	102.56
644.989	97.56
645.194	79.56
645.399	92.56
645.604	85.56
645.809	94.56
646.014	93.56
646.219	87.56
646.423	91.56
646.628	88.56
646.833	94.56
647.038	92.56
647.243	85.56
647.447	80.56
647.652	69.56
647.857	81.56
648.062	96.56
648.266	100.56
648.471	88.56
648.676	85.56
648.88	102.56
649.085	87.56
649.289	98.56
649.494	116.56
649.698	115.56
649.903	96.56
650.107	90.56
650.312	83.56
650.516	86.56
650.721	84.56
650.925	78.56
651.13	83.56
651.334	81.56
651.539	76.56
651.743	79.56
651.947	90.56
652.152	81.56
652.356	94.56
652.56	100.56
652.764	74.56
652.969	75.56
653.173	87.56
653.377	84.56
653.581	67.56
653.785	84.56
653.99	93.56
654.194	85.56
654.398	95.56
654.602	85.56
654.806	96.56
655.01	103.56
655.214	84.56
655.418	91.56
655.622	82.56
655.826	87.56
656.03	93.56
656.234	102.56
656.438	108.56
656.642	101.56
656.846	88.56
657.049	81.56
657.253	86.56
657.457	88.56
657.661	83.56
657.865	76.56
658.068	85.56
658.272	85.56
658.476	78.56
658.68	82.56
658.883	92.56
659.087	104.56
659.291	99.56
659.494	92.56
659.698	85.56
659.901	84.56
660.105	64.56
660.309	80.56
660.512	74.56
660.716	83.56
660.919	91.56
661.123	85.56
661.326	88.56
661.53	92.56
661.733	89.56
661.936	90.56
662.14	83.56
662.343	77.56
662.546	70.56
662.75	89.56
662.953	81.56
663.156	92.56
663.36	69.56
663.563	83.56
663.766	67.56
663.969	73.56
664.173	83.56
664.376	84.56
664.579	80.56
664.782	84.56
664.985	83.56
665.188	73.56
665.391	69.56
665.594	88.56
665.797	86.56
666	88.56
666.203	90.56
666.406	72.56
666.609	89.56
666.812	77.56
667.015	66.56
667.218	78.56
667.421	99.56
667.624	72.56
667.827	77.56
668.03	84.56
668.232	80.56
668.435	79.56
668.638	69.56
668.841	84.56
669.043	86.56
669.246	67.56
669.449	76.56
669.651	88.56
669.854	74.56
670.057	85.56
670.259	86.56
670.462	79.56
670.665	73.56
670.867	70.56
671.07	69.56
671.272	77.56
671.475	90.56
671.677	80.56
671.88	80.56
672.082	82.56
672.284	98.56
672.487	64.56
672.689	78.56
672.892	89.56
