Data from KBr_4_HRD10591_00078.txt Node
Date: Mon Jan 19 13:27:03 EST 2026
User: Yrep
Spectrometer: HR+D1059
Trigger mode: 1
Integration Time (sec): 1.000000E-1
Scans to average: 1
Electric dark correction enabled: true
Nonlinearity correction enabled: false
Boxcar width: 0
XAxis mode: Wavelengths
Number of Pixels in Spectrum: 2048
>>>>>Begin Spectral Data<<<<<
223.165	-17.94
223.4	-17.94
223.635	-17.94
223.869	-23.94
224.104	-13.94
224.338	-5.94
224.573	-22.94
224.808	-27.94
225.042	-13.94
225.277	-3.94
225.511	3.06
225.746	-15.94
225.98	3.06
226.215	3.06
226.449	20.06
226.683	34.06
226.918	33.06
227.152	50.06
227.387	36.06
227.621	21.06
227.856	33.06
228.09	57.06
228.324	50.06
228.559	41.06
228.793	57.06
229.027	69.06
229.262	65.06
229.496	68.06
229.73	62.06
229.964	67.06
230.199	78.06
230.433	65.06
230.667	92.06
230.901	76.06
231.136	83.06
231.37	76.06
231.604	90.06
231.838	85.06
232.072	71.06
232.306	78.06
232.541	94.06
232.775	79.06
233.009	74.06
233.243	91.06
233.477	79.06
233.711	86.06
233.945	84.06
234.179	91.06
234.413	72.06
234.647	78.06
234.881	90.06
235.115	61.06
235.349	77.06
235.583	89.06
235.817	79.06
236.051	73.06
236.285	77.06
236.519	74.06
236.753	62.06
236.987	70.06
237.221	68.06
237.455	75.06
237.689	80.06
237.922	64.06
238.156	75.06
238.39	69.06
238.624	72.06
238.858	76.06
239.091	79.06
239.325	84.06
239.559	77.06
239.793	60.06
240.027	86.06
240.26	82.06
240.494	81.06
240.728	75.06
240.961	85.06
241.195	90.06
241.429	81.06
241.662	65.06
241.896	68.06
242.13	58.06
242.363	60.06
242.597	80.06
242.83	83.06
243.064	75.06
243.298	84.06
243.531	84.06
243.765	82.06
243.998	77.06
244.232	77.06
244.465	80.06
244.699	84.06
244.932	62.06
245.166	70.06
245.399	69.06
245.633	80.06
245.866	62.06
246.099	70.06
246.333	80.06
246.566	78.06
246.8	71.06
247.033	88.06
247.266	84.06
247.5	81.06
247.733	78.06
247.966	76.06
248.2	64.06
248.433	72.06
248.666	78.06
248.899	82.06
249.133	74.06
249.366	80.06
249.599	66.06
249.832	60.06
250.066	81.06
250.299	86.06
250.532	83.06
250.765	97.06
250.998	70.06
251.231	86.06
251.465	88.06
251.698	70.06
251.931	66.06
252.164	92.06
252.397	82.06
252.63	82.06
252.863	84.06
253.096	72.06
253.329	79.06
253.562	79.06
253.795	85.06
254.028	69.06
254.261	84.06
254.494	78.06
254.727	78.06
254.96	83.06
255.193	78.06
255.426	75.06
255.659	80.06
255.892	73.06
256.124	80.06
256.357	83.06
256.59	70.06
256.823	88.06
257.056	79.06
257.289	83.06
257.521	79.06
257.754	84.06
257.987	84.06
258.22	88.06
258.452	91.06
258.685	79.06
258.918	80.06
259.151	88.06
259.383	78.06
259.616	84.06
259.849	89.06
260.081	78.06
260.314	94.06
260.547	81.06
260.779	83.06
261.012	90.06
261.244	84.06
261.477	75.06
261.71	87.06
261.942	79.06
262.175	87.06
262.407	85.06
262.64	81.06
262.872	91.06
263.105	91.06
263.337	73.06
263.57	84.06
263.802	77.06
264.035	76.06
264.267	80.06
264.499	90.06
264.732	77.06
264.964	86.06
265.197	71.06
265.429	85.06
265.661	74.06
265.894	68.06
266.126	64.06
266.358	81.06
266.591	90.06
266.823	83.06
267.055	93.06
267.287	83.06
267.52	83.06
267.752	83.06
267.984	89.06
268.216	88.06
268.448	82.06
268.681	73.06
268.913	64.06
269.145	76.06
269.377	78.06
269.609	71.06
269.841	77.06
270.073	73.06
270.306	90.06
270.538	85.06
270.77	75.06
271.002	95.06
271.234	98.06
271.466	91.06
271.698	92.06
271.93	72.06
272.162	79.06
272.394	95.06
272.626	85.06
272.858	94.06
273.09	85.06
273.322	93.06
273.553	73.06
273.785	80.06
274.017	80.06
274.249	88.06
274.481	83.06
274.713	87.06
274.945	88.06
275.176	78.06
275.408	81.06
275.64	88.06
275.872	77.06
276.104	89.06
276.335	85.06
276.567	91.06
276.799	83.06
277.031	91.06
277.262	77.06
277.494	81.06
277.726	90.06
277.957	79.06
278.189	81.06
278.421	82.06
278.652	84.06
278.884	70.06
279.115	97.06
279.347	76.06
279.579	69.06
279.81	74.06
280.042	85.06
280.273	90.06
280.505	75.06
280.736	92.06
280.968	81.06
281.199	92.06
281.431	71.06
281.662	92.06
281.894	75.06
282.125	84.06
282.356	80.06
282.588	89.06
282.819	78.06
283.051	93.06
283.282	79.06
283.513	94.06
283.745	92.06
283.976	100.06
284.207	71.06
284.439	90.06
284.67	84.06
284.901	95.06
285.132	82.06
285.364	95.06
285.595	77.06
285.826	92.06
286.057	93.06
286.288	95.06
286.52	94.06
286.751	94.06
286.982	82.06
287.213	81.06
287.444	86.06
287.675	93.06
287.906	95.06
288.138	88.06
288.369	81.06
288.6	83.06
288.831	93.06
289.062	96.06
289.293	80.06
289.524	81.06
289.755	78.06
289.986	81.06
290.217	96.06
290.448	71.06
290.679	85.06
290.91	88.06
291.141	86.06
291.371	75.06
291.602	78.06
291.833	77.06
292.064	84.06
292.295	81.06
292.526	80.06
292.757	81.06
292.987	91.06
293.218	82.06
293.449	78.06
293.68	90.06
293.91	91.06
294.141	88.06
294.372	89.06
294.603	82.06
294.833	91.06
295.064	83.06
295.295	90.06
295.525	84.06
295.756	97.06
295.987	81.06
296.217	93.06
296.448	78.06
296.679	80.06
296.909	82.06
297.14	93.06
297.37	83.06
297.601	84.06
297.831	97.06
298.062	75.06
298.292	85.06
298.523	88.06
298.753	86.06
298.984	90.06
299.214	81.06
299.445	90.06
299.675	73.06
299.905	92.06
300.136	88.06
300.366	77.06
300.597	86.06
300.827	86.06
301.057	93.06
301.288	91.06
301.518	89.06
301.748	84.06
301.979	98.06
302.209	88.06
302.439	82.06
302.669	86.06
302.9	81.06
303.13	91.06
303.36	95.06
303.59	94.06
303.82	90.06
304.051	87.06
304.281	91.06
304.511	102.06
304.741	75.06
304.971	98.06
305.201	80.06
305.431	97.06
305.661	80.06
305.891	104.06
306.121	101.06
306.352	92.06
306.582	85.06
306.812	76.06
307.042	80.06
307.272	78.06
307.502	85.06
307.731	78.06
307.961	86.06
308.191	77.06
308.421	89.06
308.651	88.06
308.881	101.06
309.111	61.06
309.341	90.06
309.571	88.06
309.8	74.06
310.03	95.06
310.26	76.06
310.49	82.06
310.72	84.06
310.949	77.06
311.179	86.06
311.409	91.06
311.639	88.06
311.868	87.06
312.098	100.06
312.328	95.06
312.557	87.06
312.787	89.06
313.017	70.06
313.246	91.06
313.476	83.06
313.706	89.06
313.935	78.06
314.165	89.06
314.394	94.06
314.624	75.06
314.853	76.06
315.083	95.06
315.312	90.06
315.542	85.06
315.771	80.06
316.001	75.06
316.23	90.06
316.46	84.06
316.689	79.06
316.919	75.06
317.148	87.06
317.377	84.06
317.607	87.06
317.836	76.06
318.065	86.06
318.295	99.06
318.524	76.06
318.753	91.06
318.983	85.06
319.212	83.06
319.441	100.06
319.67	77.06
319.9	91.06
320.129	80.06
320.358	73.06
320.587	89.06
320.816	85.06
321.046	91.06
321.275	88.06
321.504	70.06
321.733	96.06
321.962	90.06
322.191	75.06
322.42	87.06
322.649	95.06
322.878	87.06
323.108	78.06
323.337	94.06
323.566	87.06
323.795	79.06
324.024	63.06
324.253	94.06
324.482	94.06
324.71	77.06
324.939	79.06
325.168	81.06
325.397	85.06
325.626	84.06
325.855	87.06
326.084	82.06
326.313	75.06
326.542	88.06
326.77	81.06
326.999	96.06
327.228	72.06
327.457	86.06
327.686	101.06
327.914	77.06
328.143	98.06
328.372	83.06
328.6	98.06
328.829	89.06
329.058	84.06
329.287	94.06
329.515	87.06
329.744	89.06
329.972	102.06
330.201	90.06
330.43	102.06
330.658	97.06
330.887	97.06
331.115	96.06
331.344	90.06
331.572	91.06
331.801	86.06
332.03	88.06
332.258	86.06
332.486	87.06
332.715	80.06
332.943	76.06
333.172	99.06
333.4	100.06
333.629	84.06
333.857	94.06
334.085	92.06
334.314	90.06
334.542	99.06
334.771	79.06
334.999	77.06
335.227	92.06
335.455	83.06
335.684	96.06
335.912	75.06
336.14	75.06
336.369	90.06
336.597	86.06
336.825	99.06
337.053	86.06
337.281	90.06
337.51	91.06
337.738	74.06
337.966	74.06
338.194	85.06
338.422	80.06
338.65	79.06
338.878	90.06
339.106	87.06
339.334	91.06
339.562	77.06
339.79	83.06
340.018	85.06
340.246	93.06
340.474	98.06
340.702	88.06
340.93	88.06
341.158	96.06
341.386	85.06
341.614	88.06
341.842	73.06
342.07	85.06
342.298	84.06
342.526	92.06
342.754	82.06
342.981	93.06
343.209	80.06
343.437	80.06
343.665	81.06
343.893	66.06
344.12	97.06
344.348	78.06
344.576	98.06
344.804	92.06
345.031	99.06
345.259	71.06
345.487	92.06
345.714	74.06
345.942	70.06
346.17	82.06
346.397	72.06
346.625	90.06
346.853	84.06
347.08	93.06
347.308	85.06
347.535	80.06
347.763	76.06
347.99	84.06
348.218	92.06
348.445	89.06
348.673	77.06
348.9	102.06
349.128	86.06
349.355	71.06
349.583	78.06
349.81	86.06
350.037	73.06
350.265	89.06
350.492	89.06
350.72	86.06
350.947	88.06
351.174	97.06
351.402	88.06
351.629	99.06
351.856	81.06
352.083	94.06
352.311	84.06
352.538	96.06
352.765	87.06
352.992	88.06
353.22	84.06
353.447	84.06
353.674	98.06
353.901	93.06
354.128	76.06
354.355	90.06
354.583	89.06
354.81	62.06
355.037	85.06
355.264	86.06
355.491	94.06
355.718	100.06
355.945	85.06
356.172	91.06
356.399	90.06
356.626	76.06
356.853	86.06
357.08	84.06
357.307	85.06
357.534	98.06
357.761	78.06
357.988	93.06
358.215	74.06
358.441	85.06
358.668	86.06
358.895	88.06
359.122	67.06
359.349	76.06
359.576	85.06
359.802	74.06
360.029	86.06
360.256	72.06
360.483	78.06
360.709	74.06
360.936	80.06
361.163	83.06
361.39	76.06
361.616	80.06
361.843	90.06
362.07	97.06
362.296	88.06
362.523	84.06
362.749	77.06
362.976	81.06
363.203	89.06
363.429	87.06
363.656	81.06
363.882	75.06
364.109	96.06
364.335	91.06
364.562	85.06
364.788	71.06
365.015	72.06
365.241	93.06
365.468	92.06
365.694	91.06
365.92	76.06
366.147	97.06
366.373	93.06
366.599	85.06
366.826	81.06
367.052	95.06
367.278	72.06
367.505	83.06
367.731	82.06
367.957	104.06
368.184	95.06
368.41	88.06
368.636	82.06
368.862	86.06
369.089	80.06
369.315	96.06
369.541	82.06
369.767	87.06
369.993	90.06
370.219	80.06
370.445	76.06
370.672	86.06
370.898	87.06
371.124	93.06
371.35	85.06
371.576	80.06
371.802	79.06
372.028	85.06
372.254	85.06
372.48	88.06
372.706	88.06
372.932	86.06
373.158	80.06
373.384	88.06
373.61	90.06
373.835	95.06
374.061	90.06
374.287	85.06
374.513	82.06
374.739	81.06
374.965	87.06
375.191	84.06
375.416	67.06
375.642	95.06
375.868	86.06
376.094	85.06
376.319	77.06
376.545	94.06
376.771	92.06
376.997	73.06
377.222	86.06
377.448	84.06
377.674	80.06
377.899	93.06
378.125	84.06
378.35	91.06
378.576	80.06
378.802	91.06
379.027	80.06
379.253	83.06
379.478	82.06
379.704	78.06
379.929	84.06
380.155	90.06
380.38	89.06
380.606	88.06
380.831	93.06
381.057	97.06
381.282	75.06
381.507	85.06
381.733	86.06
381.958	69.06
382.184	82.06
382.409	77.06
382.634	75.06
382.86	84.06
383.085	80.06
383.31	82.06
383.535	68.06
383.761	90.06
383.986	93.06
384.211	84.06
384.436	85.06
384.662	95.06
384.887	82.06
385.112	77.06
385.337	93.06
385.562	80.06
385.787	104.06
386.013	94.06
386.238	86.06
386.463	81.06
386.688	79.06
386.913	84.06
387.138	92.06
387.363	86.06
387.588	70.06
387.813	92.06
388.038	89.06
388.263	82.06
388.488	77.06
388.713	84.06
388.938	88.06
389.163	81.06
389.387	88.06
389.612	72.06
389.837	75.06
390.062	92.06
390.287	91.06
390.512	79.06
390.736	89.06
390.961	86.06
391.186	98.06
391.411	87.06
391.636	98.06
391.86	70.06
392.085	69.06
392.31	78.06
392.534	95.06
392.759	91.06
392.984	82.06
393.208	82.06
393.433	93.06
393.658	83.06
393.882	80.06
394.107	98.06
394.331	92.06
394.556	92.06
394.78	79.06
395.005	86.06
395.229	101.06
395.454	97.06
395.678	98.06
395.903	81.06
396.127	87.06
396.352	97.06
396.576	82.06
396.801	81.06
397.025	91.06
397.249	75.06
397.474	94.06
397.698	93.06
397.922	84.06
398.147	93.06
398.371	71.06
398.595	84.06
398.82	79.06
399.044	86.06
399.268	91.06
399.492	81.06
399.717	80.06
399.941	75.06
400.165	91.06
400.389	83.06
400.613	90.06
400.837	93.06
401.062	91.06
401.286	79.06
401.51	81.06
401.734	94.06
401.958	88.06
402.182	80.06
402.406	95.06
402.63	74.06
402.854	90.06
403.078	82.06
403.302	75.06
403.526	85.06
403.75	96.06
403.974	106.06
404.198	128.06
404.422	190.06
404.645	223.06
404.869	184.06
405.093	136.06
405.317	93.06
405.541	96.06
405.765	91.06
405.988	76.06
406.212	106.06
406.436	90.06
406.66	81.06
406.883	76.06
407.107	88.06
407.331	74.06
407.555	89.06
407.778	78.06
408.002	92.06
408.226	77.06
408.449	87.06
408.673	77.06
408.896	82.06
409.12	85.06
409.344	97.06
409.567	91.06
409.791	88.06
410.014	91.06
410.238	101.06
410.461	95.06
410.685	75.06
410.908	80.06
411.132	86.06
411.355	89.06
411.578	89.06
411.802	85.06
412.025	86.06
412.249	82.06
412.472	91.06
412.695	83.06
412.919	80.06
413.142	86.06
413.365	88.06
413.589	97.06
413.812	81.06
414.035	80.06
414.258	85.06
414.482	78.06
414.705	81.06
414.928	82.06
415.151	77.06
415.374	85.06
415.597	78.06
415.821	91.06
416.044	90.06
416.267	88.06
416.49	76.06
416.713	89.06
416.936	93.06
417.159	69.06
417.382	71.06
417.605	76.06
417.828	74.06
418.051	90.06
418.274	90.06
418.497	82.06
418.72	93.06
418.943	88.06
419.166	82.06
419.389	93.06
419.611	78.06
419.834	81.06
420.057	87.06
420.28	80.06
420.503	89.06
420.726	73.06
420.948	82.06
421.171	83.06
421.394	70.06
421.617	93.06
421.839	80.06
422.062	87.06
422.285	80.06
422.507	85.06
422.73	75.06
422.953	78.06
423.175	79.06
423.398	66.06
423.621	82.06
423.843	83.06
424.066	88.06
424.288	86.06
424.511	89.06
424.733	96.06
424.956	94.06
425.178	83.06
425.401	78.06
425.623	94.06
425.846	90.06
426.068	89.06
426.291	86.06
426.513	79.06
426.735	92.06
426.958	87.06
427.18	92.06
427.402	88.06
427.625	89.06
427.847	78.06
428.069	88.06
428.292	93.06
428.514	92.06
428.736	95.06
428.958	87.06
429.181	97.06
429.403	83.06
429.625	84.06
429.847	88.06
430.069	93.06
430.292	87.06
430.514	70.06
430.736	78.06
430.958	88.06
431.18	81.06
431.402	78.06
431.624	84.06
431.846	90.06
432.068	81.06
432.29	96.06
432.512	84.06
432.734	81.06
432.956	86.06
433.178	96.06
433.4	71.06
433.622	95.06
433.844	79.06
434.066	95.06
434.287	82.06
434.509	86.06
434.731	82.06
434.953	90.06
435.175	83.06
435.397	90.06
435.618	75.06
435.84	72.06
436.062	77.06
436.284	91.06
436.505	83.06
436.727	69.06
436.949	87.06
437.17	70.06
437.392	82.06
437.614	92.06
437.835	87.06
438.057	83.06
438.278	91.06
438.5	86.06
438.721	85.06
438.943	90.06
439.165	87.06
439.386	89.06
439.608	93.06
439.829	93.06
440.05	77.06
440.272	86.06
440.493	87.06
440.715	98.06
440.936	82.06
441.158	86.06
441.379	76.06
441.6	76.06
441.822	79.06
442.043	82.06
442.264	91.06
442.486	78.06
442.707	87.06
442.928	81.06
443.149	72.06
443.371	74.06
443.592	77.06
443.813	91.06
444.034	85.06
444.255	74.06
444.476	76.06
444.698	91.06
444.919	82.06
445.14	162.06
445.361	118.06
445.582	75.06
445.803	74.06
446.024	79.06
446.245	94.06
446.466	90.06
446.687	104.06
446.908	87.06
447.129	97.06
447.35	83.06
447.571	89.06
447.792	88.06
448.013	72.06
448.234	83.06
448.455	85.06
448.675	82.06
448.896	90.06
449.117	83.06
449.338	92.06
449.559	90.06
449.779	84.06
450	88.06
450.221	81.06
450.442	91.06
450.662	74.06
450.883	88.06
451.104	87.06
451.324	89.06
451.545	98.06
451.766	96.06
451.986	97.06
452.207	74.06
452.428	84.06
452.648	95.06
452.869	73.06
453.089	90.06
453.31	80.06
453.53	80.06
453.751	89.06
453.971	78.06
454.192	76.06
454.412	84.06
454.633	76.06
454.853	84.06
455.073	95.06
455.294	91.06
455.514	97.06
455.734	89.06
455.955	91.06
456.175	88.06
456.395	85.06
456.616	77.06
456.836	88.06
457.056	84.06
457.276	96.06
457.497	90.06
457.717	89.06
457.937	92.06
458.157	82.06
458.377	83.06
458.598	70.06
458.818	80.06
459.038	84.06
459.258	83.06
459.478	80.06
459.698	81.06
459.918	70.06
460.138	83.06
460.358	85.06
460.578	91.06
460.798	93.06
461.018	81.06
461.238	88.06
461.458	88.06
461.678	75.06
461.898	82.06
462.118	93.06
462.338	72.06
462.558	87.06
462.777	80.06
462.997	86.06
463.217	81.06
463.437	90.06
463.657	83.06
463.876	91.06
464.096	89.06
464.316	102.06
464.536	91.06
464.755	100.06
464.975	87.06
465.195	93.06
465.414	79.06
465.634	86.06
465.854	89.06
466.073	60.06
466.293	74.06
466.512	89.06
466.732	98.06
466.951	87.06
467.171	89.06
467.391	92.06
467.61	88.06
467.829	94.06
468.049	91.06
468.268	99.06
468.488	96.06
468.707	89.06
468.927	82.06
469.146	84.06
469.365	83.06
469.585	91.06
469.804	89.06
470.023	95.06
470.243	99.06
470.462	79.06
470.681	84.06
470.901	85.06
471.12	101.06
471.339	101.06
471.558	92.06
471.777	88.06
471.997	83.06
472.216	85.06
472.435	88.06
472.654	81.06
472.873	75.06
473.092	90.06
473.311	88.06
473.53	98.06
473.749	82.06
473.968	89.06
474.187	83.06
474.406	86.06
474.625	88.06
474.844	94.06
475.063	87.06
475.282	89.06
475.501	80.06
475.72	86.06
475.939	76.06
476.158	82.06
476.377	85.06
476.596	79.06
476.814	76.06
477.033	94.06
477.252	78.06
477.471	85.06
477.69	98.06
477.908	95.06
478.127	95.06
478.346	96.06
478.564	68.06
478.783	77.06
479.002	74.06
479.22	94.06
479.439	92.06
479.658	90.06
479.876	89.06
480.095	93.06
480.313	91.06
480.532	84.06
480.751	101.06
480.969	76.06
481.188	89.06
481.406	101.06
481.624	82.06
481.843	90.06
482.061	88.06
482.28	80.06
482.498	80.06
482.717	82.06
482.935	83.06
483.153	83.06
483.372	70.06
483.59	80.06
483.808	88.06
484.027	91.06
484.245	78.06
484.463	84.06
484.681	95.06
484.9	89.06
485.118	91.06
485.336	92.06
485.554	79.06
485.772	96.06
485.99	76.06
486.209	92.06
486.427	107.06
486.645	82.06
486.863	89.06
487.081	93.06
487.299	76.06
487.517	97.06
487.735	88.06
487.953	98.06
488.171	94.06
488.389	91.06
488.607	73.06
488.825	86.06
489.043	80.06
489.261	87.06
489.479	92.06
489.696	96.06
489.914	92.06
490.132	98.06
490.35	91.06
490.568	87.06
490.786	98.06
491.003	92.06
491.221	91.06
491.439	94.06
491.657	89.06
491.874	102.06
492.092	94.06
492.31	96.06
492.527	106.06
492.745	93.06
492.963	91.06
493.18	88.06
493.398	90.06
493.615	110.06
493.833	88.06
494.05	89.06
494.268	92.06
494.485	101.06
494.703	115.06
494.92	97.06
495.138	96.06
495.355	100.06
495.573	109.06
495.79	107.06
496.008	98.06
496.225	92.06
496.442	87.06
496.66	110.06
496.877	83.06
497.094	97.06
497.312	90.06
497.529	84.06
497.746	101.06
497.963	112.06
498.181	90.06
498.398	99.06
498.615	94.06
498.832	90.06
499.049	94.06
499.267	92.06
499.484	97.06
499.701	85.06
499.918	80.06
500.135	89.06
500.352	84.06
500.569	88.06
500.786	97.06
501.003	89.06
501.22	92.06
501.437	90.06
501.654	89.06
501.871	87.06
502.088	92.06
502.305	85.06
502.522	86.06
502.739	98.06
502.956	83.06
503.172	100.06
503.389	80.06
503.606	76.06
503.823	95.06
504.04	88.06
504.256	85.06
504.473	97.06
504.69	92.06
504.907	101.06
505.123	84.06
505.34	86.06
505.557	94.06
505.773	100.06
505.99	76.06
506.207	85.06
506.423	90.06
506.64	70.06
506.856	92.06
507.073	107.06
507.289	84.06
507.506	86.06
507.722	96.06
507.939	84.06
508.155	70.06
508.372	88.06
508.588	103.06
508.805	94.06
509.021	95.06
509.238	73.06
509.454	80.06
509.67	99.06
509.887	85.06
510.103	101.06
510.319	94.06
510.536	97.06
510.752	86.06
510.968	99.06
511.184	104.06
511.401	100.06
511.617	96.06
511.833	92.06
512.049	96.06
512.265	94.06
512.481	90.06
512.698	73.06
512.914	84.06
513.13	87.06
513.346	88.06
513.562	93.06
513.778	98.06
513.994	102.06
514.21	84.06
514.426	92.06
514.642	82.06
514.858	92.06
515.074	82.06
515.29	99.06
515.506	92.06
515.721	88.06
515.937	87.06
516.153	93.06
516.369	103.06
516.585	103.06
516.801	87.06
517.016	81.06
517.232	82.06
517.448	81.06
517.664	88.06
517.879	84.06
518.095	65.06
518.311	86.06
518.527	85.06
518.742	86.06
518.958	99.06
519.173	83.06
519.389	89.06
519.605	98.06
519.82	95.06
520.036	83.06
520.251	84.06
520.467	80.06
520.682	84.06
520.898	85.06
521.113	90.06
521.329	85.06
521.544	90.06
521.76	83.06
521.975	90.06
522.19	87.06
522.406	99.06
522.621	85.06
522.836	75.06
523.052	81.06
523.267	87.06
523.482	75.06
523.698	84.06
523.913	84.06
524.128	88.06
524.343	90.06
524.559	104.06
524.774	88.06
524.989	82.06
525.204	81.06
525.419	89.06
525.634	96.06
525.849	83.06
526.064	96.06
526.28	92.06
526.495	83.06
526.71	82.06
526.925	86.06
527.14	89.06
527.355	82.06
527.57	88.06
527.785	79.06
527.999	88.06
528.214	79.06
528.429	81.06
528.644	89.06
528.859	91.06
529.074	80.06
529.289	88.06
529.503	88.06
529.718	89.06
529.933	92.06
530.148	85.06
530.363	92.06
530.577	89.06
530.792	98.06
531.007	86.06
531.221	93.06
531.436	89.06
531.651	93.06
531.865	86.06
532.08	76.06
532.295	94.06
532.509	109.06
532.724	81.06
532.938	92.06
533.153	97.06
533.367	95.06
533.582	92.06
533.796	105.06
534.011	108.06
534.225	126.06
534.44	121.06
534.654	107.06
534.868	118.06
535.083	103.06
535.297	95.06
535.511	96.06
535.726	97.06
535.94	102.06
536.154	109.06
536.369	113.06
536.583	100.06
536.797	87.06
537.011	89.06
537.225	90.06
537.44	105.06
537.654	102.06
537.868	90.06
538.082	95.06
538.296	85.06
538.51	102.06
538.724	90.06
538.938	77.06
539.153	86.06
539.367	81.06
539.581	101.06
539.795	94.06
540.009	93.06
540.222	68.06
540.436	78.06
540.65	80.06
540.864	100.06
541.078	101.06
541.292	91.06
541.506	80.06
541.72	98.06
541.934	85.06
542.147	89.06
542.361	91.06
542.575	89.06
542.789	92.06
543.002	88.06
543.216	88.06
543.43	78.06
543.644	90.06
543.857	88.06
544.071	77.06
544.285	91.06
544.498	100.06
544.712	86.06
544.925	85.06
545.139	81.06
545.352	92.06
545.566	92.06
545.779	81.06
545.993	96.06
546.206	85.06
546.42	91.06
546.633	90.06
546.847	82.06
547.06	100.06
547.274	92.06
547.487	83.06
547.7	87.06
547.914	98.06
548.127	89.06
548.34	73.06
548.554	93.06
548.767	99.06
548.98	88.06
549.193	90.06
549.407	97.06
549.62	82.06
549.833	89.06
550.046	84.06
550.259	70.06
550.473	92.06
550.686	91.06
550.899	92.06
551.112	84.06
551.325	101.06
551.538	84.06
551.751	88.06
551.964	84.06
552.177	102.06
552.39	92.06
552.603	77.06
552.816	104.06
553.029	80.06
553.242	92.06
553.455	88.06
553.667	92.06
553.88	85.06
554.093	94.06
554.306	94.06
554.519	98.06
554.732	108.06
554.944	116.06
555.157	90.06
555.37	98.06
555.583	82.06
555.795	88.06
556.008	71.06
556.221	105.06
556.433	92.06
556.646	87.06
556.859	92.06
557.071	87.06
557.284	102.06
557.496	89.06
557.709	84.06
557.921	83.06
558.134	89.06
558.346	90.06
558.559	90.06
558.771	86.06
558.984	82.06
559.196	88.06
559.409	84.06
559.621	99.06
559.833	100.06
560.046	94.06
560.258	90.06
560.47	93.06
560.683	83.06
560.895	81.06
561.107	92.06
561.32	89.06
561.532	98.06
561.744	100.06
561.956	85.06
562.168	93.06
562.381	86.06
562.593	90.06
562.805	80.06
563.017	84.06
563.229	81.06
563.441	80.06
563.653	83.06
563.865	86.06
564.077	89.06
564.289	87.06
564.501	80.06
564.713	96.06
564.925	97.06
565.137	97.06
565.349	98.06
565.561	90.06
565.773	86.06
565.985	90.06
566.197	91.06
566.408	89.06
566.62	95.06
566.832	81.06
567.044	89.06
567.255	85.06
567.467	82.06
567.679	78.06
567.891	87.06
568.102	100.06
568.314	79.06
568.526	98.06
568.737	95.06
568.949	84.06
569.161	92.06
569.372	86.06
569.584	75.06
569.795	87.06
570.007	80.06
570.218	81.06
570.43	79.06
570.641	81.06
570.853	90.06
571.064	93.06
571.276	79.06
571.487	80.06
571.698	88.06
571.91	82.06
572.121	89.06
572.333	92.06
572.544	93.06
572.755	81.06
572.966	84.06
573.178	80.06
573.389	84.06
573.6	77.06
573.811	76.06
574.023	90.06
574.234	89.06
574.445	93.06
574.656	91.06
574.867	88.06
575.078	84.06
575.289	98.06
575.501	92.06
575.712	97.06
575.923	83.06
576.134	91.06
576.345	91.06
576.556	84.06
576.767	84.06
576.978	88.06
577.188	73.06
577.399	79.06
577.61	76.06
577.821	85.06
578.032	93.06
578.243	98.06
578.454	117.06
578.665	108.06
578.875	93.06
579.086	103.06
579.297	94.06
579.508	81.06
579.718	91.06
579.929	100.06
580.14	90.06
580.35	135.06
580.561	147.06
580.772	111.06
580.982	106.06
581.193	94.06
581.403	99.06
581.614	111.06
581.825	106.06
582.035	90.06
582.246	106.06
582.456	92.06
582.667	104.06
582.877	76.06
583.087	79.06
583.298	94.06
583.508	127.06
583.719	108.06
583.929	112.06
584.139	85.06
584.35	76.06
584.56	97.06
584.77	89.06
584.981	89.06
585.191	99.06
585.401	93.06
585.611	81.06
585.821	80.06
586.032	97.06
586.242	86.06
586.452	84.06
586.662	99.06
586.872	93.06
587.082	91.06
587.292	97.06
587.502	80.06
587.713	92.06
587.923	88.06
588.133	95.06
588.343	111.06
588.553	117.06
588.762	166.06
588.972	332.06
589.182	808.06
589.392	573.06
589.602	376.06
589.812	668.06
590.022	373.06
590.232	165.06
590.441	113.06
590.651	99.06
590.861	96.06
591.071	97.06
591.281	98.06
591.49	80.06
591.7	92.06
591.91	93.06
592.119	94.06
592.329	89.06
592.539	90.06
592.748	89.06
592.958	81.06
593.167	85.06
593.377	90.06
593.587	100.06
593.796	100.06
594.006	87.06
594.215	87.06
594.424	92.06
594.634	95.06
594.843	96.06
595.053	82.06
595.262	89.06
595.472	79.06
595.681	87.06
595.89	85.06
596.1	97.06
596.309	106.06
596.518	90.06
596.727	96.06
596.937	86.06
597.146	85.06
597.355	82.06
597.564	66.06
597.774	88.06
597.983	80.06
598.192	88.06
598.401	84.06
598.61	85.06
598.819	89.06
599.028	74.06
599.237	77.06
599.446	80.06
599.655	74.06
599.864	84.06
600.073	100.06
600.282	89.06
600.491	77.06
600.7	87.06
600.909	94.06
601.118	99.06
601.327	77.06
601.536	74.06
601.745	92.06
601.953	75.06
602.162	83.06
602.371	82.06
602.58	76.06
602.789	86.06
602.997	85.06
603.206	86.06
603.415	73.06
603.623	93.06
603.832	77.06
604.041	89.06
604.249	78.06
604.458	84.06
604.666	76.06
604.875	93.06
605.084	88.06
605.292	84.06
605.501	88.06
605.709	84.06
605.918	90.06
606.126	95.06
606.334	91.06
606.543	95.06
606.751	91.06
606.96	85.06
607.168	92.06
607.376	80.06
607.585	85.06
607.793	85.06
608.001	106.06
608.21	85.06
608.418	64.06
608.626	89.06
608.834	91.06
609.043	88.06
609.251	89.06
609.459	99.06
609.667	99.06
609.875	76.06
610.083	91.06
610.291	96.06
610.499	81.06
610.707	87.06
610.916	63.06
611.124	84.06
611.332	88.06
611.54	96.06
611.748	99.06
611.955	73.06
612.163	85.06
612.371	84.06
612.579	91.06
612.787	84.06
612.995	71.06
613.203	94.06
613.411	91.06
613.618	72.06
613.826	79.06
614.034	83.06
614.242	80.06
614.449	90.06
614.657	93.06
614.865	95.06
615.072	89.06
615.28	82.06
615.488	101.06
615.695	91.06
615.903	89.06
616.111	86.06
616.318	85.06
616.526	88.06
616.733	81.06
616.941	88.06
617.148	89.06
617.356	80.06
617.563	77.06
617.771	95.06
617.978	91.06
618.185	85.06
618.393	72.06
618.6	74.06
618.807	67.06
619.015	71.06
619.222	82.06
619.429	100.06
619.637	97.06
619.844	84.06
620.051	90.06
620.258	79.06
620.466	86.06
620.673	92.06
620.88	78.06
621.087	80.06
621.294	77.06
621.501	76.06
621.708	89.06
621.915	78.06
622.122	82.06
622.329	96.06
622.536	83.06
622.743	79.06
622.95	89.06
623.157	83.06
623.364	71.06
623.571	82.06
623.778	83.06
623.985	90.06
624.192	89.06
624.399	87.06
624.606	92.06
624.812	93.06
625.019	74.06
625.226	85.06
625.433	84.06
625.639	82.06
625.846	90.06
626.053	73.06
626.259	80.06
626.466	88.06
626.673	77.06
626.879	84.06
627.086	89.06
627.293	90.06
627.499	90.06
627.706	87.06
627.912	82.06
628.119	85.06
628.325	94.06
628.532	99.06
628.738	91.06
628.945	83.06
629.151	76.06
629.357	78.06
629.564	77.06
629.77	100.06
629.976	82.06
630.183	84.06
630.389	83.06
630.595	77.06
630.802	78.06
631.008	84.06
631.214	92.06
631.42	86.06
631.627	81.06
631.833	78.06
632.039	76.06
632.245	93.06
632.451	81.06
632.657	94.06
632.863	92.06
633.069	95.06
633.275	75.06
633.481	82.06
633.688	73.06
633.893	91.06
634.099	88.06
634.305	90.06
634.511	74.06
634.717	88.06
634.923	73.06
635.129	81.06
635.335	86.06
635.541	92.06
635.747	81.06
635.952	108.06
636.158	96.06
636.364	81.06
636.57	88.06
636.775	86.06
636.981	92.06
637.187	78.06
637.392	83.06
637.598	88.06
637.804	84.06
638.009	90.06
638.215	85.06
638.421	88.06
638.626	88.06
638.832	84.06
639.037	85.06
639.243	88.06
639.448	82.06
639.654	78.06
639.859	85.06
640.065	88.06
640.27	94.06
640.475	85.06
640.681	71.06
640.886	105.06
641.091	89.06
641.297	81.06
641.502	88.06
641.707	83.06
641.913	88.06
642.118	93.06
642.323	75.06
642.528	80.06
642.733	92.06
642.939	78.06
643.144	85.06
643.349	95.06
643.554	87.06
643.759	70.06
643.964	84.06
644.169	90.06
644.374	77.06
644.579	84.06
644.784	77.06
644.989	80.06
645.194	94.06
645.399	77.06
645.604	85.06
645.809	90.06
646.014	81.06
646.219	76.06
646.423	78.06
646.628	94.06
646.833	97.06
647.038	81.06
647.243	90.06
647.447	91.06
647.652	96.06
647.857	78.06
648.062	84.06
648.266	83.06
648.471	89.06
648.676	91.06
648.88	95.06
649.085	69.06
649.289	85.06
649.494	91.06
649.698	93.06
649.903	82.06
650.107	58.06
650.312	79.06
650.516	85.06
650.721	93.06
650.925	88.06
651.13	95.06
651.334	85.06
651.539	81.06
651.743	93.06
651.947	90.06
652.152	97.06
652.356	78.06
652.56	98.06
652.764	93.06
652.969	91.06
653.173	94.06
653.377	90.06
653.581	65.06
653.785	76.06
653.99	73.06
654.194	93.06
654.398	88.06
654.602	85.06
654.806	76.06
655.01	85.06
655.214	68.06
655.418	76.06
655.622	87.06
655.826	85.06
656.03	88.06
656.234	92.06
656.438	83.06
656.642	81.06
656.846	85.06
657.049	75.06
657.253	80.06
657.457	85.06
657.661	79.06
657.865	75.06
658.068	90.06
658.272	74.06
658.476	88.06
658.68	95.06
658.883	74.06
659.087	84.06
659.291	77.06
659.494	77.06
659.698	74.06
659.901	77.06
660.105	65.06
660.309	86.06
660.512	91.06
660.716	80.06
660.919	89.06
661.123	86.06
661.326	70.06
661.53	76.06
661.733	63.06
661.936	82.06
662.14	81.06
662.343	85.06
662.546	85.06
662.75	78.06
662.953	78.06
663.156	76.06
663.36	81.06
663.563	85.06
663.766	79.06
663.969	89.06
664.173	85.06
664.376	70.06
664.579	74.06
664.782	79.06
664.985	68.06
665.188	75.06
665.391	90.06
665.594	64.06
665.797	93.06
666	86.06
666.203	80.06
666.406	84.06
666.609	80.06
666.812	69.06
667.015	87.06
667.218	77.06
667.421	79.06
667.624	84.06
667.827	81.06
668.03	89.06
668.232	74.06
668.435	76.06
668.638	69.06
668.841	90.06
669.043	82.06
669.246	79.06
669.449	91.06
669.651	84.06
669.854	81.06
670.057	75.06
670.259	84.06
670.462	80.06
670.665	88.06
670.867	88.06
671.07	75.06
671.272	79.06
671.475	90.06
671.677	83.06
671.88	68.06
672.082	88.06
672.284	71.06
672.487	92.06
672.689	85.06
672.892	78.06
