Data from KBr_4_HRD10591_00085.txt Node
Date: Mon Jan 19 13:27:07 EST 2026
User: Yrep
Spectrometer: HR+D1059
Trigger mode: 1
Integration Time (sec): 1.000000E-1
Scans to average: 1
Electric dark correction enabled: true
Nonlinearity correction enabled: false
Boxcar width: 0
XAxis mode: Wavelengths
Number of Pixels in Spectrum: 2048
>>>>>Begin Spectral Data<<<<<
223.165	-18.56
223.4	-18.56
223.635	-18.56
223.869	-5.56
224.104	-37.56
224.338	-3.56
224.573	-5.56
224.808	-11.56
225.042	-0.56
225.277	-4.56
225.511	-12.56
225.746	-5.56
225.98	14.44
226.215	12.44
226.449	12.44
226.683	26.44
226.918	10.44
227.152	29.44
227.387	45.44
227.621	45.44
227.856	49.44
228.09	45.44
228.324	40.44
228.559	58.44
228.793	54.44
229.027	68.44
229.262	65.44
229.496	70.44
229.73	62.44
229.964	77.44
230.199	88.44
230.433	85.44
230.667	84.44
230.901	81.44
231.136	87.44
231.37	91.44
231.604	69.44
231.838	81.44
232.072	91.44
232.306	75.44
232.541	68.44
232.775	79.44
233.009	86.44
233.243	83.44
233.477	93.44
233.711	75.44
233.945	63.44
234.179	79.44
234.413	75.44
234.647	74.44
234.881	87.44
235.115	83.44
235.349	69.44
235.583	78.44
235.817	82.44
236.051	80.44
236.285	83.44
236.519	73.44
236.753	78.44
236.987	79.44
237.221	64.44
237.455	59.44
237.689	76.44
237.922	80.44
238.156	80.44
238.39	63.44
238.624	72.44
238.858	75.44
239.091	81.44
239.325	80.44
239.559	72.44
239.793	71.44
240.027	83.44
240.26	72.44
240.494	67.44
240.728	76.44
240.961	75.44
241.195	71.44
241.429	79.44
241.662	68.44
241.896	79.44
242.13	78.44
242.363	74.44
242.597	69.44
242.83	75.44
243.064	69.44
243.298	84.44
243.531	75.44
243.765	69.44
243.998	86.44
244.232	61.44
244.465	76.44
244.699	70.44
244.932	63.44
245.166	84.44
245.399	97.44
245.633	81.44
245.866	84.44
246.099	80.44
246.333	74.44
246.566	67.44
246.8	69.44
247.033	73.44
247.266	82.44
247.5	85.44
247.733	85.44
247.966	82.44
248.2	67.44
248.433	77.44
248.666	77.44
248.899	69.44
249.133	90.44
249.366	81.44
249.599	83.44
249.832	90.44
250.066	85.44
250.299	85.44
250.532	75.44
250.765	72.44
250.998	80.44
251.231	81.44
251.465	85.44
251.698	92.44
251.931	70.44
252.164	82.44
252.397	73.44
252.63	78.44
252.863	75.44
253.096	70.44
253.329	81.44
253.562	88.44
253.795	86.44
254.028	79.44
254.261	75.44
254.494	79.44
254.727	77.44
254.96	83.44
255.193	79.44
255.426	88.44
255.659	79.44
255.892	79.44
256.124	67.44
256.357	71.44
256.59	89.44
256.823	84.44
257.056	83.44
257.289	85.44
257.521	73.44
257.754	75.44
257.987	84.44
258.22	78.44
258.452	85.44
258.685	92.44
258.918	79.44
259.151	78.44
259.383	76.44
259.616	61.44
259.849	87.44
260.081	80.44
260.314	82.44
260.547	76.44
260.779	74.44
261.012	80.44
261.244	80.44
261.477	66.44
261.71	85.44
261.942	76.44
262.175	91.44
262.407	83.44
262.64	81.44
262.872	79.44
263.105	86.44
263.337	73.44
263.57	77.44
263.802	83.44
264.035	96.44
264.267	87.44
264.499	83.44
264.732	83.44
264.964	86.44
265.197	87.44
265.429	81.44
265.661	73.44
265.894	87.44
266.126	86.44
266.358	78.44
266.591	69.44
266.823	86.44
267.055	80.44
267.287	75.44
267.52	81.44
267.752	83.44
267.984	79.44
268.216	89.44
268.448	92.44
268.681	85.44
268.913	84.44
269.145	73.44
269.377	88.44
269.609	57.44
269.841	84.44
270.073	85.44
270.306	79.44
270.538	91.44
270.77	89.44
271.002	91.44
271.234	90.44
271.466	89.44
271.698	71.44
271.93	79.44
272.162	83.44
272.394	92.44
272.626	82.44
272.858	95.44
273.09	85.44
273.322	95.44
273.553	77.44
273.785	75.44
274.017	89.44
274.249	82.44
274.481	83.44
274.713	95.44
274.945	85.44
275.176	98.44
275.408	99.44
275.64	79.44
275.872	87.44
276.104	90.44
276.335	85.44
276.567	83.44
276.799	84.44
277.031	82.44
277.262	80.44
277.494	87.44
277.726	99.44
277.957	87.44
278.189	78.44
278.421	69.44
278.652	87.44
278.884	80.44
279.115	83.44
279.347	73.44
279.579	82.44
279.81	82.44
280.042	84.44
280.273	85.44
280.505	79.44
280.736	79.44
280.968	91.44
281.199	73.44
281.431	76.44
281.662	90.44
281.894	77.44
282.125	91.44
282.356	85.44
282.588	90.44
282.819	66.44
283.051	81.44
283.282	79.44
283.513	87.44
283.745	95.44
283.976	85.44
284.207	89.44
284.439	96.44
284.67	75.44
284.901	69.44
285.132	81.44
285.364	77.44
285.595	66.44
285.826	77.44
286.057	93.44
286.288	75.44
286.52	81.44
286.751	86.44
286.982	83.44
287.213	93.44
287.444	91.44
287.675	90.44
287.906	83.44
288.138	63.44
288.369	85.44
288.6	87.44
288.831	67.44
289.062	85.44
289.293	82.44
289.524	91.44
289.755	77.44
289.986	79.44
290.217	79.44
290.448	77.44
290.679	83.44
290.91	88.44
291.141	83.44
291.371	86.44
291.602	76.44
291.833	91.44
292.064	90.44
292.295	83.44
292.526	90.44
292.757	87.44
292.987	83.44
293.218	83.44
293.449	71.44
293.68	86.44
293.91	82.44
294.141	92.44
294.372	84.44
294.603	93.44
294.833	80.44
295.064	81.44
295.295	66.44
295.525	86.44
295.756	99.44
295.987	92.44
296.217	80.44
296.448	77.44
296.679	77.44
296.909	90.44
297.14	76.44
297.37	86.44
297.601	84.44
297.831	93.44
298.062	82.44
298.292	75.44
298.523	90.44
298.753	97.44
298.984	90.44
299.214	89.44
299.445	68.44
299.675	67.44
299.905	82.44
300.136	83.44
300.366	90.44
300.597	77.44
300.827	79.44
301.057	88.44
301.288	83.44
301.518	81.44
301.748	77.44
301.979	99.44
302.209	78.44
302.439	87.44
302.669	76.44
302.9	81.44
303.13	73.44
303.36	71.44
303.59	91.44
303.82	80.44
304.051	80.44
304.281	83.44
304.511	91.44
304.741	76.44
304.971	86.44
305.201	81.44
305.431	81.44
305.661	82.44
305.891	88.44
306.121	79.44
306.352	88.44
306.582	75.44
306.812	95.44
307.042	76.44
307.272	100.44
307.502	66.44
307.731	89.44
307.961	87.44
308.191	91.44
308.421	93.44
308.651	80.44
308.881	81.44
309.111	87.44
309.341	87.44
309.571	90.44
309.8	77.44
310.03	98.44
310.26	89.44
310.49	87.44
310.72	76.44
310.949	72.44
311.179	84.44
311.409	82.44
311.639	72.44
311.868	83.44
312.098	91.44
312.328	84.44
312.557	87.44
312.787	86.44
313.017	84.44
313.246	87.44
313.476	73.44
313.706	82.44
313.935	93.44
314.165	88.44
314.394	86.44
314.624	89.44
314.853	78.44
315.083	82.44
315.312	90.44
315.542	70.44
315.771	81.44
316.001	84.44
316.23	83.44
316.46	85.44
316.689	84.44
316.919	66.44
317.148	91.44
317.377	96.44
317.607	91.44
317.836	84.44
318.065	75.44
318.295	92.44
318.524	77.44
318.753	94.44
318.983	84.44
319.212	83.44
319.441	84.44
319.67	82.44
319.9	90.44
320.129	85.44
320.358	90.44
320.587	87.44
320.816	77.44
321.046	88.44
321.275	97.44
321.504	90.44
321.733	75.44
321.962	90.44
322.191	94.44
322.42	106.44
322.649	91.44
322.878	83.44
323.108	74.44
323.337	85.44
323.566	74.44
323.795	82.44
324.024	105.44
324.253	77.44
324.482	91.44
324.71	87.44
324.939	73.44
325.168	88.44
325.397	89.44
325.626	80.44
325.855	82.44
326.084	79.44
326.313	98.44
326.542	83.44
326.77	88.44
326.999	80.44
327.228	69.44
327.457	91.44
327.686	76.44
327.914	91.44
328.143	88.44
328.372	88.44
328.6	75.44
328.829	93.44
329.058	86.44
329.287	87.44
329.515	88.44
329.744	81.44
329.972	95.44
330.201	87.44
330.43	92.44
330.658	87.44
330.887	78.44
331.115	91.44
331.344	72.44
331.572	77.44
331.801	80.44
332.03	79.44
332.258	80.44
332.486	91.44
332.715	99.44
332.943	86.44
333.172	98.44
333.4	85.44
333.629	71.44
333.857	85.44
334.085	95.44
334.314	84.44
334.542	83.44
334.771	83.44
334.999	76.44
335.227	76.44
335.455	96.44
335.684	84.44
335.912	79.44
336.14	84.44
336.369	81.44
336.597	83.44
336.825	77.44
337.053	66.44
337.281	85.44
337.51	87.44
337.738	94.44
337.966	83.44
338.194	91.44
338.422	86.44
338.65	81.44
338.878	71.44
339.106	83.44
339.334	91.44
339.562	88.44
339.79	92.44
340.018	95.44
340.246	85.44
340.474	85.44
340.702	97.44
340.93	94.44
341.158	79.44
341.386	87.44
341.614	72.44
341.842	79.44
342.07	69.44
342.298	89.44
342.526	78.44
342.754	94.44
342.981	79.44
343.209	73.44
343.437	104.44
343.665	86.44
343.893	96.44
344.12	85.44
344.348	102.44
344.576	91.44
344.804	98.44
345.031	94.44
345.259	95.44
345.487	81.44
345.714	75.44
345.942	81.44
346.17	83.44
346.397	83.44
346.625	73.44
346.853	84.44
347.08	89.44
347.308	80.44
347.535	93.44
347.763	82.44
347.99	82.44
348.218	92.44
348.445	100.44
348.673	84.44
348.9	78.44
349.128	89.44
349.355	90.44
349.583	88.44
349.81	76.44
350.037	79.44
350.265	84.44
350.492	78.44
350.72	101.44
350.947	81.44
351.174	77.44
351.402	88.44
351.629	95.44
351.856	81.44
352.083	78.44
352.311	98.44
352.538	86.44
352.765	74.44
352.992	99.44
353.22	91.44
353.447	82.44
353.674	96.44
353.901	80.44
354.128	82.44
354.355	94.44
354.583	85.44
354.81	86.44
355.037	79.44
355.264	91.44
355.491	79.44
355.718	71.44
355.945	73.44
356.172	88.44
356.399	78.44
356.626	90.44
356.853	95.44
357.08	92.44
357.307	93.44
357.534	88.44
357.761	101.44
357.988	78.44
358.215	88.44
358.441	99.44
358.668	89.44
358.895	90.44
359.122	75.44
359.349	96.44
359.576	93.44
359.802	77.44
360.029	76.44
360.256	83.44
360.483	96.44
360.709	91.44
360.936	92.44
361.163	75.44
361.39	85.44
361.616	88.44
361.843	72.44
362.07	75.44
362.296	83.44
362.523	96.44
362.749	91.44
362.976	85.44
363.203	98.44
363.429	76.44
363.656	80.44
363.882	87.44
364.109	87.44
364.335	78.44
364.562	83.44
364.788	81.44
365.015	89.44
365.241	97.44
365.468	80.44
365.694	90.44
365.92	84.44
366.147	76.44
366.373	84.44
366.599	105.44
366.826	83.44
367.052	77.44
367.278	81.44
367.505	65.44
367.731	76.44
367.957	87.44
368.184	82.44
368.41	75.44
368.636	92.44
368.862	88.44
369.089	81.44
369.315	80.44
369.541	91.44
369.767	63.44
369.993	79.44
370.219	78.44
370.445	79.44
370.672	77.44
370.898	77.44
371.124	78.44
371.35	88.44
371.576	68.44
371.802	83.44
372.028	79.44
372.254	76.44
372.48	78.44
372.706	84.44
372.932	76.44
373.158	91.44
373.384	80.44
373.61	80.44
373.835	84.44
374.061	90.44
374.287	77.44
374.513	85.44
374.739	80.44
374.965	81.44
375.191	94.44
375.416	88.44
375.642	91.44
375.868	87.44
376.094	83.44
376.319	78.44
376.545	94.44
376.771	82.44
376.997	76.44
377.222	81.44
377.448	83.44
377.674	83.44
377.899	88.44
378.125	72.44
378.35	89.44
378.576	95.44
378.802	81.44
379.027	75.44
379.253	95.44
379.478	89.44
379.704	90.44
379.929	91.44
380.155	76.44
380.38	84.44
380.606	77.44
380.831	99.44
381.057	80.44
381.282	80.44
381.507	81.44
381.733	98.44
381.958	85.44
382.184	66.44
382.409	85.44
382.634	90.44
382.86	95.44
383.085	96.44
383.31	81.44
383.535	80.44
383.761	69.44
383.986	92.44
384.211	87.44
384.436	75.44
384.662	84.44
384.887	88.44
385.112	79.44
385.337	74.44
385.562	86.44
385.787	83.44
386.013	89.44
386.238	86.44
386.463	83.44
386.688	96.44
386.913	91.44
387.138	87.44
387.363	84.44
387.588	92.44
387.813	84.44
388.038	84.44
388.263	85.44
388.488	83.44
388.713	92.44
388.938	84.44
389.163	84.44
389.387	93.44
389.612	85.44
389.837	97.44
390.062	77.44
390.287	93.44
390.512	77.44
390.736	101.44
390.961	91.44
391.186	87.44
391.411	81.44
391.636	88.44
391.86	76.44
392.085	77.44
392.31	68.44
392.534	84.44
392.759	87.44
392.984	81.44
393.208	80.44
393.433	71.44
393.658	81.44
393.882	83.44
394.107	82.44
394.331	95.44
394.556	81.44
394.78	104.44
395.005	89.44
395.229	75.44
395.454	107.44
395.678	80.44
395.903	92.44
396.127	88.44
396.352	89.44
396.576	85.44
396.801	87.44
397.025	77.44
397.249	91.44
397.474	80.44
397.698	84.44
397.922	81.44
398.147	87.44
398.371	83.44
398.595	87.44
398.82	82.44
399.044	79.44
399.268	94.44
399.492	84.44
399.717	89.44
399.941	67.44
400.165	83.44
400.389	81.44
400.613	75.44
400.837	77.44
401.062	96.44
401.286	77.44
401.51	74.44
401.734	89.44
401.958	82.44
402.182	95.44
402.406	82.44
402.63	94.44
402.854	98.44
403.078	75.44
403.302	87.44
403.526	82.44
403.75	109.44
403.974	93.44
404.198	146.44
404.422	183.44
404.645	225.44
404.869	203.44
405.093	127.44
405.317	109.44
405.541	94.44
405.765	84.44
405.988	92.44
406.212	82.44
406.436	80.44
406.66	88.44
406.883	82.44
407.107	83.44
407.331	84.44
407.555	108.44
407.778	86.44
408.002	83.44
408.226	81.44
408.449	92.44
408.673	81.44
408.896	92.44
409.12	86.44
409.344	73.44
409.567	98.44
409.791	89.44
410.014	89.44
410.238	82.44
410.461	85.44
410.685	85.44
410.908	99.44
411.132	81.44
411.355	90.44
411.578	95.44
411.802	90.44
412.025	77.44
412.249	89.44
412.472	83.44
412.695	88.44
412.919	103.44
413.142	99.44
413.365	86.44
413.589	84.44
413.812	99.44
414.035	79.44
414.258	90.44
414.482	95.44
414.705	80.44
414.928	82.44
415.151	87.44
415.374	91.44
415.597	77.44
415.821	78.44
416.044	71.44
416.267	72.44
416.49	95.44
416.713	83.44
416.936	93.44
417.159	98.44
417.382	70.44
417.605	90.44
417.828	81.44
418.051	87.44
418.274	85.44
418.497	84.44
418.72	96.44
418.943	84.44
419.166	96.44
419.389	96.44
419.611	81.44
419.834	66.44
420.057	95.44
420.28	79.44
420.503	85.44
420.726	81.44
420.948	76.44
421.171	104.44
421.394	81.44
421.617	67.44
421.839	96.44
422.062	83.44
422.285	88.44
422.507	94.44
422.73	88.44
422.953	81.44
423.175	77.44
423.398	89.44
423.621	80.44
423.843	75.44
424.066	75.44
424.288	76.44
424.511	83.44
424.733	89.44
424.956	85.44
425.178	65.44
425.401	66.44
425.623	83.44
425.846	75.44
426.068	73.44
426.291	75.44
426.513	83.44
426.735	70.44
426.958	90.44
427.18	89.44
427.402	84.44
427.625	95.44
427.847	82.44
428.069	94.44
428.292	81.44
428.514	80.44
428.736	85.44
428.958	100.44
429.181	89.44
429.403	89.44
429.625	83.44
429.847	93.44
430.069	77.44
430.292	88.44
430.514	98.44
430.736	88.44
430.958	79.44
431.18	79.44
431.402	78.44
431.624	96.44
431.846	81.44
432.068	84.44
432.29	86.44
432.512	86.44
432.734	83.44
432.956	75.44
433.178	83.44
433.4	83.44
433.622	81.44
433.844	74.44
434.066	86.44
434.287	83.44
434.509	87.44
434.731	79.44
434.953	77.44
435.175	75.44
435.397	86.44
435.618	73.44
435.84	86.44
436.062	81.44
436.284	86.44
436.505	74.44
436.727	76.44
436.949	90.44
437.17	78.44
437.392	84.44
437.614	100.44
437.835	75.44
438.057	79.44
438.278	83.44
438.5	74.44
438.721	82.44
438.943	96.44
439.165	74.44
439.386	69.44
439.608	84.44
439.829	87.44
440.05	87.44
440.272	89.44
440.493	81.44
440.715	92.44
440.936	97.44
441.158	92.44
441.379	84.44
441.6	82.44
441.822	78.44
442.043	72.44
442.264	91.44
442.486	91.44
442.707	93.44
442.928	88.44
443.149	77.44
443.371	88.44
443.592	89.44
443.813	88.44
444.034	86.44
444.255	84.44
444.476	82.44
444.698	88.44
444.919	82.44
445.14	151.44
445.361	123.44
445.582	93.44
445.803	84.44
446.024	96.44
446.245	84.44
446.466	91.44
446.687	97.44
446.908	93.44
447.129	89.44
447.35	111.44
447.571	71.44
447.792	82.44
448.013	78.44
448.234	84.44
448.455	90.44
448.675	98.44
448.896	84.44
449.117	85.44
449.338	97.44
449.559	90.44
449.779	99.44
450	87.44
450.221	92.44
450.442	87.44
450.662	87.44
450.883	77.44
451.104	93.44
451.324	87.44
451.545	83.44
451.766	84.44
451.986	79.44
452.207	87.44
452.428	77.44
452.648	86.44
452.869	82.44
453.089	70.44
453.31	75.44
453.53	87.44
453.751	83.44
453.971	80.44
454.192	74.44
454.412	85.44
454.633	78.44
454.853	96.44
455.073	86.44
455.294	79.44
455.514	74.44
455.734	88.44
455.955	76.44
456.175	97.44
456.395	74.44
456.616	80.44
456.836	91.44
457.056	69.44
457.276	100.44
457.497	93.44
457.717	91.44
457.937	84.44
458.157	94.44
458.377	92.44
458.598	91.44
458.818	79.44
459.038	83.44
459.258	65.44
459.478	69.44
459.698	82.44
459.918	97.44
460.138	95.44
460.358	82.44
460.578	84.44
460.798	82.44
461.018	77.44
461.238	92.44
461.458	83.44
461.678	71.44
461.898	82.44
462.118	81.44
462.338	89.44
462.558	98.44
462.777	74.44
462.997	77.44
463.217	74.44
463.437	79.44
463.657	64.44
463.876	81.44
464.096	69.44
464.316	96.44
464.536	95.44
464.755	80.44
464.975	60.44
465.195	89.44
465.414	87.44
465.634	84.44
465.854	107.44
466.073	91.44
466.293	89.44
466.512	95.44
466.732	89.44
466.951	85.44
467.171	91.44
467.391	98.44
467.61	83.44
467.829	90.44
468.049	80.44
468.268	84.44
468.488	83.44
468.707	91.44
468.927	81.44
469.146	93.44
469.365	85.44
469.585	83.44
469.804	96.44
470.023	103.44
470.243	99.44
470.462	90.44
470.681	93.44
470.901	100.44
471.12	88.44
471.339	74.44
471.558	83.44
471.777	83.44
471.997	81.44
472.216	98.44
472.435	89.44
472.654	85.44
472.873	85.44
473.092	83.44
473.311	100.44
473.53	99.44
473.749	116.44
473.968	105.44
474.187	77.44
474.406	88.44
474.625	71.44
474.844	90.44
475.063	89.44
475.282	99.44
475.501	77.44
475.72	90.44
475.939	104.44
476.158	94.44
476.377	83.44
476.596	74.44
476.814	79.44
477.033	87.44
477.252	77.44
477.471	90.44
477.69	99.44
477.908	98.44
478.127	85.44
478.346	75.44
478.564	84.44
478.783	91.44
479.002	82.44
479.22	89.44
479.439	95.44
479.658	82.44
479.876	92.44
480.095	84.44
480.313	93.44
480.532	74.44
480.751	73.44
480.969	92.44
481.188	80.44
481.406	85.44
481.624	82.44
481.843	81.44
482.061	87.44
482.28	92.44
482.498	86.44
482.717	81.44
482.935	90.44
483.153	93.44
483.372	88.44
483.59	93.44
483.808	84.44
484.027	84.44
484.245	82.44
484.463	85.44
484.681	79.44
484.9	95.44
485.118	84.44
485.336	89.44
485.554	103.44
485.772	109.44
485.99	89.44
486.209	91.44
486.427	83.44
486.645	76.44
486.863	82.44
487.081	87.44
487.299	93.44
487.517	89.44
487.735	88.44
487.953	87.44
488.171	94.44
488.389	81.44
488.607	79.44
488.825	88.44
489.043	91.44
489.261	83.44
489.479	108.44
489.696	91.44
489.914	85.44
490.132	80.44
490.35	78.44
490.568	90.44
490.786	91.44
491.003	88.44
491.221	90.44
491.439	108.44
491.657	87.44
491.874	79.44
492.092	86.44
492.31	105.44
492.527	79.44
492.745	94.44
492.963	92.44
493.18	83.44
493.398	92.44
493.615	99.44
493.833	100.44
494.05	82.44
494.268	101.44
494.485	91.44
494.703	84.44
494.92	73.44
495.138	77.44
495.355	85.44
495.573	77.44
495.79	90.44
496.008	95.44
496.225	99.44
496.442	90.44
496.66	82.44
496.877	104.44
497.094	107.44
497.312	81.44
497.529	86.44
497.746	87.44
497.963	97.44
498.181	93.44
498.398	104.44
498.615	91.44
498.832	88.44
499.049	87.44
499.267	96.44
499.484	92.44
499.701	93.44
499.918	96.44
500.135	72.44
500.352	77.44
500.569	87.44
500.786	75.44
501.003	91.44
501.22	100.44
501.437	91.44
501.654	81.44
501.871	85.44
502.088	84.44
502.305	89.44
502.522	72.44
502.739	78.44
502.956	75.44
503.172	86.44
503.389	76.44
503.606	96.44
503.823	91.44
504.04	74.44
504.256	96.44
504.473	89.44
504.69	85.44
504.907	98.44
505.123	94.44
505.34	70.44
505.557	82.44
505.773	88.44
505.99	83.44
506.207	85.44
506.423	91.44
506.64	94.44
506.856	84.44
507.073	86.44
507.289	83.44
507.506	97.44
507.722	95.44
507.939	79.44
508.155	82.44
508.372	96.44
508.588	95.44
508.805	72.44
509.021	80.44
509.238	82.44
509.454	86.44
509.67	98.44
509.887	96.44
510.103	91.44
510.319	103.44
510.536	91.44
510.752	94.44
510.968	95.44
511.184	96.44
511.401	96.44
511.617	106.44
511.833	97.44
512.049	95.44
512.265	95.44
512.481	91.44
512.698	83.44
512.914	79.44
513.13	85.44
513.346	89.44
513.562	84.44
513.778	94.44
513.994	89.44
514.21	98.44
514.426	75.44
514.642	99.44
514.858	87.44
515.074	88.44
515.29	77.44
515.506	91.44
515.721	88.44
515.937	91.44
516.153	79.44
516.369	83.44
516.585	93.44
516.801	84.44
517.016	87.44
517.232	93.44
517.448	84.44
517.664	84.44
517.879	91.44
518.095	96.44
518.311	83.44
518.527	91.44
518.742	100.44
518.958	95.44
519.173	80.44
519.389	89.44
519.605	76.44
519.82	88.44
520.036	79.44
520.251	88.44
520.467	95.44
520.682	83.44
520.898	74.44
521.113	88.44
521.329	96.44
521.544	92.44
521.76	90.44
521.975	91.44
522.19	90.44
522.406	94.44
522.621	83.44
522.836	82.44
523.052	76.44
523.267	89.44
523.482	87.44
523.698	94.44
523.913	79.44
524.128	85.44
524.343	87.44
524.559	99.44
524.774	87.44
524.989	91.44
525.204	75.44
525.419	90.44
525.634	91.44
525.849	95.44
526.064	87.44
526.28	106.44
526.495	89.44
526.71	91.44
526.925	86.44
527.14	88.44
527.355	92.44
527.57	75.44
527.785	80.44
527.999	75.44
528.214	110.44
528.429	72.44
528.644	80.44
528.859	90.44
529.074	86.44
529.289	91.44
529.503	101.44
529.718	108.44
529.933	78.44
530.148	89.44
530.363	87.44
530.577	82.44
530.792	79.44
531.007	101.44
531.221	84.44
531.436	83.44
531.651	96.44
531.865	93.44
532.08	99.44
532.295	94.44
532.509	89.44
532.724	95.44
532.938	91.44
533.153	101.44
533.367	104.44
533.582	92.44
533.796	97.44
534.011	91.44
534.225	98.44
534.44	108.44
534.654	114.44
534.868	114.44
535.083	109.44
535.297	101.44
535.511	93.44
535.726	85.44
535.94	112.44
536.154	107.44
536.369	108.44
536.583	109.44
536.797	104.44
537.011	97.44
537.225	97.44
537.44	88.44
537.654	96.44
537.868	90.44
538.082	97.44
538.296	89.44
538.51	101.44
538.724	103.44
538.938	80.44
539.153	83.44
539.367	106.44
539.581	88.44
539.795	93.44
540.009	91.44
540.222	79.44
540.436	96.44
540.65	88.44
540.864	88.44
541.078	91.44
541.292	91.44
541.506	100.44
541.72	66.44
541.934	106.44
542.147	100.44
542.361	107.44
542.575	85.44
542.789	91.44
543.002	70.44
543.216	92.44
543.43	82.44
543.644	88.44
543.857	81.44
544.071	91.44
544.285	92.44
544.498	94.44
544.712	81.44
544.925	96.44
545.139	98.44
545.352	77.44
545.566	104.44
545.779	101.44
545.993	107.44
546.206	98.44
546.42	89.44
546.633	91.44
546.847	93.44
547.06	90.44
547.274	79.44
547.487	97.44
547.7	89.44
547.914	88.44
548.127	80.44
548.34	99.44
548.554	84.44
548.767	86.44
548.98	110.44
549.193	93.44
549.407	92.44
549.62	87.44
549.833	105.44
550.046	100.44
550.259	91.44
550.473	84.44
550.686	81.44
550.899	89.44
551.112	86.44
551.325	104.44
551.538	85.44
551.751	84.44
551.964	80.44
552.177	94.44
552.39	101.44
552.603	83.44
552.816	92.44
553.029	91.44
553.242	82.44
553.455	106.44
553.667	95.44
553.88	98.44
554.093	96.44
554.306	103.44
554.519	97.44
554.732	90.44
554.944	83.44
555.157	83.44
555.37	96.44
555.583	96.44
555.795	99.44
556.008	96.44
556.221	91.44
556.433	83.44
556.646	89.44
556.859	103.44
557.071	95.44
557.284	85.44
557.496	89.44
557.709	89.44
557.921	83.44
558.134	91.44
558.346	99.44
558.559	86.44
558.771	88.44
558.984	111.44
559.196	81.44
559.409	83.44
559.621	83.44
559.833	81.44
560.046	80.44
560.258	99.44
560.47	83.44
560.683	93.44
560.895	87.44
561.107	103.44
561.32	101.44
561.532	84.44
561.744	91.44
561.956	95.44
562.168	95.44
562.381	83.44
562.593	89.44
562.805	84.44
563.017	76.44
563.229	92.44
563.441	93.44
563.653	92.44
563.865	88.44
564.077	80.44
564.289	65.44
564.501	88.44
564.713	78.44
564.925	95.44
565.137	94.44
565.349	103.44
565.561	87.44
565.773	59.44
565.985	98.44
566.197	89.44
566.408	81.44
566.62	87.44
566.832	95.44
567.044	82.44
567.255	99.44
567.467	95.44
567.679	88.44
567.891	90.44
568.102	76.44
568.314	74.44
568.526	83.44
568.737	88.44
568.949	91.44
569.161	87.44
569.372	84.44
569.584	92.44
569.795	88.44
570.007	84.44
570.218	82.44
570.43	89.44
570.641	81.44
570.853	80.44
571.064	106.44
571.276	96.44
571.487	92.44
571.698	76.44
571.91	77.44
572.121	97.44
572.333	79.44
572.544	91.44
572.755	81.44
572.966	92.44
573.178	83.44
573.389	89.44
573.6	79.44
573.811	86.44
574.023	92.44
574.234	89.44
574.445	91.44
574.656	99.44
574.867	91.44
575.078	87.44
575.289	79.44
575.501	107.44
575.712	84.44
575.923	90.44
576.134	79.44
576.345	91.44
576.556	85.44
576.767	84.44
576.978	79.44
577.188	83.44
577.399	96.44
577.61	95.44
577.821	92.44
578.032	101.44
578.243	96.44
578.454	111.44
578.665	116.44
578.875	105.44
579.086	96.44
579.297	99.44
579.508	85.44
579.718	100.44
579.929	106.44
580.14	105.44
580.35	141.44
580.561	129.44
580.772	119.44
580.982	105.44
581.193	87.44
581.403	83.44
581.614	111.44
581.825	93.44
582.035	95.44
582.246	97.44
582.456	91.44
582.667	107.44
582.877	99.44
583.087	92.44
583.298	109.44
583.508	98.44
583.719	105.44
583.929	98.44
584.139	87.44
584.35	101.44
584.56	92.44
584.77	95.44
584.981	83.44
585.191	88.44
585.401	97.44
585.611	83.44
585.821	91.44
586.032	87.44
586.242	90.44
586.452	97.44
586.662	87.44
586.872	87.44
587.082	84.44
587.292	85.44
587.502	76.44
587.713	101.44
587.923	105.44
588.133	106.44
588.343	110.44
588.553	120.44
588.762	167.44
588.972	291.44
589.182	647.44
589.392	499.44
589.602	332.44
589.812	553.44
590.022	320.44
590.232	141.44
590.441	132.44
590.651	103.44
590.861	89.44
591.071	90.44
591.281	90.44
591.49	91.44
591.7	89.44
591.91	105.44
592.119	84.44
592.329	98.44
592.539	89.44
592.748	87.44
592.958	90.44
593.167	92.44
593.377	84.44
593.587	86.44
593.796	89.44
594.006	87.44
594.215	87.44
594.424	82.44
594.634	88.44
594.843	93.44
595.053	80.44
595.262	81.44
595.472	82.44
595.681	83.44
595.89	84.44
596.1	87.44
596.309	95.44
596.518	80.44
596.727	91.44
596.937	90.44
597.146	75.44
597.355	100.44
597.564	79.44
597.774	94.44
597.983	89.44
598.192	84.44
598.401	88.44
598.61	79.44
598.819	92.44
599.028	77.44
599.237	89.44
599.446	79.44
599.655	96.44
599.864	93.44
600.073	80.44
600.282	85.44
600.491	93.44
600.7	84.44
600.909	95.44
601.118	93.44
601.327	90.44
601.536	93.44
601.745	93.44
601.953	86.44
602.162	83.44
602.371	85.44
602.58	85.44
602.789	84.44
602.997	65.44
603.206	80.44
603.415	91.44
603.623	91.44
603.832	88.44
604.041	88.44
604.249	76.44
604.458	93.44
604.666	75.44
604.875	76.44
605.084	76.44
605.292	87.44
605.501	97.44
605.709	80.44
605.918	96.44
606.126	84.44
606.334	89.44
606.543	92.44
606.751	90.44
606.96	83.44
607.168	97.44
607.376	80.44
607.585	100.44
607.793	78.44
608.001	77.44
608.21	97.44
608.418	94.44
608.626	93.44
608.834	85.44
609.043	87.44
609.251	91.44
609.459	81.44
609.667	96.44
609.875	71.44
610.083	85.44
610.291	96.44
610.499	100.44
610.707	79.44
610.916	91.44
611.124	91.44
611.332	84.44
611.54	87.44
611.748	108.44
611.955	86.44
612.163	92.44
612.371	92.44
612.579	82.44
612.787	92.44
612.995	93.44
613.203	98.44
613.411	93.44
613.618	91.44
613.826	88.44
614.034	92.44
614.242	88.44
614.449	97.44
614.657	95.44
614.865	90.44
615.072	81.44
615.28	96.44
615.488	86.44
615.695	69.44
615.903	75.44
616.111	88.44
616.318	101.44
616.526	86.44
616.733	100.44
616.941	84.44
617.148	101.44
617.356	76.44
617.563	67.44
617.771	77.44
617.978	82.44
618.185	95.44
618.393	81.44
618.6	79.44
618.807	81.44
619.015	77.44
619.222	80.44
619.429	88.44
619.637	86.44
619.844	78.44
620.051	95.44
620.258	82.44
620.466	83.44
620.673	89.44
620.88	97.44
621.087	92.44
621.294	89.44
621.501	91.44
621.708	84.44
621.915	79.44
622.122	91.44
622.329	93.44
622.536	85.44
622.743	94.44
622.95	75.44
623.157	74.44
623.364	83.44
623.571	81.44
623.778	90.44
623.985	85.44
624.192	92.44
624.399	87.44
624.606	89.44
624.812	94.44
625.019	80.44
625.226	89.44
625.433	88.44
625.639	76.44
625.846	83.44
626.053	84.44
626.259	77.44
626.466	88.44
626.673	91.44
626.879	67.44
627.086	96.44
627.293	80.44
627.499	93.44
627.706	103.44
627.912	81.44
628.119	95.44
628.325	107.44
628.532	85.44
628.738	87.44
628.945	74.44
629.151	88.44
629.357	87.44
629.564	92.44
629.77	87.44
629.976	83.44
630.183	87.44
630.389	94.44
630.595	66.44
630.802	87.44
631.008	81.44
631.214	81.44
631.42	90.44
631.627	95.44
631.833	77.44
632.039	91.44
632.245	81.44
632.451	69.44
632.657	87.44
632.863	82.44
633.069	87.44
633.275	79.44
633.481	76.44
633.688	85.44
633.893	90.44
634.099	95.44
634.305	76.44
634.511	70.44
634.717	83.44
634.923	78.44
635.129	81.44
635.335	86.44
635.541	88.44
635.747	83.44
635.952	85.44
636.158	94.44
636.364	96.44
636.57	91.44
636.775	83.44
636.981	81.44
637.187	86.44
637.392	100.44
637.598	90.44
637.804	93.44
638.009	91.44
638.215	90.44
638.421	73.44
638.626	82.44
638.832	76.44
639.037	89.44
639.243	79.44
639.448	84.44
639.654	83.44
639.859	74.44
640.065	95.44
640.27	76.44
640.475	85.44
640.681	75.44
640.886	85.44
641.091	76.44
641.297	98.44
641.502	70.44
641.707	82.44
641.913	95.44
642.118	75.44
642.323	81.44
642.528	79.44
642.733	70.44
642.939	97.44
643.144	82.44
643.349	77.44
643.554	81.44
643.759	80.44
643.964	74.44
644.169	83.44
644.374	83.44
644.579	94.44
644.784	75.44
644.989	86.44
645.194	86.44
645.399	84.44
645.604	83.44
645.809	84.44
646.014	83.44
646.219	88.44
646.423	87.44
646.628	81.44
646.833	105.44
647.038	84.44
647.243	90.44
647.447	83.44
647.652	84.44
647.857	84.44
648.062	95.44
648.266	91.44
648.471	76.44
648.676	91.44
648.88	87.44
649.085	91.44
649.289	83.44
649.494	99.44
649.698	84.44
649.903	92.44
650.107	85.44
650.312	75.44
650.516	93.44
650.721	90.44
650.925	84.44
651.13	81.44
651.334	81.44
651.539	88.44
651.743	79.44
651.947	83.44
652.152	88.44
652.356	96.44
652.56	93.44
652.764	80.44
652.969	84.44
653.173	108.44
653.377	75.44
653.581	77.44
653.785	79.44
653.99	89.44
654.194	90.44
654.398	91.44
654.602	92.44
654.806	90.44
655.01	73.44
655.214	99.44
655.418	88.44
655.622	87.44
655.826	90.44
656.03	94.44
656.234	95.44
656.438	95.44
656.642	78.44
656.846	80.44
657.049	78.44
657.253	81.44
657.457	73.44
657.661	76.44
657.865	86.44
658.068	82.44
658.272	79.44
658.476	69.44
658.68	90.44
658.883	88.44
659.087	76.44
659.291	81.44
659.494	85.44
659.698	89.44
659.901	76.44
660.105	75.44
660.309	84.44
660.512	75.44
660.716	69.44
660.919	87.44
661.123	97.44
661.326	91.44
661.53	84.44
661.733	107.44
661.936	92.44
662.14	82.44
662.343	81.44
662.546	72.44
662.75	95.44
662.953	80.44
663.156	94.44
663.36	95.44
663.563	90.44
663.766	70.44
663.969	78.44
664.173	73.44
664.376	74.44
664.579	70.44
664.782	72.44
664.985	69.44
665.188	85.44
665.391	84.44
665.594	75.44
665.797	93.44
666	75.44
666.203	79.44
666.406	79.44
666.609	88.44
666.812	69.44
667.015	77.44
667.218	79.44
667.421	85.44
667.624	76.44
667.827	77.44
668.03	90.44
668.232	91.44
668.435	72.44
668.638	77.44
668.841	82.44
669.043	66.44
669.246	83.44
669.449	93.44
669.651	82.44
669.854	86.44
670.057	88.44
670.259	94.44
670.462	87.44
670.665	92.44
670.867	84.44
671.07	84.44
671.272	99.44
671.475	89.44
671.677	86.44
671.88	84.44
672.082	89.44
672.284	99.44
672.487	80.44
672.689	65.44
672.892	81.44
