Data from KBr_4_HRD10591_00009.txt Node
Date: Mon Jan 19 13:25:32 EST 2026
User: Yrep
Spectrometer: HR+D1059
Trigger mode: 0
Integration Time (sec): 1.000000E-1
Scans to average: 1
Electric dark correction enabled: true
Nonlinearity correction enabled: false
Boxcar width: 0
XAxis mode: Wavelengths
Number of Pixels in Spectrum: 2048
>>>>>Begin Spectral Data<<<<<
223.165	-12.06
223.4	-12.06
223.635	-12.06
223.869	-31.06
224.104	-11.06
224.338	-21.06
224.573	-17.06
224.808	-0.06
225.042	-12.06
225.277	-11.06
225.511	-4.06
225.746	3.94
225.98	9.94
226.215	6.94
226.449	19.94
226.683	14.94
226.918	19.94
227.152	43.94
227.387	30.94
227.621	33.94
227.856	41.94
228.09	43.94
228.324	55.94
228.559	56.94
228.793	53.94
229.027	66.94
229.262	78.94
229.496	67.94
229.73	75.94
229.964	72.94
230.199	78.94
230.433	70.94
230.667	89.94
230.901	83.94
231.136	88.94
231.37	91.94
231.604	99.94
231.838	86.94
232.072	79.94
232.306	109.94
232.541	81.94
232.775	99.94
233.009	88.94
233.243	94.94
233.477	76.94
233.711	95.94
233.945	96.94
234.179	82.94
234.413	73.94
234.647	104.94
234.881	90.94
235.115	91.94
235.349	76.94
235.583	82.94
235.817	94.94
236.051	99.94
236.285	97.94
236.519	99.94
236.753	93.94
236.987	104.94
237.221	94.94
237.455	96.94
237.689	80.94
237.922	107.94
238.156	93.94
238.39	77.94
238.624	95.94
238.858	98.94
239.091	79.94
239.325	96.94
239.559	99.94
239.793	107.94
240.027	93.94
240.26	91.94
240.494	95.94
240.728	90.94
240.961	101.94
241.195	101.94
241.429	99.94
241.662	96.94
241.896	83.94
242.13	97.94
242.363	81.94
242.597	100.94
242.83	89.94
243.064	101.94
243.298	89.94
243.531	96.94
243.765	92.94
243.998	94.94
244.232	84.94
244.465	98.94
244.699	90.94
244.932	93.94
245.166	87.94
245.399	81.94
245.633	78.94
245.866	100.94
246.099	92.94
246.333	116.94
246.566	96.94
246.8	110.94
247.033	97.94
247.266	91.94
247.5	89.94
247.733	100.94
247.966	98.94
248.2	97.94
248.433	95.94
248.666	99.94
248.899	86.94
249.133	108.94
249.366	110.94
249.599	93.94
249.832	95.94
250.066	109.94
250.299	105.94
250.532	107.94
250.765	103.94
250.998	105.94
251.231	101.94
251.465	97.94
251.698	95.94
251.931	105.94
252.164	96.94
252.397	106.94
252.63	107.94
252.863	111.94
253.096	102.94
253.329	111.94
253.562	105.94
253.795	126.94
254.028	113.94
254.261	114.94
254.494	96.94
254.727	110.94
254.96	111.94
255.193	115.94
255.426	96.94
255.659	109.94
255.892	121.94
256.124	113.94
256.357	121.94
256.59	118.94
256.823	110.94
257.056	122.94
257.289	121.94
257.521	114.94
257.754	105.94
257.987	116.94
258.22	120.94
258.452	119.94
258.685	109.94
258.918	106.94
259.151	115.94
259.383	111.94
259.616	106.94
259.849	109.94
260.081	122.94
260.314	123.94
260.547	117.94
260.779	115.94
261.012	129.94
261.244	127.94
261.477	134.94
261.71	121.94
261.942	130.94
262.175	145.94
262.407	140.94
262.64	125.94
262.872	116.94
263.105	127.94
263.337	118.94
263.57	126.94
263.802	117.94
264.035	127.94
264.267	125.94
264.499	114.94
264.732	119.94
264.964	136.94
265.197	116.94
265.429	126.94
265.661	124.94
265.894	134.94
266.126	122.94
266.358	112.94
266.591	129.94
266.823	112.94
267.055	107.94
267.287	126.94
267.52	137.94
267.752	138.94
267.984	130.94
268.216	134.94
268.448	131.94
268.681	131.94
268.913	127.94
269.145	125.94
269.377	137.94
269.609	128.94
269.841	134.94
270.073	150.94
270.306	132.94
270.538	134.94
270.77	130.94
271.002	145.94
271.234	129.94
271.466	150.94
271.698	138.94
271.93	155.94
272.162	138.94
272.394	142.94
272.626	134.94
272.858	151.94
273.09	137.94
273.322	151.94
273.553	125.94
273.785	135.94
274.017	135.94
274.249	147.94
274.481	158.94
274.713	138.94
274.945	141.94
275.176	145.94
275.408	151.94
275.64	153.94
275.872	144.94
276.104	151.94
276.335	151.94
276.567	161.94
276.799	156.94
277.031	148.94
277.262	137.94
277.494	157.94
277.726	155.94
277.957	159.94
278.189	150.94
278.421	144.94
278.652	152.94
278.884	149.94
279.115	152.94
279.347	163.94
279.579	152.94
279.81	162.94
280.042	154.94
280.273	158.94
280.505	152.94
280.736	150.94
280.968	164.94
281.199	153.94
281.431	171.94
281.662	158.94
281.894	158.94
282.125	149.94
282.356	167.94
282.588	167.94
282.819	155.94
283.051	158.94
283.282	173.94
283.513	159.94
283.745	154.94
283.976	169.94
284.207	158.94
284.439	175.94
284.67	161.94
284.901	168.94
285.132	173.94
285.364	188.94
285.595	159.94
285.826	165.94
286.057	159.94
286.288	170.94
286.52	176.94
286.751	161.94
286.982	160.94
287.213	164.94
287.444	158.94
287.675	171.94
287.906	169.94
288.138	181.94
288.369	169.94
288.6	169.94
288.831	180.94
289.062	176.94
289.293	166.94
289.524	184.94
289.755	179.94
289.986	169.94
290.217	161.94
290.448	170.94
290.679	176.94
290.91	180.94
291.141	183.94
291.371	169.94
291.602	173.94
291.833	179.94
292.064	162.94
292.295	183.94
292.526	173.94
292.757	192.94
292.987	180.94
293.218	187.94
293.449	180.94
293.68	196.94
293.91	176.94
294.141	175.94
294.372	193.94
294.603	181.94
294.833	184.94
295.064	200.94
295.295	196.94
295.525	195.94
295.756	186.94
295.987	190.94
296.217	177.94
296.448	192.94
296.679	198.94
296.909	185.94
297.14	193.94
297.37	182.94
297.601	203.94
297.831	202.94
298.062	211.94
298.292	199.94
298.523	204.94
298.753	194.94
298.984	184.94
299.214	187.94
299.445	187.94
299.675	199.94
299.905	186.94
300.136	203.94
300.366	198.94
300.597	200.94
300.827	206.94
301.057	182.94
301.288	200.94
301.518	188.94
301.748	198.94
301.979	209.94
302.209	208.94
302.439	198.94
302.669	199.94
302.9	187.94
303.13	208.94
303.36	199.94
303.59	208.94
303.82	214.94
304.051	213.94
304.281	201.94
304.511	200.94
304.741	199.94
304.971	196.94
305.201	197.94
305.431	194.94
305.661	203.94
305.891	185.94
306.121	202.94
306.352	200.94
306.582	209.94
306.812	215.94
307.042	209.94
307.272	201.94
307.502	206.94
307.731	207.94
307.961	203.94
308.191	201.94
308.421	206.94
308.651	210.94
308.881	220.94
309.111	203.94
309.341	200.94
309.571	221.94
309.8	221.94
310.03	216.94
310.26	206.94
310.49	194.94
310.72	210.94
310.949	216.94
311.179	213.94
311.409	203.94
311.639	201.94
311.868	212.94
312.098	214.94
312.328	220.94
312.557	232.94
312.787	226.94
313.017	225.94
313.246	213.94
313.476	225.94
313.706	230.94
313.935	226.94
314.165	219.94
314.394	229.94
314.624	214.94
314.853	221.94
315.083	226.94
315.312	240.94
315.542	226.94
315.771	209.94
316.001	227.94
316.23	226.94
316.46	235.94
316.689	221.94
316.919	233.94
317.148	227.94
317.377	215.94
317.607	224.94
317.836	249.94
318.065	229.94
318.295	240.94
318.524	228.94
318.753	236.94
318.983	244.94
319.212	229.94
319.441	227.94
319.67	230.94
319.9	227.94
320.129	237.94
320.358	236.94
320.587	237.94
320.816	224.94
321.046	235.94
321.275	227.94
321.504	241.94
321.733	235.94
321.962	239.94
322.191	236.94
322.42	224.94
322.649	232.94
322.878	248.94
323.108	240.94
323.337	237.94
323.566	233.94
323.795	253.94
324.024	229.94
324.253	229.94
324.482	237.94
324.71	246.94
324.939	243.94
325.168	232.94
325.397	250.94
325.626	225.94
325.855	237.94
326.084	250.94
326.313	226.94
326.542	238.94
326.77	258.94
326.999	246.94
327.228	238.94
327.457	240.94
327.686	266.94
327.914	248.94
328.143	252.94
328.372	251.94
328.6	248.94
328.829	251.94
329.058	234.94
329.287	250.94
329.515	252.94
329.744	288.94
329.972	278.94
330.201	301.94
330.43	309.94
330.658	272.94
330.887	259.94
331.115	246.94
331.344	249.94
331.572	262.94
331.801	256.94
332.03	276.94
332.258	267.94
332.486	254.94
332.715	280.94
332.943	276.94
333.172	273.94
333.4	267.94
333.629	279.94
333.857	295.94
334.085	281.94
334.314	287.94
334.542	280.94
334.771	280.94
334.999	287.94
335.227	275.94
335.455	285.94
335.684	287.94
335.912	287.94
336.14	278.94
336.369	282.94
336.597	280.94
336.825	277.94
337.053	273.94
337.281	285.94
337.51	293.94
337.738	277.94
337.966	283.94
338.194	296.94
338.422	287.94
338.65	273.94
338.878	288.94
339.106	270.94
339.334	286.94
339.562	278.94
339.79	288.94
340.018	274.94
340.246	263.94
340.474	280.94
340.702	273.94
340.93	269.94
341.158	294.94
341.386	279.94
341.614	267.94
341.842	296.94
342.07	278.94
342.298	272.94
342.526	273.94
342.754	280.94
342.981	277.94
343.209	275.94
343.437	273.94
343.665	270.94
343.893	289.94
344.12	271.94
344.348	307.94
344.576	327.94
344.804	331.94
345.031	312.94
345.259	283.94
345.487	262.94
345.714	290.94
345.942	257.94
346.17	274.94
346.397	275.94
346.625	283.94
346.853	278.94
347.08	272.94
347.308	258.94
347.535	265.94
347.763	263.94
347.99	262.94
348.218	253.94
348.445	264.94
348.673	262.94
348.9	271.94
349.128	248.94
349.355	265.94
349.583	264.94
349.81	263.94
350.037	265.94
350.265	249.94
350.492	246.94
350.72	263.94
350.947	269.94
351.174	267.94
351.402	272.94
351.629	285.94
351.856	253.94
352.083	257.94
352.311	265.94
352.538	264.94
352.765	276.94
352.992	271.94
353.22	287.94
353.447	277.94
353.674	269.94
353.901	271.94
354.128	285.94
354.355	254.94
354.583	275.94
354.81	268.94
355.037	270.94
355.264	272.94
355.491	249.94
355.718	281.94
355.945	258.94
356.172	266.94
356.399	271.94
356.626	286.94
356.853	294.94
357.08	287.94
357.307	267.94
357.534	273.94
357.761	275.94
357.988	251.94
358.215	269.94
358.441	273.94
358.668	263.94
358.895	279.94
359.122	249.94
359.349	267.94
359.576	258.94
359.802	266.94
360.029	251.94
360.256	254.94
360.483	264.94
360.709	257.94
360.936	243.94
361.163	269.94
361.39	262.94
361.616	243.94
361.843	256.94
362.07	272.94
362.296	269.94
362.523	264.94
362.749	274.94
362.976	274.94
363.203	271.94
363.429	270.94
363.656	267.94
363.882	291.94
364.109	262.94
364.335	286.94
364.562	273.94
364.788	267.94
365.015	274.94
365.241	262.94
365.468	277.94
365.694	269.94
365.92	269.94
366.147	271.94
366.373	258.94
366.599	281.94
366.826	258.94
367.052	263.94
367.278	263.94
367.505	283.94
367.731	266.94
367.957	274.94
368.184	276.94
368.41	273.94
368.636	263.94
368.862	282.94
369.089	272.94
369.315	287.94
369.541	279.94
369.767	277.94
369.993	276.94
370.219	265.94
370.445	271.94
370.672	302.94
370.898	285.94
371.124	299.94
371.35	296.94
371.576	264.94
371.802	285.94
372.028	295.94
372.254	280.94
372.48	281.94
372.706	276.94
372.932	280.94
373.158	277.94
373.384	274.94
373.61	295.94
373.835	294.94
374.061	284.94
374.287	305.94
374.513	286.94
374.739	277.94
374.965	293.94
375.191	311.94
375.416	306.94
375.642	313.94
375.868	297.94
376.094	289.94
376.319	311.94
376.545	295.94
376.771	280.94
376.997	295.94
377.222	297.94
377.448	285.94
377.674	295.94
377.899	297.94
378.125	298.94
378.35	277.94
378.576	280.94
378.802	301.94
379.027	305.94
379.253	301.94
379.478	291.94
379.704	294.94
379.929	276.94
380.155	315.94
380.38	305.94
380.606	293.94
380.831	295.94
381.057	301.94
381.282	293.94
381.507	281.94
381.733	314.94
381.958	311.94
382.184	294.94
382.409	286.94
382.634	288.94
382.86	299.94
383.085	307.94
383.31	292.94
383.535	310.94
383.761	328.94
383.986	320.94
384.211	318.94
384.436	327.94
384.662	313.94
384.887	317.94
385.112	326.94
385.337	307.94
385.562	331.94
385.787	322.94
386.013	348.94
386.238	328.94
386.463	317.94
386.688	323.94
386.913	314.94
387.138	317.94
387.363	338.94
387.588	327.94
387.813	333.94
388.038	318.94
388.263	344.94
388.488	317.94
388.713	324.94
388.938	321.94
389.163	352.94
389.387	346.94
389.612	331.94
389.837	357.94
390.062	335.94
390.287	339.94
390.512	330.94
390.736	344.94
390.961	347.94
391.186	336.94
391.411	349.94
391.636	351.94
391.86	365.94
392.085	357.94
392.31	364.94
392.534	351.94
392.759	361.94
392.984	362.94
393.208	361.94
393.433	357.94
393.658	349.94
393.882	367.94
394.107	360.94
394.331	361.94
394.556	351.94
394.78	370.94
395.005	362.94
395.229	367.94
395.454	368.94
395.678	361.94
395.903	376.94
396.127	355.94
396.352	364.94
396.576	371.94
396.801	370.94
397.025	369.94
397.249	357.94
397.474	363.94
397.698	383.94
397.922	396.94
398.147	355.94
398.371	374.94
398.595	378.94
398.82	383.94
399.044	389.94
399.268	388.94
399.492	418.94
399.717	427.94
399.941	424.94
400.165	422.94
400.389	417.94
400.613	393.94
400.837	407.94
401.062	398.94
401.286	387.94
401.51	382.94
401.734	374.94
401.958	377.94
402.182	429.94
402.406	371.94
402.63	395.94
402.854	413.94
403.078	380.94
403.302	396.94
403.526	396.94
403.75	422.94
403.974	467.94
404.198	571.94
404.422	788.94
404.645	948.94
404.869	800.94
405.093	609.94
405.317	493.94
405.541	444.94
405.765	415.94
405.988	417.94
406.212	400.94
406.436	398.94
406.66	413.94
406.883	379.94
407.107	402.94
407.331	407.94
407.555	398.94
407.778	406.94
408.002	406.94
408.226	399.94
408.449	413.94
408.673	416.94
408.896	404.94
409.12	403.94
409.344	393.94
409.567	397.94
409.791	371.94
410.014	371.94
410.238	403.94
410.461	397.94
410.685	387.94
410.908	395.94
411.132	395.94
411.355	396.94
411.578	387.94
411.802	386.94
412.025	381.94
412.249	383.94
412.472	398.94
412.695	388.94
412.919	376.94
413.142	383.94
413.365	393.94
413.589	374.94
413.812	373.94
414.035	377.94
414.258	384.94
414.482	377.94
414.705	380.94
414.928	361.94
415.151	356.94
415.374	381.94
415.597	366.94
415.821	367.94
416.044	376.94
416.267	376.94
416.49	362.94
416.713	371.94
416.936	369.94
417.159	376.94
417.382	379.94
417.605	366.94
417.828	384.94
418.051	389.94
418.274	405.94
418.497	400.94
418.72	406.94
418.943	379.94
419.166	393.94
419.389	426.94
419.611	408.94
419.834	389.94
420.057	378.94
420.28	386.94
420.503	357.94
420.726	375.94
420.948	358.94
421.171	368.94
421.394	362.94
421.617	373.94
421.839	367.94
422.062	361.94
422.285	387.94
422.507	399.94
422.73	369.94
422.953	379.94
423.175	368.94
423.398	366.94
423.621	387.94
423.843	386.94
424.066	375.94
424.288	378.94
424.511	389.94
424.733	383.94
424.956	355.94
425.178	375.94
425.401	378.94
425.623	375.94
425.846	355.94
426.068	375.94
426.291	366.94
426.513	384.94
426.735	370.94
426.958	395.94
427.18	385.94
427.402	368.94
427.625	363.94
427.847	357.94
428.069	355.94
428.292	359.94
428.514	361.94
428.736	349.94
428.958	371.94
429.181	344.94
429.403	373.94
429.625	374.94
429.847	363.94
430.069	355.94
430.292	366.94
430.514	349.94
430.736	381.94
430.958	361.94
431.18	337.94
431.402	361.94
431.624	336.94
431.846	322.94
432.068	317.94
432.29	308.94
432.512	339.94
432.734	350.94
432.956	367.94
433.178	342.94
433.4	354.94
433.622	352.94
433.844	361.94
434.066	344.94
434.287	313.94
434.509	320.94
434.731	342.94
434.953	353.94
435.175	346.94
435.397	337.94
435.618	326.94
435.84	339.94
436.062	364.94
436.284	349.94
436.505	348.94
436.727	366.94
436.949	375.94
437.17	356.94
437.392	350.94
437.614	340.94
437.835	313.94
438.057	333.94
438.278	319.94
438.5	354.94
438.721	351.94
438.943	352.94
439.165	337.94
439.386	359.94
439.608	356.94
439.829	349.94
440.05	336.94
440.272	353.94
440.493	356.94
440.715	343.94
440.936	353.94
441.158	384.94
441.379	353.94
441.6	353.94
441.822	363.94
442.043	389.94
442.264	357.94
442.486	363.94
442.707	368.94
442.928	361.94
443.149	357.94
443.371	350.94
443.592	345.94
443.813	381.94
444.034	375.94
444.255	358.94
444.476	369.94
444.698	377.94
444.919	362.94
445.14	437.94
445.361	409.94
445.582	371.94
445.803	376.94
446.024	365.94
446.245	361.94
446.466	366.94
446.687	375.94
446.908	371.94
447.129	369.94
447.35	358.94
447.571	359.94
447.792	354.94
448.013	345.94
448.234	352.94
448.455	369.94
448.675	347.94
448.896	343.94
449.117	331.94
449.338	341.94
449.559	327.94
449.779	345.94
450	329.94
450.221	324.94
450.442	355.94
450.662	324.94
450.883	336.94
451.104	329.94
451.324	325.94
451.545	320.94
451.766	327.94
451.986	328.94
452.207	327.94
452.428	347.94
452.648	327.94
452.869	297.94
453.089	315.94
453.31	309.94
453.53	302.94
453.751	306.94
453.971	311.94
454.192	295.94
454.412	330.94
454.633	302.94
454.853	312.94
455.073	309.94
455.294	301.94
455.514	320.94
455.734	301.94
455.955	309.94
456.175	320.94
456.395	313.94
456.616	297.94
456.836	288.94
457.056	309.94
457.276	304.94
457.497	299.94
457.717	293.94
457.937	299.94
458.157	301.94
458.377	311.94
458.598	311.94
458.818	304.94
459.038	326.94
459.258	302.94
459.478	319.94
459.698	311.94
459.918	321.94
460.138	326.94
460.358	351.94
460.578	339.94
460.798	348.94
461.018	330.94
461.238	337.94
461.458	343.94
461.678	329.94
461.898	343.94
462.118	330.94
462.338	354.94
462.558	353.94
462.777	365.94
462.997	362.94
463.217	375.94
463.437	376.94
463.657	367.94
463.876	354.94
464.096	383.94
464.316	359.94
464.536	363.94
464.755	364.94
464.975	365.94
465.195	343.94
465.414	354.94
465.634	336.94
465.854	353.94
466.073	330.94
466.293	357.94
466.512	361.94
466.732	360.94
466.951	362.94
467.171	366.94
467.391	362.94
467.61	353.94
467.829	367.94
468.049	378.94
468.268	367.94
468.488	375.94
468.707	360.94
468.927	382.94
469.146	382.94
469.365	376.94
469.585	387.94
469.804	385.94
470.023	386.94
470.243	385.94
470.462	433.94
470.681	435.94
470.901	415.94
471.12	402.94
471.339	396.94
471.558	392.94
471.777	375.94
471.997	391.94
472.216	365.94
472.435	341.94
472.654	347.94
472.873	362.94
473.092	343.94
473.311	360.94
473.53	374.94
473.749	377.94
473.968	364.94
474.187	367.94
474.406	365.94
474.625	368.94
474.844	370.94
475.063	349.94
475.282	371.94
475.501	354.94
475.72	362.94
475.939	368.94
476.158	367.94
476.377	358.94
476.596	379.94
476.814	379.94
477.033	371.94
477.252	370.94
477.471	407.94
477.69	410.94
477.908	419.94
478.127	431.94
478.346	429.94
478.564	449.94
478.783	449.94
479.002	450.94
479.22	439.94
479.439	417.94
479.658	391.94
479.876	391.94
480.095	390.94
480.313	414.94
480.532	408.94
480.751	410.94
480.969	392.94
481.188	391.94
481.406	396.94
481.624	409.94
481.843	377.94
482.061	399.94
482.28	403.94
482.498	387.94
482.717	385.94
482.935	414.94
483.153	415.94
483.372	427.94
483.59	406.94
483.808	400.94
484.027	406.94
484.245	408.94
484.463	413.94
484.681	419.94
484.9	394.94
485.118	401.94
485.336	390.94
485.554	382.94
485.772	394.94
485.99	400.94
486.209	390.94
486.427	370.94
486.645	396.94
486.863	406.94
487.081	426.94
487.299	411.94
487.517	413.94
487.735	422.94
487.953	421.94
488.171	443.94
488.389	426.94
488.607	423.94
488.825	427.94
489.043	406.94
489.261	397.94
489.479	407.94
489.696	445.94
489.914	413.94
490.132	422.94
490.35	436.94
490.568	433.94
490.786	451.94
491.003	454.94
491.221	464.94
491.439	461.94
491.657	457.94
491.874	482.94
492.092	507.94
492.31	515.94
492.527	494.94
492.745	491.94
492.963	495.94
493.18	513.94
493.398	482.94
493.615	494.94
493.833	478.94
494.05	482.94
494.268	489.94
494.485	479.94
494.703	464.94
494.92	471.94
495.138	442.94
495.355	481.94
495.573	469.94
495.79	475.94
496.008	459.94
496.225	475.94
496.442	474.94
496.66	472.94
496.877	473.94
497.094	479.94
497.312	453.94
497.529	485.94
497.746	450.94
497.963	442.94
498.181	479.94
498.398	464.94
498.615	473.94
498.832	497.94
499.049	507.94
499.267	500.94
499.484	515.94
499.701	555.94
499.918	546.94
500.135	567.94
500.352	595.94
500.569	569.94
500.786	573.94
501.003	565.94
501.22	541.94
501.437	546.94
501.654	524.94
501.871	501.94
502.088	501.94
502.305	475.94
502.522	477.94
502.739	482.94
502.956	465.94
503.172	462.94
503.389	443.94
503.606	443.94
503.823	449.94
504.04	448.94
504.256	447.94
504.473	438.94
504.69	435.94
504.907	424.94
505.123	409.94
505.34	383.94
505.557	406.94
505.773	415.94
505.99	414.94
506.207	413.94
506.423	393.94
506.64	391.94
506.856	389.94
507.073	385.94
507.289	409.94
507.506	376.94
507.722	401.94
507.939	383.94
508.155	370.94
508.372	375.94
508.588	381.94
508.805	361.94
509.021	359.94
509.238	376.94
509.454	367.94
509.67	368.94
509.887	354.94
510.103	358.94
510.319	367.94
510.536	370.94
510.752	352.94
510.968	361.94
511.184	365.94
511.401	355.94
511.617	353.94
511.833	372.94
512.049	357.94
512.265	346.94
512.481	361.94
512.698	353.94
512.914	329.94
513.13	353.94
513.346	353.94
513.562	351.94
513.778	351.94
513.994	363.94
514.21	353.94
514.426	367.94
514.642	344.94
514.858	360.94
515.074	370.94
515.29	367.94
515.506	341.94
515.721	380.94
515.937	353.94
516.153	355.94
516.369	366.94
516.585	380.94
516.801	368.94
517.016	399.94
517.232	354.94
517.448	396.94
517.664	406.94
517.879	407.94
518.095	405.94
518.311	394.94
518.527	397.94
518.742	392.94
518.958	397.94
519.173	381.94
519.389	395.94
519.605	385.94
519.82	373.94
520.036	373.94
520.251	361.94
520.467	369.94
520.682	337.94
520.898	341.94
521.113	319.94
521.329	348.94
521.544	362.94
521.76	351.94
521.975	358.94
522.19	360.94
522.406	335.94
522.621	361.94
522.836	352.94
523.052	363.94
523.267	335.94
523.482	365.94
523.698	347.94
523.913	360.94
524.128	361.94
524.343	364.94
524.559	360.94
524.774	348.94
524.989	379.94
525.204	361.94
525.419	363.94
525.634	347.94
525.849	345.94
526.064	350.94
526.28	317.94
526.495	343.94
526.71	334.94
526.925	321.94
527.14	316.94
527.355	318.94
527.57	320.94
527.785	349.94
527.999	336.94
528.214	329.94
528.429	326.94
528.644	345.94
528.859	353.94
529.074	341.94
529.289	354.94
529.503	374.94
529.718	341.94
529.933	326.94
530.148	321.94
530.363	342.94
530.577	341.94
530.792	323.94
531.007	309.94
531.221	339.94
531.436	340.94
531.651	351.94
531.865	322.94
532.08	327.94
532.295	345.94
532.509	324.94
532.724	350.94
532.938	350.94
533.153	351.94
533.367	372.94
533.582	369.94
533.796	363.94
534.011	364.94
534.225	353.94
534.44	351.94
534.654	345.94
534.868	362.94
535.083	360.94
535.297	367.94
535.511	349.94
535.726	352.94
535.94	334.94
536.154	353.94
536.369	326.94
536.583	343.94
536.797	345.94
537.011	344.94
537.225	325.94
537.44	328.94
537.654	321.94
537.868	315.94
538.082	323.94
538.296	329.94
538.51	329.94
538.724	331.94
538.938	313.94
539.153	334.94
539.367	323.94
539.581	335.94
539.795	310.94
540.009	318.94
540.222	303.94
540.436	307.94
540.65	306.94
540.864	330.94
541.078	332.94
541.292	324.94
541.506	342.94
541.72	349.94
541.934	355.94
542.147	380.94
542.361	363.94
542.575	337.94
542.789	330.94
543.002	322.94
543.216	323.94
543.43	337.94
543.644	340.94
543.857	336.94
544.071	333.94
544.285	350.94
544.498	352.94
544.712	348.94
544.925	354.94
545.139	343.94
545.352	350.94
545.566	347.94
545.779	355.94
545.993	348.94
546.206	353.94
546.42	359.94
546.633	345.94
546.847	343.94
547.06	352.94
547.274	349.94
547.487	350.94
547.7	354.94
547.914	337.94
548.127	347.94
548.34	346.94
548.554	342.94
548.767	352.94
548.98	353.94
549.193	358.94
549.407	350.94
549.62	342.94
549.833	346.94
550.046	338.94
550.259	343.94
550.473	334.94
550.686	341.94
550.899	350.94
551.112	339.94
551.325	326.94
551.538	327.94
551.751	314.94
551.964	331.94
552.177	313.94
552.39	315.94
552.603	326.94
552.816	324.94
553.029	343.94
553.242	339.94
553.455	358.94
553.667	323.94
553.88	364.94
554.093	329.94
554.306	317.94
554.519	330.94
554.732	314.94
554.944	317.94
555.157	317.94
555.37	306.94
555.583	325.94
555.795	309.94
556.008	308.94
556.221	313.94
556.433	306.94
556.646	305.94
556.859	309.94
557.071	324.94
557.284	304.94
557.496	298.94
557.709	297.94
557.921	307.94
558.134	301.94
558.346	315.94
558.559	311.94
558.771	297.94
558.984	297.94
559.196	287.94
559.409	291.94
559.621	300.94
559.833	283.94
560.046	291.94
560.258	283.94
560.47	294.94
560.683	293.94
560.895	277.94
561.107	305.94
561.32	284.94
561.532	277.94
561.744	295.94
561.956	289.94
562.168	295.94
562.381	288.94
562.593	304.94
562.805	278.94
563.017	288.94
563.229	288.94
563.441	272.94
563.653	283.94
563.865	275.94
564.077	273.94
564.289	288.94
564.501	259.94
564.713	290.94
564.925	289.94
565.137	274.94
565.349	296.94
565.561	289.94
565.773	299.94
565.985	293.94
566.197	281.94
566.408	305.94
566.62	314.94
566.832	323.94
567.044	312.94
567.255	305.94
567.467	320.94
567.679	324.94
567.891	286.94
568.102	303.94
568.314	301.94
568.526	294.94
568.737	293.94
568.949	300.94
569.161	309.94
569.372	303.94
569.584	291.94
569.795	287.94
570.007	283.94
570.218	279.94
570.43	275.94
570.641	251.94
570.853	257.94
571.064	266.94
571.276	266.94
571.487	269.94
571.698	247.94
571.91	257.94
572.121	251.94
572.333	263.94
572.544	248.94
572.755	230.94
572.966	221.94
573.178	233.94
573.389	227.94
573.6	232.94
573.811	239.94
574.023	230.94
574.234	229.94
574.445	224.94
574.656	227.94
574.867	226.94
575.078	222.94
575.289	229.94
575.501	232.94
575.712	223.94
575.923	241.94
576.134	224.94
576.345	222.94
576.556	232.94
576.767	233.94
576.978	229.94
577.188	222.94
577.399	232.94
577.61	225.94
577.821	229.94
578.032	223.94
578.243	232.94
578.454	251.94
578.665	283.94
578.875	264.94
579.086	256.94
579.297	231.94
579.508	228.94
579.718	233.94
579.929	242.94
580.14	256.94
580.35	292.94
580.561	307.94
580.772	307.94
580.982	283.94
581.193	295.94
581.403	274.94
581.614	265.94
581.825	250.94
582.035	249.94
582.246	238.94
582.456	217.94
582.667	244.94
582.877	231.94
583.087	231.94
583.298	256.94
583.508	271.94
583.719	261.94
583.929	241.94
584.139	233.94
584.35	210.94
584.56	233.94
584.77	222.94
584.981	221.94
585.191	234.94
585.401	217.94
585.611	223.94
585.821	226.94
586.032	219.94
586.242	224.94
586.452	232.94
586.662	238.94
586.872	222.94
587.082	248.94
587.292	251.94
587.502	271.94
587.713	263.94
587.923	285.94
588.133	326.94
588.343	349.94
588.553	457.94
588.762	666.94
588.972	1326.94
589.182	2210.94
589.392	2000.94
589.602	1507.94
589.812	2096.94
590.022	1394.94
590.232	675.94
590.441	454.94
590.651	351.94
590.861	309.94
591.071	273.94
591.281	275.94
591.49	255.94
591.7	231.94
591.91	240.94
592.119	221.94
592.329	218.94
592.539	214.94
592.748	216.94
592.958	201.94
593.167	209.94
593.377	216.94
593.587	217.94
593.796	205.94
594.006	187.94
594.215	185.94
594.424	201.94
594.634	203.94
594.843	213.94
595.053	205.94
595.262	206.94
595.472	204.94
595.681	195.94
595.89	187.94
596.1	177.94
596.309	191.94
596.518	189.94
596.727	201.94
596.937	170.94
597.146	176.94
597.355	173.94
597.564	167.94
597.774	194.94
597.983	188.94
598.192	182.94
598.401	186.94
598.61	190.94
598.819	187.94
599.028	179.94
599.237	188.94
599.446	188.94
599.655	183.94
599.864	166.94
600.073	182.94
600.282	176.94
600.491	184.94
600.7	181.94
600.909	185.94
601.118	192.94
601.327	195.94
601.536	175.94
601.745	189.94
601.953	188.94
602.162	179.94
602.371	177.94
602.58	177.94
602.789	183.94
602.997	190.94
603.206	183.94
603.415	200.94
603.623	189.94
603.832	183.94
604.041	194.94
604.249	180.94
604.458	173.94
604.666	173.94
604.875	160.94
605.084	169.94
605.292	173.94
605.501	180.94
605.709	171.94
605.918	189.94
606.126	193.94
606.334	180.94
606.543	184.94
606.751	190.94
606.96	170.94
607.168	188.94
607.376	176.94
607.585	182.94
607.793	194.94
608.001	170.94
608.21	166.94
608.418	167.94
608.626	170.94
608.834	192.94
609.043	187.94
609.251	177.94
609.459	167.94
609.667	177.94
609.875	174.94
610.083	179.94
610.291	166.94
610.499	169.94
610.707	169.94
610.916	179.94
611.124	165.94
611.332	181.94
611.54	183.94
611.748	186.94
611.955	182.94
612.163	185.94
612.371	184.94
612.579	178.94
612.787	190.94
612.995	170.94
613.203	178.94
613.411	167.94
613.618	182.94
613.826	174.94
614.034	184.94
614.242	185.94
614.449	186.94
614.657	176.94
614.865	168.94
615.072	187.94
615.28	170.94
615.488	176.94
615.695	162.94
615.903	175.94
616.111	181.94
616.318	185.94
616.526	196.94
616.733	170.94
616.941	165.94
617.148	188.94
617.356	177.94
617.563	173.94
617.771	176.94
617.978	159.94
618.185	172.94
618.393	155.94
618.6	163.94
618.807	182.94
619.015	175.94
619.222	159.94
619.429	156.94
619.637	181.94
619.844	162.94
620.051	152.94
620.258	165.94
620.466	159.94
620.673	159.94
620.88	147.94
621.087	175.94
621.294	155.94
621.501	153.94
621.708	147.94
621.915	170.94
622.122	159.94
622.329	161.94
622.536	156.94
622.743	175.94
622.95	154.94
623.157	153.94
623.364	151.94
623.571	153.94
623.778	166.94
623.985	165.94
624.192	162.94
624.399	165.94
624.606	169.94
624.812	153.94
625.019	156.94
625.226	158.94
625.433	136.94
625.639	153.94
625.846	145.94
626.053	142.94
626.259	163.94
626.466	154.94
626.673	129.94
626.879	143.94
627.086	146.94
627.293	140.94
627.499	153.94
627.706	167.94
627.912	144.94
628.119	144.94
628.325	155.94
628.532	141.94
628.738	139.94
628.945	158.94
629.151	151.94
629.357	162.94
629.564	152.94
629.77	139.94
629.976	143.94
630.183	139.94
630.389	149.94
630.595	139.94
630.802	153.94
631.008	140.94
631.214	150.94
631.42	141.94
631.627	149.94
631.833	149.94
632.039	156.94
632.245	154.94
632.451	157.94
632.657	146.94
632.863	136.94
633.069	112.94
633.275	136.94
633.481	149.94
633.688	145.94
633.893	124.94
634.099	159.94
634.305	142.94
634.511	140.94
634.717	141.94
634.923	143.94
635.129	134.94
635.335	129.94
635.541	139.94
635.747	133.94
635.952	127.94
636.158	145.94
636.364	151.94
636.57	145.94
636.775	137.94
636.981	139.94
637.187	152.94
637.392	134.94
637.598	148.94
637.804	109.94
638.009	115.94
638.215	124.94
638.421	143.94
638.626	145.94
638.832	133.94
639.037	133.94
639.243	134.94
639.448	144.94
639.654	136.94
639.859	139.94
640.065	134.94
640.27	142.94
640.475	143.94
640.681	130.94
640.886	137.94
641.091	128.94
641.297	132.94
641.502	128.94
641.707	141.94
641.913	147.94
642.118	140.94
642.323	139.94
642.528	125.94
642.733	125.94
642.939	125.94
643.144	122.94
643.349	134.94
643.554	145.94
643.759	143.94
643.964	142.94
644.169	142.94
644.374	122.94
644.579	138.94
644.784	128.94
644.989	131.94
645.194	114.94
645.399	130.94
645.604	136.94
645.809	131.94
646.014	112.94
646.219	118.94
646.423	129.94
646.628	115.94
646.833	133.94
647.038	130.94
647.243	143.94
647.447	126.94
647.652	122.94
647.857	117.94
648.062	124.94
648.266	138.94
648.471	136.94
648.676	139.94
648.88	131.94
649.085	133.94
649.289	126.94
649.494	127.94
649.698	109.94
649.903	140.94
650.107	127.94
650.312	143.94
650.516	124.94
650.721	120.94
650.925	126.94
651.13	126.94
651.334	99.94
651.539	122.94
651.743	122.94
651.947	102.94
652.152	111.94
652.356	128.94
652.56	117.94
652.764	135.94
652.969	114.94
653.173	111.94
653.377	117.94
653.581	109.94
653.785	107.94
653.99	117.94
654.194	113.94
654.398	105.94
654.602	106.94
654.806	106.94
655.01	112.94
655.214	118.94
655.418	118.94
655.622	107.94
655.826	101.94
656.03	106.94
656.234	111.94
656.438	110.94
656.642	103.94
656.846	108.94
657.049	119.94
657.253	107.94
657.457	101.94
657.661	89.94
657.865	85.94
658.068	91.94
658.272	102.94
658.476	103.94
658.68	103.94
658.883	95.94
659.087	97.94
659.291	99.94
659.494	87.94
659.698	93.94
659.901	75.94
660.105	103.94
660.309	97.94
660.512	97.94
660.716	84.94
660.919	99.94
661.123	83.94
661.326	81.94
661.53	95.94
661.733	89.94
661.936	95.94
662.14	93.94
662.343	85.94
662.546	81.94
662.75	85.94
662.953	81.94
663.156	98.94
663.36	88.94
663.563	95.94
663.766	81.94
663.969	84.94
664.173	78.94
664.376	89.94
664.579	71.94
664.782	82.94
664.985	70.94
665.188	71.94
665.391	80.94
665.594	73.94
665.797	73.94
666	85.94
666.203	85.94
666.406	76.94
666.609	76.94
666.812	86.94
667.015	86.94
667.218	83.94
667.421	96.94
667.624	91.94
667.827	95.94
668.03	78.94
668.232	80.94
668.435	93.94
668.638	77.94
668.841	80.94
669.043	108.94
669.246	74.94
669.449	91.94
669.651	71.94
669.854	89.94
670.057	87.94
670.259	77.94
670.462	90.94
670.665	77.94
670.867	86.94
671.07	115.94
671.272	77.94
671.475	88.94
671.677	85.94
671.88	67.94
672.082	81.94
672.284	77.94
672.487	69.94
672.689	103.94
672.892	81.94
