Data from KBr_4_HRD10591_00037.txt Node
Date: Mon Jan 19 13:25:34 EST 2026
User: Yrep
Spectrometer: HR+D1059
Trigger mode: 0
Integration Time (sec): 1.000000E-1
Scans to average: 1
Electric dark correction enabled: true
Nonlinearity correction enabled: false
Boxcar width: 0
XAxis mode: Wavelengths
Number of Pixels in Spectrum: 2048
>>>>>Begin Spectral Data<<<<<
223.165	-8.62
223.4	-8.62
223.635	-8.62
223.869	-32.62
224.104	-30.62
224.338	-21.62
224.573	-23.62
224.808	-22.62
225.042	-12.62
225.277	14.38
225.511	-1.62
225.746	10.38
225.98	16.38
226.215	10.38
226.449	6.38
226.683	37.38
226.918	27.38
227.152	31.38
227.387	33.38
227.621	44.38
227.856	23.38
228.09	32.38
228.324	53.38
228.559	53.38
228.793	47.38
229.027	53.38
229.262	60.38
229.496	66.38
229.73	69.38
229.964	87.38
230.199	63.38
230.433	73.38
230.667	75.38
230.901	79.38
231.136	71.38
231.37	74.38
231.604	72.38
231.838	78.38
232.072	79.38
232.306	80.38
232.541	83.38
232.775	76.38
233.009	75.38
233.243	81.38
233.477	85.38
233.711	79.38
233.945	68.38
234.179	79.38
234.413	57.38
234.647	72.38
234.881	77.38
235.115	89.38
235.349	87.38
235.583	97.38
235.817	66.38
236.051	87.38
236.285	78.38
236.519	82.38
236.753	74.38
236.987	80.38
237.221	67.38
237.455	76.38
237.689	86.38
237.922	72.38
238.156	64.38
238.39	68.38
238.624	67.38
238.858	63.38
239.091	65.38
239.325	81.38
239.559	71.38
239.793	73.38
240.027	71.38
240.26	79.38
240.494	76.38
240.728	68.38
240.961	88.38
241.195	77.38
241.429	71.38
241.662	84.38
241.896	76.38
242.13	80.38
242.363	70.38
242.597	74.38
242.83	66.38
243.064	77.38
243.298	88.38
243.531	70.38
243.765	74.38
243.998	77.38
244.232	83.38
244.465	94.38
244.699	79.38
244.932	81.38
245.166	59.38
245.399	97.38
245.633	68.38
245.866	79.38
246.099	89.38
246.333	88.38
246.566	88.38
246.8	82.38
247.033	95.38
247.266	102.38
247.5	85.38
247.733	86.38
247.966	80.38
248.2	71.38
248.433	83.38
248.666	80.38
248.899	83.38
249.133	84.38
249.366	82.38
249.599	85.38
249.832	90.38
250.066	74.38
250.299	88.38
250.532	82.38
250.765	54.38
250.998	71.38
251.231	67.38
251.465	70.38
251.698	75.38
251.931	72.38
252.164	56.38
252.397	73.38
252.63	88.38
252.863	82.38
253.096	59.38
253.329	80.38
253.562	89.38
253.795	79.38
254.028	73.38
254.261	89.38
254.494	98.38
254.727	74.38
254.96	75.38
255.193	79.38
255.426	72.38
255.659	77.38
255.892	72.38
256.124	84.38
256.357	75.38
256.59	82.38
256.823	76.38
257.056	72.38
257.289	72.38
257.521	74.38
257.754	78.38
257.987	63.38
258.22	76.38
258.452	83.38
258.685	71.38
258.918	78.38
259.151	72.38
259.383	76.38
259.616	71.38
259.849	76.38
260.081	73.38
260.314	76.38
260.547	74.38
260.779	77.38
261.012	64.38
261.244	86.38
261.477	78.38
261.71	85.38
261.942	84.38
262.175	78.38
262.407	68.38
262.64	80.38
262.872	85.38
263.105	81.38
263.337	91.38
263.57	78.38
263.802	83.38
264.035	81.38
264.267	84.38
264.499	77.38
264.732	82.38
264.964	81.38
265.197	66.38
265.429	75.38
265.661	84.38
265.894	82.38
266.126	77.38
266.358	82.38
266.591	74.38
266.823	84.38
267.055	70.38
267.287	80.38
267.52	81.38
267.752	78.38
267.984	78.38
268.216	87.38
268.448	87.38
268.681	92.38
268.913	86.38
269.145	79.38
269.377	80.38
269.609	78.38
269.841	74.38
270.073	76.38
270.306	72.38
270.538	71.38
270.77	75.38
271.002	91.38
271.234	83.38
271.466	86.38
271.698	77.38
271.93	86.38
272.162	90.38
272.394	82.38
272.626	72.38
272.858	77.38
273.09	82.38
273.322	79.38
273.553	70.38
273.785	70.38
274.017	71.38
274.249	82.38
274.481	65.38
274.713	76.38
274.945	86.38
275.176	70.38
275.408	92.38
275.64	74.38
275.872	76.38
276.104	84.38
276.335	66.38
276.567	71.38
276.799	84.38
277.031	74.38
277.262	84.38
277.494	78.38
277.726	92.38
277.957	65.38
278.189	84.38
278.421	86.38
278.652	82.38
278.884	86.38
279.115	76.38
279.347	82.38
279.579	86.38
279.81	80.38
280.042	97.38
280.273	69.38
280.505	65.38
280.736	70.38
280.968	89.38
281.199	74.38
281.431	73.38
281.662	66.38
281.894	86.38
282.125	89.38
282.356	79.38
282.588	70.38
282.819	85.38
283.051	78.38
283.282	75.38
283.513	84.38
283.745	74.38
283.976	93.38
284.207	86.38
284.439	82.38
284.67	82.38
284.901	74.38
285.132	71.38
285.364	92.38
285.595	84.38
285.826	70.38
286.057	76.38
286.288	77.38
286.52	82.38
286.751	75.38
286.982	85.38
287.213	94.38
287.444	84.38
287.675	82.38
287.906	88.38
288.138	83.38
288.369	85.38
288.6	81.38
288.831	77.38
289.062	81.38
289.293	73.38
289.524	82.38
289.755	75.38
289.986	86.38
290.217	83.38
290.448	90.38
290.679	82.38
290.91	88.38
291.141	78.38
291.371	75.38
291.602	85.38
291.833	84.38
292.064	77.38
292.295	76.38
292.526	88.38
292.757	96.38
292.987	80.38
293.218	85.38
293.449	87.38
293.68	67.38
293.91	79.38
294.141	88.38
294.372	75.38
294.603	91.38
294.833	97.38
295.064	74.38
295.295	69.38
295.525	82.38
295.756	86.38
295.987	73.38
296.217	85.38
296.448	83.38
296.679	84.38
296.909	86.38
297.14	92.38
297.37	81.38
297.601	80.38
297.831	76.38
298.062	80.38
298.292	86.38
298.523	74.38
298.753	74.38
298.984	85.38
299.214	83.38
299.445	70.38
299.675	65.38
299.905	70.38
300.136	66.38
300.366	77.38
300.597	86.38
300.827	88.38
301.057	79.38
301.288	85.38
301.518	90.38
301.748	78.38
301.979	103.38
302.209	90.38
302.439	80.38
302.669	64.38
302.9	83.38
303.13	80.38
303.36	79.38
303.59	82.38
303.82	89.38
304.051	79.38
304.281	66.38
304.511	92.38
304.741	93.38
304.971	80.38
305.201	89.38
305.431	79.38
305.661	78.38
305.891	73.38
306.121	71.38
306.352	94.38
306.582	74.38
306.812	81.38
307.042	86.38
307.272	93.38
307.502	78.38
307.731	101.38
307.961	73.38
308.191	72.38
308.421	82.38
308.651	79.38
308.881	74.38
309.111	86.38
309.341	85.38
309.571	80.38
309.8	95.38
310.03	71.38
310.26	94.38
310.49	78.38
310.72	79.38
310.949	84.38
311.179	75.38
311.409	77.38
311.639	80.38
311.868	73.38
312.098	79.38
312.328	79.38
312.557	82.38
312.787	80.38
313.017	89.38
313.246	89.38
313.476	87.38
313.706	80.38
313.935	71.38
314.165	88.38
314.394	90.38
314.624	90.38
314.853	85.38
315.083	71.38
315.312	79.38
315.542	85.38
315.771	92.38
316.001	94.38
316.23	78.38
316.46	90.38
316.689	86.38
316.919	81.38
317.148	83.38
317.377	91.38
317.607	87.38
317.836	82.38
318.065	81.38
318.295	88.38
318.524	67.38
318.753	81.38
318.983	73.38
319.212	81.38
319.441	90.38
319.67	74.38
319.9	74.38
320.129	73.38
320.358	61.38
320.587	81.38
320.816	89.38
321.046	68.38
321.275	88.38
321.504	84.38
321.733	81.38
321.962	96.38
322.191	65.38
322.42	70.38
322.649	80.38
322.878	75.38
323.108	79.38
323.337	80.38
323.566	90.38
323.795	85.38
324.024	84.38
324.253	70.38
324.482	79.38
324.71	85.38
324.939	82.38
325.168	76.38
325.397	88.38
325.626	87.38
325.855	86.38
326.084	85.38
326.313	70.38
326.542	97.38
326.77	87.38
326.999	95.38
327.228	86.38
327.457	71.38
327.686	69.38
327.914	78.38
328.143	89.38
328.372	89.38
328.6	86.38
328.829	76.38
329.058	95.38
329.287	76.38
329.515	84.38
329.744	96.38
329.972	85.38
330.201	76.38
330.43	82.38
330.658	81.38
330.887	78.38
331.115	86.38
331.344	74.38
331.572	76.38
331.801	78.38
332.03	83.38
332.258	86.38
332.486	74.38
332.715	77.38
332.943	77.38
333.172	56.38
333.4	72.38
333.629	90.38
333.857	84.38
334.085	79.38
334.314	70.38
334.542	80.38
334.771	71.38
334.999	86.38
335.227	82.38
335.455	78.38
335.684	93.38
335.912	101.38
336.14	84.38
336.369	87.38
336.597	75.38
336.825	78.38
337.053	86.38
337.281	86.38
337.51	81.38
337.738	92.38
337.966	83.38
338.194	81.38
338.422	94.38
338.65	96.38
338.878	91.38
339.106	80.38
339.334	78.38
339.562	85.38
339.79	79.38
340.018	86.38
340.246	77.38
340.474	75.38
340.702	72.38
340.93	84.38
341.158	78.38
341.386	81.38
341.614	78.38
341.842	84.38
342.07	77.38
342.298	75.38
342.526	81.38
342.754	79.38
342.981	79.38
343.209	86.38
343.437	88.38
343.665	77.38
343.893	77.38
344.12	79.38
344.348	85.38
344.576	82.38
344.804	82.38
345.031	87.38
345.259	88.38
345.487	81.38
345.714	91.38
345.942	93.38
346.17	76.38
346.397	70.38
346.625	84.38
346.853	80.38
347.08	87.38
347.308	88.38
347.535	80.38
347.763	81.38
347.99	88.38
348.218	76.38
348.445	91.38
348.673	85.38
348.9	75.38
349.128	81.38
349.355	84.38
349.583	67.38
349.81	87.38
350.037	86.38
350.265	81.38
350.492	74.38
350.72	89.38
350.947	92.38
351.174	90.38
351.402	87.38
351.629	84.38
351.856	90.38
352.083	79.38
352.311	80.38
352.538	73.38
352.765	78.38
352.992	90.38
353.22	82.38
353.447	84.38
353.674	85.38
353.901	74.38
354.128	80.38
354.355	81.38
354.583	72.38
354.81	74.38
355.037	91.38
355.264	78.38
355.491	95.38
355.718	87.38
355.945	81.38
356.172	91.38
356.399	88.38
356.626	64.38
356.853	89.38
357.08	92.38
357.307	85.38
357.534	85.38
357.761	94.38
357.988	94.38
358.215	85.38
358.441	76.38
358.668	79.38
358.895	92.38
359.122	80.38
359.349	77.38
359.576	93.38
359.802	89.38
360.029	85.38
360.256	72.38
360.483	81.38
360.709	78.38
360.936	78.38
361.163	84.38
361.39	78.38
361.616	89.38
361.843	72.38
362.07	81.38
362.296	81.38
362.523	88.38
362.749	80.38
362.976	85.38
363.203	72.38
363.429	78.38
363.656	78.38
363.882	89.38
364.109	74.38
364.335	90.38
364.562	85.38
364.788	73.38
365.015	92.38
365.241	79.38
365.468	72.38
365.694	71.38
365.92	63.38
366.147	78.38
366.373	76.38
366.599	85.38
366.826	77.38
367.052	85.38
367.278	93.38
367.505	84.38
367.731	94.38
367.957	80.38
368.184	82.38
368.41	65.38
368.636	76.38
368.862	76.38
369.089	89.38
369.315	82.38
369.541	82.38
369.767	80.38
369.993	63.38
370.219	77.38
370.445	80.38
370.672	77.38
370.898	72.38
371.124	74.38
371.35	77.38
371.576	84.38
371.802	71.38
372.028	81.38
372.254	78.38
372.48	76.38
372.706	80.38
372.932	87.38
373.158	76.38
373.384	83.38
373.61	65.38
373.835	65.38
374.061	80.38
374.287	84.38
374.513	88.38
374.739	71.38
374.965	78.38
375.191	75.38
375.416	84.38
375.642	93.38
375.868	76.38
376.094	79.38
376.319	80.38
376.545	82.38
376.771	74.38
376.997	86.38
377.222	69.38
377.448	63.38
377.674	92.38
377.899	81.38
378.125	72.38
378.35	77.38
378.576	80.38
378.802	72.38
379.027	76.38
379.253	81.38
379.478	89.38
379.704	73.38
379.929	69.38
380.155	67.38
380.38	85.38
380.606	80.38
380.831	74.38
381.057	88.38
381.282	76.38
381.507	78.38
381.733	86.38
381.958	63.38
382.184	75.38
382.409	70.38
382.634	89.38
382.86	83.38
383.085	73.38
383.31	80.38
383.535	89.38
383.761	81.38
383.986	76.38
384.211	73.38
384.436	80.38
384.662	81.38
384.887	78.38
385.112	65.38
385.337	83.38
385.562	91.38
385.787	69.38
386.013	79.38
386.238	74.38
386.463	76.38
386.688	78.38
386.913	73.38
387.138	63.38
387.363	88.38
387.588	85.38
387.813	71.38
388.038	89.38
388.263	80.38
388.488	68.38
388.713	76.38
388.938	94.38
389.163	74.38
389.387	78.38
389.612	68.38
389.837	76.38
390.062	97.38
390.287	78.38
390.512	89.38
390.736	77.38
390.961	71.38
391.186	77.38
391.411	90.38
391.636	77.38
391.86	76.38
392.085	73.38
392.31	83.38
392.534	78.38
392.759	79.38
392.984	88.38
393.208	70.38
393.433	77.38
393.658	66.38
393.882	65.38
394.107	70.38
394.331	72.38
394.556	71.38
394.78	75.38
395.005	72.38
395.229	73.38
395.454	88.38
395.678	82.38
395.903	77.38
396.127	85.38
396.352	78.38
396.576	67.38
396.801	80.38
397.025	84.38
397.249	63.38
397.474	78.38
397.698	65.38
397.922	86.38
398.147	85.38
398.371	72.38
398.595	74.38
398.82	76.38
399.044	79.38
399.268	88.38
399.492	73.38
399.717	84.38
399.941	85.38
400.165	80.38
400.389	79.38
400.613	78.38
400.837	69.38
401.062	86.38
401.286	76.38
401.51	61.38
401.734	85.38
401.958	94.38
402.182	80.38
402.406	82.38
402.63	73.38
402.854	63.38
403.078	84.38
403.302	89.38
403.526	64.38
403.75	72.38
403.974	74.38
404.198	78.38
404.422	77.38
404.645	90.38
404.869	81.38
405.093	84.38
405.317	78.38
405.541	64.38
405.765	77.38
405.988	66.38
406.212	79.38
406.436	93.38
406.66	72.38
406.883	66.38
407.107	68.38
407.331	74.38
407.555	77.38
407.778	81.38
408.002	84.38
408.226	67.38
408.449	66.38
408.673	78.38
408.896	76.38
409.12	78.38
409.344	86.38
409.567	81.38
409.791	69.38
410.014	91.38
410.238	76.38
410.461	81.38
410.685	81.38
410.908	74.38
411.132	86.38
411.355	73.38
411.578	97.38
411.802	74.38
412.025	79.38
412.249	82.38
412.472	79.38
412.695	84.38
412.919	78.38
413.142	77.38
413.365	87.38
413.589	78.38
413.812	90.38
414.035	79.38
414.258	76.38
414.482	82.38
414.705	84.38
414.928	75.38
415.151	70.38
415.374	82.38
415.597	92.38
415.821	80.38
416.044	74.38
416.267	81.38
416.49	78.38
416.713	78.38
416.936	64.38
417.159	76.38
417.382	67.38
417.605	84.38
417.828	89.38
418.051	85.38
418.274	78.38
418.497	68.38
418.72	84.38
418.943	87.38
419.166	57.38
419.389	75.38
419.611	78.38
419.834	71.38
420.057	72.38
420.28	83.38
420.503	74.38
420.726	72.38
420.948	62.38
421.171	80.38
421.394	60.38
421.617	86.38
421.839	57.38
422.062	86.38
422.285	69.38
422.507	64.38
422.73	77.38
422.953	70.38
423.175	78.38
423.398	78.38
423.621	83.38
423.843	84.38
424.066	75.38
424.288	73.38
424.511	79.38
424.733	83.38
424.956	86.38
425.178	64.38
425.401	78.38
425.623	82.38
425.846	81.38
426.068	76.38
426.291	85.38
426.513	66.38
426.735	80.38
426.958	73.38
427.18	73.38
427.402	59.38
427.625	87.38
427.847	76.38
428.069	93.38
428.292	76.38
428.514	77.38
428.736	80.38
428.958	79.38
429.181	90.38
429.403	98.38
429.625	74.38
429.847	81.38
430.069	81.38
430.292	78.38
430.514	71.38
430.736	65.38
430.958	68.38
431.18	76.38
431.402	67.38
431.624	71.38
431.846	76.38
432.068	80.38
432.29	66.38
432.512	78.38
432.734	63.38
432.956	64.38
433.178	85.38
433.4	81.38
433.622	71.38
433.844	70.38
434.066	84.38
434.287	72.38
434.509	74.38
434.731	81.38
434.953	78.38
435.175	63.38
435.397	76.38
435.618	82.38
435.84	77.38
436.062	80.38
436.284	84.38
436.505	63.38
436.727	84.38
436.949	79.38
437.17	77.38
437.392	94.38
437.614	67.38
437.835	71.38
438.057	82.38
438.278	80.38
438.5	69.38
438.721	87.38
438.943	74.38
439.165	82.38
439.386	76.38
439.608	88.38
439.829	63.38
440.05	86.38
440.272	77.38
440.493	70.38
440.715	93.38
440.936	78.38
441.158	85.38
441.379	74.38
441.6	64.38
441.822	75.38
442.043	88.38
442.264	86.38
442.486	66.38
442.707	74.38
442.928	82.38
443.149	76.38
443.371	83.38
443.592	85.38
443.813	86.38
444.034	82.38
444.255	86.38
444.476	81.38
444.698	89.38
444.919	71.38
445.14	156.38
445.361	110.38
445.582	82.38
445.803	75.38
446.024	90.38
446.245	84.38
446.466	78.38
446.687	84.38
446.908	92.38
447.129	86.38
447.35	72.38
447.571	71.38
447.792	81.38
448.013	71.38
448.234	68.38
448.455	84.38
448.675	69.38
448.896	78.38
449.117	75.38
449.338	84.38
449.559	78.38
449.779	79.38
450	70.38
450.221	70.38
450.442	85.38
450.662	87.38
450.883	70.38
451.104	82.38
451.324	72.38
451.545	80.38
451.766	73.38
451.986	89.38
452.207	87.38
452.428	75.38
452.648	69.38
452.869	88.38
453.089	87.38
453.31	65.38
453.53	85.38
453.751	90.38
453.971	75.38
454.192	71.38
454.412	76.38
454.633	78.38
454.853	81.38
455.073	77.38
455.294	64.38
455.514	84.38
455.734	72.38
455.955	74.38
456.175	81.38
456.395	84.38
456.616	74.38
456.836	76.38
457.056	69.38
457.276	81.38
457.497	78.38
457.717	67.38
457.937	68.38
458.157	75.38
458.377	70.38
458.598	72.38
458.818	60.38
459.038	64.38
459.258	77.38
459.478	70.38
459.698	76.38
459.918	69.38
460.138	74.38
460.358	79.38
460.578	83.38
460.798	72.38
461.018	81.38
461.238	72.38
461.458	76.38
461.678	78.38
461.898	66.38
462.118	66.38
462.338	76.38
462.558	76.38
462.777	68.38
462.997	85.38
463.217	80.38
463.437	69.38
463.657	70.38
463.876	79.38
464.096	69.38
464.316	84.38
464.536	97.38
464.755	80.38
464.975	83.38
465.195	91.38
465.414	70.38
465.634	78.38
465.854	73.38
466.073	73.38
466.293	64.38
466.512	72.38
466.732	67.38
466.951	75.38
467.171	73.38
467.391	79.38
467.61	74.38
467.829	82.38
468.049	91.38
468.268	82.38
468.488	92.38
468.707	87.38
468.927	82.38
469.146	80.38
469.365	69.38
469.585	89.38
469.804	89.38
470.023	84.38
470.243	71.38
470.462	78.38
470.681	68.38
470.901	80.38
471.12	70.38
471.339	81.38
471.558	81.38
471.777	88.38
471.997	85.38
472.216	72.38
472.435	72.38
472.654	72.38
472.873	74.38
473.092	75.38
473.311	72.38
473.53	84.38
473.749	78.38
473.968	74.38
474.187	74.38
474.406	82.38
474.625	71.38
474.844	95.38
475.063	81.38
475.282	83.38
475.501	78.38
475.72	89.38
475.939	85.38
476.158	77.38
476.377	71.38
476.596	87.38
476.814	82.38
477.033	88.38
477.252	78.38
477.471	83.38
477.69	88.38
477.908	79.38
478.127	80.38
478.346	78.38
478.564	77.38
478.783	64.38
479.002	78.38
479.22	73.38
479.439	89.38
479.658	72.38
479.876	79.38
480.095	72.38
480.313	84.38
480.532	65.38
480.751	84.38
480.969	72.38
481.188	73.38
481.406	84.38
481.624	94.38
481.843	77.38
482.061	79.38
482.28	84.38
482.498	76.38
482.717	73.38
482.935	71.38
483.153	69.38
483.372	73.38
483.59	81.38
483.808	68.38
484.027	84.38
484.245	78.38
484.463	64.38
484.681	79.38
484.9	73.38
485.118	75.38
485.336	86.38
485.554	99.38
485.772	73.38
485.99	84.38
486.209	73.38
486.427	69.38
486.645	86.38
486.863	77.38
487.081	79.38
487.299	80.38
487.517	85.38
487.735	82.38
487.953	82.38
488.171	79.38
488.389	76.38
488.607	84.38
488.825	71.38
489.043	84.38
489.261	81.38
489.479	76.38
489.696	87.38
489.914	79.38
490.132	80.38
490.35	80.38
490.568	90.38
490.786	79.38
491.003	82.38
491.221	70.38
491.439	77.38
491.657	74.38
491.874	77.38
492.092	81.38
492.31	74.38
492.527	81.38
492.745	74.38
492.963	79.38
493.18	80.38
493.398	85.38
493.615	75.38
493.833	78.38
494.05	72.38
494.268	74.38
494.485	68.38
494.703	85.38
494.92	86.38
495.138	83.38
495.355	90.38
495.573	77.38
495.79	84.38
496.008	89.38
496.225	82.38
496.442	78.38
496.66	71.38
496.877	86.38
497.094	79.38
497.312	74.38
497.529	78.38
497.746	88.38
497.963	80.38
498.181	71.38
498.398	85.38
498.615	82.38
498.832	80.38
499.049	78.38
499.267	80.38
499.484	72.38
499.701	79.38
499.918	81.38
500.135	83.38
500.352	85.38
500.569	78.38
500.786	65.38
501.003	81.38
501.22	92.38
501.437	81.38
501.654	80.38
501.871	84.38
502.088	84.38
502.305	78.38
502.522	84.38
502.739	87.38
502.956	77.38
503.172	89.38
503.389	88.38
503.606	81.38
503.823	59.38
504.04	87.38
504.256	94.38
504.473	78.38
504.69	87.38
504.907	84.38
505.123	69.38
505.34	83.38
505.557	87.38
505.773	94.38
505.99	82.38
506.207	92.38
506.423	81.38
506.64	71.38
506.856	88.38
507.073	80.38
507.289	62.38
507.506	85.38
507.722	82.38
507.939	82.38
508.155	88.38
508.372	82.38
508.588	73.38
508.805	84.38
509.021	87.38
509.238	86.38
509.454	75.38
509.67	71.38
509.887	85.38
510.103	78.38
510.319	81.38
510.536	84.38
510.752	80.38
510.968	81.38
511.184	82.38
511.401	81.38
511.617	89.38
511.833	82.38
512.049	79.38
512.265	92.38
512.481	76.38
512.698	73.38
512.914	84.38
513.13	81.38
513.346	87.38
513.562	77.38
513.778	85.38
513.994	81.38
514.21	73.38
514.426	81.38
514.642	87.38
514.858	86.38
515.074	70.38
515.29	90.38
515.506	94.38
515.721	78.38
515.937	86.38
516.153	90.38
516.369	74.38
516.585	72.38
516.801	70.38
517.016	89.38
517.232	83.38
517.448	69.38
517.664	78.38
517.879	80.38
518.095	72.38
518.311	80.38
518.527	81.38
518.742	80.38
518.958	88.38
519.173	86.38
519.389	86.38
519.605	79.38
519.82	72.38
520.036	86.38
520.251	78.38
520.467	81.38
520.682	72.38
520.898	84.38
521.113	80.38
521.329	86.38
521.544	84.38
521.76	94.38
521.975	91.38
522.19	75.38
522.406	80.38
522.621	70.38
522.836	96.38
523.052	89.38
523.267	93.38
523.482	78.38
523.698	64.38
523.913	72.38
524.128	80.38
524.343	72.38
524.559	81.38
524.774	87.38
524.989	80.38
525.204	74.38
525.419	72.38
525.634	89.38
525.849	96.38
526.064	90.38
526.28	80.38
526.495	64.38
526.71	73.38
526.925	82.38
527.14	74.38
527.355	81.38
527.57	92.38
527.785	65.38
527.999	82.38
528.214	89.38
528.429	76.38
528.644	93.38
528.859	86.38
529.074	75.38
529.289	72.38
529.503	70.38
529.718	77.38
529.933	78.38
530.148	79.38
530.363	75.38
530.577	69.38
530.792	81.38
531.007	87.38
531.221	85.38
531.436	85.38
531.651	84.38
531.865	85.38
532.08	80.38
532.295	73.38
532.509	94.38
532.724	81.38
532.938	72.38
533.153	72.38
533.367	81.38
533.582	85.38
533.796	88.38
534.011	76.38
534.225	93.38
534.44	79.38
534.654	74.38
534.868	87.38
535.083	89.38
535.297	101.38
535.511	80.38
535.726	87.38
535.94	72.38
536.154	86.38
536.369	85.38
536.583	74.38
536.797	80.38
537.011	80.38
537.225	85.38
537.44	78.38
537.654	87.38
537.868	90.38
538.082	86.38
538.296	67.38
538.51	89.38
538.724	87.38
538.938	80.38
539.153	78.38
539.367	86.38
539.581	85.38
539.795	68.38
540.009	83.38
540.222	92.38
540.436	88.38
540.65	77.38
540.864	80.38
541.078	76.38
541.292	81.38
541.506	78.38
541.72	80.38
541.934	96.38
542.147	84.38
542.361	97.38
542.575	81.38
542.789	86.38
543.002	84.38
543.216	84.38
543.43	90.38
543.644	75.38
543.857	80.38
544.071	84.38
544.285	87.38
544.498	80.38
544.712	80.38
544.925	84.38
545.139	83.38
545.352	91.38
545.566	95.38
545.779	97.38
545.993	87.38
546.206	87.38
546.42	74.38
546.633	94.38
546.847	89.38
547.06	74.38
547.274	81.38
547.487	66.38
547.7	81.38
547.914	89.38
548.127	84.38
548.34	91.38
548.554	87.38
548.767	89.38
548.98	72.38
549.193	82.38
549.407	88.38
549.62	76.38
549.833	76.38
550.046	79.38
550.259	82.38
550.473	84.38
550.686	89.38
550.899	86.38
551.112	88.38
551.325	76.38
551.538	75.38
551.751	82.38
551.964	83.38
552.177	78.38
552.39	84.38
552.603	95.38
552.816	87.38
553.029	79.38
553.242	92.38
553.455	70.38
553.667	80.38
553.88	82.38
554.093	81.38
554.306	91.38
554.519	67.38
554.732	65.38
554.944	78.38
555.157	76.38
555.37	69.38
555.583	92.38
555.795	88.38
556.008	81.38
556.221	76.38
556.433	82.38
556.646	71.38
556.859	79.38
557.071	81.38
557.284	75.38
557.496	90.38
557.709	100.38
557.921	88.38
558.134	93.38
558.346	92.38
558.559	70.38
558.771	91.38
558.984	82.38
559.196	76.38
559.409	92.38
559.621	85.38
559.833	75.38
560.046	78.38
560.258	76.38
560.47	82.38
560.683	88.38
560.895	78.38
561.107	84.38
561.32	94.38
561.532	86.38
561.744	71.38
561.956	89.38
562.168	80.38
562.381	85.38
562.593	83.38
562.805	97.38
563.017	89.38
563.229	87.38
563.441	73.38
563.653	84.38
563.865	94.38
564.077	86.38
564.289	84.38
564.501	76.38
564.713	89.38
564.925	78.38
565.137	82.38
565.349	85.38
565.561	86.38
565.773	82.38
565.985	72.38
566.197	73.38
566.408	83.38
566.62	80.38
566.832	85.38
567.044	81.38
567.255	81.38
567.467	58.38
567.679	76.38
567.891	84.38
568.102	77.38
568.314	78.38
568.526	77.38
568.737	82.38
568.949	86.38
569.161	81.38
569.372	84.38
569.584	92.38
569.795	78.38
570.007	71.38
570.218	85.38
570.43	85.38
570.641	89.38
570.853	92.38
571.064	88.38
571.276	69.38
571.487	89.38
571.698	76.38
571.91	84.38
572.121	87.38
572.333	87.38
572.544	74.38
572.755	93.38
572.966	72.38
573.178	74.38
573.389	89.38
573.6	86.38
573.811	89.38
574.023	95.38
574.234	82.38
574.445	79.38
574.656	68.38
574.867	89.38
575.078	97.38
575.289	74.38
575.501	87.38
575.712	76.38
575.923	78.38
576.134	76.38
576.345	84.38
576.556	94.38
576.767	85.38
576.978	88.38
577.188	82.38
577.399	93.38
577.61	79.38
577.821	82.38
578.032	86.38
578.243	83.38
578.454	75.38
578.665	75.38
578.875	63.38
579.086	83.38
579.297	89.38
579.508	89.38
579.718	81.38
579.929	84.38
580.14	66.38
580.35	89.38
580.561	100.38
580.772	86.38
580.982	82.38
581.193	76.38
581.403	77.38
581.614	70.38
581.825	73.38
582.035	74.38
582.246	65.38
582.456	70.38
582.667	78.38
582.877	95.38
583.087	100.38
583.298	81.38
583.508	83.38
583.719	86.38
583.929	86.38
584.139	71.38
584.35	86.38
584.56	85.38
584.77	83.38
584.981	77.38
585.191	102.38
585.401	80.38
585.611	88.38
585.821	73.38
586.032	97.38
586.242	82.38
586.452	73.38
586.662	75.38
586.872	92.38
587.082	84.38
587.292	82.38
587.502	88.38
587.713	92.38
587.923	91.38
588.133	94.38
588.343	82.38
588.553	85.38
588.762	85.38
588.972	82.38
589.182	86.38
589.392	89.38
589.602	82.38
589.812	77.38
590.022	87.38
590.232	79.38
590.441	97.38
590.651	84.38
590.861	93.38
591.071	91.38
591.281	94.38
591.49	86.38
591.7	83.38
591.91	87.38
592.119	85.38
592.329	75.38
592.539	84.38
592.748	79.38
592.958	94.38
593.167	85.38
593.377	77.38
593.587	100.38
593.796	70.38
594.006	72.38
594.215	97.38
594.424	80.38
594.634	84.38
594.843	73.38
595.053	98.38
595.262	79.38
595.472	68.38
595.681	79.38
595.89	69.38
596.1	90.38
596.309	84.38
596.518	84.38
596.727	87.38
596.937	88.38
597.146	88.38
597.355	95.38
597.564	89.38
597.774	86.38
597.983	71.38
598.192	87.38
598.401	82.38
598.61	77.38
598.819	60.38
599.028	89.38
599.237	74.38
599.446	89.38
599.655	81.38
599.864	93.38
600.073	95.38
600.282	91.38
600.491	87.38
600.7	84.38
600.909	89.38
601.118	84.38
601.327	72.38
601.536	65.38
601.745	81.38
601.953	92.38
602.162	81.38
602.371	72.38
602.58	84.38
602.789	75.38
602.997	79.38
603.206	82.38
603.415	78.38
603.623	88.38
603.832	84.38
604.041	67.38
604.249	90.38
604.458	78.38
604.666	84.38
604.875	84.38
605.084	86.38
605.292	73.38
605.501	81.38
605.709	77.38
605.918	71.38
606.126	86.38
606.334	79.38
606.543	89.38
606.751	72.38
606.96	77.38
607.168	73.38
607.376	96.38
607.585	89.38
607.793	86.38
608.001	71.38
608.21	84.38
608.418	79.38
608.626	84.38
608.834	69.38
609.043	93.38
609.251	84.38
609.459	86.38
609.667	83.38
609.875	85.38
610.083	77.38
610.291	79.38
610.499	67.38
610.707	100.38
610.916	72.38
611.124	92.38
611.332	77.38
611.54	85.38
611.748	73.38
611.955	72.38
612.163	80.38
612.371	90.38
612.579	86.38
612.787	88.38
612.995	76.38
613.203	80.38
613.411	79.38
613.618	66.38
613.826	90.38
614.034	73.38
614.242	80.38
614.449	78.38
614.657	77.38
614.865	71.38
615.072	83.38
615.28	74.38
615.488	76.38
615.695	85.38
615.903	82.38
616.111	68.38
616.318	78.38
616.526	78.38
616.733	81.38
616.941	83.38
617.148	80.38
617.356	68.38
617.563	58.38
617.771	86.38
617.978	85.38
618.185	85.38
618.393	88.38
618.6	80.38
618.807	92.38
619.015	84.38
619.222	95.38
619.429	79.38
619.637	73.38
619.844	93.38
620.051	86.38
620.258	91.38
620.466	84.38
620.673	87.38
620.88	93.38
621.087	80.38
621.294	75.38
621.501	88.38
621.708	82.38
621.915	87.38
622.122	65.38
622.329	79.38
622.536	73.38
622.743	94.38
622.95	78.38
623.157	81.38
623.364	80.38
623.571	82.38
623.778	79.38
623.985	84.38
624.192	90.38
624.399	66.38
624.606	78.38
624.812	88.38
625.019	69.38
625.226	82.38
625.433	78.38
625.639	74.38
625.846	86.38
626.053	76.38
626.259	84.38
626.466	87.38
626.673	77.38
626.879	72.38
627.086	82.38
627.293	90.38
627.499	71.38
627.706	72.38
627.912	76.38
628.119	80.38
628.325	97.38
628.532	87.38
628.738	64.38
628.945	84.38
629.151	88.38
629.357	76.38
629.564	81.38
629.77	98.38
629.976	73.38
630.183	73.38
630.389	78.38
630.595	74.38
630.802	84.38
631.008	80.38
631.214	86.38
631.42	77.38
631.627	83.38
631.833	74.38
632.039	89.38
632.245	73.38
632.451	65.38
632.657	81.38
632.863	76.38
633.069	75.38
633.275	77.38
633.481	70.38
633.688	65.38
633.893	88.38
634.099	76.38
634.305	69.38
634.511	67.38
634.717	76.38
634.923	72.38
635.129	90.38
635.335	90.38
635.541	79.38
635.747	83.38
635.952	71.38
636.158	86.38
636.364	85.38
636.57	86.38
636.775	69.38
636.981	78.38
637.187	81.38
637.392	93.38
637.598	84.38
637.804	68.38
638.009	73.38
638.215	78.38
638.421	84.38
638.626	85.38
638.832	77.38
639.037	80.38
639.243	67.38
639.448	92.38
639.654	81.38
639.859	85.38
640.065	74.38
640.27	84.38
640.475	81.38
640.681	88.38
640.886	89.38
641.091	67.38
641.297	82.38
641.502	73.38
641.707	88.38
641.913	84.38
642.118	82.38
642.323	91.38
642.528	92.38
642.733	79.38
642.939	94.38
643.144	81.38
643.349	86.38
643.554	84.38
643.759	84.38
643.964	82.38
644.169	80.38
644.374	92.38
644.579	77.38
644.784	66.38
644.989	69.38
645.194	66.38
645.399	92.38
645.604	86.38
645.809	83.38
646.014	65.38
646.219	81.38
646.423	81.38
646.628	91.38
646.833	72.38
647.038	65.38
647.243	71.38
647.447	71.38
647.652	67.38
647.857	81.38
648.062	96.38
648.266	72.38
648.471	70.38
648.676	77.38
648.88	72.38
649.085	75.38
649.289	82.38
649.494	77.38
649.698	72.38
649.903	77.38
650.107	69.38
650.312	89.38
650.516	90.38
650.721	87.38
650.925	81.38
651.13	87.38
651.334	75.38
651.539	84.38
651.743	66.38
651.947	86.38
652.152	86.38
652.356	76.38
652.56	81.38
652.764	74.38
652.969	92.38
653.173	82.38
653.377	70.38
653.581	80.38
653.785	78.38
653.99	91.38
654.194	73.38
654.398	96.38
654.602	88.38
654.806	76.38
655.01	85.38
655.214	93.38
655.418	90.38
655.622	82.38
655.826	86.38
656.03	79.38
656.234	80.38
656.438	86.38
656.642	76.38
656.846	76.38
657.049	78.38
657.253	80.38
657.457	75.38
657.661	82.38
657.865	66.38
658.068	77.38
658.272	87.38
658.476	78.38
658.68	80.38
658.883	79.38
659.087	89.38
659.291	79.38
659.494	85.38
659.698	88.38
659.901	79.38
660.105	75.38
660.309	86.38
660.512	81.38
660.716	70.38
660.919	72.38
661.123	83.38
661.326	76.38
661.53	84.38
661.733	92.38
661.936	72.38
662.14	79.38
662.343	80.38
662.546	75.38
662.75	78.38
662.953	81.38
663.156	71.38
663.36	91.38
663.563	90.38
663.766	67.38
663.969	82.38
664.173	66.38
664.376	79.38
664.579	92.38
664.782	77.38
664.985	77.38
665.188	61.38
665.391	73.38
665.594	68.38
665.797	84.38
666	77.38
666.203	86.38
666.406	69.38
666.609	84.38
666.812	70.38
667.015	92.38
667.218	90.38
667.421	74.38
667.624	74.38
667.827	77.38
668.03	85.38
668.232	82.38
668.435	68.38
668.638	86.38
668.841	76.38
669.043	73.38
669.246	75.38
669.449	65.38
669.651	66.38
669.854	86.38
670.057	78.38
670.259	84.38
670.462	89.38
670.665	85.38
670.867	85.38
671.07	76.38
671.272	96.38
671.475	83.38
671.677	69.38
671.88	74.38
672.082	72.38
672.284	81.38
672.487	78.38
672.689	72.38
672.892	66.38
