Data from KBr_4_HRD10591_00048.txt Node
Date: Mon Jan 19 13:25:36 EST 2026
User: Yrep
Spectrometer: HR+D1059
Trigger mode: 0
Integration Time (sec): 1.000000E-1
Scans to average: 1
Electric dark correction enabled: true
Nonlinearity correction enabled: false
Boxcar width: 0
XAxis mode: Wavelengths
Number of Pixels in Spectrum: 2048
>>>>>Begin Spectral Data<<<<<
223.165	-18.5
223.4	-18.5
223.635	-18.5
223.869	-32.5
224.104	-10.5
224.338	-23.5
224.573	-10.5
224.808	-14.5
225.042	-5.5
225.277	-15.5
225.511	-2.5
225.746	0.5
225.98	19.5
226.215	8.5
226.449	29.5
226.683	25.5
226.918	25.5
227.152	24.5
227.387	29.5
227.621	27.5
227.856	42.5
228.09	44.5
228.324	55.5
228.559	70.5
228.793	68.5
229.027	58.5
229.262	66.5
229.496	78.5
229.73	60.5
229.964	64.5
230.199	71.5
230.433	80.5
230.667	74.5
230.901	75.5
231.136	75.5
231.37	72.5
231.604	80.5
231.838	80.5
232.072	72.5
232.306	100.5
232.541	66.5
232.775	62.5
233.009	78.5
233.243	87.5
233.477	72.5
233.711	85.5
233.945	86.5
234.179	80.5
234.413	71.5
234.647	90.5
234.881	72.5
235.115	87.5
235.349	72.5
235.583	74.5
235.817	92.5
236.051	92.5
236.285	78.5
236.519	79.5
236.753	63.5
236.987	80.5
237.221	78.5
237.455	72.5
237.689	86.5
237.922	69.5
238.156	88.5
238.39	72.5
238.624	71.5
238.858	56.5
239.091	80.5
239.325	67.5
239.559	70.5
239.793	64.5
240.027	81.5
240.26	65.5
240.494	85.5
240.728	78.5
240.961	76.5
241.195	68.5
241.429	67.5
241.662	66.5
241.896	70.5
242.13	76.5
242.363	66.5
242.597	71.5
242.83	80.5
243.064	79.5
243.298	66.5
243.531	64.5
243.765	68.5
243.998	87.5
244.232	76.5
244.465	81.5
244.699	68.5
244.932	87.5
245.166	72.5
245.399	80.5
245.633	74.5
245.866	70.5
246.099	81.5
246.333	70.5
246.566	81.5
246.8	72.5
247.033	73.5
247.266	86.5
247.5	79.5
247.733	67.5
247.966	72.5
248.2	82.5
248.433	85.5
248.666	74.5
248.899	73.5
249.133	86.5
249.366	72.5
249.599	81.5
249.832	77.5
250.066	73.5
250.299	73.5
250.532	81.5
250.765	78.5
250.998	68.5
251.231	70.5
251.465	57.5
251.698	67.5
251.931	72.5
252.164	79.5
252.397	72.5
252.63	66.5
252.863	65.5
253.096	74.5
253.329	72.5
253.562	73.5
253.795	82.5
254.028	72.5
254.261	86.5
254.494	82.5
254.727	60.5
254.96	80.5
255.193	82.5
255.426	71.5
255.659	73.5
255.892	75.5
256.124	72.5
256.357	82.5
256.59	76.5
256.823	78.5
257.056	80.5
257.289	86.5
257.521	81.5
257.754	76.5
257.987	66.5
258.22	83.5
258.452	74.5
258.685	84.5
258.918	75.5
259.151	72.5
259.383	77.5
259.616	61.5
259.849	71.5
260.081	79.5
260.314	77.5
260.547	70.5
260.779	80.5
261.012	83.5
261.244	80.5
261.477	64.5
261.71	79.5
261.942	77.5
262.175	89.5
262.407	88.5
262.64	70.5
262.872	74.5
263.105	73.5
263.337	73.5
263.57	53.5
263.802	76.5
264.035	80.5
264.267	81.5
264.499	92.5
264.732	68.5
264.964	68.5
265.197	88.5
265.429	66.5
265.661	69.5
265.894	82.5
266.126	80.5
266.358	78.5
266.591	70.5
266.823	71.5
267.055	65.5
267.287	78.5
267.52	71.5
267.752	74.5
267.984	77.5
268.216	74.5
268.448	82.5
268.681	85.5
268.913	98.5
269.145	87.5
269.377	83.5
269.609	73.5
269.841	81.5
270.073	82.5
270.306	78.5
270.538	76.5
270.77	69.5
271.002	69.5
271.234	77.5
271.466	92.5
271.698	71.5
271.93	78.5
272.162	77.5
272.394	75.5
272.626	66.5
272.858	70.5
273.09	82.5
273.322	77.5
273.553	71.5
273.785	89.5
274.017	98.5
274.249	80.5
274.481	87.5
274.713	84.5
274.945	79.5
275.176	78.5
275.408	84.5
275.64	68.5
275.872	86.5
276.104	79.5
276.335	72.5
276.567	67.5
276.799	80.5
277.031	76.5
277.262	81.5
277.494	73.5
277.726	83.5
277.957	77.5
278.189	88.5
278.421	89.5
278.652	91.5
278.884	80.5
279.115	84.5
279.347	83.5
279.579	73.5
279.81	90.5
280.042	87.5
280.273	89.5
280.505	89.5
280.736	85.5
280.968	96.5
281.199	76.5
281.431	55.5
281.662	94.5
281.894	72.5
282.125	71.5
282.356	80.5
282.588	81.5
282.819	76.5
283.051	97.5
283.282	84.5
283.513	83.5
283.745	84.5
283.976	83.5
284.207	86.5
284.439	84.5
284.67	87.5
284.901	82.5
285.132	78.5
285.364	82.5
285.595	74.5
285.826	84.5
286.057	93.5
286.288	84.5
286.52	71.5
286.751	84.5
286.982	70.5
287.213	72.5
287.444	68.5
287.675	80.5
287.906	85.5
288.138	90.5
288.369	81.5
288.6	92.5
288.831	89.5
289.062	87.5
289.293	82.5
289.524	74.5
289.755	70.5
289.986	85.5
290.217	80.5
290.448	81.5
290.679	79.5
290.91	89.5
291.141	76.5
291.371	82.5
291.602	84.5
291.833	87.5
292.064	72.5
292.295	78.5
292.526	71.5
292.757	79.5
292.987	80.5
293.218	75.5
293.449	95.5
293.68	88.5
293.91	93.5
294.141	80.5
294.372	73.5
294.603	92.5
294.833	76.5
295.064	71.5
295.295	82.5
295.525	90.5
295.756	87.5
295.987	73.5
296.217	88.5
296.448	74.5
296.679	80.5
296.909	103.5
297.14	87.5
297.37	85.5
297.601	78.5
297.831	77.5
298.062	82.5
298.292	90.5
298.523	83.5
298.753	77.5
298.984	76.5
299.214	83.5
299.445	85.5
299.675	79.5
299.905	82.5
300.136	79.5
300.366	70.5
300.597	80.5
300.827	80.5
301.057	103.5
301.288	85.5
301.518	86.5
301.748	76.5
301.979	90.5
302.209	88.5
302.439	66.5
302.669	80.5
302.9	94.5
303.13	89.5
303.36	84.5
303.59	69.5
303.82	81.5
304.051	73.5
304.281	77.5
304.511	74.5
304.741	60.5
304.971	68.5
305.201	90.5
305.431	87.5
305.661	101.5
305.891	74.5
306.121	88.5
306.352	64.5
306.582	88.5
306.812	75.5
307.042	79.5
307.272	74.5
307.502	84.5
307.731	83.5
307.961	87.5
308.191	81.5
308.421	74.5
308.651	86.5
308.881	68.5
309.111	62.5
309.341	80.5
309.571	84.5
309.8	80.5
310.03	87.5
310.26	82.5
310.49	79.5
310.72	67.5
310.949	79.5
311.179	84.5
311.409	84.5
311.639	86.5
311.868	81.5
312.098	96.5
312.328	83.5
312.557	70.5
312.787	89.5
313.017	70.5
313.246	76.5
313.476	81.5
313.706	84.5
313.935	80.5
314.165	78.5
314.394	86.5
314.624	88.5
314.853	88.5
315.083	78.5
315.312	77.5
315.542	78.5
315.771	81.5
316.001	79.5
316.23	88.5
316.46	102.5
316.689	81.5
316.919	95.5
317.148	86.5
317.377	84.5
317.607	75.5
317.836	94.5
318.065	73.5
318.295	78.5
318.524	84.5
318.753	94.5
318.983	83.5
319.212	80.5
319.441	85.5
319.67	75.5
319.9	71.5
320.129	97.5
320.358	84.5
320.587	78.5
320.816	79.5
321.046	92.5
321.275	84.5
321.504	90.5
321.733	88.5
321.962	78.5
322.191	82.5
322.42	66.5
322.649	88.5
322.878	74.5
323.108	78.5
323.337	86.5
323.566	88.5
323.795	90.5
324.024	84.5
324.253	89.5
324.482	86.5
324.71	76.5
324.939	88.5
325.168	89.5
325.397	78.5
325.626	85.5
325.855	69.5
326.084	94.5
326.313	70.5
326.542	84.5
326.77	65.5
326.999	69.5
327.228	83.5
327.457	88.5
327.686	96.5
327.914	78.5
328.143	96.5
328.372	68.5
328.6	76.5
328.829	93.5
329.058	73.5
329.287	79.5
329.515	74.5
329.744	80.5
329.972	58.5
330.201	75.5
330.43	78.5
330.658	106.5
330.887	85.5
331.115	81.5
331.344	65.5
331.572	74.5
331.801	92.5
332.03	78.5
332.258	81.5
332.486	76.5
332.715	87.5
332.943	79.5
333.172	90.5
333.4	81.5
333.629	72.5
333.857	81.5
334.085	78.5
334.314	96.5
334.542	94.5
334.771	79.5
334.999	76.5
335.227	86.5
335.455	72.5
335.684	65.5
335.912	73.5
336.14	74.5
336.369	79.5
336.597	81.5
336.825	82.5
337.053	78.5
337.281	84.5
337.51	88.5
337.738	87.5
337.966	98.5
338.194	92.5
338.422	82.5
338.65	65.5
338.878	66.5
339.106	74.5
339.334	80.5
339.562	106.5
339.79	76.5
340.018	86.5
340.246	79.5
340.474	87.5
340.702	93.5
340.93	80.5
341.158	72.5
341.386	78.5
341.614	78.5
341.842	77.5
342.07	81.5
342.298	72.5
342.526	75.5
342.754	84.5
342.981	81.5
343.209	83.5
343.437	89.5
343.665	85.5
343.893	74.5
344.12	64.5
344.348	83.5
344.576	76.5
344.804	100.5
345.031	87.5
345.259	97.5
345.487	88.5
345.714	76.5
345.942	81.5
346.17	75.5
346.397	75.5
346.625	78.5
346.853	101.5
347.08	70.5
347.308	79.5
347.535	92.5
347.763	77.5
347.99	86.5
348.218	87.5
348.445	77.5
348.673	81.5
348.9	76.5
349.128	88.5
349.355	81.5
349.583	74.5
349.81	93.5
350.037	60.5
350.265	73.5
350.492	84.5
350.72	90.5
350.947	85.5
351.174	81.5
351.402	72.5
351.629	89.5
351.856	87.5
352.083	76.5
352.311	76.5
352.538	83.5
352.765	82.5
352.992	89.5
353.22	87.5
353.447	88.5
353.674	85.5
353.901	75.5
354.128	78.5
354.355	80.5
354.583	95.5
354.81	87.5
355.037	75.5
355.264	83.5
355.491	80.5
355.718	81.5
355.945	81.5
356.172	87.5
356.399	76.5
356.626	71.5
356.853	74.5
357.08	91.5
357.307	76.5
357.534	87.5
357.761	95.5
357.988	76.5
358.215	84.5
358.441	67.5
358.668	60.5
358.895	88.5
359.122	81.5
359.349	74.5
359.576	98.5
359.802	78.5
360.029	76.5
360.256	68.5
360.483	81.5
360.709	68.5
360.936	88.5
361.163	84.5
361.39	87.5
361.616	80.5
361.843	71.5
362.07	79.5
362.296	80.5
362.523	73.5
362.749	78.5
362.976	93.5
363.203	86.5
363.429	85.5
363.656	82.5
363.882	72.5
364.109	78.5
364.335	76.5
364.562	81.5
364.788	84.5
365.015	72.5
365.241	80.5
365.468	92.5
365.694	76.5
365.92	72.5
366.147	72.5
366.373	71.5
366.599	69.5
366.826	85.5
367.052	76.5
367.278	83.5
367.505	87.5
367.731	80.5
367.957	68.5
368.184	77.5
368.41	88.5
368.636	79.5
368.862	78.5
369.089	85.5
369.315	92.5
369.541	66.5
369.767	81.5
369.993	72.5
370.219	78.5
370.445	78.5
370.672	87.5
370.898	80.5
371.124	78.5
371.35	102.5
371.576	76.5
371.802	80.5
372.028	84.5
372.254	82.5
372.48	84.5
372.706	90.5
372.932	84.5
373.158	93.5
373.384	92.5
373.61	78.5
373.835	77.5
374.061	76.5
374.287	80.5
374.513	67.5
374.739	80.5
374.965	76.5
375.191	72.5
375.416	104.5
375.642	93.5
375.868	89.5
376.094	79.5
376.319	66.5
376.545	73.5
376.771	80.5
376.997	77.5
377.222	76.5
377.448	82.5
377.674	91.5
377.899	76.5
378.125	90.5
378.35	88.5
378.576	70.5
378.802	79.5
379.027	91.5
379.253	85.5
379.478	89.5
379.704	79.5
379.929	87.5
380.155	89.5
380.38	93.5
380.606	80.5
380.831	78.5
381.057	81.5
381.282	75.5
381.507	78.5
381.733	77.5
381.958	87.5
382.184	81.5
382.409	75.5
382.634	88.5
382.86	73.5
383.085	73.5
383.31	86.5
383.535	85.5
383.761	67.5
383.986	76.5
384.211	87.5
384.436	79.5
384.662	96.5
384.887	75.5
385.112	80.5
385.337	81.5
385.562	97.5
385.787	91.5
386.013	84.5
386.238	75.5
386.463	76.5
386.688	65.5
386.913	74.5
387.138	73.5
387.363	68.5
387.588	78.5
387.813	71.5
388.038	73.5
388.263	103.5
388.488	90.5
388.713	71.5
388.938	85.5
389.163	87.5
389.387	74.5
389.612	85.5
389.837	85.5
390.062	89.5
390.287	88.5
390.512	84.5
390.736	85.5
390.961	77.5
391.186	68.5
391.411	82.5
391.636	82.5
391.86	74.5
392.085	99.5
392.31	76.5
392.534	82.5
392.759	88.5
392.984	87.5
393.208	65.5
393.433	78.5
393.658	74.5
393.882	81.5
394.107	69.5
394.331	88.5
394.556	84.5
394.78	78.5
395.005	92.5
395.229	98.5
395.454	88.5
395.678	86.5
395.903	72.5
396.127	80.5
396.352	81.5
396.576	85.5
396.801	88.5
397.025	80.5
397.249	74.5
397.474	81.5
397.698	84.5
397.922	76.5
398.147	77.5
398.371	77.5
398.595	70.5
398.82	81.5
399.044	85.5
399.268	68.5
399.492	67.5
399.717	86.5
399.941	79.5
400.165	89.5
400.389	77.5
400.613	91.5
400.837	78.5
401.062	71.5
401.286	81.5
401.51	70.5
401.734	64.5
401.958	69.5
402.182	75.5
402.406	61.5
402.63	65.5
402.854	73.5
403.078	84.5
403.302	71.5
403.526	83.5
403.75	70.5
403.974	81.5
404.198	64.5
404.422	85.5
404.645	75.5
404.869	74.5
405.093	78.5
405.317	96.5
405.541	74.5
405.765	78.5
405.988	76.5
406.212	78.5
406.436	78.5
406.66	79.5
406.883	90.5
407.107	68.5
407.331	88.5
407.555	89.5
407.778	72.5
408.002	75.5
408.226	72.5
408.449	76.5
408.673	72.5
408.896	78.5
409.12	78.5
409.344	73.5
409.567	89.5
409.791	79.5
410.014	81.5
410.238	84.5
410.461	66.5
410.685	82.5
410.908	87.5
411.132	81.5
411.355	85.5
411.578	80.5
411.802	77.5
412.025	82.5
412.249	90.5
412.472	82.5
412.695	82.5
412.919	78.5
413.142	79.5
413.365	83.5
413.589	69.5
413.812	75.5
414.035	77.5
414.258	93.5
414.482	70.5
414.705	90.5
414.928	71.5
415.151	64.5
415.374	76.5
415.597	67.5
415.821	90.5
416.044	83.5
416.267	86.5
416.49	93.5
416.713	72.5
416.936	62.5
417.159	70.5
417.382	66.5
417.605	73.5
417.828	66.5
418.051	86.5
418.274	80.5
418.497	79.5
418.72	76.5
418.943	74.5
419.166	92.5
419.389	65.5
419.611	88.5
419.834	60.5
420.057	57.5
420.28	64.5
420.503	69.5
420.726	91.5
420.948	80.5
421.171	72.5
421.394	85.5
421.617	78.5
421.839	72.5
422.062	72.5
422.285	91.5
422.507	84.5
422.73	80.5
422.953	76.5
423.175	78.5
423.398	78.5
423.621	74.5
423.843	80.5
424.066	73.5
424.288	76.5
424.511	92.5
424.733	82.5
424.956	71.5
425.178	68.5
425.401	64.5
425.623	62.5
425.846	66.5
426.068	85.5
426.291	84.5
426.513	82.5
426.735	89.5
426.958	74.5
427.18	76.5
427.402	79.5
427.625	75.5
427.847	64.5
428.069	72.5
428.292	78.5
428.514	82.5
428.736	90.5
428.958	88.5
429.181	85.5
429.403	77.5
429.625	58.5
429.847	62.5
430.069	70.5
430.292	97.5
430.514	71.5
430.736	81.5
430.958	87.5
431.18	74.5
431.402	76.5
431.624	86.5
431.846	85.5
432.068	81.5
432.29	70.5
432.512	91.5
432.734	78.5
432.956	72.5
433.178	96.5
433.4	73.5
433.622	67.5
433.844	78.5
434.066	88.5
434.287	79.5
434.509	91.5
434.731	77.5
434.953	79.5
435.175	80.5
435.397	77.5
435.618	79.5
435.84	74.5
436.062	85.5
436.284	82.5
436.505	86.5
436.727	97.5
436.949	77.5
437.17	71.5
437.392	73.5
437.614	81.5
437.835	61.5
438.057	76.5
438.278	78.5
438.5	67.5
438.721	78.5
438.943	77.5
439.165	69.5
439.386	86.5
439.608	62.5
439.829	74.5
440.05	85.5
440.272	58.5
440.493	97.5
440.715	92.5
440.936	81.5
441.158	82.5
441.379	72.5
441.6	76.5
441.822	89.5
442.043	62.5
442.264	80.5
442.486	86.5
442.707	60.5
442.928	72.5
443.149	80.5
443.371	68.5
443.592	73.5
443.813	82.5
444.034	79.5
444.255	65.5
444.476	75.5
444.698	74.5
444.919	76.5
445.14	156.5
445.361	98.5
445.582	74.5
445.803	86.5
446.024	77.5
446.245	70.5
446.466	81.5
446.687	93.5
446.908	93.5
447.129	83.5
447.35	93.5
447.571	81.5
447.792	89.5
448.013	74.5
448.234	84.5
448.455	72.5
448.675	72.5
448.896	73.5
449.117	72.5
449.338	78.5
449.559	86.5
449.779	78.5
450	71.5
450.221	93.5
450.442	94.5
450.662	78.5
450.883	61.5
451.104	75.5
451.324	67.5
451.545	76.5
451.766	80.5
451.986	78.5
452.207	75.5
452.428	83.5
452.648	88.5
452.869	88.5
453.089	85.5
453.31	90.5
453.53	72.5
453.751	81.5
453.971	83.5
454.192	71.5
454.412	74.5
454.633	69.5
454.853	78.5
455.073	76.5
455.294	78.5
455.514	100.5
455.734	83.5
455.955	80.5
456.175	84.5
456.395	65.5
456.616	85.5
456.836	85.5
457.056	86.5
457.276	75.5
457.497	74.5
457.717	75.5
457.937	88.5
458.157	71.5
458.377	86.5
458.598	77.5
458.818	73.5
459.038	91.5
459.258	83.5
459.478	79.5
459.698	80.5
459.918	72.5
460.138	82.5
460.358	71.5
460.578	66.5
460.798	84.5
461.018	83.5
461.238	81.5
461.458	79.5
461.678	80.5
461.898	88.5
462.118	66.5
462.338	85.5
462.558	91.5
462.777	69.5
462.997	84.5
463.217	78.5
463.437	81.5
463.657	63.5
463.876	76.5
464.096	84.5
464.316	78.5
464.536	91.5
464.755	96.5
464.975	82.5
465.195	71.5
465.414	73.5
465.634	81.5
465.854	80.5
466.073	74.5
466.293	79.5
466.512	71.5
466.732	71.5
466.951	78.5
467.171	81.5
467.391	77.5
467.61	77.5
467.829	66.5
468.049	77.5
468.268	70.5
468.488	75.5
468.707	76.5
468.927	81.5
469.146	92.5
469.365	79.5
469.585	80.5
469.804	76.5
470.023	78.5
470.243	80.5
470.462	78.5
470.681	81.5
470.901	67.5
471.12	73.5
471.339	66.5
471.558	82.5
471.777	69.5
471.997	94.5
472.216	81.5
472.435	89.5
472.654	80.5
472.873	83.5
473.092	70.5
473.311	78.5
473.53	85.5
473.749	88.5
473.968	93.5
474.187	74.5
474.406	78.5
474.625	82.5
474.844	89.5
475.063	75.5
475.282	77.5
475.501	75.5
475.72	97.5
475.939	84.5
476.158	77.5
476.377	85.5
476.596	73.5
476.814	79.5
477.033	65.5
477.252	67.5
477.471	87.5
477.69	74.5
477.908	76.5
478.127	82.5
478.346	94.5
478.564	62.5
478.783	73.5
479.002	77.5
479.22	77.5
479.439	64.5
479.658	81.5
479.876	81.5
480.095	71.5
480.313	78.5
480.532	70.5
480.751	79.5
480.969	82.5
481.188	86.5
481.406	76.5
481.624	72.5
481.843	84.5
482.061	78.5
482.28	74.5
482.498	87.5
482.717	79.5
482.935	72.5
483.153	96.5
483.372	87.5
483.59	70.5
483.808	92.5
484.027	80.5
484.245	85.5
484.463	72.5
484.681	82.5
484.9	72.5
485.118	71.5
485.336	76.5
485.554	81.5
485.772	65.5
485.99	76.5
486.209	84.5
486.427	83.5
486.645	70.5
486.863	67.5
487.081	84.5
487.299	82.5
487.517	80.5
487.735	71.5
487.953	92.5
488.171	71.5
488.389	83.5
488.607	76.5
488.825	73.5
489.043	78.5
489.261	71.5
489.479	72.5
489.696	74.5
489.914	78.5
490.132	78.5
490.35	70.5
490.568	75.5
490.786	76.5
491.003	64.5
491.221	77.5
491.439	85.5
491.657	79.5
491.874	72.5
492.092	66.5
492.31	82.5
492.527	66.5
492.745	72.5
492.963	88.5
493.18	81.5
493.398	73.5
493.615	77.5
493.833	83.5
494.05	86.5
494.268	86.5
494.485	79.5
494.703	76.5
494.92	83.5
495.138	73.5
495.355	80.5
495.573	80.5
495.79	59.5
496.008	75.5
496.225	81.5
496.442	80.5
496.66	67.5
496.877	70.5
497.094	88.5
497.312	72.5
497.529	77.5
497.746	80.5
497.963	80.5
498.181	85.5
498.398	63.5
498.615	86.5
498.832	72.5
499.049	85.5
499.267	75.5
499.484	59.5
499.701	81.5
499.918	93.5
500.135	76.5
500.352	73.5
500.569	86.5
500.786	78.5
501.003	76.5
501.22	80.5
501.437	71.5
501.654	85.5
501.871	74.5
502.088	89.5
502.305	82.5
502.522	82.5
502.739	70.5
502.956	79.5
503.172	67.5
503.389	78.5
503.606	77.5
503.823	79.5
504.04	77.5
504.256	74.5
504.473	82.5
504.69	81.5
504.907	83.5
505.123	90.5
505.34	76.5
505.557	72.5
505.773	79.5
505.99	88.5
506.207	81.5
506.423	79.5
506.64	88.5
506.856	94.5
507.073	84.5
507.289	76.5
507.506	79.5
507.722	105.5
507.939	84.5
508.155	70.5
508.372	82.5
508.588	94.5
508.805	84.5
509.021	75.5
509.238	92.5
509.454	84.5
509.67	85.5
509.887	78.5
510.103	93.5
510.319	96.5
510.536	78.5
510.752	76.5
510.968	82.5
511.184	85.5
511.401	78.5
511.617	67.5
511.833	73.5
512.049	89.5
512.265	80.5
512.481	68.5
512.698	76.5
512.914	86.5
513.13	87.5
513.346	76.5
513.562	79.5
513.778	81.5
513.994	83.5
514.21	76.5
514.426	90.5
514.642	78.5
514.858	76.5
515.074	79.5
515.29	89.5
515.506	81.5
515.721	86.5
515.937	88.5
516.153	85.5
516.369	83.5
516.585	89.5
516.801	78.5
517.016	88.5
517.232	77.5
517.448	76.5
517.664	84.5
517.879	87.5
518.095	76.5
518.311	80.5
518.527	62.5
518.742	82.5
518.958	90.5
519.173	85.5
519.389	81.5
519.605	88.5
519.82	69.5
520.036	80.5
520.251	64.5
520.467	79.5
520.682	89.5
520.898	84.5
521.113	84.5
521.329	80.5
521.544	98.5
521.76	70.5
521.975	78.5
522.19	66.5
522.406	62.5
522.621	66.5
522.836	71.5
523.052	97.5
523.267	88.5
523.482	81.5
523.698	76.5
523.913	82.5
524.128	67.5
524.343	87.5
524.559	81.5
524.774	85.5
524.989	88.5
525.204	85.5
525.419	88.5
525.634	74.5
525.849	97.5
526.064	75.5
526.28	77.5
526.495	84.5
526.71	74.5
526.925	81.5
527.14	91.5
527.355	90.5
527.57	82.5
527.785	86.5
527.999	73.5
528.214	66.5
528.429	84.5
528.644	88.5
528.859	83.5
529.074	83.5
529.289	96.5
529.503	80.5
529.718	80.5
529.933	90.5
530.148	80.5
530.363	91.5
530.577	75.5
530.792	79.5
531.007	58.5
531.221	86.5
531.436	72.5
531.651	91.5
531.865	97.5
532.08	79.5
532.295	73.5
532.509	62.5
532.724	81.5
532.938	89.5
533.153	74.5
533.367	70.5
533.582	66.5
533.796	73.5
534.011	66.5
534.225	75.5
534.44	74.5
534.654	80.5
534.868	76.5
535.083	81.5
535.297	71.5
535.511	76.5
535.726	82.5
535.94	89.5
536.154	88.5
536.369	79.5
536.583	72.5
536.797	76.5
537.011	90.5
537.225	101.5
537.44	74.5
537.654	81.5
537.868	79.5
538.082	83.5
538.296	81.5
538.51	78.5
538.724	76.5
538.938	74.5
539.153	80.5
539.367	84.5
539.581	84.5
539.795	71.5
540.009	75.5
540.222	74.5
540.436	84.5
540.65	77.5
540.864	82.5
541.078	81.5
541.292	81.5
541.506	84.5
541.72	90.5
541.934	63.5
542.147	56.5
542.361	70.5
542.575	81.5
542.789	78.5
543.002	78.5
543.216	87.5
543.43	62.5
543.644	87.5
543.857	74.5
544.071	70.5
544.285	89.5
544.498	88.5
544.712	78.5
544.925	88.5
545.139	84.5
545.352	86.5
545.566	80.5
545.779	76.5
545.993	76.5
546.206	76.5
546.42	79.5
546.633	93.5
546.847	86.5
547.06	95.5
547.274	100.5
547.487	76.5
547.7	86.5
547.914	87.5
548.127	80.5
548.34	77.5
548.554	80.5
548.767	85.5
548.98	86.5
549.193	68.5
549.407	74.5
549.62	83.5
549.833	79.5
550.046	84.5
550.259	82.5
550.473	79.5
550.686	92.5
550.899	81.5
551.112	71.5
551.325	73.5
551.538	69.5
551.751	88.5
551.964	84.5
552.177	80.5
552.39	88.5
552.603	82.5
552.816	85.5
553.029	85.5
553.242	57.5
553.455	87.5
553.667	90.5
553.88	87.5
554.093	72.5
554.306	78.5
554.519	83.5
554.732	76.5
554.944	82.5
555.157	97.5
555.37	86.5
555.583	87.5
555.795	86.5
556.008	76.5
556.221	79.5
556.433	74.5
556.646	83.5
556.859	85.5
557.071	68.5
557.284	78.5
557.496	100.5
557.709	80.5
557.921	76.5
558.134	74.5
558.346	75.5
558.559	86.5
558.771	72.5
558.984	77.5
559.196	84.5
559.409	77.5
559.621	69.5
559.833	66.5
560.046	76.5
560.258	72.5
560.47	78.5
560.683	79.5
560.895	79.5
561.107	89.5
561.32	76.5
561.532	70.5
561.744	91.5
561.956	79.5
562.168	61.5
562.381	71.5
562.593	83.5
562.805	73.5
563.017	82.5
563.229	91.5
563.441	71.5
563.653	75.5
563.865	86.5
564.077	79.5
564.289	78.5
564.501	80.5
564.713	80.5
564.925	96.5
565.137	85.5
565.349	95.5
565.561	72.5
565.773	85.5
565.985	77.5
566.197	77.5
566.408	67.5
566.62	82.5
566.832	74.5
567.044	70.5
567.255	84.5
567.467	80.5
567.679	81.5
567.891	71.5
568.102	75.5
568.314	77.5
568.526	88.5
568.737	81.5
568.949	74.5
569.161	78.5
569.372	77.5
569.584	80.5
569.795	79.5
570.007	85.5
570.218	92.5
570.43	68.5
570.641	75.5
570.853	74.5
571.064	80.5
571.276	93.5
571.487	83.5
571.698	81.5
571.91	89.5
572.121	89.5
572.333	74.5
572.544	98.5
572.755	73.5
572.966	92.5
573.178	86.5
573.389	80.5
573.6	70.5
573.811	79.5
574.023	96.5
574.234	78.5
574.445	73.5
574.656	76.5
574.867	84.5
575.078	82.5
575.289	73.5
575.501	81.5
575.712	75.5
575.923	70.5
576.134	75.5
576.345	82.5
576.556	88.5
576.767	87.5
576.978	80.5
577.188	84.5
577.399	90.5
577.61	87.5
577.821	81.5
578.032	75.5
578.243	73.5
578.454	74.5
578.665	80.5
578.875	87.5
579.086	79.5
579.297	88.5
579.508	90.5
579.718	85.5
579.929	91.5
580.14	92.5
580.35	76.5
580.561	86.5
580.772	77.5
580.982	81.5
581.193	75.5
581.403	86.5
581.614	76.5
581.825	89.5
582.035	84.5
582.246	62.5
582.456	86.5
582.667	72.5
582.877	85.5
583.087	86.5
583.298	88.5
583.508	77.5
583.719	86.5
583.929	86.5
584.139	81.5
584.35	80.5
584.56	81.5
584.77	70.5
584.981	77.5
585.191	88.5
585.401	88.5
585.611	72.5
585.821	96.5
586.032	75.5
586.242	81.5
586.452	82.5
586.662	90.5
586.872	81.5
587.082	66.5
587.292	80.5
587.502	76.5
587.713	90.5
587.923	74.5
588.133	93.5
588.343	85.5
588.553	71.5
588.762	93.5
588.972	84.5
589.182	71.5
589.392	76.5
589.602	88.5
589.812	85.5
590.022	89.5
590.232	84.5
590.441	86.5
590.651	81.5
590.861	82.5
591.071	75.5
591.281	79.5
591.49	78.5
591.7	94.5
591.91	88.5
592.119	80.5
592.329	66.5
592.539	77.5
592.748	77.5
592.958	81.5
593.167	77.5
593.377	88.5
593.587	88.5
593.796	71.5
594.006	73.5
594.215	74.5
594.424	77.5
594.634	74.5
594.843	73.5
595.053	82.5
595.262	83.5
595.472	75.5
595.681	87.5
595.89	81.5
596.1	81.5
596.309	74.5
596.518	56.5
596.727	84.5
596.937	80.5
597.146	71.5
597.355	72.5
597.564	81.5
597.774	90.5
597.983	79.5
598.192	86.5
598.401	86.5
598.61	69.5
598.819	84.5
599.028	106.5
599.237	81.5
599.446	86.5
599.655	90.5
599.864	88.5
600.073	73.5
600.282	93.5
600.491	93.5
600.7	80.5
600.909	71.5
601.118	71.5
601.327	79.5
601.536	86.5
601.745	94.5
601.953	85.5
602.162	81.5
602.371	73.5
602.58	79.5
602.789	82.5
602.997	90.5
603.206	91.5
603.415	87.5
603.623	78.5
603.832	93.5
604.041	85.5
604.249	76.5
604.458	78.5
604.666	75.5
604.875	72.5
605.084	90.5
605.292	80.5
605.501	80.5
605.709	84.5
605.918	73.5
606.126	77.5
606.334	82.5
606.543	86.5
606.751	72.5
606.96	88.5
607.168	82.5
607.376	84.5
607.585	83.5
607.793	86.5
608.001	79.5
608.21	76.5
608.418	71.5
608.626	66.5
608.834	78.5
609.043	84.5
609.251	87.5
609.459	71.5
609.667	81.5
609.875	76.5
610.083	90.5
610.291	65.5
610.499	67.5
610.707	87.5
610.916	85.5
611.124	92.5
611.332	77.5
611.54	71.5
611.748	83.5
611.955	72.5
612.163	88.5
612.371	98.5
612.579	93.5
612.787	75.5
612.995	81.5
613.203	87.5
613.411	91.5
613.618	72.5
613.826	102.5
614.034	79.5
614.242	88.5
614.449	100.5
614.657	66.5
614.865	79.5
615.072	83.5
615.28	81.5
615.488	90.5
615.695	84.5
615.903	98.5
616.111	80.5
616.318	96.5
616.526	77.5
616.733	82.5
616.941	84.5
617.148	85.5
617.356	87.5
617.563	90.5
617.771	76.5
617.978	78.5
618.185	92.5
618.393	87.5
618.6	73.5
618.807	84.5
619.015	84.5
619.222	84.5
619.429	106.5
619.637	85.5
619.844	85.5
620.051	80.5
620.258	68.5
620.466	83.5
620.673	81.5
620.88	84.5
621.087	66.5
621.294	80.5
621.501	84.5
621.708	76.5
621.915	63.5
622.122	63.5
622.329	78.5
622.536	92.5
622.743	89.5
622.95	86.5
623.157	90.5
623.364	76.5
623.571	84.5
623.778	80.5
623.985	85.5
624.192	65.5
624.399	76.5
624.606	80.5
624.812	87.5
625.019	78.5
625.226	81.5
625.433	90.5
625.639	82.5
625.846	86.5
626.053	75.5
626.259	81.5
626.466	88.5
626.673	71.5
626.879	87.5
627.086	83.5
627.293	58.5
627.499	76.5
627.706	80.5
627.912	85.5
628.119	85.5
628.325	88.5
628.532	77.5
628.738	86.5
628.945	73.5
629.151	78.5
629.357	86.5
629.564	78.5
629.77	87.5
629.976	85.5
630.183	93.5
630.389	76.5
630.595	62.5
630.802	73.5
631.008	86.5
631.214	82.5
631.42	74.5
631.627	87.5
631.833	89.5
632.039	83.5
632.245	88.5
632.451	85.5
632.657	69.5
632.863	78.5
633.069	88.5
633.275	70.5
633.481	70.5
633.688	88.5
633.893	84.5
634.099	85.5
634.305	85.5
634.511	81.5
634.717	81.5
634.923	73.5
635.129	86.5
635.335	80.5
635.541	73.5
635.747	83.5
635.952	68.5
636.158	74.5
636.364	84.5
636.57	85.5
636.775	72.5
636.981	83.5
637.187	84.5
637.392	82.5
637.598	84.5
637.804	92.5
638.009	85.5
638.215	66.5
638.421	75.5
638.626	97.5
638.832	75.5
639.037	78.5
639.243	81.5
639.448	100.5
639.654	88.5
639.859	84.5
640.065	80.5
640.27	74.5
640.475	78.5
640.681	72.5
640.886	87.5
641.091	73.5
641.297	81.5
641.502	83.5
641.707	74.5
641.913	84.5
642.118	87.5
642.323	78.5
642.528	84.5
642.733	82.5
642.939	72.5
643.144	73.5
643.349	90.5
643.554	81.5
643.759	72.5
643.964	80.5
644.169	78.5
644.374	92.5
644.579	72.5
644.784	82.5
644.989	85.5
645.194	78.5
645.399	84.5
645.604	88.5
645.809	78.5
646.014	88.5
646.219	79.5
646.423	80.5
646.628	78.5
646.833	71.5
647.038	74.5
647.243	81.5
647.447	90.5
647.652	104.5
647.857	80.5
648.062	70.5
648.266	73.5
648.471	77.5
648.676	85.5
648.88	85.5
649.085	80.5
649.289	68.5
649.494	75.5
649.698	87.5
649.903	67.5
650.107	76.5
650.312	76.5
650.516	76.5
650.721	80.5
650.925	83.5
651.13	79.5
651.334	75.5
651.539	75.5
651.743	84.5
651.947	66.5
652.152	80.5
652.356	85.5
652.56	93.5
652.764	80.5
652.969	91.5
653.173	66.5
653.377	71.5
653.581	72.5
653.785	77.5
653.99	81.5
654.194	94.5
654.398	68.5
654.602	81.5
654.806	66.5
655.01	67.5
655.214	81.5
655.418	77.5
655.622	94.5
655.826	91.5
656.03	84.5
656.234	78.5
656.438	85.5
656.642	90.5
656.846	79.5
657.049	78.5
657.253	77.5
657.457	81.5
657.661	75.5
657.865	61.5
658.068	77.5
658.272	72.5
658.476	80.5
658.68	89.5
658.883	69.5
659.087	80.5
659.291	81.5
659.494	79.5
659.698	71.5
659.901	84.5
660.105	77.5
660.309	80.5
660.512	73.5
660.716	78.5
660.919	87.5
661.123	86.5
661.326	76.5
661.53	85.5
661.733	77.5
661.936	90.5
662.14	93.5
662.343	78.5
662.546	71.5
662.75	70.5
662.953	93.5
663.156	79.5
663.36	66.5
663.563	81.5
663.766	78.5
663.969	90.5
664.173	89.5
664.376	94.5
664.579	83.5
664.782	85.5
664.985	77.5
665.188	77.5
665.391	70.5
665.594	85.5
665.797	77.5
666	81.5
666.203	92.5
666.406	76.5
666.609	71.5
666.812	71.5
667.015	88.5
667.218	73.5
667.421	87.5
667.624	77.5
667.827	87.5
668.03	93.5
668.232	79.5
668.435	65.5
668.638	81.5
668.841	78.5
669.043	76.5
669.246	68.5
669.449	77.5
669.651	79.5
669.854	82.5
670.057	57.5
670.259	84.5
670.462	78.5
670.665	84.5
670.867	86.5
671.07	77.5
671.272	82.5
671.475	75.5
671.677	92.5
671.88	74.5
672.082	86.5
672.284	81.5
672.487	81.5
672.689	73.5
672.892	87.5
