Data from KBr_4_HRD10591_00028.txt Node
Date: Mon Jan 19 13:25:34 EST 2026
User: Yrep
Spectrometer: HR+D1059
Trigger mode: 0
Integration Time (sec): 1.000000E-1
Scans to average: 1
Electric dark correction enabled: true
Nonlinearity correction enabled: false
Boxcar width: 0
XAxis mode: Wavelengths
Number of Pixels in Spectrum: 2048
>>>>>Begin Spectral Data<<<<<
223.165	-23.31
223.4	-23.31
223.635	-23.31
223.869	-20.31
224.104	-7.31
224.338	-11.31
224.573	-28.31
224.808	-13.31
225.042	-14.31
225.277	-3.31
225.511	-2.31
225.746	8.69
225.98	-3.31
226.215	1.69
226.449	29.69
226.683	21.69
226.918	17.69
227.152	47.69
227.387	39.69
227.621	33.69
227.856	51.69
228.09	57.69
228.324	51.69
228.559	64.69
228.793	57.69
229.027	51.69
229.262	51.69
229.496	62.69
229.73	73.69
229.964	55.69
230.199	69.69
230.433	65.69
230.667	84.69
230.901	87.69
231.136	77.69
231.37	77.69
231.604	80.69
231.838	95.69
232.072	87.69
232.306	75.69
232.541	92.69
232.775	75.69
233.009	73.69
233.243	83.69
233.477	86.69
233.711	77.69
233.945	73.69
234.179	87.69
234.413	86.69
234.647	76.69
234.881	76.69
235.115	82.69
235.349	76.69
235.583	73.69
235.817	83.69
236.051	73.69
236.285	80.69
236.519	69.69
236.753	70.69
236.987	77.69
237.221	69.69
237.455	81.69
237.689	83.69
237.922	70.69
238.156	81.69
238.39	66.69
238.624	77.69
238.858	75.69
239.091	85.69
239.325	75.69
239.559	75.69
239.793	80.69
240.027	82.69
240.26	79.69
240.494	85.69
240.728	74.69
240.961	71.69
241.195	72.69
241.429	80.69
241.662	68.69
241.896	82.69
242.13	75.69
242.363	84.69
242.597	74.69
242.83	85.69
243.064	69.69
243.298	72.69
243.531	67.69
243.765	69.69
243.998	90.69
244.232	76.69
244.465	79.69
244.699	69.69
244.932	85.69
245.166	91.69
245.399	95.69
245.633	75.69
245.866	77.69
246.099	74.69
246.333	66.69
246.566	75.69
246.8	91.69
247.033	80.69
247.266	64.69
247.5	80.69
247.733	71.69
247.966	78.69
248.2	83.69
248.433	75.69
248.666	72.69
248.899	84.69
249.133	91.69
249.366	85.69
249.599	82.69
249.832	73.69
250.066	99.69
250.299	85.69
250.532	75.69
250.765	70.69
250.998	76.69
251.231	74.69
251.465	63.69
251.698	85.69
251.931	70.69
252.164	79.69
252.397	66.69
252.63	83.69
252.863	81.69
253.096	80.69
253.329	83.69
253.562	82.69
253.795	83.69
254.028	79.69
254.261	95.69
254.494	84.69
254.727	80.69
254.96	81.69
255.193	88.69
255.426	82.69
255.659	83.69
255.892	77.69
256.124	73.69
256.357	84.69
256.59	75.69
256.823	76.69
257.056	70.69
257.289	80.69
257.521	79.69
257.754	75.69
257.987	85.69
258.22	80.69
258.452	68.69
258.685	68.69
258.918	75.69
259.151	65.69
259.383	55.69
259.616	75.69
259.849	89.69
260.081	83.69
260.314	83.69
260.547	91.69
260.779	78.69
261.012	63.69
261.244	78.69
261.477	69.69
261.71	93.69
261.942	87.69
262.175	83.69
262.407	84.69
262.64	65.69
262.872	78.69
263.105	83.69
263.337	83.69
263.57	91.69
263.802	105.69
264.035	84.69
264.267	90.69
264.499	69.69
264.732	85.69
264.964	84.69
265.197	85.69
265.429	85.69
265.661	84.69
265.894	87.69
266.126	79.69
266.358	87.69
266.591	85.69
266.823	77.69
267.055	84.69
267.287	90.69
267.52	81.69
267.752	88.69
267.984	72.69
268.216	95.69
268.448	82.69
268.681	86.69
268.913	81.69
269.145	79.69
269.377	93.69
269.609	65.69
269.841	87.69
270.073	84.69
270.306	85.69
270.538	84.69
270.77	80.69
271.002	77.69
271.234	77.69
271.466	84.69
271.698	83.69
271.93	76.69
272.162	81.69
272.394	100.69
272.626	91.69
272.858	91.69
273.09	93.69
273.322	90.69
273.553	88.69
273.785	87.69
274.017	77.69
274.249	99.69
274.481	76.69
274.713	77.69
274.945	83.69
275.176	87.69
275.408	75.69
275.64	97.69
275.872	75.69
276.104	84.69
276.335	83.69
276.567	78.69
276.799	88.69
277.031	91.69
277.262	86.69
277.494	79.69
277.726	78.69
277.957	91.69
278.189	95.69
278.421	76.69
278.652	71.69
278.884	81.69
279.115	81.69
279.347	87.69
279.579	74.69
279.81	101.69
280.042	93.69
280.273	87.69
280.505	92.69
280.736	87.69
280.968	82.69
281.199	90.69
281.431	76.69
281.662	75.69
281.894	72.69
282.125	72.69
282.356	82.69
282.588	79.69
282.819	87.69
283.051	96.69
283.282	78.69
283.513	88.69
283.745	88.69
283.976	104.69
284.207	77.69
284.439	73.69
284.67	84.69
284.901	83.69
285.132	93.69
285.364	81.69
285.595	77.69
285.826	85.69
286.057	78.69
286.288	64.69
286.52	76.69
286.751	91.69
286.982	92.69
287.213	79.69
287.444	85.69
287.675	91.69
287.906	92.69
288.138	88.69
288.369	77.69
288.6	71.69
288.831	100.69
289.062	97.69
289.293	85.69
289.524	87.69
289.755	85.69
289.986	86.69
290.217	68.69
290.448	84.69
290.679	97.69
290.91	81.69
291.141	85.69
291.371	88.69
291.602	79.69
291.833	92.69
292.064	79.69
292.295	67.69
292.526	78.69
292.757	93.69
292.987	84.69
293.218	83.69
293.449	91.69
293.68	77.69
293.91	81.69
294.141	87.69
294.372	89.69
294.603	87.69
294.833	62.69
295.064	92.69
295.295	88.69
295.525	88.69
295.756	90.69
295.987	82.69
296.217	89.69
296.448	78.69
296.679	76.69
296.909	89.69
297.14	93.69
297.37	89.69
297.601	82.69
297.831	77.69
298.062	94.69
298.292	89.69
298.523	82.69
298.753	86.69
298.984	85.69
299.214	69.69
299.445	78.69
299.675	83.69
299.905	93.69
300.136	79.69
300.366	83.69
300.597	89.69
300.827	96.69
301.057	89.69
301.288	87.69
301.518	89.69
301.748	87.69
301.979	99.69
302.209	85.69
302.439	80.69
302.669	80.69
302.9	75.69
303.13	83.69
303.36	92.69
303.59	81.69
303.82	84.69
304.051	76.69
304.281	83.69
304.511	86.69
304.741	81.69
304.971	86.69
305.201	89.69
305.431	79.69
305.661	78.69
305.891	79.69
306.121	78.69
306.352	80.69
306.582	95.69
306.812	83.69
307.042	91.69
307.272	79.69
307.502	83.69
307.731	85.69
307.961	87.69
308.191	84.69
308.421	97.69
308.651	72.69
308.881	86.69
309.111	90.69
309.341	81.69
309.571	86.69
309.8	74.69
310.03	98.69
310.26	87.69
310.49	70.69
310.72	82.69
310.949	95.69
311.179	87.69
311.409	88.69
311.639	98.69
311.868	89.69
312.098	85.69
312.328	79.69
312.557	80.69
312.787	75.69
313.017	81.69
313.246	93.69
313.476	83.69
313.706	95.69
313.935	65.69
314.165	95.69
314.394	77.69
314.624	97.69
314.853	92.69
315.083	81.69
315.312	69.69
315.542	84.69
315.771	87.69
316.001	79.69
316.23	84.69
316.46	92.69
316.689	89.69
316.919	87.69
317.148	95.69
317.377	88.69
317.607	92.69
317.836	79.69
318.065	77.69
318.295	73.69
318.524	79.69
318.753	89.69
318.983	76.69
319.212	82.69
319.441	78.69
319.67	100.69
319.9	88.69
320.129	99.69
320.358	74.69
320.587	95.69
320.816	89.69
321.046	76.69
321.275	92.69
321.504	94.69
321.733	99.69
321.962	88.69
322.191	93.69
322.42	73.69
322.649	94.69
322.878	96.69
323.108	91.69
323.337	89.69
323.566	77.69
323.795	90.69
324.024	85.69
324.253	78.69
324.482	83.69
324.71	77.69
324.939	74.69
325.168	91.69
325.397	81.69
325.626	73.69
325.855	80.69
326.084	74.69
326.313	92.69
326.542	81.69
326.77	104.69
326.999	102.69
327.228	85.69
327.457	86.69
327.686	84.69
327.914	83.69
328.143	86.69
328.372	93.69
328.6	81.69
328.829	103.69
329.058	89.69
329.287	81.69
329.515	80.69
329.744	82.69
329.972	76.69
330.201	70.69
330.43	75.69
330.658	95.69
330.887	76.69
331.115	82.69
331.344	73.69
331.572	78.69
331.801	77.69
332.03	83.69
332.258	94.69
332.486	79.69
332.715	97.69
332.943	89.69
333.172	77.69
333.4	84.69
333.629	91.69
333.857	92.69
334.085	83.69
334.314	92.69
334.542	80.69
334.771	84.69
334.999	80.69
335.227	98.69
335.455	85.69
335.684	85.69
335.912	81.69
336.14	75.69
336.369	94.69
336.597	79.69
336.825	89.69
337.053	87.69
337.281	92.69
337.51	80.69
337.738	75.69
337.966	79.69
338.194	76.69
338.422	81.69
338.65	91.69
338.878	90.69
339.106	84.69
339.334	90.69
339.562	84.69
339.79	89.69
340.018	75.69
340.246	94.69
340.474	88.69
340.702	78.69
340.93	93.69
341.158	75.69
341.386	88.69
341.614	83.69
341.842	84.69
342.07	84.69
342.298	89.69
342.526	76.69
342.754	80.69
342.981	78.69
343.209	83.69
343.437	98.69
343.665	82.69
343.893	83.69
344.12	74.69
344.348	79.69
344.576	87.69
344.804	93.69
345.031	62.69
345.259	91.69
345.487	87.69
345.714	90.69
345.942	80.69
346.17	92.69
346.397	98.69
346.625	80.69
346.853	85.69
347.08	83.69
347.308	94.69
347.535	83.69
347.763	79.69
347.99	84.69
348.218	91.69
348.445	83.69
348.673	62.69
348.9	104.69
349.128	85.69
349.355	89.69
349.583	63.69
349.81	82.69
350.037	81.69
350.265	98.69
350.492	79.69
350.72	89.69
350.947	79.69
351.174	91.69
351.402	90.69
351.629	91.69
351.856	75.69
352.083	86.69
352.311	83.69
352.538	88.69
352.765	70.69
352.992	94.69
353.22	85.69
353.447	90.69
353.674	85.69
353.901	84.69
354.128	76.69
354.355	97.69
354.583	77.69
354.81	84.69
355.037	77.69
355.264	86.69
355.491	89.69
355.718	89.69
355.945	89.69
356.172	91.69
356.399	83.69
356.626	70.69
356.853	84.69
357.08	94.69
357.307	73.69
357.534	70.69
357.761	70.69
357.988	86.69
358.215	74.69
358.441	84.69
358.668	74.69
358.895	84.69
359.122	90.69
359.349	69.69
359.576	90.69
359.802	83.69
360.029	87.69
360.256	90.69
360.483	95.69
360.709	77.69
360.936	83.69
361.163	96.69
361.39	83.69
361.616	97.69
361.843	89.69
362.07	79.69
362.296	79.69
362.523	74.69
362.749	64.69
362.976	83.69
363.203	81.69
363.429	92.69
363.656	88.69
363.882	86.69
364.109	59.69
364.335	87.69
364.562	72.69
364.788	73.69
365.015	82.69
365.241	97.69
365.468	81.69
365.694	90.69
365.92	107.69
366.147	81.69
366.373	85.69
366.599	90.69
366.826	77.69
367.052	67.69
367.278	60.69
367.505	73.69
367.731	90.69
367.957	83.69
368.184	68.69
368.41	81.69
368.636	97.69
368.862	70.69
369.089	81.69
369.315	72.69
369.541	88.69
369.767	84.69
369.993	89.69
370.219	87.69
370.445	73.69
370.672	69.69
370.898	60.69
371.124	74.69
371.35	98.69
371.576	76.69
371.802	75.69
372.028	81.69
372.254	93.69
372.48	79.69
372.706	91.69
372.932	76.69
373.158	85.69
373.384	81.69
373.61	84.69
373.835	86.69
374.061	87.69
374.287	59.69
374.513	87.69
374.739	77.69
374.965	82.69
375.191	89.69
375.416	87.69
375.642	96.69
375.868	95.69
376.094	87.69
376.319	87.69
376.545	88.69
376.771	82.69
376.997	88.69
377.222	84.69
377.448	97.69
377.674	83.69
377.899	91.69
378.125	92.69
378.35	92.69
378.576	80.69
378.802	66.69
379.027	85.69
379.253	88.69
379.478	88.69
379.704	85.69
379.929	83.69
380.155	83.69
380.38	84.69
380.606	64.69
380.831	93.69
381.057	101.69
381.282	85.69
381.507	84.69
381.733	68.69
381.958	94.69
382.184	70.69
382.409	67.69
382.634	96.69
382.86	82.69
383.085	69.69
383.31	77.69
383.535	79.69
383.761	90.69
383.986	84.69
384.211	78.69
384.436	81.69
384.662	73.69
384.887	85.69
385.112	83.69
385.337	88.69
385.562	103.69
385.787	89.69
386.013	98.69
386.238	75.69
386.463	84.69
386.688	98.69
386.913	79.69
387.138	81.69
387.363	72.69
387.588	73.69
387.813	78.69
388.038	96.69
388.263	80.69
388.488	90.69
388.713	79.69
388.938	89.69
389.163	81.69
389.387	89.69
389.612	82.69
389.837	79.69
390.062	88.69
390.287	113.69
390.512	83.69
390.736	81.69
390.961	80.69
391.186	84.69
391.411	79.69
391.636	65.69
391.86	81.69
392.085	75.69
392.31	75.69
392.534	92.69
392.759	72.69
392.984	82.69
393.208	87.69
393.433	87.69
393.658	80.69
393.882	76.69
394.107	99.69
394.331	93.69
394.556	82.69
394.78	86.69
395.005	83.69
395.229	77.69
395.454	97.69
395.678	78.69
395.903	72.69
396.127	77.69
396.352	78.69
396.576	77.69
396.801	76.69
397.025	61.69
397.249	73.69
397.474	82.69
397.698	80.69
397.922	80.69
398.147	81.69
398.371	76.69
398.595	69.69
398.82	89.69
399.044	79.69
399.268	93.69
399.492	90.69
399.717	97.69
399.941	79.69
400.165	86.69
400.389	96.69
400.613	81.69
400.837	93.69
401.062	82.69
401.286	90.69
401.51	87.69
401.734	79.69
401.958	87.69
402.182	88.69
402.406	81.69
402.63	83.69
402.854	94.69
403.078	81.69
403.302	83.69
403.526	73.69
403.75	84.69
403.974	77.69
404.198	92.69
404.422	95.69
404.645	77.69
404.869	82.69
405.093	82.69
405.317	97.69
405.541	77.69
405.765	83.69
405.988	88.69
406.212	79.69
406.436	79.69
406.66	77.69
406.883	81.69
407.107	66.69
407.331	91.69
407.555	83.69
407.778	77.69
408.002	83.69
408.226	80.69
408.449	78.69
408.673	93.69
408.896	84.69
409.12	76.69
409.344	76.69
409.567	84.69
409.791	78.69
410.014	88.69
410.238	85.69
410.461	87.69
410.685	75.69
410.908	84.69
411.132	88.69
411.355	87.69
411.578	82.69
411.802	76.69
412.025	70.69
412.249	87.69
412.472	79.69
412.695	96.69
412.919	81.69
413.142	83.69
413.365	76.69
413.589	82.69
413.812	86.69
414.035	80.69
414.258	95.69
414.482	89.69
414.705	82.69
414.928	97.69
415.151	93.69
415.374	69.69
415.597	82.69
415.821	84.69
416.044	73.69
416.267	85.69
416.49	88.69
416.713	69.69
416.936	81.69
417.159	76.69
417.382	87.69
417.605	88.69
417.828	91.69
418.051	76.69
418.274	84.69
418.497	80.69
418.72	64.69
418.943	79.69
419.166	83.69
419.389	86.69
419.611	91.69
419.834	78.69
420.057	89.69
420.28	88.69
420.503	84.69
420.726	69.69
420.948	83.69
421.171	82.69
421.394	75.69
421.617	85.69
421.839	74.69
422.062	76.69
422.285	78.69
422.507	80.69
422.73	81.69
422.953	78.69
423.175	84.69
423.398	81.69
423.621	75.69
423.843	74.69
424.066	73.69
424.288	73.69
424.511	93.69
424.733	93.69
424.956	76.69
425.178	91.69
425.401	100.69
425.623	82.69
425.846	88.69
426.068	76.69
426.291	77.69
426.513	93.69
426.735	81.69
426.958	69.69
427.18	79.69
427.402	78.69
427.625	73.69
427.847	81.69
428.069	85.69
428.292	73.69
428.514	94.69
428.736	84.69
428.958	83.69
429.181	83.69
429.403	89.69
429.625	90.69
429.847	90.69
430.069	74.69
430.292	78.69
430.514	84.69
430.736	77.69
430.958	75.69
431.18	89.69
431.402	78.69
431.624	82.69
431.846	81.69
432.068	87.69
432.29	80.69
432.512	82.69
432.734	97.69
432.956	89.69
433.178	89.69
433.4	78.69
433.622	84.69
433.844	75.69
434.066	79.69
434.287	84.69
434.509	94.69
434.731	86.69
434.953	76.69
435.175	70.69
435.397	73.69
435.618	79.69
435.84	81.69
436.062	84.69
436.284	76.69
436.505	75.69
436.727	72.69
436.949	89.69
437.17	74.69
437.392	82.69
437.614	79.69
437.835	84.69
438.057	79.69
438.278	78.69
438.5	72.69
438.721	83.69
438.943	79.69
439.165	82.69
439.386	68.69
439.608	94.69
439.829	92.69
440.05	86.69
440.272	82.69
440.493	99.69
440.715	77.69
440.936	82.69
441.158	94.69
441.379	70.69
441.6	79.69
441.822	81.69
442.043	87.69
442.264	79.69
442.486	75.69
442.707	92.69
442.928	81.69
443.149	71.69
443.371	96.69
443.592	86.69
443.813	74.69
444.034	82.69
444.255	87.69
444.476	79.69
444.698	80.69
444.919	83.69
445.14	154.69
445.361	111.69
445.582	70.69
445.803	85.69
446.024	67.69
446.245	78.69
446.466	90.69
446.687	87.69
446.908	74.69
447.129	93.69
447.35	93.69
447.571	70.69
447.792	82.69
448.013	89.69
448.234	77.69
448.455	79.69
448.675	84.69
448.896	81.69
449.117	80.69
449.338	91.69
449.559	78.69
449.779	80.69
450	76.69
450.221	77.69
450.442	82.69
450.662	75.69
450.883	64.69
451.104	82.69
451.324	79.69
451.545	92.69
451.766	77.69
451.986	87.69
452.207	84.69
452.428	78.69
452.648	81.69
452.869	77.69
453.089	61.69
453.31	78.69
453.53	73.69
453.751	80.69
453.971	85.69
454.192	75.69
454.412	79.69
454.633	72.69
454.853	90.69
455.073	82.69
455.294	83.69
455.514	75.69
455.734	69.69
455.955	85.69
456.175	78.69
456.395	73.69
456.616	87.69
456.836	78.69
457.056	85.69
457.276	95.69
457.497	82.69
457.717	83.69
457.937	78.69
458.157	76.69
458.377	80.69
458.598	82.69
458.818	78.69
459.038	82.69
459.258	92.69
459.478	73.69
459.698	91.69
459.918	72.69
460.138	79.69
460.358	86.69
460.578	80.69
460.798	83.69
461.018	88.69
461.238	86.69
461.458	90.69
461.678	88.69
461.898	68.69
462.118	79.69
462.338	73.69
462.558	78.69
462.777	75.69
462.997	67.69
463.217	84.69
463.437	79.69
463.657	59.69
463.876	88.69
464.096	89.69
464.316	81.69
464.536	80.69
464.755	90.69
464.975	86.69
465.195	76.69
465.414	74.69
465.634	85.69
465.854	90.69
466.073	89.69
466.293	88.69
466.512	68.69
466.732	74.69
466.951	83.69
467.171	83.69
467.391	77.69
467.61	79.69
467.829	75.69
468.049	81.69
468.268	76.69
468.488	81.69
468.707	73.69
468.927	69.69
469.146	85.69
469.365	75.69
469.585	79.69
469.804	87.69
470.023	85.69
470.243	82.69
470.462	80.69
470.681	84.69
470.901	87.69
471.12	83.69
471.339	94.69
471.558	77.69
471.777	73.69
471.997	90.69
472.216	77.69
472.435	82.69
472.654	76.69
472.873	91.69
473.092	76.69
473.311	71.69
473.53	79.69
473.749	76.69
473.968	71.69
474.187	73.69
474.406	78.69
474.625	81.69
474.844	79.69
475.063	85.69
475.282	87.69
475.501	82.69
475.72	83.69
475.939	72.69
476.158	83.69
476.377	83.69
476.596	88.69
476.814	76.69
477.033	81.69
477.252	88.69
477.471	75.69
477.69	85.69
477.908	82.69
478.127	85.69
478.346	98.69
478.564	95.69
478.783	80.69
479.002	78.69
479.22	91.69
479.439	81.69
479.658	79.69
479.876	85.69
480.095	85.69
480.313	90.69
480.532	81.69
480.751	90.69
480.969	91.69
481.188	93.69
481.406	85.69
481.624	89.69
481.843	80.69
482.061	80.69
482.28	82.69
482.498	75.69
482.717	89.69
482.935	76.69
483.153	79.69
483.372	79.69
483.59	73.69
483.808	91.69
484.027	88.69
484.245	79.69
484.463	94.69
484.681	89.69
484.9	87.69
485.118	77.69
485.336	84.69
485.554	82.69
485.772	79.69
485.99	90.69
486.209	72.69
486.427	70.69
486.645	92.69
486.863	74.69
487.081	73.69
487.299	76.69
487.517	82.69
487.735	70.69
487.953	81.69
488.171	69.69
488.389	77.69
488.607	76.69
488.825	71.69
489.043	81.69
489.261	90.69
489.479	75.69
489.696	82.69
489.914	100.69
490.132	71.69
490.35	70.69
490.568	83.69
490.786	84.69
491.003	84.69
491.221	76.69
491.439	81.69
491.657	75.69
491.874	81.69
492.092	90.69
492.31	90.69
492.527	80.69
492.745	70.69
492.963	73.69
493.18	83.69
493.398	78.69
493.615	73.69
493.833	77.69
494.05	88.69
494.268	85.69
494.485	83.69
494.703	80.69
494.92	71.69
495.138	89.69
495.355	79.69
495.573	81.69
495.79	84.69
496.008	83.69
496.225	81.69
496.442	96.69
496.66	79.69
496.877	91.69
497.094	87.69
497.312	81.69
497.529	84.69
497.746	88.69
497.963	84.69
498.181	90.69
498.398	73.69
498.615	89.69
498.832	67.69
499.049	88.69
499.267	88.69
499.484	59.69
499.701	96.69
499.918	60.69
500.135	77.69
500.352	84.69
500.569	91.69
500.786	67.69
501.003	81.69
501.22	88.69
501.437	73.69
501.654	98.69
501.871	76.69
502.088	73.69
502.305	90.69
502.522	78.69
502.739	86.69
502.956	91.69
503.172	88.69
503.389	81.69
503.606	87.69
503.823	84.69
504.04	75.69
504.256	83.69
504.473	83.69
504.69	83.69
504.907	89.69
505.123	80.69
505.34	66.69
505.557	93.69
505.773	78.69
505.99	83.69
506.207	83.69
506.423	86.69
506.64	66.69
506.856	82.69
507.073	82.69
507.289	80.69
507.506	74.69
507.722	99.69
507.939	95.69
508.155	89.69
508.372	83.69
508.588	75.69
508.805	69.69
509.021	84.69
509.238	93.69
509.454	83.69
509.67	87.69
509.887	72.69
510.103	86.69
510.319	81.69
510.536	76.69
510.752	74.69
510.968	88.69
511.184	75.69
511.401	93.69
511.617	73.69
511.833	82.69
512.049	90.69
512.265	91.69
512.481	92.69
512.698	79.69
512.914	103.69
513.13	84.69
513.346	86.69
513.562	79.69
513.778	82.69
513.994	87.69
514.21	82.69
514.426	86.69
514.642	76.69
514.858	81.69
515.074	79.69
515.29	73.69
515.506	83.69
515.721	93.69
515.937	77.69
516.153	87.69
516.369	70.69
516.585	87.69
516.801	94.69
517.016	81.69
517.232	77.69
517.448	85.69
517.664	64.69
517.879	89.69
518.095	82.69
518.311	83.69
518.527	91.69
518.742	81.69
518.958	68.69
519.173	79.69
519.389	88.69
519.605	81.69
519.82	79.69
520.036	89.69
520.251	83.69
520.467	89.69
520.682	91.69
520.898	81.69
521.113	89.69
521.329	93.69
521.544	80.69
521.76	81.69
521.975	73.69
522.19	88.69
522.406	84.69
522.621	82.69
522.836	75.69
523.052	74.69
523.267	83.69
523.482	75.69
523.698	77.69
523.913	89.69
524.128	84.69
524.343	82.69
524.559	88.69
524.774	85.69
524.989	94.69
525.204	88.69
525.419	80.69
525.634	99.69
525.849	77.69
526.064	81.69
526.28	92.69
526.495	79.69
526.71	73.69
526.925	77.69
527.14	80.69
527.355	79.69
527.57	86.69
527.785	67.69
527.999	91.69
528.214	83.69
528.429	92.69
528.644	73.69
528.859	63.69
529.074	71.69
529.289	89.69
529.503	87.69
529.718	83.69
529.933	84.69
530.148	87.69
530.363	77.69
530.577	82.69
530.792	83.69
531.007	85.69
531.221	88.69
531.436	91.69
531.651	97.69
531.865	87.69
532.08	92.69
532.295	89.69
532.509	78.69
532.724	89.69
532.938	83.69
533.153	71.69
533.367	83.69
533.582	82.69
533.796	105.69
534.011	87.69
534.225	93.69
534.44	78.69
534.654	91.69
534.868	91.69
535.083	75.69
535.297	92.69
535.511	89.69
535.726	89.69
535.94	84.69
536.154	90.69
536.369	81.69
536.583	86.69
536.797	100.69
537.011	77.69
537.225	81.69
537.44	87.69
537.654	92.69
537.868	82.69
538.082	87.69
538.296	83.69
538.51	85.69
538.724	79.69
538.938	83.69
539.153	77.69
539.367	84.69
539.581	88.69
539.795	81.69
540.009	84.69
540.222	98.69
540.436	98.69
540.65	78.69
540.864	83.69
541.078	77.69
541.292	85.69
541.506	96.69
541.72	76.69
541.934	88.69
542.147	91.69
542.361	80.69
542.575	80.69
542.789	92.69
543.002	83.69
543.216	73.69
543.43	83.69
543.644	84.69
543.857	87.69
544.071	79.69
544.285	76.69
544.498	87.69
544.712	90.69
544.925	92.69
545.139	104.69
545.352	84.69
545.566	101.69
545.779	81.69
545.993	87.69
546.206	74.69
546.42	86.69
546.633	86.69
546.847	88.69
547.06	89.69
547.274	82.69
547.487	78.69
547.7	74.69
547.914	74.69
548.127	79.69
548.34	79.69
548.554	72.69
548.767	84.69
548.98	67.69
549.193	83.69
549.407	84.69
549.62	90.69
549.833	83.69
550.046	80.69
550.259	85.69
550.473	81.69
550.686	86.69
550.899	88.69
551.112	81.69
551.325	91.69
551.538	81.69
551.751	77.69
551.964	81.69
552.177	78.69
552.39	103.69
552.603	106.69
552.816	84.69
553.029	90.69
553.242	82.69
553.455	87.69
553.667	95.69
553.88	73.69
554.093	84.69
554.306	92.69
554.519	85.69
554.732	79.69
554.944	93.69
555.157	76.69
555.37	102.69
555.583	78.69
555.795	89.69
556.008	79.69
556.221	95.69
556.433	89.69
556.646	98.69
556.859	80.69
557.071	77.69
557.284	80.69
557.496	83.69
557.709	77.69
557.921	81.69
558.134	97.69
558.346	87.69
558.559	84.69
558.771	81.69
558.984	77.69
559.196	85.69
559.409	85.69
559.621	97.69
559.833	84.69
560.046	95.69
560.258	84.69
560.47	89.69
560.683	91.69
560.895	85.69
561.107	88.69
561.32	80.69
561.532	67.69
561.744	83.69
561.956	99.69
562.168	90.69
562.381	93.69
562.593	69.69
562.805	103.69
563.017	78.69
563.229	105.69
563.441	103.69
563.653	92.69
563.865	98.69
564.077	79.69
564.289	97.69
564.501	72.69
564.713	86.69
564.925	75.69
565.137	82.69
565.349	103.69
565.561	82.69
565.773	77.69
565.985	96.69
566.197	100.69
566.408	84.69
566.62	95.69
566.832	75.69
567.044	76.69
567.255	77.69
567.467	81.69
567.679	103.69
567.891	91.69
568.102	74.69
568.314	88.69
568.526	67.69
568.737	87.69
568.949	86.69
569.161	76.69
569.372	87.69
569.584	100.69
569.795	73.69
570.007	76.69
570.218	92.69
570.43	82.69
570.641	81.69
570.853	90.69
571.064	84.69
571.276	72.69
571.487	75.69
571.698	91.69
571.91	84.69
572.121	87.69
572.333	93.69
572.544	78.69
572.755	84.69
572.966	85.69
573.178	84.69
573.389	81.69
573.6	87.69
573.811	76.69
574.023	87.69
574.234	88.69
574.445	87.69
574.656	84.69
574.867	83.69
575.078	68.69
575.289	90.69
575.501	91.69
575.712	100.69
575.923	82.69
576.134	91.69
576.345	75.69
576.556	87.69
576.767	108.69
576.978	84.69
577.188	85.69
577.399	98.69
577.61	89.69
577.821	88.69
578.032	82.69
578.243	85.69
578.454	66.69
578.665	73.69
578.875	77.69
579.086	76.69
579.297	88.69
579.508	95.69
579.718	83.69
579.929	84.69
580.14	81.69
580.35	87.69
580.561	84.69
580.772	74.69
580.982	90.69
581.193	89.69
581.403	90.69
581.614	88.69
581.825	87.69
582.035	87.69
582.246	89.69
582.456	89.69
582.667	69.69
582.877	88.69
583.087	73.69
583.298	85.69
583.508	93.69
583.719	99.69
583.929	82.69
584.139	85.69
584.35	71.69
584.56	75.69
584.77	79.69
584.981	80.69
585.191	85.69
585.401	80.69
585.611	79.69
585.821	90.69
586.032	89.69
586.242	89.69
586.452	73.69
586.662	73.69
586.872	76.69
587.082	83.69
587.292	95.69
587.502	93.69
587.713	88.69
587.923	95.69
588.133	88.69
588.343	95.69
588.553	92.69
588.762	81.69
588.972	83.69
589.182	85.69
589.392	93.69
589.602	90.69
589.812	79.69
590.022	89.69
590.232	78.69
590.441	73.69
590.651	80.69
590.861	76.69
591.071	69.69
591.281	80.69
591.49	58.69
591.7	90.69
591.91	82.69
592.119	71.69
592.329	86.69
592.539	82.69
592.748	70.69
592.958	98.69
593.167	77.69
593.377	94.69
593.587	91.69
593.796	88.69
594.006	85.69
594.215	83.69
594.424	88.69
594.634	80.69
594.843	82.69
595.053	95.69
595.262	72.69
595.472	95.69
595.681	83.69
595.89	91.69
596.1	74.69
596.309	80.69
596.518	95.69
596.727	103.69
596.937	82.69
597.146	94.69
597.355	88.69
597.564	87.69
597.774	80.69
597.983	93.69
598.192	79.69
598.401	82.69
598.61	94.69
598.819	89.69
599.028	92.69
599.237	79.69
599.446	90.69
599.655	77.69
599.864	81.69
600.073	79.69
600.282	95.69
600.491	85.69
600.7	80.69
600.909	85.69
601.118	88.69
601.327	82.69
601.536	95.69
601.745	90.69
601.953	69.69
602.162	98.69
602.371	77.69
602.58	85.69
602.789	91.69
602.997	87.69
603.206	78.69
603.415	69.69
603.623	92.69
603.832	94.69
604.041	90.69
604.249	98.69
604.458	79.69
604.666	83.69
604.875	89.69
605.084	100.69
605.292	89.69
605.501	77.69
605.709	77.69
605.918	83.69
606.126	85.69
606.334	84.69
606.543	80.69
606.751	88.69
606.96	81.69
607.168	92.69
607.376	83.69
607.585	77.69
607.793	90.69
608.001	71.69
608.21	84.69
608.418	98.69
608.626	87.69
608.834	69.69
609.043	81.69
609.251	87.69
609.459	72.69
609.667	93.69
609.875	86.69
610.083	84.69
610.291	80.69
610.499	83.69
610.707	76.69
610.916	87.69
611.124	88.69
611.332	89.69
611.54	83.69
611.748	77.69
611.955	95.69
612.163	81.69
612.371	80.69
612.579	72.69
612.787	87.69
612.995	92.69
613.203	93.69
613.411	86.69
613.618	87.69
613.826	92.69
614.034	79.69
614.242	96.69
614.449	93.69
614.657	73.69
614.865	94.69
615.072	75.69
615.28	80.69
615.488	84.69
615.695	82.69
615.903	82.69
616.111	98.69
616.318	83.69
616.526	88.69
616.733	93.69
616.941	88.69
617.148	92.69
617.356	95.69
617.563	71.69
617.771	75.69
617.978	80.69
618.185	87.69
618.393	91.69
618.6	85.69
618.807	70.69
619.015	90.69
619.222	75.69
619.429	88.69
619.637	85.69
619.844	73.69
620.051	84.69
620.258	83.69
620.466	87.69
620.673	87.69
620.88	75.69
621.087	88.69
621.294	72.69
621.501	76.69
621.708	79.69
621.915	85.69
622.122	83.69
622.329	86.69
622.536	87.69
622.743	86.69
622.95	84.69
623.157	69.69
623.364	70.69
623.571	77.69
623.778	88.69
623.985	93.69
624.192	84.69
624.399	74.69
624.606	92.69
624.812	81.69
625.019	78.69
625.226	98.69
625.433	83.69
625.639	93.69
625.846	87.69
626.053	83.69
626.259	78.69
626.466	85.69
626.673	74.69
626.879	84.69
627.086	90.69
627.293	97.69
627.499	94.69
627.706	76.69
627.912	78.69
628.119	81.69
628.325	72.69
628.532	91.69
628.738	82.69
628.945	76.69
629.151	77.69
629.357	98.69
629.564	93.69
629.77	77.69
629.976	80.69
630.183	67.69
630.389	73.69
630.595	79.69
630.802	75.69
631.008	93.69
631.214	91.69
631.42	83.69
631.627	93.69
631.833	91.69
632.039	77.69
632.245	83.69
632.451	96.69
632.657	81.69
632.863	87.69
633.069	81.69
633.275	94.69
633.481	81.69
633.688	80.69
633.893	84.69
634.099	72.69
634.305	85.69
634.511	91.69
634.717	100.69
634.923	76.69
635.129	89.69
635.335	99.69
635.541	81.69
635.747	85.69
635.952	100.69
636.158	75.69
636.364	79.69
636.57	90.69
636.775	75.69
636.981	80.69
637.187	76.69
637.392	75.69
637.598	83.69
637.804	81.69
638.009	73.69
638.215	91.69
638.421	77.69
638.626	85.69
638.832	86.69
639.037	82.69
639.243	83.69
639.448	88.69
639.654	99.69
639.859	75.69
640.065	83.69
640.27	72.69
640.475	75.69
640.681	86.69
640.886	92.69
641.091	59.69
641.297	81.69
641.502	75.69
641.707	82.69
641.913	95.69
642.118	83.69
642.323	77.69
642.528	80.69
642.733	87.69
642.939	77.69
643.144	98.69
643.349	83.69
643.554	81.69
643.759	63.69
643.964	80.69
644.169	93.69
644.374	75.69
644.579	68.69
644.784	81.69
644.989	65.69
645.194	95.69
645.399	84.69
645.604	82.69
645.809	86.69
646.014	75.69
646.219	91.69
646.423	75.69
646.628	89.69
646.833	68.69
647.038	87.69
647.243	83.69
647.447	88.69
647.652	95.69
647.857	83.69
648.062	92.69
648.266	87.69
648.471	75.69
648.676	72.69
648.88	75.69
649.085	87.69
649.289	74.69
649.494	86.69
649.698	65.69
649.903	92.69
650.107	90.69
650.312	74.69
650.516	90.69
650.721	88.69
650.925	82.69
651.13	90.69
651.334	84.69
651.539	88.69
651.743	78.69
651.947	92.69
652.152	69.69
652.356	79.69
652.56	84.69
652.764	80.69
652.969	87.69
653.173	100.69
653.377	87.69
653.581	74.69
653.785	70.69
653.99	86.69
654.194	84.69
654.398	78.69
654.602	68.69
654.806	68.69
655.01	93.69
655.214	88.69
655.418	73.69
655.622	74.69
655.826	78.69
656.03	71.69
656.234	79.69
656.438	89.69
656.642	86.69
656.846	79.69
657.049	86.69
657.253	86.69
657.457	78.69
657.661	96.69
657.865	82.69
658.068	79.69
658.272	76.69
658.476	93.69
658.68	79.69
658.883	87.69
659.087	75.69
659.291	82.69
659.494	81.69
659.698	79.69
659.901	79.69
660.105	73.69
660.309	85.69
660.512	86.69
660.716	83.69
660.919	77.69
661.123	84.69
661.326	89.69
661.53	74.69
661.733	72.69
661.936	81.69
662.14	74.69
662.343	99.69
662.546	77.69
662.75	87.69
662.953	82.69
663.156	87.69
663.36	75.69
663.563	72.69
663.766	79.69
663.969	91.69
664.173	82.69
664.376	78.69
664.579	81.69
664.782	79.69
664.985	92.69
665.188	87.69
665.391	82.69
665.594	90.69
665.797	81.69
666	69.69
666.203	81.69
666.406	81.69
666.609	89.69
666.812	70.69
667.015	79.69
667.218	85.69
667.421	70.69
667.624	88.69
667.827	87.69
668.03	82.69
668.232	76.69
668.435	69.69
668.638	83.69
668.841	88.69
669.043	75.69
669.246	84.69
669.449	75.69
669.651	74.69
669.854	76.69
670.057	81.69
670.259	72.69
670.462	82.69
670.665	95.69
670.867	77.69
671.07	91.69
671.272	78.69
671.475	88.69
671.677	82.69
671.88	68.69
672.082	82.69
672.284	84.69
672.487	84.69
672.689	76.69
672.892	80.69
