Data from KBr_4_HRD10591_00042.txt Node
Date: Mon Jan 19 13:25:35 EST 2026
User: Yrep
Spectrometer: HR+D1059
Trigger mode: 0
Integration Time (sec): 1.000000E-1
Scans to average: 1
Electric dark correction enabled: true
Nonlinearity correction enabled: false
Boxcar width: 0
XAxis mode: Wavelengths
Number of Pixels in Spectrum: 2048
>>>>>Begin Spectral Data<<<<<
223.165	-27.38
223.4	-27.38
223.635	-27.38
223.869	-14.38
224.104	-16.38
224.338	-12.38
224.573	-12.38
224.808	-9.38
225.042	-21.38
225.277	-4.38
225.511	-1.38
225.746	-9.38
225.98	15.62
226.215	17.62
226.449	17.62
226.683	30.62
226.918	19.62
227.152	27.62
227.387	29.62
227.621	43.62
227.856	52.62
228.09	38.62
228.324	52.62
228.559	50.62
228.793	56.62
229.027	50.62
229.262	58.62
229.496	58.62
229.73	75.62
229.964	76.62
230.199	78.62
230.433	70.62
230.667	78.62
230.901	70.62
231.136	76.62
231.37	78.62
231.604	77.62
231.838	77.62
232.072	82.62
232.306	68.62
232.541	87.62
232.775	76.62
233.009	83.62
233.243	76.62
233.477	71.62
233.711	86.62
233.945	87.62
234.179	83.62
234.413	79.62
234.647	75.62
234.881	90.62
235.115	82.62
235.349	71.62
235.583	75.62
235.817	79.62
236.051	90.62
236.285	83.62
236.519	83.62
236.753	92.62
236.987	80.62
237.221	78.62
237.455	79.62
237.689	65.62
237.922	79.62
238.156	72.62
238.39	66.62
238.624	66.62
238.858	69.62
239.091	67.62
239.325	65.62
239.559	68.62
239.793	67.62
240.027	80.62
240.26	80.62
240.494	84.62
240.728	87.62
240.961	67.62
241.195	71.62
241.429	62.62
241.662	74.62
241.896	81.62
242.13	59.62
242.363	73.62
242.597	76.62
242.83	76.62
243.064	86.62
243.298	54.62
243.531	75.62
243.765	76.62
243.998	72.62
244.232	80.62
244.465	70.62
244.699	88.62
244.932	63.62
245.166	86.62
245.399	74.62
245.633	90.62
245.866	85.62
246.099	68.62
246.333	72.62
246.566	84.62
246.8	87.62
247.033	78.62
247.266	80.62
247.5	60.62
247.733	88.62
247.966	87.62
248.2	71.62
248.433	97.62
248.666	75.62
248.899	79.62
249.133	87.62
249.366	93.62
249.599	86.62
249.832	80.62
250.066	77.62
250.299	77.62
250.532	75.62
250.765	75.62
250.998	83.62
251.231	75.62
251.465	78.62
251.698	71.62
251.931	81.62
252.164	73.62
252.397	69.62
252.63	72.62
252.863	71.62
253.096	78.62
253.329	88.62
253.562	78.62
253.795	74.62
254.028	96.62
254.261	74.62
254.494	80.62
254.727	86.62
254.96	81.62
255.193	82.62
255.426	70.62
255.659	90.62
255.892	78.62
256.124	92.62
256.357	81.62
256.59	78.62
256.823	89.62
257.056	86.62
257.289	83.62
257.521	83.62
257.754	78.62
257.987	68.62
258.22	70.62
258.452	76.62
258.685	88.62
258.918	76.62
259.151	75.62
259.383	80.62
259.616	80.62
259.849	71.62
260.081	69.62
260.314	92.62
260.547	76.62
260.779	80.62
261.012	83.62
261.244	85.62
261.477	80.62
261.71	71.62
261.942	91.62
262.175	83.62
262.407	86.62
262.64	79.62
262.872	91.62
263.105	88.62
263.337	79.62
263.57	83.62
263.802	80.62
264.035	77.62
264.267	67.62
264.499	81.62
264.732	69.62
264.964	87.62
265.197	83.62
265.429	75.62
265.661	84.62
265.894	82.62
266.126	73.62
266.358	86.62
266.591	92.62
266.823	75.62
267.055	75.62
267.287	99.62
267.52	80.62
267.752	89.62
267.984	94.62
268.216	84.62
268.448	77.62
268.681	92.62
268.913	80.62
269.145	67.62
269.377	74.62
269.609	66.62
269.841	69.62
270.073	88.62
270.306	73.62
270.538	86.62
270.77	84.62
271.002	73.62
271.234	89.62
271.466	94.62
271.698	92.62
271.93	86.62
272.162	77.62
272.394	93.62
272.626	87.62
272.858	79.62
273.09	83.62
273.322	82.62
273.553	94.62
273.785	89.62
274.017	85.62
274.249	83.62
274.481	83.62
274.713	82.62
274.945	76.62
275.176	74.62
275.408	75.62
275.64	75.62
275.872	74.62
276.104	83.62
276.335	66.62
276.567	79.62
276.799	89.62
277.031	101.62
277.262	82.62
277.494	86.62
277.726	86.62
277.957	82.62
278.189	80.62
278.421	75.62
278.652	88.62
278.884	86.62
279.115	75.62
279.347	68.62
279.579	88.62
279.81	81.62
280.042	72.62
280.273	83.62
280.505	75.62
280.736	97.62
280.968	83.62
281.199	83.62
281.431	81.62
281.662	92.62
281.894	88.62
282.125	82.62
282.356	96.62
282.588	83.62
282.819	77.62
283.051	79.62
283.282	80.62
283.513	91.62
283.745	79.62
283.976	84.62
284.207	79.62
284.439	76.62
284.67	79.62
284.901	88.62
285.132	97.62
285.364	77.62
285.595	82.62
285.826	80.62
286.057	75.62
286.288	86.62
286.52	104.62
286.751	76.62
286.982	87.62
287.213	82.62
287.444	93.62
287.675	81.62
287.906	75.62
288.138	87.62
288.369	81.62
288.6	99.62
288.831	83.62
289.062	90.62
289.293	92.62
289.524	97.62
289.755	84.62
289.986	81.62
290.217	86.62
290.448	72.62
290.679	77.62
290.91	81.62
291.141	95.62
291.371	63.62
291.602	83.62
291.833	91.62
292.064	91.62
292.295	82.62
292.526	95.62
292.757	83.62
292.987	78.62
293.218	81.62
293.449	87.62
293.68	97.62
293.91	81.62
294.141	79.62
294.372	87.62
294.603	67.62
294.833	80.62
295.064	84.62
295.295	79.62
295.525	82.62
295.756	92.62
295.987	73.62
296.217	84.62
296.448	83.62
296.679	77.62
296.909	93.62
297.14	87.62
297.37	90.62
297.601	70.62
297.831	96.62
298.062	85.62
298.292	82.62
298.523	76.62
298.753	82.62
298.984	78.62
299.214	85.62
299.445	79.62
299.675	92.62
299.905	72.62
300.136	91.62
300.366	72.62
300.597	83.62
300.827	89.62
301.057	91.62
301.288	81.62
301.518	80.62
301.748	80.62
301.979	94.62
302.209	86.62
302.439	91.62
302.669	88.62
302.9	72.62
303.13	80.62
303.36	78.62
303.59	82.62
303.82	63.62
304.051	88.62
304.281	84.62
304.511	102.62
304.741	86.62
304.971	84.62
305.201	97.62
305.431	102.62
305.661	86.62
305.891	83.62
306.121	80.62
306.352	74.62
306.582	72.62
306.812	90.62
307.042	67.62
307.272	81.62
307.502	88.62
307.731	80.62
307.961	86.62
308.191	88.62
308.421	81.62
308.651	82.62
308.881	92.62
309.111	88.62
309.341	89.62
309.571	99.62
309.8	94.62
310.03	76.62
310.26	81.62
310.49	83.62
310.72	86.62
310.949	97.62
311.179	78.62
311.409	75.62
311.639	83.62
311.868	90.62
312.098	87.62
312.328	91.62
312.557	84.62
312.787	79.62
313.017	83.62
313.246	89.62
313.476	80.62
313.706	82.62
313.935	79.62
314.165	75.62
314.394	75.62
314.624	92.62
314.853	93.62
315.083	82.62
315.312	98.62
315.542	86.62
315.771	97.62
316.001	79.62
316.23	87.62
316.46	87.62
316.689	75.62
316.919	85.62
317.148	86.62
317.377	81.62
317.607	89.62
317.836	88.62
318.065	87.62
318.295	89.62
318.524	87.62
318.753	87.62
318.983	84.62
319.212	88.62
319.441	75.62
319.67	94.62
319.9	83.62
320.129	87.62
320.358	78.62
320.587	93.62
320.816	79.62
321.046	81.62
321.275	87.62
321.504	70.62
321.733	75.62
321.962	72.62
322.191	81.62
322.42	79.62
322.649	89.62
322.878	84.62
323.108	70.62
323.337	85.62
323.566	86.62
323.795	75.62
324.024	88.62
324.253	94.62
324.482	80.62
324.71	84.62
324.939	89.62
325.168	80.62
325.397	81.62
325.626	84.62
325.855	89.62
326.084	84.62
326.313	93.62
326.542	89.62
326.77	90.62
326.999	89.62
327.228	83.62
327.457	79.62
327.686	90.62
327.914	76.62
328.143	67.62
328.372	83.62
328.6	101.62
328.829	83.62
329.058	83.62
329.287	77.62
329.515	82.62
329.744	81.62
329.972	62.62
330.201	75.62
330.43	70.62
330.658	76.62
330.887	77.62
331.115	76.62
331.344	81.62
331.572	84.62
331.801	74.62
332.03	83.62
332.258	80.62
332.486	89.62
332.715	86.62
332.943	79.62
333.172	87.62
333.4	87.62
333.629	91.62
333.857	70.62
334.085	89.62
334.314	87.62
334.542	86.62
334.771	104.62
334.999	91.62
335.227	78.62
335.455	87.62
335.684	86.62
335.912	95.62
336.14	85.62
336.369	71.62
336.597	71.62
336.825	86.62
337.053	88.62
337.281	90.62
337.51	87.62
337.738	95.62
337.966	85.62
338.194	79.62
338.422	95.62
338.65	80.62
338.878	91.62
339.106	87.62
339.334	94.62
339.562	83.62
339.79	83.62
340.018	72.62
340.246	79.62
340.474	79.62
340.702	87.62
340.93	78.62
341.158	86.62
341.386	86.62
341.614	75.62
341.842	91.62
342.07	86.62
342.298	78.62
342.526	75.62
342.754	83.62
342.981	83.62
343.209	80.62
343.437	103.62
343.665	94.62
343.893	84.62
344.12	96.62
344.348	82.62
344.576	84.62
344.804	92.62
345.031	78.62
345.259	94.62
345.487	84.62
345.714	100.62
345.942	79.62
346.17	83.62
346.397	82.62
346.625	80.62
346.853	86.62
347.08	83.62
347.308	93.62
347.535	86.62
347.763	90.62
347.99	89.62
348.218	89.62
348.445	90.62
348.673	83.62
348.9	86.62
349.128	76.62
349.355	77.62
349.583	73.62
349.81	83.62
350.037	79.62
350.265	69.62
350.492	91.62
350.72	85.62
350.947	76.62
351.174	71.62
351.402	92.62
351.629	99.62
351.856	89.62
352.083	89.62
352.311	85.62
352.538	97.62
352.765	86.62
352.992	90.62
353.22	73.62
353.447	80.62
353.674	88.62
353.901	91.62
354.128	86.62
354.355	79.62
354.583	83.62
354.81	85.62
355.037	84.62
355.264	76.62
355.491	89.62
355.718	76.62
355.945	76.62
356.172	76.62
356.399	81.62
356.626	84.62
356.853	78.62
357.08	96.62
357.307	98.62
357.534	81.62
357.761	69.62
357.988	84.62
358.215	80.62
358.441	78.62
358.668	79.62
358.895	82.62
359.122	79.62
359.349	90.62
359.576	88.62
359.802	85.62
360.029	97.62
360.256	72.62
360.483	77.62
360.709	72.62
360.936	82.62
361.163	81.62
361.39	76.62
361.616	88.62
361.843	90.62
362.07	82.62
362.296	85.62
362.523	72.62
362.749	76.62
362.976	83.62
363.203	91.62
363.429	78.62
363.656	90.62
363.882	89.62
364.109	96.62
364.335	86.62
364.562	89.62
364.788	91.62
365.015	66.62
365.241	82.62
365.468	92.62
365.694	76.62
365.92	83.62
366.147	81.62
366.373	90.62
366.599	78.62
366.826	82.62
367.052	78.62
367.278	97.62
367.505	86.62
367.731	84.62
367.957	97.62
368.184	90.62
368.41	92.62
368.636	92.62
368.862	84.62
369.089	82.62
369.315	86.62
369.541	85.62
369.767	77.62
369.993	83.62
370.219	83.62
370.445	88.62
370.672	83.62
370.898	77.62
371.124	72.62
371.35	67.62
371.576	78.62
371.802	83.62
372.028	83.62
372.254	89.62
372.48	88.62
372.706	77.62
372.932	78.62
373.158	73.62
373.384	79.62
373.61	74.62
373.835	87.62
374.061	82.62
374.287	64.62
374.513	74.62
374.739	70.62
374.965	84.62
375.191	72.62
375.416	72.62
375.642	85.62
375.868	77.62
376.094	100.62
376.319	83.62
376.545	79.62
376.771	88.62
376.997	86.62
377.222	78.62
377.448	83.62
377.674	71.62
377.899	79.62
378.125	92.62
378.35	75.62
378.576	79.62
378.802	87.62
379.027	79.62
379.253	66.62
379.478	84.62
379.704	92.62
379.929	87.62
380.155	78.62
380.38	88.62
380.606	83.62
380.831	94.62
381.057	85.62
381.282	89.62
381.507	82.62
381.733	74.62
381.958	79.62
382.184	75.62
382.409	89.62
382.634	78.62
382.86	83.62
383.085	74.62
383.31	66.62
383.535	71.62
383.761	74.62
383.986	87.62
384.211	72.62
384.436	76.62
384.662	83.62
384.887	68.62
385.112	69.62
385.337	69.62
385.562	83.62
385.787	82.62
386.013	88.62
386.238	87.62
386.463	94.62
386.688	85.62
386.913	75.62
387.138	87.62
387.363	64.62
387.588	84.62
387.813	91.62
388.038	82.62
388.263	78.62
388.488	75.62
388.713	82.62
388.938	83.62
389.163	83.62
389.387	68.62
389.612	87.62
389.837	87.62
390.062	72.62
390.287	80.62
390.512	82.62
390.736	72.62
390.961	89.62
391.186	82.62
391.411	81.62
391.636	100.62
391.86	71.62
392.085	83.62
392.31	71.62
392.534	83.62
392.759	82.62
392.984	76.62
393.208	81.62
393.433	81.62
393.658	97.62
393.882	84.62
394.107	77.62
394.331	70.62
394.556	88.62
394.78	78.62
395.005	84.62
395.229	75.62
395.454	86.62
395.678	75.62
395.903	91.62
396.127	87.62
396.352	79.62
396.576	91.62
396.801	77.62
397.025	86.62
397.249	83.62
397.474	78.62
397.698	80.62
397.922	83.62
398.147	78.62
398.371	83.62
398.595	78.62
398.82	81.62
399.044	62.62
399.268	76.62
399.492	81.62
399.717	92.62
399.941	102.62
400.165	88.62
400.389	77.62
400.613	86.62
400.837	72.62
401.062	77.62
401.286	60.62
401.51	88.62
401.734	86.62
401.958	84.62
402.182	70.62
402.406	74.62
402.63	71.62
402.854	92.62
403.078	87.62
403.302	84.62
403.526	78.62
403.75	80.62
403.974	83.62
404.198	77.62
404.422	87.62
404.645	88.62
404.869	86.62
405.093	74.62
405.317	94.62
405.541	80.62
405.765	68.62
405.988	79.62
406.212	81.62
406.436	90.62
406.66	80.62
406.883	85.62
407.107	78.62
407.331	76.62
407.555	78.62
407.778	96.62
408.002	86.62
408.226	79.62
408.449	80.62
408.673	74.62
408.896	67.62
409.12	78.62
409.344	85.62
409.567	80.62
409.791	90.62
410.014	86.62
410.238	78.62
410.461	77.62
410.685	87.62
410.908	74.62
411.132	82.62
411.355	66.62
411.578	80.62
411.802	74.62
412.025	92.62
412.249	70.62
412.472	83.62
412.695	86.62
412.919	86.62
413.142	81.62
413.365	68.62
413.589	74.62
413.812	77.62
414.035	88.62
414.258	89.62
414.482	82.62
414.705	94.62
414.928	80.62
415.151	78.62
415.374	67.62
415.597	80.62
415.821	78.62
416.044	66.62
416.267	83.62
416.49	80.62
416.713	82.62
416.936	74.62
417.159	89.62
417.382	83.62
417.605	76.62
417.828	79.62
418.051	76.62
418.274	80.62
418.497	80.62
418.72	77.62
418.943	82.62
419.166	84.62
419.389	80.62
419.611	74.62
419.834	78.62
420.057	78.62
420.28	75.62
420.503	80.62
420.726	74.62
420.948	71.62
421.171	88.62
421.394	87.62
421.617	83.62
421.839	68.62
422.062	72.62
422.285	61.62
422.507	74.62
422.73	90.62
422.953	70.62
423.175	74.62
423.398	78.62
423.621	75.62
423.843	74.62
424.066	77.62
424.288	80.62
424.511	82.62
424.733	77.62
424.956	76.62
425.178	80.62
425.401	92.62
425.623	74.62
425.846	82.62
426.068	66.62
426.291	82.62
426.513	91.62
426.735	74.62
426.958	95.62
427.18	81.62
427.402	99.62
427.625	89.62
427.847	94.62
428.069	81.62
428.292	71.62
428.514	73.62
428.736	86.62
428.958	77.62
429.181	83.62
429.403	87.62
429.625	78.62
429.847	91.62
430.069	90.62
430.292	81.62
430.514	88.62
430.736	76.62
430.958	95.62
431.18	82.62
431.402	71.62
431.624	64.62
431.846	80.62
432.068	62.62
432.29	89.62
432.512	86.62
432.734	73.62
432.956	86.62
433.178	83.62
433.4	68.62
433.622	67.62
433.844	71.62
434.066	88.62
434.287	83.62
434.509	72.62
434.731	73.62
434.953	81.62
435.175	81.62
435.397	78.62
435.618	89.62
435.84	86.62
436.062	79.62
436.284	74.62
436.505	78.62
436.727	75.62
436.949	86.62
437.17	65.62
437.392	77.62
437.614	68.62
437.835	80.62
438.057	78.62
438.278	82.62
438.5	74.62
438.721	89.62
438.943	86.62
439.165	88.62
439.386	74.62
439.608	61.62
439.829	69.62
440.05	68.62
440.272	67.62
440.493	75.62
440.715	69.62
440.936	82.62
441.158	90.62
441.379	75.62
441.6	77.62
441.822	87.62
442.043	75.62
442.264	89.62
442.486	75.62
442.707	78.62
442.928	75.62
443.149	79.62
443.371	76.62
443.592	80.62
443.813	84.62
444.034	73.62
444.255	80.62
444.476	78.62
444.698	76.62
444.919	81.62
445.14	156.62
445.361	123.62
445.582	90.62
445.803	67.62
446.024	68.62
446.245	72.62
446.466	88.62
446.687	78.62
446.908	82.62
447.129	68.62
447.35	86.62
447.571	92.62
447.792	84.62
448.013	69.62
448.234	82.62
448.455	80.62
448.675	75.62
448.896	78.62
449.117	68.62
449.338	87.62
449.559	68.62
449.779	72.62
450	83.62
450.221	83.62
450.442	90.62
450.662	91.62
450.883	89.62
451.104	94.62
451.324	66.62
451.545	89.62
451.766	80.62
451.986	65.62
452.207	88.62
452.428	87.62
452.648	80.62
452.869	83.62
453.089	82.62
453.31	85.62
453.53	91.62
453.751	89.62
453.971	58.62
454.192	74.62
454.412	84.62
454.633	85.62
454.853	76.62
455.073	79.62
455.294	77.62
455.514	88.62
455.734	83.62
455.955	92.62
456.175	86.62
456.395	93.62
456.616	76.62
456.836	80.62
457.056	82.62
457.276	87.62
457.497	84.62
457.717	94.62
457.937	81.62
458.157	94.62
458.377	73.62
458.598	75.62
458.818	71.62
459.038	81.62
459.258	78.62
459.478	87.62
459.698	83.62
459.918	82.62
460.138	72.62
460.358	75.62
460.578	91.62
460.798	82.62
461.018	83.62
461.238	77.62
461.458	78.62
461.678	71.62
461.898	86.62
462.118	76.62
462.338	87.62
462.558	78.62
462.777	76.62
462.997	78.62
463.217	81.62
463.437	76.62
463.657	82.62
463.876	88.62
464.096	89.62
464.316	66.62
464.536	69.62
464.755	75.62
464.975	69.62
465.195	80.62
465.414	68.62
465.634	79.62
465.854	80.62
466.073	84.62
466.293	90.62
466.512	74.62
466.732	83.62
466.951	70.62
467.171	82.62
467.391	81.62
467.61	91.62
467.829	79.62
468.049	89.62
468.268	83.62
468.488	79.62
468.707	94.62
468.927	90.62
469.146	86.62
469.365	94.62
469.585	86.62
469.804	84.62
470.023	78.62
470.243	65.62
470.462	77.62
470.681	61.62
470.901	81.62
471.12	81.62
471.339	67.62
471.558	88.62
471.777	76.62
471.997	72.62
472.216	86.62
472.435	84.62
472.654	81.62
472.873	91.62
473.092	78.62
473.311	80.62
473.53	75.62
473.749	81.62
473.968	80.62
474.187	75.62
474.406	61.62
474.625	72.62
474.844	88.62
475.063	79.62
475.282	104.62
475.501	86.62
475.72	80.62
475.939	79.62
476.158	81.62
476.377	80.62
476.596	87.62
476.814	67.62
477.033	81.62
477.252	79.62
477.471	82.62
477.69	76.62
477.908	97.62
478.127	80.62
478.346	78.62
478.564	65.62
478.783	74.62
479.002	82.62
479.22	86.62
479.439	86.62
479.658	90.62
479.876	93.62
480.095	76.62
480.313	86.62
480.532	89.62
480.751	106.62
480.969	83.62
481.188	90.62
481.406	75.62
481.624	72.62
481.843	82.62
482.061	77.62
482.28	93.62
482.498	78.62
482.717	74.62
482.935	78.62
483.153	78.62
483.372	88.62
483.59	84.62
483.808	84.62
484.027	81.62
484.245	76.62
484.463	77.62
484.681	76.62
484.9	84.62
485.118	94.62
485.336	83.62
485.554	79.62
485.772	68.62
485.99	77.62
486.209	79.62
486.427	84.62
486.645	95.62
486.863	86.62
487.081	77.62
487.299	80.62
487.517	77.62
487.735	82.62
487.953	83.62
488.171	83.62
488.389	85.62
488.607	89.62
488.825	66.62
489.043	96.62
489.261	73.62
489.479	80.62
489.696	80.62
489.914	95.62
490.132	74.62
490.35	85.62
490.568	97.62
490.786	89.62
491.003	87.62
491.221	78.62
491.439	75.62
491.657	68.62
491.874	79.62
492.092	85.62
492.31	97.62
492.527	70.62
492.745	95.62
492.963	84.62
493.18	81.62
493.398	74.62
493.615	68.62
493.833	75.62
494.05	82.62
494.268	95.62
494.485	74.62
494.703	84.62
494.92	86.62
495.138	76.62
495.355	82.62
495.573	81.62
495.79	78.62
496.008	81.62
496.225	86.62
496.442	84.62
496.66	84.62
496.877	81.62
497.094	84.62
497.312	85.62
497.529	82.62
497.746	78.62
497.963	88.62
498.181	80.62
498.398	79.62
498.615	89.62
498.832	74.62
499.049	84.62
499.267	78.62
499.484	71.62
499.701	81.62
499.918	76.62
500.135	85.62
500.352	89.62
500.569	83.62
500.786	87.62
501.003	90.62
501.22	82.62
501.437	88.62
501.654	86.62
501.871	78.62
502.088	79.62
502.305	80.62
502.522	91.62
502.739	84.62
502.956	88.62
503.172	89.62
503.389	73.62
503.606	86.62
503.823	93.62
504.04	73.62
504.256	84.62
504.473	89.62
504.69	96.62
504.907	88.62
505.123	90.62
505.34	68.62
505.557	81.62
505.773	79.62
505.99	71.62
506.207	84.62
506.423	67.62
506.64	89.62
506.856	86.62
507.073	78.62
507.289	80.62
507.506	61.62
507.722	75.62
507.939	88.62
508.155	78.62
508.372	99.62
508.588	77.62
508.805	87.62
509.021	81.62
509.238	79.62
509.454	83.62
509.67	78.62
509.887	86.62
510.103	75.62
510.319	59.62
510.536	84.62
510.752	83.62
510.968	79.62
511.184	84.62
511.401	75.62
511.617	72.62
511.833	71.62
512.049	82.62
512.265	89.62
512.481	87.62
512.698	83.62
512.914	92.62
513.13	76.62
513.346	83.62
513.562	81.62
513.778	77.62
513.994	77.62
514.21	80.62
514.426	85.62
514.642	84.62
514.858	79.62
515.074	92.62
515.29	62.62
515.506	70.62
515.721	81.62
515.937	69.62
516.153	99.62
516.369	87.62
516.585	77.62
516.801	81.62
517.016	79.62
517.232	74.62
517.448	77.62
517.664	90.62
517.879	66.62
518.095	82.62
518.311	80.62
518.527	92.62
518.742	87.62
518.958	81.62
519.173	68.62
519.389	97.62
519.605	72.62
519.82	74.62
520.036	74.62
520.251	79.62
520.467	72.62
520.682	75.62
520.898	92.62
521.113	87.62
521.329	82.62
521.544	76.62
521.76	94.62
521.975	87.62
522.19	91.62
522.406	77.62
522.621	83.62
522.836	83.62
523.052	87.62
523.267	80.62
523.482	88.62
523.698	76.62
523.913	90.62
524.128	62.62
524.343	81.62
524.559	83.62
524.774	74.62
524.989	94.62
525.204	83.62
525.419	102.62
525.634	85.62
525.849	83.62
526.064	69.62
526.28	75.62
526.495	81.62
526.71	74.62
526.925	79.62
527.14	82.62
527.355	67.62
527.57	86.62
527.785	91.62
527.999	95.62
528.214	84.62
528.429	97.62
528.644	95.62
528.859	79.62
529.074	81.62
529.289	81.62
529.503	90.62
529.718	89.62
529.933	82.62
530.148	85.62
530.363	99.62
530.577	88.62
530.792	67.62
531.007	86.62
531.221	82.62
531.436	80.62
531.651	76.62
531.865	97.62
532.08	88.62
532.295	83.62
532.509	75.62
532.724	89.62
532.938	87.62
533.153	91.62
533.367	86.62
533.582	96.62
533.796	73.62
534.011	94.62
534.225	82.62
534.44	88.62
534.654	87.62
534.868	78.62
535.083	75.62
535.297	88.62
535.511	81.62
535.726	68.62
535.94	74.62
536.154	81.62
536.369	94.62
536.583	88.62
536.797	79.62
537.011	98.62
537.225	87.62
537.44	73.62
537.654	85.62
537.868	82.62
538.082	74.62
538.296	94.62
538.51	86.62
538.724	84.62
538.938	83.62
539.153	86.62
539.367	88.62
539.581	77.62
539.795	82.62
540.009	72.62
540.222	74.62
540.436	87.62
540.65	90.62
540.864	80.62
541.078	84.62
541.292	72.62
541.506	86.62
541.72	83.62
541.934	96.62
542.147	79.62
542.361	88.62
542.575	68.62
542.789	78.62
543.002	77.62
543.216	76.62
543.43	76.62
543.644	76.62
543.857	70.62
544.071	79.62
544.285	92.62
544.498	87.62
544.712	86.62
544.925	91.62
545.139	72.62
545.352	88.62
545.566	73.62
545.779	82.62
545.993	60.62
546.206	83.62
546.42	86.62
546.633	75.62
546.847	87.62
547.06	92.62
547.274	83.62
547.487	80.62
547.7	89.62
547.914	86.62
548.127	63.62
548.34	97.62
548.554	90.62
548.767	70.62
548.98	88.62
549.193	83.62
549.407	70.62
549.62	90.62
549.833	81.62
550.046	76.62
550.259	76.62
550.473	67.62
550.686	72.62
550.899	91.62
551.112	90.62
551.325	85.62
551.538	86.62
551.751	81.62
551.964	80.62
552.177	94.62
552.39	90.62
552.603	84.62
552.816	88.62
553.029	88.62
553.242	68.62
553.455	82.62
553.667	84.62
553.88	86.62
554.093	86.62
554.306	87.62
554.519	92.62
554.732	87.62
554.944	98.62
555.157	76.62
555.37	83.62
555.583	90.62
555.795	67.62
556.008	76.62
556.221	69.62
556.433	78.62
556.646	76.62
556.859	73.62
557.071	85.62
557.284	79.62
557.496	92.62
557.709	83.62
557.921	98.62
558.134	91.62
558.346	90.62
558.559	86.62
558.771	87.62
558.984	98.62
559.196	99.62
559.409	91.62
559.621	88.62
559.833	75.62
560.046	81.62
560.258	79.62
560.47	77.62
560.683	82.62
560.895	85.62
561.107	82.62
561.32	83.62
561.532	80.62
561.744	73.62
561.956	80.62
562.168	81.62
562.381	92.62
562.593	84.62
562.805	85.62
563.017	94.62
563.229	91.62
563.441	83.62
563.653	78.62
563.865	82.62
564.077	64.62
564.289	80.62
564.501	74.62
564.713	89.62
564.925	86.62
565.137	85.62
565.349	96.62
565.561	90.62
565.773	79.62
565.985	96.62
566.197	93.62
566.408	87.62
566.62	70.62
566.832	75.62
567.044	93.62
567.255	78.62
567.467	73.62
567.679	74.62
567.891	73.62
568.102	77.62
568.314	92.62
568.526	92.62
568.737	90.62
568.949	78.62
569.161	64.62
569.372	90.62
569.584	90.62
569.795	81.62
570.007	76.62
570.218	89.62
570.43	68.62
570.641	75.62
570.853	88.62
571.064	87.62
571.276	82.62
571.487	71.62
571.698	67.62
571.91	81.62
572.121	84.62
572.333	95.62
572.544	82.62
572.755	81.62
572.966	74.62
573.178	72.62
573.389	85.62
573.6	75.62
573.811	80.62
574.023	71.62
574.234	75.62
574.445	90.62
574.656	87.62
574.867	84.62
575.078	93.62
575.289	75.62
575.501	84.62
575.712	78.62
575.923	76.62
576.134	90.62
576.345	94.62
576.556	82.62
576.767	94.62
576.978	88.62
577.188	82.62
577.399	90.62
577.61	93.62
577.821	79.62
578.032	68.62
578.243	92.62
578.454	88.62
578.665	85.62
578.875	74.62
579.086	63.62
579.297	76.62
579.508	66.62
579.718	80.62
579.929	81.62
580.14	94.62
580.35	84.62
580.561	72.62
580.772	72.62
580.982	72.62
581.193	90.62
581.403	78.62
581.614	90.62
581.825	87.62
582.035	82.62
582.246	91.62
582.456	80.62
582.667	81.62
582.877	91.62
583.087	80.62
583.298	99.62
583.508	86.62
583.719	81.62
583.929	93.62
584.139	98.62
584.35	77.62
584.56	76.62
584.77	78.62
584.981	74.62
585.191	82.62
585.401	76.62
585.611	81.62
585.821	84.62
586.032	80.62
586.242	79.62
586.452	82.62
586.662	89.62
586.872	80.62
587.082	85.62
587.292	84.62
587.502	88.62
587.713	83.62
587.923	72.62
588.133	73.62
588.343	91.62
588.553	71.62
588.762	82.62
588.972	89.62
589.182	87.62
589.392	93.62
589.602	96.62
589.812	74.62
590.022	89.62
590.232	93.62
590.441	86.62
590.651	83.62
590.861	69.62
591.071	78.62
591.281	79.62
591.49	93.62
591.7	95.62
591.91	83.62
592.119	86.62
592.329	96.62
592.539	87.62
592.748	89.62
592.958	77.62
593.167	81.62
593.377	83.62
593.587	96.62
593.796	89.62
594.006	66.62
594.215	82.62
594.424	84.62
594.634	94.62
594.843	83.62
595.053	84.62
595.262	85.62
595.472	78.62
595.681	86.62
595.89	90.62
596.1	85.62
596.309	86.62
596.518	89.62
596.727	88.62
596.937	92.62
597.146	85.62
597.355	98.62
597.564	90.62
597.774	84.62
597.983	81.62
598.192	80.62
598.401	81.62
598.61	77.62
598.819	83.62
599.028	75.62
599.237	77.62
599.446	81.62
599.655	86.62
599.864	89.62
600.073	84.62
600.282	58.62
600.491	92.62
600.7	82.62
600.909	92.62
601.118	101.62
601.327	78.62
601.536	85.62
601.745	78.62
601.953	84.62
602.162	86.62
602.371	92.62
602.58	93.62
602.789	79.62
602.997	74.62
603.206	76.62
603.415	90.62
603.623	85.62
603.832	79.62
604.041	87.62
604.249	92.62
604.458	80.62
604.666	93.62
604.875	82.62
605.084	81.62
605.292	69.62
605.501	95.62
605.709	77.62
605.918	80.62
606.126	84.62
606.334	83.62
606.543	87.62
606.751	84.62
606.96	85.62
607.168	74.62
607.376	80.62
607.585	87.62
607.793	84.62
608.001	80.62
608.21	73.62
608.418	87.62
608.626	81.62
608.834	89.62
609.043	82.62
609.251	83.62
609.459	80.62
609.667	90.62
609.875	89.62
610.083	93.62
610.291	80.62
610.499	78.62
610.707	81.62
610.916	93.62
611.124	80.62
611.332	75.62
611.54	88.62
611.748	86.62
611.955	92.62
612.163	89.62
612.371	87.62
612.579	72.62
612.787	79.62
612.995	88.62
613.203	86.62
613.411	73.62
613.618	78.62
613.826	86.62
614.034	94.62
614.242	90.62
614.449	85.62
614.657	88.62
614.865	92.62
615.072	91.62
615.28	68.62
615.488	87.62
615.695	83.62
615.903	83.62
616.111	104.62
616.318	78.62
616.526	81.62
616.733	70.62
616.941	86.62
617.148	80.62
617.356	66.62
617.563	85.62
617.771	98.62
617.978	86.62
618.185	78.62
618.393	83.62
618.6	79.62
618.807	85.62
619.015	84.62
619.222	95.62
619.429	81.62
619.637	84.62
619.844	77.62
620.051	88.62
620.258	80.62
620.466	82.62
620.673	99.62
620.88	77.62
621.087	87.62
621.294	99.62
621.501	83.62
621.708	82.62
621.915	94.62
622.122	82.62
622.329	107.62
622.536	85.62
622.743	75.62
622.95	88.62
623.157	93.62
623.364	91.62
623.571	77.62
623.778	95.62
623.985	92.62
624.192	81.62
624.399	90.62
624.606	72.62
624.812	91.62
625.019	84.62
625.226	72.62
625.433	90.62
625.639	105.62
625.846	76.62
626.053	83.62
626.259	92.62
626.466	84.62
626.673	89.62
626.879	82.62
627.086	94.62
627.293	93.62
627.499	81.62
627.706	79.62
627.912	81.62
628.119	82.62
628.325	86.62
628.532	83.62
628.738	85.62
628.945	88.62
629.151	86.62
629.357	100.62
629.564	84.62
629.77	78.62
629.976	84.62
630.183	75.62
630.389	84.62
630.595	90.62
630.802	79.62
631.008	77.62
631.214	78.62
631.42	77.62
631.627	83.62
631.833	64.62
632.039	92.62
632.245	65.62
632.451	78.62
632.657	81.62
632.863	68.62
633.069	77.62
633.275	82.62
633.481	102.62
633.688	88.62
633.893	67.62
634.099	86.62
634.305	68.62
634.511	94.62
634.717	85.62
634.923	80.62
635.129	86.62
635.335	88.62
635.541	96.62
635.747	87.62
635.952	82.62
636.158	72.62
636.364	85.62
636.57	83.62
636.775	84.62
636.981	91.62
637.187	81.62
637.392	82.62
637.598	59.62
637.804	90.62
638.009	88.62
638.215	95.62
638.421	84.62
638.626	83.62
638.832	81.62
639.037	87.62
639.243	86.62
639.448	78.62
639.654	86.62
639.859	86.62
640.065	67.62
640.27	86.62
640.475	93.62
640.681	96.62
640.886	98.62
641.091	90.62
641.297	67.62
641.502	57.62
641.707	74.62
641.913	81.62
642.118	64.62
642.323	95.62
642.528	98.62
642.733	76.62
642.939	83.62
643.144	91.62
643.349	79.62
643.554	76.62
643.759	68.62
643.964	91.62
644.169	85.62
644.374	77.62
644.579	76.62
644.784	74.62
644.989	87.62
645.194	80.62
645.399	78.62
645.604	90.62
645.809	78.62
646.014	70.62
646.219	83.62
646.423	64.62
646.628	83.62
646.833	89.62
647.038	92.62
647.243	80.62
647.447	68.62
647.652	78.62
647.857	88.62
648.062	76.62
648.266	91.62
648.471	81.62
648.676	85.62
648.88	81.62
649.085	98.62
649.289	83.62
649.494	87.62
649.698	73.62
649.903	69.62
650.107	79.62
650.312	95.62
650.516	76.62
650.721	78.62
650.925	73.62
651.13	79.62
651.334	68.62
651.539	87.62
651.743	88.62
651.947	87.62
652.152	72.62
652.356	77.62
652.56	81.62
652.764	87.62
652.969	84.62
653.173	80.62
653.377	75.62
653.581	73.62
653.785	89.62
653.99	71.62
654.194	77.62
654.398	74.62
654.602	85.62
654.806	77.62
655.01	78.62
655.214	91.62
655.418	84.62
655.622	81.62
655.826	85.62
656.03	72.62
656.234	71.62
656.438	81.62
656.642	86.62
656.846	89.62
657.049	76.62
657.253	71.62
657.457	86.62
657.661	78.62
657.865	84.62
658.068	86.62
658.272	83.62
658.476	72.62
658.68	72.62
658.883	87.62
659.087	76.62
659.291	93.62
659.494	83.62
659.698	68.62
659.901	77.62
660.105	80.62
660.309	87.62
660.512	80.62
660.716	78.62
660.919	83.62
661.123	80.62
661.326	78.62
661.53	86.62
661.733	87.62
661.936	76.62
662.14	82.62
662.343	81.62
662.546	92.62
662.75	90.62
662.953	89.62
663.156	86.62
663.36	77.62
663.563	83.62
663.766	86.62
663.969	98.62
664.173	84.62
664.376	84.62
664.579	77.62
664.782	82.62
664.985	90.62
665.188	88.62
665.391	82.62
665.594	87.62
665.797	80.62
666	88.62
666.203	79.62
666.406	74.62
666.609	95.62
666.812	78.62
667.015	96.62
667.218	79.62
667.421	81.62
667.624	83.62
667.827	67.62
668.03	82.62
668.232	93.62
668.435	76.62
668.638	82.62
668.841	89.62
669.043	80.62
669.246	86.62
669.449	79.62
669.651	85.62
669.854	78.62
670.057	93.62
670.259	103.62
670.462	86.62
670.665	83.62
670.867	72.62
671.07	91.62
671.272	80.62
671.475	82.62
671.677	75.62
671.88	72.62
672.082	76.62
672.284	61.62
672.487	80.62
672.689	95.62
672.892	77.62
