Data from Super_Dry_Prop_50_2_HRD10591_00012.txt Node
Date: Wed Dec 03 14:58:24 EST 2025
User: Yrep
Spectrometer: HR+D1059
Trigger mode: 1
Integration Time (sec): 1.000000E-1
Scans to average: 1
Electric dark correction enabled: true
Nonlinearity correction enabled: false
Boxcar width: 0
XAxis mode: Wavelengths
Number of Pixels in Spectrum: 2048
>>>>>Begin Spectral Data<<<<<
223.165	-20.56
223.4	-20.56
223.635	-20.56
223.869	-23.56
224.104	-6.56
224.338	-17.56
224.573	-19.56
224.808	-20.56
225.042	-1.56
225.277	-13.56
225.511	-3.56
225.746	-2.56
225.98	15.44
226.215	26.44
226.449	-0.56
226.683	21.44
226.918	37.44
227.152	29.44
227.387	37.44
227.621	42.44
227.856	47.44
228.09	48.44
228.324	48.44
228.559	69.44
228.793	53.44
229.027	60.44
229.262	73.44
229.496	64.44
229.73	60.44
229.964	78.44
230.199	76.44
230.433	86.44
230.667	79.44
230.901	95.44
231.136	65.44
231.37	70.44
231.604	74.44
231.838	90.44
232.072	66.44
232.306	83.44
232.541	71.44
232.775	95.44
233.009	75.44
233.243	81.44
233.477	72.44
233.711	67.44
233.945	70.44
234.179	83.44
234.413	91.44
234.647	77.44
234.881	75.44
235.115	86.44
235.349	69.44
235.583	78.44
235.817	79.44
236.051	77.44
236.285	65.44
236.519	79.44
236.753	85.44
236.987	75.44
237.221	79.44
237.455	72.44
237.689	63.44
237.922	84.44
238.156	62.44
238.39	87.44
238.624	86.44
238.858	78.44
239.091	81.44
239.325	84.44
239.559	77.44
239.793	72.44
240.027	75.44
240.26	78.44
240.494	80.44
240.728	86.44
240.961	78.44
241.195	80.44
241.429	79.44
241.662	79.44
241.896	77.44
242.13	79.44
242.363	76.44
242.597	76.44
242.83	73.44
243.064	86.44
243.298	78.44
243.531	67.44
243.765	73.44
243.998	57.44
244.232	81.44
244.465	88.44
244.699	73.44
244.932	64.44
245.166	66.44
245.399	69.44
245.633	85.44
245.866	75.44
246.099	77.44
246.333	83.44
246.566	75.44
246.8	75.44
247.033	84.44
247.266	79.44
247.5	68.44
247.733	89.44
247.966	79.44
248.2	81.44
248.433	93.44
248.666	88.44
248.899	80.44
249.133	74.44
249.366	76.44
249.599	69.44
249.832	76.44
250.066	79.44
250.299	85.44
250.532	78.44
250.765	81.44
250.998	69.44
251.231	80.44
251.465	81.44
251.698	91.44
251.931	76.44
252.164	71.44
252.397	67.44
252.63	81.44
252.863	77.44
253.096	91.44
253.329	72.44
253.562	72.44
253.795	91.44
254.028	80.44
254.261	76.44
254.494	85.44
254.727	96.44
254.96	75.44
255.193	83.44
255.426	94.44
255.659	91.44
255.892	87.44
256.124	85.44
256.357	82.44
256.59	80.44
256.823	83.44
257.056	77.44
257.289	81.44
257.521	91.44
257.754	80.44
257.987	72.44
258.22	87.44
258.452	89.44
258.685	72.44
258.918	73.44
259.151	77.44
259.383	76.44
259.616	71.44
259.849	73.44
260.081	81.44
260.314	83.44
260.547	85.44
260.779	84.44
261.012	80.44
261.244	93.44
261.477	87.44
261.71	75.44
261.942	97.44
262.175	80.44
262.407	76.44
262.64	70.44
262.872	90.44
263.105	93.44
263.337	73.44
263.57	84.44
263.802	86.44
264.035	84.44
264.267	74.44
264.499	85.44
264.732	94.44
264.964	85.44
265.197	99.44
265.429	79.44
265.661	73.44
265.894	92.44
266.126	82.44
266.358	89.44
266.591	82.44
266.823	77.44
267.055	87.44
267.287	69.44
267.52	81.44
267.752	71.44
267.984	73.44
268.216	78.44
268.448	80.44
268.681	71.44
268.913	70.44
269.145	74.44
269.377	76.44
269.609	80.44
269.841	104.44
270.073	93.44
270.306	72.44
270.538	68.44
270.77	76.44
271.002	92.44
271.234	97.44
271.466	96.44
271.698	72.44
271.93	84.44
272.162	75.44
272.394	92.44
272.626	96.44
272.858	81.44
273.09	69.44
273.322	73.44
273.553	80.44
273.785	82.44
274.017	84.44
274.249	96.44
274.481	70.44
274.713	84.44
274.945	89.44
275.176	84.44
275.408	83.44
275.64	65.44
275.872	88.44
276.104	75.44
276.335	77.44
276.567	96.44
276.799	77.44
277.031	84.44
277.262	76.44
277.494	87.44
277.726	88.44
277.957	82.44
278.189	97.44
278.421	88.44
278.652	71.44
278.884	79.44
279.115	83.44
279.347	84.44
279.579	87.44
279.81	88.44
280.042	83.44
280.273	70.44
280.505	83.44
280.736	93.44
280.968	84.44
281.199	91.44
281.431	91.44
281.662	78.44
281.894	96.44
282.125	84.44
282.356	92.44
282.588	78.44
282.819	79.44
283.051	89.44
283.282	102.44
283.513	85.44
283.745	91.44
283.976	62.44
284.207	82.44
284.439	77.44
284.67	87.44
284.901	84.44
285.132	78.44
285.364	84.44
285.595	96.44
285.826	83.44
286.057	85.44
286.288	101.44
286.52	73.44
286.751	74.44
286.982	85.44
287.213	90.44
287.444	87.44
287.675	87.44
287.906	79.44
288.138	78.44
288.369	85.44
288.6	77.44
288.831	79.44
289.062	86.44
289.293	81.44
289.524	82.44
289.755	93.44
289.986	91.44
290.217	93.44
290.448	83.44
290.679	88.44
290.91	85.44
291.141	85.44
291.371	93.44
291.602	77.44
291.833	89.44
292.064	98.44
292.295	73.44
292.526	77.44
292.757	78.44
292.987	88.44
293.218	88.44
293.449	79.44
293.68	89.44
293.91	77.44
294.141	83.44
294.372	68.44
294.603	75.44
294.833	69.44
295.064	78.44
295.295	93.44
295.525	75.44
295.756	84.44
295.987	87.44
296.217	79.44
296.448	85.44
296.679	75.44
296.909	75.44
297.14	83.44
297.37	89.44
297.601	79.44
297.831	78.44
298.062	75.44
298.292	79.44
298.523	93.44
298.753	85.44
298.984	84.44
299.214	95.44
299.445	95.44
299.675	87.44
299.905	88.44
300.136	76.44
300.366	75.44
300.597	86.44
300.827	88.44
301.057	92.44
301.288	65.44
301.518	79.44
301.748	95.44
301.979	94.44
302.209	80.44
302.439	84.44
302.669	73.44
302.9	96.44
303.13	83.44
303.36	71.44
303.59	68.44
303.82	89.44
304.051	80.44
304.281	84.44
304.511	77.44
304.741	82.44
304.971	84.44
305.201	93.44
305.431	83.44
305.661	83.44
305.891	73.44
306.121	81.44
306.352	95.44
306.582	77.44
306.812	70.44
307.042	99.44
307.272	91.44
307.502	85.44
307.731	83.44
307.961	91.44
308.191	79.44
308.421	75.44
308.651	92.44
308.881	76.44
309.111	84.44
309.341	95.44
309.571	93.44
309.8	74.44
310.03	81.44
310.26	77.44
310.49	93.44
310.72	84.44
310.949	83.44
311.179	67.44
311.409	82.44
311.639	89.44
311.868	92.44
312.098	93.44
312.328	84.44
312.557	78.44
312.787	87.44
313.017	76.44
313.246	88.44
313.476	94.44
313.706	86.44
313.935	83.44
314.165	80.44
314.394	88.44
314.624	72.44
314.853	92.44
315.083	80.44
315.312	95.44
315.542	80.44
315.771	81.44
316.001	83.44
316.23	95.44
316.46	100.44
316.689	78.44
316.919	77.44
317.148	93.44
317.377	91.44
317.607	88.44
317.836	85.44
318.065	82.44
318.295	83.44
318.524	91.44
318.753	80.44
318.983	77.44
319.212	110.44
319.441	79.44
319.67	92.44
319.9	91.44
320.129	96.44
320.358	97.44
320.587	81.44
320.816	87.44
321.046	77.44
321.275	93.44
321.504	84.44
321.733	88.44
321.962	87.44
322.191	82.44
322.42	76.44
322.649	86.44
322.878	87.44
323.108	81.44
323.337	83.44
323.566	85.44
323.795	85.44
324.024	83.44
324.253	81.44
324.482	88.44
324.71	77.44
324.939	78.44
325.168	83.44
325.397	95.44
325.626	82.44
325.855	103.44
326.084	70.44
326.313	75.44
326.542	75.44
326.77	93.44
326.999	83.44
327.228	85.44
327.457	91.44
327.686	93.44
327.914	86.44
328.143	93.44
328.372	93.44
328.6	74.44
328.829	82.44
329.058	65.44
329.287	71.44
329.515	106.44
329.744	91.44
329.972	79.44
330.201	86.44
330.43	84.44
330.658	86.44
330.887	93.44
331.115	80.44
331.344	79.44
331.572	83.44
331.801	81.44
332.03	83.44
332.258	75.44
332.486	70.44
332.715	79.44
332.943	79.44
333.172	94.44
333.4	82.44
333.629	83.44
333.857	81.44
334.085	95.44
334.314	87.44
334.542	76.44
334.771	81.44
334.999	82.44
335.227	92.44
335.455	84.44
335.684	91.44
335.912	76.44
336.14	76.44
336.369	84.44
336.597	81.44
336.825	93.44
337.053	76.44
337.281	103.44
337.51	93.44
337.738	81.44
337.966	77.44
338.194	78.44
338.422	83.44
338.65	78.44
338.878	82.44
339.106	87.44
339.334	89.44
339.562	77.44
339.79	85.44
340.018	80.44
340.246	77.44
340.474	96.44
340.702	80.44
340.93	75.44
341.158	71.44
341.386	78.44
341.614	76.44
341.842	76.44
342.07	89.44
342.298	95.44
342.526	88.44
342.754	88.44
342.981	74.44
343.209	86.44
343.437	88.44
343.665	97.44
343.893	93.44
344.12	91.44
344.348	80.44
344.576	95.44
344.804	94.44
345.031	96.44
345.259	83.44
345.487	87.44
345.714	86.44
345.942	88.44
346.17	73.44
346.397	84.44
346.625	75.44
346.853	93.44
347.08	78.44
347.308	97.44
347.535	83.44
347.763	91.44
347.99	80.44
348.218	103.44
348.445	93.44
348.673	100.44
348.9	97.44
349.128	81.44
349.355	82.44
349.583	95.44
349.81	91.44
350.037	88.44
350.265	97.44
350.492	70.44
350.72	81.44
350.947	91.44
351.174	79.44
351.402	91.44
351.629	103.44
351.856	89.44
352.083	79.44
352.311	92.44
352.538	77.44
352.765	99.44
352.992	92.44
353.22	74.44
353.447	88.44
353.674	89.44
353.901	91.44
354.128	89.44
354.355	102.44
354.583	93.44
354.81	84.44
355.037	85.44
355.264	92.44
355.491	80.44
355.718	77.44
355.945	86.44
356.172	88.44
356.399	79.44
356.626	63.44
356.853	81.44
357.08	84.44
357.307	83.44
357.534	78.44
357.761	88.44
357.988	87.44
358.215	89.44
358.441	79.44
358.668	78.44
358.895	67.44
359.122	86.44
359.349	86.44
359.576	80.44
359.802	77.44
360.029	68.44
360.256	77.44
360.483	87.44
360.709	74.44
360.936	81.44
361.163	98.44
361.39	77.44
361.616	84.44
361.843	69.44
362.07	75.44
362.296	77.44
362.523	80.44
362.749	94.44
362.976	91.44
363.203	93.44
363.429	87.44
363.656	82.44
363.882	79.44
364.109	82.44
364.335	91.44
364.562	91.44
364.788	78.44
365.015	70.44
365.241	87.44
365.468	100.44
365.694	95.44
365.92	73.44
366.147	88.44
366.373	80.44
366.599	81.44
366.826	80.44
367.052	74.44
367.278	84.44
367.505	81.44
367.731	83.44
367.957	72.44
368.184	78.44
368.41	72.44
368.636	79.44
368.862	79.44
369.089	93.44
369.315	75.44
369.541	63.44
369.767	95.44
369.993	88.44
370.219	85.44
370.445	88.44
370.672	82.44
370.898	71.44
371.124	88.44
371.35	75.44
371.576	79.44
371.802	73.44
372.028	79.44
372.254	95.44
372.48	82.44
372.706	89.44
372.932	88.44
373.158	76.44
373.384	83.44
373.61	77.44
373.835	92.44
374.061	79.44
374.287	79.44
374.513	69.44
374.739	88.44
374.965	83.44
375.191	83.44
375.416	72.44
375.642	88.44
375.868	81.44
376.094	83.44
376.319	71.44
376.545	89.44
376.771	72.44
376.997	80.44
377.222	86.44
377.448	95.44
377.674	79.44
377.899	80.44
378.125	86.44
378.35	92.44
378.576	87.44
378.802	84.44
379.027	67.44
379.253	76.44
379.478	94.44
379.704	79.44
379.929	70.44
380.155	85.44
380.38	86.44
380.606	83.44
380.831	79.44
381.057	99.44
381.282	68.44
381.507	88.44
381.733	65.44
381.958	79.44
382.184	77.44
382.409	87.44
382.634	81.44
382.86	79.44
383.085	92.44
383.31	83.44
383.535	94.44
383.761	81.44
383.986	88.44
384.211	84.44
384.436	84.44
384.662	81.44
384.887	79.44
385.112	78.44
385.337	76.44
385.562	72.44
385.787	81.44
386.013	78.44
386.238	72.44
386.463	73.44
386.688	88.44
386.913	96.44
387.138	81.44
387.363	81.44
387.588	77.44
387.813	79.44
388.038	78.44
388.263	83.44
388.488	76.44
388.713	83.44
388.938	83.44
389.163	73.44
389.387	86.44
389.612	78.44
389.837	81.44
390.062	73.44
390.287	80.44
390.512	86.44
390.736	91.44
390.961	74.44
391.186	84.44
391.411	72.44
391.636	96.44
391.86	94.44
392.085	72.44
392.31	74.44
392.534	71.44
392.759	92.44
392.984	99.44
393.208	91.44
393.433	83.44
393.658	83.44
393.882	107.44
394.107	77.44
394.331	90.44
394.556	79.44
394.78	94.44
395.005	71.44
395.229	82.44
395.454	64.44
395.678	93.44
395.903	77.44
396.127	84.44
396.352	65.44
396.576	77.44
396.801	79.44
397.025	77.44
397.249	91.44
397.474	83.44
397.698	78.44
397.922	94.44
398.147	72.44
398.371	84.44
398.595	85.44
398.82	78.44
399.044	81.44
399.268	91.44
399.492	83.44
399.717	93.44
399.941	76.44
400.165	82.44
400.389	78.44
400.613	72.44
400.837	83.44
401.062	73.44
401.286	95.44
401.51	76.44
401.734	107.44
401.958	81.44
402.182	93.44
402.406	85.44
402.63	77.44
402.854	83.44
403.078	88.44
403.302	85.44
403.526	71.44
403.75	95.44
403.974	87.44
404.198	108.44
404.422	134.44
404.645	147.44
404.869	131.44
405.093	110.44
405.317	85.44
405.541	95.44
405.765	84.44
405.988	78.44
406.212	75.44
406.436	74.44
406.66	79.44
406.883	83.44
407.107	78.44
407.331	82.44
407.555	89.44
407.778	85.44
408.002	73.44
408.226	71.44
408.449	70.44
408.673	85.44
408.896	81.44
409.12	85.44
409.344	84.44
409.567	69.44
409.791	81.44
410.014	86.44
410.238	96.44
410.461	86.44
410.685	78.44
410.908	72.44
411.132	83.44
411.355	80.44
411.578	86.44
411.802	97.44
412.025	88.44
412.249	101.44
412.472	77.44
412.695	68.44
412.919	77.44
413.142	85.44
413.365	84.44
413.589	85.44
413.812	69.44
414.035	87.44
414.258	83.44
414.482	89.44
414.705	66.44
414.928	77.44
415.151	83.44
415.374	72.44
415.597	79.44
415.821	89.44
416.044	87.44
416.267	81.44
416.49	83.44
416.713	75.44
416.936	68.44
417.159	72.44
417.382	72.44
417.605	72.44
417.828	98.44
418.051	81.44
418.274	85.44
418.497	77.44
418.72	72.44
418.943	84.44
419.166	74.44
419.389	83.44
419.611	73.44
419.834	91.44
420.057	78.44
420.28	75.44
420.503	81.44
420.726	68.44
420.948	70.44
421.171	67.44
421.394	92.44
421.617	80.44
421.839	77.44
422.062	82.44
422.285	103.44
422.507	91.44
422.73	109.44
422.953	84.44
423.175	85.44
423.398	80.44
423.621	76.44
423.843	87.44
424.066	79.44
424.288	91.44
424.511	86.44
424.733	82.44
424.956	75.44
425.178	74.44
425.401	85.44
425.623	77.44
425.846	84.44
426.068	83.44
426.291	79.44
426.513	83.44
426.735	74.44
426.958	81.44
427.18	79.44
427.402	76.44
427.625	69.44
427.847	87.44
428.069	72.44
428.292	72.44
428.514	70.44
428.736	73.44
428.958	73.44
429.181	81.44
429.403	86.44
429.625	88.44
429.847	79.44
430.069	81.44
430.292	80.44
430.514	69.44
430.736	87.44
430.958	84.44
431.18	81.44
431.402	73.44
431.624	87.44
431.846	83.44
432.068	80.44
432.29	71.44
432.512	79.44
432.734	75.44
432.956	82.44
433.178	88.44
433.4	79.44
433.622	88.44
433.844	68.44
434.066	79.44
434.287	85.44
434.509	71.44
434.731	94.44
434.953	82.44
435.175	75.44
435.397	88.44
435.618	77.44
435.84	77.44
436.062	76.44
436.284	84.44
436.505	81.44
436.727	83.44
436.949	76.44
437.17	72.44
437.392	87.44
437.614	71.44
437.835	91.44
438.057	87.44
438.278	73.44
438.5	73.44
438.721	71.44
438.943	73.44
439.165	87.44
439.386	77.44
439.608	79.44
439.829	79.44
440.05	91.44
440.272	82.44
440.493	93.44
440.715	81.44
440.936	85.44
441.158	82.44
441.379	69.44
441.6	90.44
441.822	82.44
442.043	93.44
442.264	78.44
442.486	93.44
442.707	95.44
442.928	97.44
443.149	84.44
443.371	81.44
443.592	80.44
443.813	87.44
444.034	78.44
444.255	84.44
444.476	99.44
444.698	78.44
444.919	70.44
445.14	160.44
445.361	123.44
445.582	91.44
445.803	77.44
446.024	76.44
446.245	84.44
446.466	88.44
446.687	85.44
446.908	82.44
447.129	75.44
447.35	75.44
447.571	81.44
447.792	84.44
448.013	84.44
448.234	89.44
448.455	85.44
448.675	81.44
448.896	79.44
449.117	78.44
449.338	80.44
449.559	82.44
449.779	78.44
450	76.44
450.221	77.44
450.442	77.44
450.662	94.44
450.883	79.44
451.104	81.44
451.324	56.44
451.545	95.44
451.766	84.44
451.986	95.44
452.207	83.44
452.428	85.44
452.648	91.44
452.869	86.44
453.089	83.44
453.31	83.44
453.53	79.44
453.751	85.44
453.971	80.44
454.192	73.44
454.412	84.44
454.633	86.44
454.853	85.44
455.073	86.44
455.294	79.44
455.514	74.44
455.734	65.44
455.955	71.44
456.175	84.44
456.395	78.44
456.616	85.44
456.836	87.44
457.056	71.44
457.276	81.44
457.497	74.44
457.717	68.44
457.937	72.44
458.157	81.44
458.377	99.44
458.598	84.44
458.818	83.44
459.038	87.44
459.258	61.44
459.478	94.44
459.698	79.44
459.918	80.44
460.138	77.44
460.358	71.44
460.578	89.44
460.798	73.44
461.018	85.44
461.238	80.44
461.458	72.44
461.678	86.44
461.898	75.44
462.118	91.44
462.338	72.44
462.558	94.44
462.777	93.44
462.997	90.44
463.217	83.44
463.437	81.44
463.657	91.44
463.876	79.44
464.096	75.44
464.316	73.44
464.536	75.44
464.755	88.44
464.975	76.44
465.195	84.44
465.414	94.44
465.634	72.44
465.854	75.44
466.073	85.44
466.293	88.44
466.512	85.44
466.732	75.44
466.951	90.44
467.171	81.44
467.391	71.44
467.61	89.44
467.829	85.44
468.049	86.44
468.268	77.44
468.488	75.44
468.707	87.44
468.927	72.44
469.146	89.44
469.365	82.44
469.585	86.44
469.804	75.44
470.023	83.44
470.243	77.44
470.462	83.44
470.681	79.44
470.901	93.44
471.12	84.44
471.339	94.44
471.558	81.44
471.777	81.44
471.997	85.44
472.216	82.44
472.435	83.44
472.654	101.44
472.873	93.44
473.092	89.44
473.311	74.44
473.53	92.44
473.749	79.44
473.968	84.44
474.187	82.44
474.406	84.44
474.625	89.44
474.844	80.44
475.063	84.44
475.282	88.44
475.501	78.44
475.72	83.44
475.939	83.44
476.158	77.44
476.377	78.44
476.596	91.44
476.814	84.44
477.033	75.44
477.252	81.44
477.471	78.44
477.69	83.44
477.908	95.44
478.127	89.44
478.346	87.44
478.564	96.44
478.783	87.44
479.002	69.44
479.22	81.44
479.439	83.44
479.658	79.44
479.876	69.44
480.095	72.44
480.313	93.44
480.532	79.44
480.751	91.44
480.969	79.44
481.188	87.44
481.406	82.44
481.624	99.44
481.843	97.44
482.061	83.44
482.28	83.44
482.498	94.44
482.717	72.44
482.935	82.44
483.153	74.44
483.372	89.44
483.59	91.44
483.808	72.44
484.027	69.44
484.245	96.44
484.463	70.44
484.681	83.44
484.9	90.44
485.118	88.44
485.336	75.44
485.554	77.44
485.772	90.44
485.99	87.44
486.209	83.44
486.427	94.44
486.645	94.44
486.863	86.44
487.081	74.44
487.299	96.44
487.517	93.44
487.735	91.44
487.953	95.44
488.171	90.44
488.389	99.44
488.607	71.44
488.825	77.44
489.043	87.44
489.261	77.44
489.479	68.44
489.696	92.44
489.914	93.44
490.132	78.44
490.35	107.44
490.568	84.44
490.786	93.44
491.003	87.44
491.221	77.44
491.439	80.44
491.657	93.44
491.874	79.44
492.092	72.44
492.31	77.44
492.527	83.44
492.745	77.44
492.963	87.44
493.18	87.44
493.398	82.44
493.615	85.44
493.833	84.44
494.05	86.44
494.268	81.44
494.485	91.44
494.703	85.44
494.92	96.44
495.138	80.44
495.355	82.44
495.573	97.44
495.79	100.44
496.008	81.44
496.225	99.44
496.442	84.44
496.66	91.44
496.877	76.44
497.094	93.44
497.312	84.44
497.529	84.44
497.746	88.44
497.963	97.44
498.181	95.44
498.398	93.44
498.615	88.44
498.832	95.44
499.049	78.44
499.267	99.44
499.484	79.44
499.701	82.44
499.918	101.44
500.135	88.44
500.352	83.44
500.569	76.44
500.786	90.44
501.003	89.44
501.22	90.44
501.437	97.44
501.654	88.44
501.871	95.44
502.088	68.44
502.305	95.44
502.522	78.44
502.739	82.44
502.956	93.44
503.172	91.44
503.389	79.44
503.606	83.44
503.823	82.44
504.04	92.44
504.256	96.44
504.473	72.44
504.69	74.44
504.907	78.44
505.123	82.44
505.34	93.44
505.557	81.44
505.773	90.44
505.99	80.44
506.207	84.44
506.423	87.44
506.64	73.44
506.856	86.44
507.073	96.44
507.289	79.44
507.506	87.44
507.722	97.44
507.939	82.44
508.155	82.44
508.372	88.44
508.588	78.44
508.805	85.44
509.021	73.44
509.238	83.44
509.454	85.44
509.67	61.44
509.887	86.44
510.103	99.44
510.319	87.44
510.536	84.44
510.752	72.44
510.968	95.44
511.184	71.44
511.401	88.44
511.617	81.44
511.833	82.44
512.049	77.44
512.265	81.44
512.481	85.44
512.698	94.44
512.914	93.44
513.13	85.44
513.346	82.44
513.562	75.44
513.778	81.44
513.994	83.44
514.21	91.44
514.426	91.44
514.642	85.44
514.858	85.44
515.074	96.44
515.29	97.44
515.506	99.44
515.721	92.44
515.937	79.44
516.153	95.44
516.369	86.44
516.585	78.44
516.801	72.44
517.016	92.44
517.232	75.44
517.448	87.44
517.664	76.44
517.879	81.44
518.095	75.44
518.311	93.44
518.527	93.44
518.742	92.44
518.958	82.44
519.173	76.44
519.389	73.44
519.605	82.44
519.82	87.44
520.036	80.44
520.251	87.44
520.467	82.44
520.682	92.44
520.898	62.44
521.113	97.44
521.329	86.44
521.544	94.44
521.76	80.44
521.975	91.44
522.19	91.44
522.406	95.44
522.621	87.44
522.836	89.44
523.052	82.44
523.267	91.44
523.482	80.44
523.698	71.44
523.913	87.44
524.128	90.44
524.343	82.44
524.559	92.44
524.774	88.44
524.989	87.44
525.204	80.44
525.419	80.44
525.634	88.44
525.849	93.44
526.064	100.44
526.28	94.44
526.495	77.44
526.71	89.44
526.925	96.44
527.14	75.44
527.355	77.44
527.57	86.44
527.785	73.44
527.999	81.44
528.214	79.44
528.429	80.44
528.644	90.44
528.859	95.44
529.074	83.44
529.289	89.44
529.503	75.44
529.718	94.44
529.933	103.44
530.148	95.44
530.363	88.44
530.577	88.44
530.792	83.44
531.007	75.44
531.221	79.44
531.436	75.44
531.651	102.44
531.865	95.44
532.08	91.44
532.295	76.44
532.509	93.44
532.724	89.44
532.938	90.44
533.153	91.44
533.367	72.44
533.582	86.44
533.796	88.44
534.011	103.44
534.225	97.44
534.44	93.44
534.654	96.44
534.868	81.44
535.083	84.44
535.297	103.44
535.511	83.44
535.726	97.44
535.94	91.44
536.154	91.44
536.369	98.44
536.583	104.44
536.797	87.44
537.011	75.44
537.225	89.44
537.44	84.44
537.654	89.44
537.868	86.44
538.082	78.44
538.296	80.44
538.51	96.44
538.724	80.44
538.938	91.44
539.153	82.44
539.367	101.44
539.581	84.44
539.795	89.44
540.009	85.44
540.222	83.44
540.436	75.44
540.65	77.44
540.864	87.44
541.078	93.44
541.292	89.44
541.506	89.44
541.72	89.44
541.934	86.44
542.147	89.44
542.361	84.44
542.575	84.44
542.789	79.44
543.002	85.44
543.216	88.44
543.43	89.44
543.644	94.44
543.857	91.44
544.071	70.44
544.285	94.44
544.498	84.44
544.712	99.44
544.925	93.44
545.139	95.44
545.352	100.44
545.566	102.44
545.779	67.44
545.993	85.44
546.206	94.44
546.42	96.44
546.633	94.44
546.847	95.44
547.06	84.44
547.274	95.44
547.487	77.44
547.7	89.44
547.914	93.44
548.127	86.44
548.34	85.44
548.554	95.44
548.767	96.44
548.98	87.44
549.193	97.44
549.407	73.44
549.62	95.44
549.833	80.44
550.046	82.44
550.259	90.44
550.473	87.44
550.686	80.44
550.899	83.44
551.112	87.44
551.325	85.44
551.538	97.44
551.751	100.44
551.964	84.44
552.177	82.44
552.39	99.44
552.603	88.44
552.816	86.44
553.029	73.44
553.242	93.44
553.455	94.44
553.667	95.44
553.88	73.44
554.093	107.44
554.306	85.44
554.519	87.44
554.732	81.44
554.944	84.44
555.157	80.44
555.37	98.44
555.583	81.44
555.795	93.44
556.008	85.44
556.221	85.44
556.433	81.44
556.646	78.44
556.859	85.44
557.071	95.44
557.284	83.44
557.496	89.44
557.709	87.44
557.921	80.44
558.134	86.44
558.346	89.44
558.559	72.44
558.771	75.44
558.984	97.44
559.196	92.44
559.409	80.44
559.621	85.44
559.833	82.44
560.046	93.44
560.258	99.44
560.47	65.44
560.683	77.44
560.895	77.44
561.107	98.44
561.32	80.44
561.532	86.44
561.744	74.44
561.956	88.44
562.168	81.44
562.381	86.44
562.593	74.44
562.805	84.44
563.017	81.44
563.229	95.44
563.441	78.44
563.653	99.44
563.865	84.44
564.077	83.44
564.289	103.44
564.501	88.44
564.713	93.44
564.925	86.44
565.137	87.44
565.349	97.44
565.561	91.44
565.773	81.44
565.985	88.44
566.197	72.44
566.408	91.44
566.62	88.44
566.832	70.44
567.044	91.44
567.255	84.44
567.467	80.44
567.679	79.44
567.891	97.44
568.102	81.44
568.314	78.44
568.526	91.44
568.737	88.44
568.949	85.44
569.161	91.44
569.372	93.44
569.584	83.44
569.795	84.44
570.007	77.44
570.218	76.44
570.43	70.44
570.641	86.44
570.853	93.44
571.064	76.44
571.276	96.44
571.487	88.44
571.698	79.44
571.91	85.44
572.121	75.44
572.333	67.44
572.544	89.44
572.755	77.44
572.966	82.44
573.178	86.44
573.389	87.44
573.6	101.44
573.811	99.44
574.023	84.44
574.234	76.44
574.445	87.44
574.656	83.44
574.867	83.44
575.078	87.44
575.289	88.44
575.501	86.44
575.712	88.44
575.923	80.44
576.134	85.44
576.345	84.44
576.556	74.44
576.767	100.44
576.978	95.44
577.188	102.44
577.399	70.44
577.61	76.44
577.821	102.44
578.032	87.44
578.243	96.44
578.454	97.44
578.665	93.44
578.875	76.44
579.086	85.44
579.297	84.44
579.508	87.44
579.718	98.44
579.929	96.44
580.14	81.44
580.35	81.44
580.561	110.44
580.772	88.44
580.982	98.44
581.193	81.44
581.403	87.44
581.614	83.44
581.825	82.44
582.035	72.44
582.246	89.44
582.456	78.44
582.667	81.44
582.877	80.44
583.087	92.44
583.298	94.44
583.508	110.44
583.719	80.44
583.929	91.44
584.139	103.44
584.35	98.44
584.56	86.44
584.77	89.44
584.981	92.44
585.191	94.44
585.401	89.44
585.611	84.44
585.821	83.44
586.032	87.44
586.242	81.44
586.452	86.44
586.662	86.44
586.872	87.44
587.082	91.44
587.292	90.44
587.502	78.44
587.713	96.44
587.923	81.44
588.133	95.44
588.343	93.44
588.553	112.44
588.762	130.44
588.972	251.44
589.182	525.44
589.392	342.44
589.602	256.44
589.812	442.44
590.022	232.44
590.232	120.44
590.441	85.44
590.651	100.44
590.861	96.44
591.071	85.44
591.281	97.44
591.49	82.44
591.7	86.44
591.91	86.44
592.119	85.44
592.329	95.44
592.539	84.44
592.748	97.44
592.958	101.44
593.167	80.44
593.377	85.44
593.587	88.44
593.796	72.44
594.006	81.44
594.215	79.44
594.424	72.44
594.634	98.44
594.843	85.44
595.053	92.44
595.262	86.44
595.472	99.44
595.681	83.44
595.89	100.44
596.1	95.44
596.309	99.44
596.518	78.44
596.727	72.44
596.937	92.44
597.146	91.44
597.355	85.44
597.564	96.44
597.774	77.44
597.983	80.44
598.192	79.44
598.401	86.44
598.61	78.44
598.819	99.44
599.028	88.44
599.237	91.44
599.446	87.44
599.655	73.44
599.864	89.44
600.073	75.44
600.282	78.44
600.491	86.44
600.7	84.44
600.909	92.44
601.118	95.44
601.327	80.44
601.536	82.44
601.745	97.44
601.953	75.44
602.162	84.44
602.371	65.44
602.58	77.44
602.789	85.44
602.997	87.44
603.206	81.44
603.415	88.44
603.623	89.44
603.832	86.44
604.041	69.44
604.249	82.44
604.458	81.44
604.666	89.44
604.875	93.44
605.084	96.44
605.292	84.44
605.501	68.44
605.709	77.44
605.918	95.44
606.126	89.44
606.334	107.44
606.543	77.44
606.751	87.44
606.96	89.44
607.168	86.44
607.376	82.44
607.585	78.44
607.793	87.44
608.001	80.44
608.21	84.44
608.418	83.44
608.626	75.44
608.834	81.44
609.043	77.44
609.251	96.44
609.459	86.44
609.667	93.44
609.875	84.44
610.083	88.44
610.291	85.44
610.499	95.44
610.707	88.44
610.916	72.44
611.124	89.44
611.332	85.44
611.54	94.44
611.748	87.44
611.955	77.44
612.163	83.44
612.371	82.44
612.579	75.44
612.787	85.44
612.995	76.44
613.203	80.44
613.411	82.44
613.618	100.44
613.826	88.44
614.034	79.44
614.242	79.44
614.449	90.44
614.657	89.44
614.865	91.44
615.072	85.44
615.28	81.44
615.488	96.44
615.695	73.44
615.903	82.44
616.111	80.44
616.318	92.44
616.526	86.44
616.733	86.44
616.941	105.44
617.148	92.44
617.356	95.44
617.563	93.44
617.771	87.44
617.978	81.44
618.185	99.44
618.393	88.44
618.6	92.44
618.807	88.44
619.015	89.44
619.222	84.44
619.429	86.44
619.637	84.44
619.844	81.44
620.051	80.44
620.258	90.44
620.466	80.44
620.673	86.44
620.88	96.44
621.087	82.44
621.294	88.44
621.501	83.44
621.708	74.44
621.915	76.44
622.122	82.44
622.329	78.44
622.536	69.44
622.743	80.44
622.95	68.44
623.157	79.44
623.364	75.44
623.571	90.44
623.778	87.44
623.985	84.44
624.192	85.44
624.399	89.44
624.606	87.44
624.812	78.44
625.019	80.44
625.226	92.44
625.433	75.44
625.639	89.44
625.846	79.44
626.053	100.44
626.259	79.44
626.466	91.44
626.673	68.44
626.879	80.44
627.086	86.44
627.293	78.44
627.499	98.44
627.706	75.44
627.912	86.44
628.119	68.44
628.325	78.44
628.532	88.44
628.738	88.44
628.945	71.44
629.151	75.44
629.357	101.44
629.564	67.44
629.77	93.44
629.976	80.44
630.183	85.44
630.389	67.44
630.595	87.44
630.802	79.44
631.008	91.44
631.214	79.44
631.42	83.44
631.627	73.44
631.833	88.44
632.039	80.44
632.245	85.44
632.451	85.44
632.657	72.44
632.863	86.44
633.069	79.44
633.275	89.44
633.481	94.44
633.688	85.44
633.893	104.44
634.099	82.44
634.305	76.44
634.511	92.44
634.717	80.44
634.923	80.44
635.129	89.44
635.335	83.44
635.541	76.44
635.747	70.44
635.952	92.44
636.158	71.44
636.364	95.44
636.57	76.44
636.775	84.44
636.981	91.44
637.187	86.44
637.392	83.44
637.598	89.44
637.804	82.44
638.009	77.44
638.215	84.44
638.421	86.44
638.626	87.44
638.832	96.44
639.037	101.44
639.243	73.44
639.448	83.44
639.654	85.44
639.859	80.44
640.065	83.44
640.27	97.44
640.475	77.44
640.681	76.44
640.886	84.44
641.091	76.44
641.297	74.44
641.502	90.44
641.707	73.44
641.913	81.44
642.118	72.44
642.323	86.44
642.528	91.44
642.733	87.44
642.939	85.44
643.144	79.44
643.349	86.44
643.554	78.44
643.759	66.44
643.964	69.44
644.169	97.44
644.374	87.44
644.579	94.44
644.784	78.44
644.989	84.44
645.194	76.44
645.399	78.44
645.604	83.44
645.809	75.44
646.014	88.44
646.219	76.44
646.423	93.44
646.628	83.44
646.833	79.44
647.038	72.44
647.243	79.44
647.447	95.44
647.652	75.44
647.857	84.44
648.062	81.44
648.266	81.44
648.471	90.44
648.676	84.44
648.88	76.44
649.085	81.44
649.289	79.44
649.494	78.44
649.698	87.44
649.903	76.44
650.107	83.44
650.312	97.44
650.516	79.44
650.721	78.44
650.925	83.44
651.13	78.44
651.334	84.44
651.539	83.44
651.743	79.44
651.947	99.44
652.152	84.44
652.356	82.44
652.56	95.44
652.764	84.44
652.969	98.44
653.173	88.44
653.377	85.44
653.581	82.44
653.785	75.44
653.99	86.44
654.194	83.44
654.398	82.44
654.602	83.44
654.806	79.44
655.01	82.44
655.214	98.44
655.418	85.44
655.622	82.44
655.826	91.44
656.03	78.44
656.234	81.44
656.438	69.44
656.642	77.44
656.846	92.44
657.049	79.44
657.253	82.44
657.457	80.44
657.661	89.44
657.865	69.44
658.068	83.44
658.272	73.44
658.476	69.44
658.68	83.44
658.883	91.44
659.087	61.44
659.291	78.44
659.494	99.44
659.698	73.44
659.901	98.44
660.105	81.44
660.309	79.44
660.512	81.44
660.716	72.44
660.919	81.44
661.123	86.44
661.326	88.44
661.53	69.44
661.733	82.44
661.936	79.44
662.14	82.44
662.343	82.44
662.546	89.44
662.75	91.44
662.953	81.44
663.156	88.44
663.36	92.44
663.563	79.44
663.766	74.44
663.969	87.44
664.173	87.44
664.376	88.44
664.579	83.44
664.782	75.44
664.985	88.44
665.188	80.44
665.391	85.44
665.594	88.44
665.797	88.44
666	79.44
666.203	78.44
666.406	82.44
666.609	79.44
666.812	75.44
667.015	79.44
667.218	80.44
667.421	74.44
667.624	82.44
667.827	85.44
668.03	91.44
668.232	92.44
668.435	81.44
668.638	87.44
668.841	78.44
669.043	72.44
669.246	75.44
669.449	83.44
669.651	81.44
669.854	81.44
670.057	86.44
670.259	84.44
670.462	82.44
670.665	75.44
670.867	77.44
671.07	74.44
671.272	83.44
671.475	86.44
671.677	92.44
671.88	89.44
672.082	93.44
672.284	69.44
672.487	96.44
672.689	80.44
672.892	91.44
