Data from Super_Dry_Prop_50_2_HRD10591_00008.txt Node
Date: Wed Dec 03 14:58:22 EST 2025
User: Yrep
Spectrometer: HR+D1059
Trigger mode: 1
Integration Time (sec): 1.000000E-1
Scans to average: 1
Electric dark correction enabled: true
Nonlinearity correction enabled: false
Boxcar width: 0
XAxis mode: Wavelengths
Number of Pixels in Spectrum: 2048
>>>>>Begin Spectral Data<<<<<
223.165	-12.94
223.4	-12.94
223.635	-12.94
223.869	-15.94
224.104	-26.94
224.338	-7.94
224.573	-20.94
224.808	-13.94
225.042	-13.94
225.277	-3.94
225.511	3.06
225.746	12.06
225.98	-4.94
226.215	4.06
226.449	11.06
226.683	27.06
226.918	33.06
227.152	31.06
227.387	46.06
227.621	36.06
227.856	52.06
228.09	39.06
228.324	62.06
228.559	70.06
228.793	58.06
229.027	58.06
229.262	53.06
229.496	55.06
229.73	59.06
229.964	72.06
230.199	79.06
230.433	74.06
230.667	81.06
230.901	71.06
231.136	67.06
231.37	81.06
231.604	75.06
231.838	83.06
232.072	81.06
232.306	99.06
232.541	82.06
232.775	91.06
233.009	78.06
233.243	79.06
233.477	91.06
233.711	80.06
233.945	88.06
234.179	76.06
234.413	89.06
234.647	69.06
234.881	85.06
235.115	84.06
235.349	76.06
235.583	77.06
235.817	78.06
236.051	74.06
236.285	84.06
236.519	66.06
236.753	65.06
236.987	75.06
237.221	72.06
237.455	80.06
237.689	67.06
237.922	84.06
238.156	73.06
238.39	77.06
238.624	73.06
238.858	79.06
239.091	72.06
239.325	69.06
239.559	84.06
239.793	74.06
240.027	69.06
240.26	61.06
240.494	79.06
240.728	86.06
240.961	77.06
241.195	84.06
241.429	75.06
241.662	79.06
241.896	63.06
242.13	80.06
242.363	77.06
242.597	76.06
242.83	78.06
243.064	74.06
243.298	72.06
243.531	72.06
243.765	84.06
243.998	88.06
244.232	78.06
244.465	75.06
244.699	73.06
244.932	90.06
245.166	69.06
245.399	65.06
245.633	78.06
245.866	73.06
246.099	72.06
246.333	79.06
246.566	80.06
246.8	89.06
247.033	80.06
247.266	87.06
247.5	70.06
247.733	89.06
247.966	84.06
248.2	83.06
248.433	79.06
248.666	69.06
248.899	70.06
249.133	77.06
249.366	78.06
249.599	75.06
249.832	63.06
250.066	80.06
250.299	83.06
250.532	81.06
250.765	69.06
250.998	58.06
251.231	67.06
251.465	68.06
251.698	82.06
251.931	73.06
252.164	67.06
252.397	82.06
252.63	72.06
252.863	67.06
253.096	78.06
253.329	85.06
253.562	81.06
253.795	83.06
254.028	83.06
254.261	71.06
254.494	52.06
254.727	85.06
254.96	83.06
255.193	82.06
255.426	62.06
255.659	81.06
255.892	80.06
256.124	81.06
256.357	94.06
256.59	88.06
256.823	99.06
257.056	77.06
257.289	58.06
257.521	77.06
257.754	79.06
257.987	75.06
258.22	86.06
258.452	86.06
258.685	66.06
258.918	73.06
259.151	95.06
259.383	77.06
259.616	78.06
259.849	76.06
260.081	73.06
260.314	85.06
260.547	77.06
260.779	78.06
261.012	69.06
261.244	70.06
261.477	79.06
261.71	85.06
261.942	72.06
262.175	97.06
262.407	72.06
262.64	81.06
262.872	71.06
263.105	73.06
263.337	76.06
263.57	78.06
263.802	69.06
264.035	82.06
264.267	79.06
264.499	81.06
264.732	81.06
264.964	85.06
265.197	92.06
265.429	70.06
265.661	84.06
265.894	91.06
266.126	82.06
266.358	76.06
266.591	64.06
266.823	83.06
267.055	75.06
267.287	79.06
267.52	90.06
267.752	79.06
267.984	85.06
268.216	94.06
268.448	88.06
268.681	82.06
268.913	102.06
269.145	92.06
269.377	86.06
269.609	73.06
269.841	73.06
270.073	74.06
270.306	78.06
270.538	75.06
270.77	91.06
271.002	82.06
271.234	85.06
271.466	82.06
271.698	77.06
271.93	71.06
272.162	72.06
272.394	80.06
272.626	79.06
272.858	66.06
273.09	89.06
273.322	82.06
273.553	81.06
273.785	83.06
274.017	88.06
274.249	93.06
274.481	71.06
274.713	87.06
274.945	71.06
275.176	81.06
275.408	93.06
275.64	84.06
275.872	86.06
276.104	78.06
276.335	91.06
276.567	73.06
276.799	81.06
277.031	87.06
277.262	83.06
277.494	82.06
277.726	77.06
277.957	81.06
278.189	83.06
278.421	76.06
278.652	84.06
278.884	79.06
279.115	92.06
279.347	77.06
279.579	98.06
279.81	85.06
280.042	77.06
280.273	77.06
280.505	96.06
280.736	75.06
280.968	81.06
281.199	87.06
281.431	67.06
281.662	81.06
281.894	65.06
282.125	78.06
282.356	87.06
282.588	79.06
282.819	86.06
283.051	67.06
283.282	80.06
283.513	83.06
283.745	76.06
283.976	78.06
284.207	81.06
284.439	96.06
284.67	84.06
284.901	81.06
285.132	80.06
285.364	82.06
285.595	80.06
285.826	91.06
286.057	82.06
286.288	78.06
286.52	103.06
286.751	73.06
286.982	77.06
287.213	75.06
287.444	84.06
287.675	84.06
287.906	76.06
288.138	73.06
288.369	81.06
288.6	91.06
288.831	83.06
289.062	95.06
289.293	82.06
289.524	89.06
289.755	83.06
289.986	70.06
290.217	81.06
290.448	77.06
290.679	87.06
290.91	82.06
291.141	78.06
291.371	85.06
291.602	79.06
291.833	84.06
292.064	80.06
292.295	75.06
292.526	80.06
292.757	88.06
292.987	83.06
293.218	89.06
293.449	89.06
293.68	79.06
293.91	80.06
294.141	89.06
294.372	78.06
294.603	86.06
294.833	69.06
295.064	93.06
295.295	87.06
295.525	95.06
295.756	85.06
295.987	86.06
296.217	83.06
296.448	82.06
296.679	87.06
296.909	94.06
297.14	86.06
297.37	84.06
297.601	86.06
297.831	73.06
298.062	80.06
298.292	76.06
298.523	91.06
298.753	71.06
298.984	99.06
299.214	83.06
299.445	82.06
299.675	89.06
299.905	76.06
300.136	95.06
300.366	77.06
300.597	89.06
300.827	80.06
301.057	86.06
301.288	77.06
301.518	86.06
301.748	63.06
301.979	87.06
302.209	67.06
302.439	76.06
302.669	79.06
302.9	79.06
303.13	72.06
303.36	81.06
303.59	82.06
303.82	94.06
304.051	88.06
304.281	73.06
304.511	86.06
304.741	94.06
304.971	86.06
305.201	77.06
305.431	81.06
305.661	97.06
305.891	84.06
306.121	86.06
306.352	65.06
306.582	80.06
306.812	83.06
307.042	95.06
307.272	93.06
307.502	101.06
307.731	82.06
307.961	75.06
308.191	86.06
308.421	82.06
308.651	72.06
308.881	89.06
309.111	80.06
309.341	85.06
309.571	89.06
309.8	84.06
310.03	87.06
310.26	84.06
310.49	72.06
310.72	87.06
310.949	79.06
311.179	99.06
311.409	107.06
311.639	100.06
311.868	87.06
312.098	64.06
312.328	85.06
312.557	85.06
312.787	85.06
313.017	84.06
313.246	88.06
313.476	77.06
313.706	82.06
313.935	80.06
314.165	75.06
314.394	88.06
314.624	93.06
314.853	68.06
315.083	82.06
315.312	87.06
315.542	101.06
315.771	82.06
316.001	86.06
316.23	64.06
316.46	81.06
316.689	73.06
316.919	81.06
317.148	92.06
317.377	87.06
317.607	81.06
317.836	69.06
318.065	85.06
318.295	92.06
318.524	76.06
318.753	101.06
318.983	71.06
319.212	84.06
319.441	79.06
319.67	93.06
319.9	79.06
320.129	78.06
320.358	86.06
320.587	89.06
320.816	92.06
321.046	91.06
321.275	88.06
321.504	86.06
321.733	72.06
321.962	75.06
322.191	105.06
322.42	82.06
322.649	83.06
322.878	83.06
323.108	85.06
323.337	80.06
323.566	93.06
323.795	95.06
324.024	92.06
324.253	84.06
324.482	83.06
324.71	70.06
324.939	86.06
325.168	84.06
325.397	75.06
325.626	84.06
325.855	80.06
326.084	87.06
326.313	82.06
326.542	94.06
326.77	86.06
326.999	81.06
327.228	92.06
327.457	87.06
327.686	91.06
327.914	87.06
328.143	81.06
328.372	83.06
328.6	68.06
328.829	84.06
329.058	95.06
329.287	84.06
329.515	96.06
329.744	96.06
329.972	89.06
330.201	92.06
330.43	88.06
330.658	86.06
330.887	73.06
331.115	105.06
331.344	84.06
331.572	91.06
331.801	85.06
332.03	90.06
332.258	81.06
332.486	80.06
332.715	72.06
332.943	88.06
333.172	77.06
333.4	85.06
333.629	84.06
333.857	97.06
334.085	93.06
334.314	83.06
334.542	77.06
334.771	80.06
334.999	96.06
335.227	83.06
335.455	82.06
335.684	80.06
335.912	82.06
336.14	77.06
336.369	82.06
336.597	79.06
336.825	93.06
337.053	77.06
337.281	73.06
337.51	96.06
337.738	95.06
337.966	105.06
338.194	89.06
338.422	88.06
338.65	64.06
338.878	86.06
339.106	72.06
339.334	87.06
339.562	74.06
339.79	95.06
340.018	73.06
340.246	87.06
340.474	84.06
340.702	94.06
340.93	76.06
341.158	83.06
341.386	82.06
341.614	98.06
341.842	98.06
342.07	89.06
342.298	73.06
342.526	65.06
342.754	78.06
342.981	88.06
343.209	89.06
343.437	85.06
343.665	79.06
343.893	76.06
344.12	83.06
344.348	89.06
344.576	104.06
344.804	98.06
345.031	96.06
345.259	90.06
345.487	88.06
345.714	90.06
345.942	93.06
346.17	99.06
346.397	89.06
346.625	87.06
346.853	80.06
347.08	77.06
347.308	77.06
347.535	72.06
347.763	88.06
347.99	79.06
348.218	80.06
348.445	84.06
348.673	98.06
348.9	88.06
349.128	94.06
349.355	87.06
349.583	99.06
349.81	75.06
350.037	83.06
350.265	87.06
350.492	85.06
350.72	82.06
350.947	70.06
351.174	95.06
351.402	82.06
351.629	87.06
351.856	83.06
352.083	78.06
352.311	78.06
352.538	73.06
352.765	81.06
352.992	75.06
353.22	80.06
353.447	85.06
353.674	95.06
353.901	77.06
354.128	92.06
354.355	89.06
354.583	91.06
354.81	93.06
355.037	85.06
355.264	77.06
355.491	90.06
355.718	86.06
355.945	96.06
356.172	83.06
356.399	85.06
356.626	86.06
356.853	86.06
357.08	93.06
357.307	83.06
357.534	84.06
357.761	77.06
357.988	84.06
358.215	83.06
358.441	85.06
358.668	96.06
358.895	84.06
359.122	80.06
359.349	84.06
359.576	81.06
359.802	85.06
360.029	81.06
360.256	82.06
360.483	75.06
360.709	80.06
360.936	80.06
361.163	88.06
361.39	93.06
361.616	85.06
361.843	86.06
362.07	92.06
362.296	85.06
362.523	77.06
362.749	76.06
362.976	80.06
363.203	102.06
363.429	68.06
363.656	86.06
363.882	75.06
364.109	89.06
364.335	82.06
364.562	64.06
364.788	95.06
365.015	79.06
365.241	85.06
365.468	85.06
365.694	89.06
365.92	91.06
366.147	85.06
366.373	84.06
366.599	75.06
366.826	84.06
367.052	80.06
367.278	93.06
367.505	99.06
367.731	97.06
367.957	77.06
368.184	77.06
368.41	80.06
368.636	77.06
368.862	78.06
369.089	77.06
369.315	66.06
369.541	78.06
369.767	82.06
369.993	71.06
370.219	88.06
370.445	78.06
370.672	88.06
370.898	85.06
371.124	78.06
371.35	75.06
371.576	91.06
371.802	88.06
372.028	91.06
372.254	80.06
372.48	89.06
372.706	64.06
372.932	75.06
373.158	87.06
373.384	84.06
373.61	81.06
373.835	88.06
374.061	78.06
374.287	87.06
374.513	89.06
374.739	93.06
374.965	95.06
375.191	88.06
375.416	81.06
375.642	88.06
375.868	82.06
376.094	76.06
376.319	84.06
376.545	85.06
376.771	73.06
376.997	72.06
377.222	77.06
377.448	98.06
377.674	98.06
377.899	109.06
378.125	88.06
378.35	94.06
378.576	93.06
378.802	77.06
379.027	82.06
379.253	99.06
379.478	99.06
379.704	89.06
379.929	87.06
380.155	80.06
380.38	79.06
380.606	79.06
380.831	87.06
381.057	88.06
381.282	97.06
381.507	85.06
381.733	82.06
381.958	88.06
382.184	101.06
382.409	83.06
382.634	86.06
382.86	89.06
383.085	91.06
383.31	86.06
383.535	95.06
383.761	89.06
383.986	91.06
384.211	95.06
384.436	79.06
384.662	79.06
384.887	94.06
385.112	77.06
385.337	97.06
385.562	83.06
385.787	101.06
386.013	80.06
386.238	63.06
386.463	79.06
386.688	98.06
386.913	81.06
387.138	84.06
387.363	100.06
387.588	85.06
387.813	92.06
388.038	93.06
388.263	88.06
388.488	88.06
388.713	82.06
388.938	74.06
389.163	85.06
389.387	80.06
389.612	85.06
389.837	93.06
390.062	77.06
390.287	76.06
390.512	86.06
390.736	79.06
390.961	82.06
391.186	86.06
391.411	84.06
391.636	99.06
391.86	92.06
392.085	92.06
392.31	86.06
392.534	79.06
392.759	93.06
392.984	72.06
393.208	95.06
393.433	82.06
393.658	101.06
393.882	93.06
394.107	75.06
394.331	85.06
394.556	64.06
394.78	76.06
395.005	92.06
395.229	82.06
395.454	82.06
395.678	86.06
395.903	85.06
396.127	85.06
396.352	91.06
396.576	83.06
396.801	86.06
397.025	96.06
397.249	82.06
397.474	80.06
397.698	86.06
397.922	98.06
398.147	84.06
398.371	86.06
398.595	82.06
398.82	77.06
399.044	99.06
399.268	85.06
399.492	79.06
399.717	71.06
399.941	81.06
400.165	80.06
400.389	85.06
400.613	88.06
400.837	95.06
401.062	88.06
401.286	86.06
401.51	72.06
401.734	80.06
401.958	86.06
402.182	87.06
402.406	88.06
402.63	88.06
402.854	80.06
403.078	85.06
403.302	88.06
403.526	96.06
403.75	84.06
403.974	96.06
404.198	136.06
404.422	160.06
404.645	179.06
404.869	149.06
405.093	104.06
405.317	88.06
405.541	77.06
405.765	103.06
405.988	78.06
406.212	79.06
406.436	73.06
406.66	85.06
406.883	85.06
407.107	78.06
407.331	92.06
407.555	74.06
407.778	106.06
408.002	83.06
408.226	81.06
408.449	76.06
408.673	80.06
408.896	96.06
409.12	89.06
409.344	93.06
409.567	80.06
409.791	75.06
410.014	77.06
410.238	76.06
410.461	80.06
410.685	85.06
410.908	87.06
411.132	102.06
411.355	76.06
411.578	79.06
411.802	98.06
412.025	95.06
412.249	65.06
412.472	83.06
412.695	78.06
412.919	84.06
413.142	90.06
413.365	77.06
413.589	81.06
413.812	79.06
414.035	85.06
414.258	86.06
414.482	84.06
414.705	88.06
414.928	84.06
415.151	75.06
415.374	96.06
415.597	88.06
415.821	95.06
416.044	84.06
416.267	79.06
416.49	83.06
416.713	78.06
416.936	98.06
417.159	98.06
417.382	81.06
417.605	91.06
417.828	81.06
418.051	91.06
418.274	72.06
418.497	89.06
418.72	86.06
418.943	83.06
419.166	94.06
419.389	94.06
419.611	71.06
419.834	83.06
420.057	86.06
420.28	87.06
420.503	82.06
420.726	83.06
420.948	87.06
421.171	91.06
421.394	83.06
421.617	77.06
421.839	77.06
422.062	82.06
422.285	76.06
422.507	94.06
422.73	127.06
422.953	107.06
423.175	88.06
423.398	93.06
423.621	94.06
423.843	84.06
424.066	83.06
424.288	75.06
424.511	79.06
424.733	76.06
424.956	84.06
425.178	71.06
425.401	86.06
425.623	87.06
425.846	80.06
426.068	79.06
426.291	72.06
426.513	76.06
426.735	76.06
426.958	92.06
427.18	93.06
427.402	92.06
427.625	79.06
427.847	85.06
428.069	78.06
428.292	75.06
428.514	82.06
428.736	78.06
428.958	70.06
429.181	94.06
429.403	85.06
429.625	95.06
429.847	81.06
430.069	107.06
430.292	87.06
430.514	72.06
430.736	83.06
430.958	88.06
431.18	83.06
431.402	72.06
431.624	77.06
431.846	72.06
432.068	84.06
432.29	98.06
432.512	83.06
432.734	94.06
432.956	77.06
433.178	83.06
433.4	96.06
433.622	87.06
433.844	68.06
434.066	88.06
434.287	82.06
434.509	81.06
434.731	99.06
434.953	80.06
435.175	77.06
435.397	79.06
435.618	70.06
435.84	89.06
436.062	78.06
436.284	76.06
436.505	68.06
436.727	77.06
436.949	87.06
437.17	84.06
437.392	77.06
437.614	80.06
437.835	76.06
438.057	88.06
438.278	74.06
438.5	89.06
438.721	98.06
438.943	88.06
439.165	78.06
439.386	87.06
439.608	93.06
439.829	87.06
440.05	81.06
440.272	81.06
440.493	86.06
440.715	71.06
440.936	78.06
441.158	99.06
441.379	77.06
441.6	99.06
441.822	86.06
442.043	72.06
442.264	88.06
442.486	75.06
442.707	67.06
442.928	80.06
443.149	79.06
443.371	86.06
443.592	89.06
443.813	90.06
444.034	84.06
444.255	99.06
444.476	76.06
444.698	81.06
444.919	80.06
445.14	157.06
445.361	115.06
445.582	93.06
445.803	85.06
446.024	95.06
446.245	83.06
446.466	72.06
446.687	79.06
446.908	77.06
447.129	93.06
447.35	75.06
447.571	78.06
447.792	79.06
448.013	93.06
448.234	79.06
448.455	70.06
448.675	83.06
448.896	93.06
449.117	84.06
449.338	80.06
449.559	64.06
449.779	87.06
450	70.06
450.221	72.06
450.442	99.06
450.662	95.06
450.883	91.06
451.104	88.06
451.324	94.06
451.545	69.06
451.766	78.06
451.986	99.06
452.207	91.06
452.428	74.06
452.648	78.06
452.869	85.06
453.089	92.06
453.31	79.06
453.53	85.06
453.751	95.06
453.971	95.06
454.192	83.06
454.412	81.06
454.633	86.06
454.853	101.06
455.073	79.06
455.294	78.06
455.514	76.06
455.734	65.06
455.955	87.06
456.175	87.06
456.395	89.06
456.616	79.06
456.836	88.06
457.056	82.06
457.276	86.06
457.497	77.06
457.717	99.06
457.937	98.06
458.157	88.06
458.377	97.06
458.598	87.06
458.818	83.06
459.038	79.06
459.258	63.06
459.478	85.06
459.698	84.06
459.918	75.06
460.138	89.06
460.358	80.06
460.578	86.06
460.798	95.06
461.018	95.06
461.238	81.06
461.458	77.06
461.678	101.06
461.898	91.06
462.118	87.06
462.338	82.06
462.558	84.06
462.777	84.06
462.997	83.06
463.217	92.06
463.437	79.06
463.657	79.06
463.876	88.06
464.096	93.06
464.316	94.06
464.536	71.06
464.755	93.06
464.975	71.06
465.195	103.06
465.414	82.06
465.634	91.06
465.854	94.06
466.073	106.06
466.293	83.06
466.512	80.06
466.732	89.06
466.951	82.06
467.171	90.06
467.391	83.06
467.61	84.06
467.829	86.06
468.049	85.06
468.268	94.06
468.488	79.06
468.707	80.06
468.927	72.06
469.146	85.06
469.365	87.06
469.585	80.06
469.804	86.06
470.023	84.06
470.243	81.06
470.462	95.06
470.681	89.06
470.901	96.06
471.12	71.06
471.339	95.06
471.558	94.06
471.777	72.06
471.997	84.06
472.216	76.06
472.435	92.06
472.654	89.06
472.873	93.06
473.092	77.06
473.311	72.06
473.53	91.06
473.749	91.06
473.968	77.06
474.187	95.06
474.406	83.06
474.625	88.06
474.844	88.06
475.063	83.06
475.282	87.06
475.501	94.06
475.72	88.06
475.939	85.06
476.158	88.06
476.377	82.06
476.596	85.06
476.814	85.06
477.033	84.06
477.252	84.06
477.471	104.06
477.69	95.06
477.908	84.06
478.127	75.06
478.346	82.06
478.564	88.06
478.783	93.06
479.002	91.06
479.22	93.06
479.439	71.06
479.658	86.06
479.876	81.06
480.095	82.06
480.313	99.06
480.532	86.06
480.751	81.06
480.969	89.06
481.188	97.06
481.406	93.06
481.624	90.06
481.843	78.06
482.061	86.06
482.28	89.06
482.498	78.06
482.717	93.06
482.935	83.06
483.153	88.06
483.372	85.06
483.59	81.06
483.808	79.06
484.027	94.06
484.245	89.06
484.463	89.06
484.681	97.06
484.9	85.06
485.118	101.06
485.336	72.06
485.554	85.06
485.772	84.06
485.99	88.06
486.209	83.06
486.427	91.06
486.645	83.06
486.863	79.06
487.081	84.06
487.299	65.06
487.517	80.06
487.735	88.06
487.953	99.06
488.171	85.06
488.389	87.06
488.607	87.06
488.825	82.06
489.043	96.06
489.261	101.06
489.479	95.06
489.696	76.06
489.914	105.06
490.132	94.06
490.35	77.06
490.568	85.06
490.786	83.06
491.003	78.06
491.221	75.06
491.439	84.06
491.657	88.06
491.874	79.06
492.092	93.06
492.31	88.06
492.527	82.06
492.745	88.06
492.963	88.06
493.18	83.06
493.398	78.06
493.615	86.06
493.833	80.06
494.05	79.06
494.268	95.06
494.485	82.06
494.703	89.06
494.92	99.06
495.138	86.06
495.355	79.06
495.573	91.06
495.79	80.06
496.008	99.06
496.225	84.06
496.442	75.06
496.66	82.06
496.877	84.06
497.094	97.06
497.312	87.06
497.529	85.06
497.746	89.06
497.963	82.06
498.181	90.06
498.398	95.06
498.615	79.06
498.832	82.06
499.049	85.06
499.267	100.06
499.484	101.06
499.701	105.06
499.918	86.06
500.135	93.06
500.352	95.06
500.569	91.06
500.786	67.06
501.003	77.06
501.22	61.06
501.437	78.06
501.654	73.06
501.871	87.06
502.088	93.06
502.305	86.06
502.522	83.06
502.739	96.06
502.956	82.06
503.172	101.06
503.389	93.06
503.606	81.06
503.823	80.06
504.04	72.06
504.256	88.06
504.473	78.06
504.69	97.06
504.907	78.06
505.123	76.06
505.34	86.06
505.557	77.06
505.773	96.06
505.99	79.06
506.207	74.06
506.423	77.06
506.64	87.06
506.856	85.06
507.073	82.06
507.289	77.06
507.506	86.06
507.722	93.06
507.939	82.06
508.155	83.06
508.372	83.06
508.588	98.06
508.805	94.06
509.021	83.06
509.238	87.06
509.454	79.06
509.67	87.06
509.887	94.06
510.103	74.06
510.319	92.06
510.536	78.06
510.752	85.06
510.968	94.06
511.184	91.06
511.401	99.06
511.617	88.06
511.833	75.06
512.049	91.06
512.265	89.06
512.481	89.06
512.698	78.06
512.914	85.06
513.13	95.06
513.346	93.06
513.562	86.06
513.778	93.06
513.994	91.06
514.21	88.06
514.426	75.06
514.642	79.06
514.858	84.06
515.074	90.06
515.29	95.06
515.506	84.06
515.721	80.06
515.937	86.06
516.153	76.06
516.369	96.06
516.585	97.06
516.801	104.06
517.016	87.06
517.232	106.06
517.448	78.06
517.664	91.06
517.879	99.06
518.095	87.06
518.311	93.06
518.527	85.06
518.742	79.06
518.958	73.06
519.173	90.06
519.389	87.06
519.605	81.06
519.82	84.06
520.036	88.06
520.251	92.06
520.467	85.06
520.682	82.06
520.898	96.06
521.113	98.06
521.329	91.06
521.544	72.06
521.76	96.06
521.975	101.06
522.19	85.06
522.406	91.06
522.621	75.06
522.836	81.06
523.052	85.06
523.267	77.06
523.482	77.06
523.698	94.06
523.913	86.06
524.128	89.06
524.343	88.06
524.559	97.06
524.774	95.06
524.989	87.06
525.204	87.06
525.419	74.06
525.634	84.06
525.849	87.06
526.064	80.06
526.28	91.06
526.495	80.06
526.71	73.06
526.925	82.06
527.14	89.06
527.355	87.06
527.57	92.06
527.785	87.06
527.999	93.06
528.214	82.06
528.429	72.06
528.644	92.06
528.859	103.06
529.074	76.06
529.289	81.06
529.503	79.06
529.718	88.06
529.933	81.06
530.148	78.06
530.363	101.06
530.577	90.06
530.792	72.06
531.007	88.06
531.221	93.06
531.436	95.06
531.651	88.06
531.865	87.06
532.08	77.06
532.295	92.06
532.509	95.06
532.724	93.06
532.938	76.06
533.153	83.06
533.367	90.06
533.582	82.06
533.796	99.06
534.011	103.06
534.225	98.06
534.44	109.06
534.654	113.06
534.868	97.06
535.083	98.06
535.297	95.06
535.511	91.06
535.726	100.06
535.94	96.06
536.154	103.06
536.369	104.06
536.583	83.06
536.797	87.06
537.011	91.06
537.225	84.06
537.44	80.06
537.654	91.06
537.868	85.06
538.082	84.06
538.296	92.06
538.51	95.06
538.724	79.06
538.938	86.06
539.153	85.06
539.367	79.06
539.581	80.06
539.795	82.06
540.009	84.06
540.222	87.06
540.436	97.06
540.65	93.06
540.864	86.06
541.078	85.06
541.292	97.06
541.506	74.06
541.72	80.06
541.934	89.06
542.147	87.06
542.361	92.06
542.575	101.06
542.789	73.06
543.002	84.06
543.216	87.06
543.43	77.06
543.644	83.06
543.857	91.06
544.071	76.06
544.285	107.06
544.498	78.06
544.712	91.06
544.925	82.06
545.139	101.06
545.352	83.06
545.566	87.06
545.779	83.06
545.993	95.06
546.206	85.06
546.42	94.06
546.633	83.06
546.847	78.06
547.06	92.06
547.274	86.06
547.487	70.06
547.7	79.06
547.914	86.06
548.127	90.06
548.34	87.06
548.554	87.06
548.767	80.06
548.98	85.06
549.193	91.06
549.407	93.06
549.62	83.06
549.833	89.06
550.046	95.06
550.259	87.06
550.473	77.06
550.686	95.06
550.899	79.06
551.112	77.06
551.325	98.06
551.538	87.06
551.751	94.06
551.964	93.06
552.177	81.06
552.39	79.06
552.603	84.06
552.816	75.06
553.029	88.06
553.242	78.06
553.455	82.06
553.667	84.06
553.88	79.06
554.093	83.06
554.306	81.06
554.519	93.06
554.732	77.06
554.944	76.06
555.157	85.06
555.37	77.06
555.583	100.06
555.795	83.06
556.008	100.06
556.221	70.06
556.433	74.06
556.646	92.06
556.859	91.06
557.071	91.06
557.284	94.06
557.496	89.06
557.709	84.06
557.921	86.06
558.134	78.06
558.346	87.06
558.559	81.06
558.771	94.06
558.984	79.06
559.196	87.06
559.409	83.06
559.621	87.06
559.833	71.06
560.046	80.06
560.258	76.06
560.47	91.06
560.683	89.06
560.895	89.06
561.107	72.06
561.32	79.06
561.532	93.06
561.744	77.06
561.956	68.06
562.168	84.06
562.381	72.06
562.593	86.06
562.805	84.06
563.017	87.06
563.229	84.06
563.441	94.06
563.653	90.06
563.865	86.06
564.077	88.06
564.289	80.06
564.501	81.06
564.713	78.06
564.925	89.06
565.137	79.06
565.349	71.06
565.561	84.06
565.773	83.06
565.985	99.06
566.197	86.06
566.408	80.06
566.62	71.06
566.832	71.06
567.044	76.06
567.255	74.06
567.467	86.06
567.679	77.06
567.891	97.06
568.102	95.06
568.314	88.06
568.526	101.06
568.737	96.06
568.949	92.06
569.161	89.06
569.372	100.06
569.584	87.06
569.795	82.06
570.007	91.06
570.218	90.06
570.43	92.06
570.641	86.06
570.853	94.06
571.064	91.06
571.276	87.06
571.487	79.06
571.698	92.06
571.91	88.06
572.121	79.06
572.333	97.06
572.544	96.06
572.755	85.06
572.966	83.06
573.178	66.06
573.389	89.06
573.6	85.06
573.811	77.06
574.023	79.06
574.234	83.06
574.445	83.06
574.656	71.06
574.867	84.06
575.078	101.06
575.289	89.06
575.501	82.06
575.712	83.06
575.923	104.06
576.134	84.06
576.345	99.06
576.556	72.06
576.767	81.06
576.978	84.06
577.188	89.06
577.399	88.06
577.61	85.06
577.821	101.06
578.032	96.06
578.243	112.06
578.454	114.06
578.665	106.06
578.875	100.06
579.086	87.06
579.297	91.06
579.508	85.06
579.718	77.06
579.929	82.06
580.14	96.06
580.35	120.06
580.561	132.06
580.772	103.06
580.982	102.06
581.193	100.06
581.403	98.06
581.614	102.06
581.825	90.06
582.035	89.06
582.246	96.06
582.456	75.06
582.667	102.06
582.877	87.06
583.087	95.06
583.298	109.06
583.508	102.06
583.719	109.06
583.929	91.06
584.139	79.06
584.35	95.06
584.56	95.06
584.77	86.06
584.981	79.06
585.191	80.06
585.401	96.06
585.611	86.06
585.821	85.06
586.032	70.06
586.242	86.06
586.452	79.06
586.662	96.06
586.872	71.06
587.082	88.06
587.292	94.06
587.502	88.06
587.713	91.06
587.923	98.06
588.133	100.06
588.343	119.06
588.553	117.06
588.762	161.06
588.972	320.06
589.182	737.06
589.392	466.06
589.602	358.06
589.812	589.06
590.022	285.06
590.232	132.06
590.441	117.06
590.651	101.06
590.861	99.06
591.071	86.06
591.281	89.06
591.49	92.06
591.7	100.06
591.91	94.06
592.119	99.06
592.329	71.06
592.539	78.06
592.748	89.06
592.958	87.06
593.167	91.06
593.377	101.06
593.587	100.06
593.796	91.06
594.006	82.06
594.215	92.06
594.424	87.06
594.634	81.06
594.843	76.06
595.053	78.06
595.262	92.06
595.472	75.06
595.681	77.06
595.89	96.06
596.1	85.06
596.309	81.06
596.518	78.06
596.727	72.06
596.937	98.06
597.146	80.06
597.355	84.06
597.564	84.06
597.774	85.06
597.983	79.06
598.192	84.06
598.401	104.06
598.61	92.06
598.819	66.06
599.028	77.06
599.237	99.06
599.446	79.06
599.655	84.06
599.864	88.06
600.073	88.06
600.282	80.06
600.491	90.06
600.7	82.06
600.909	97.06
601.118	81.06
601.327	83.06
601.536	82.06
601.745	91.06
601.953	96.06
602.162	84.06
602.371	103.06
602.58	77.06
602.789	81.06
602.997	74.06
603.206	81.06
603.415	75.06
603.623	89.06
603.832	93.06
604.041	77.06
604.249	90.06
604.458	75.06
604.666	83.06
604.875	83.06
605.084	85.06
605.292	94.06
605.501	88.06
605.709	85.06
605.918	84.06
606.126	88.06
606.334	72.06
606.543	84.06
606.751	82.06
606.96	84.06
607.168	105.06
607.376	85.06
607.585	84.06
607.793	72.06
608.001	95.06
608.21	84.06
608.418	95.06
608.626	98.06
608.834	77.06
609.043	83.06
609.251	91.06
609.459	95.06
609.667	89.06
609.875	85.06
610.083	93.06
610.291	91.06
610.499	83.06
610.707	85.06
610.916	91.06
611.124	87.06
611.332	71.06
611.54	80.06
611.748	86.06
611.955	87.06
612.163	89.06
612.371	84.06
612.579	84.06
612.787	99.06
612.995	84.06
613.203	99.06
613.411	83.06
613.618	87.06
613.826	91.06
614.034	77.06
614.242	81.06
614.449	84.06
614.657	83.06
614.865	78.06
615.072	71.06
615.28	86.06
615.488	96.06
615.695	94.06
615.903	104.06
616.111	79.06
616.318	93.06
616.526	88.06
616.733	86.06
616.941	85.06
617.148	91.06
617.356	100.06
617.563	84.06
617.771	84.06
617.978	80.06
618.185	91.06
618.393	88.06
618.6	79.06
618.807	83.06
619.015	89.06
619.222	76.06
619.429	92.06
619.637	87.06
619.844	94.06
620.051	92.06
620.258	87.06
620.466	102.06
620.673	94.06
620.88	82.06
621.087	84.06
621.294	83.06
621.501	82.06
621.708	76.06
621.915	92.06
622.122	91.06
622.329	77.06
622.536	87.06
622.743	83.06
622.95	94.06
623.157	94.06
623.364	87.06
623.571	94.06
623.778	91.06
623.985	85.06
624.192	77.06
624.399	81.06
624.606	90.06
624.812	88.06
625.019	92.06
625.226	76.06
625.433	82.06
625.639	92.06
625.846	87.06
626.053	77.06
626.259	92.06
626.466	84.06
626.673	85.06
626.879	84.06
627.086	95.06
627.293	85.06
627.499	83.06
627.706	95.06
627.912	90.06
628.119	95.06
628.325	85.06
628.532	85.06
628.738	76.06
628.945	84.06
629.151	73.06
629.357	76.06
629.564	76.06
629.77	89.06
629.976	83.06
630.183	76.06
630.389	86.06
630.595	76.06
630.802	89.06
631.008	95.06
631.214	83.06
631.42	73.06
631.627	94.06
631.833	93.06
632.039	91.06
632.245	82.06
632.451	98.06
632.657	87.06
632.863	101.06
633.069	88.06
633.275	105.06
633.481	80.06
633.688	79.06
633.893	100.06
634.099	73.06
634.305	91.06
634.511	92.06
634.717	91.06
634.923	87.06
635.129	75.06
635.335	93.06
635.541	88.06
635.747	84.06
635.952	96.06
636.158	80.06
636.364	89.06
636.57	100.06
636.775	78.06
636.981	72.06
637.187	94.06
637.392	81.06
637.598	80.06
637.804	85.06
638.009	84.06
638.215	60.06
638.421	84.06
638.626	97.06
638.832	83.06
639.037	86.06
639.243	99.06
639.448	88.06
639.654	72.06
639.859	88.06
640.065	83.06
640.27	103.06
640.475	95.06
640.681	80.06
640.886	87.06
641.091	87.06
641.297	77.06
641.502	85.06
641.707	88.06
641.913	87.06
642.118	100.06
642.323	93.06
642.528	81.06
642.733	64.06
642.939	85.06
643.144	89.06
643.349	91.06
643.554	81.06
643.759	80.06
643.964	80.06
644.169	88.06
644.374	85.06
644.579	75.06
644.784	82.06
644.989	76.06
645.194	108.06
645.399	92.06
645.604	81.06
645.809	96.06
646.014	80.06
646.219	84.06
646.423	68.06
646.628	95.06
646.833	88.06
647.038	95.06
647.243	74.06
647.447	93.06
647.652	83.06
647.857	80.06
648.062	86.06
648.266	91.06
648.471	88.06
648.676	88.06
648.88	92.06
649.085	79.06
649.289	64.06
649.494	86.06
649.698	96.06
649.903	78.06
650.107	80.06
650.312	83.06
650.516	75.06
650.721	81.06
650.925	90.06
651.13	93.06
651.334	91.06
651.539	95.06
651.743	76.06
651.947	70.06
652.152	77.06
652.356	81.06
652.56	92.06
652.764	104.06
652.969	74.06
653.173	93.06
653.377	76.06
653.581	88.06
653.785	63.06
653.99	75.06
654.194	88.06
654.398	80.06
654.602	82.06
654.806	77.06
655.01	87.06
655.214	86.06
655.418	82.06
655.622	83.06
655.826	74.06
656.03	83.06
656.234	79.06
656.438	87.06
656.642	79.06
656.846	77.06
657.049	70.06
657.253	87.06
657.457	76.06
657.661	72.06
657.865	79.06
658.068	81.06
658.272	96.06
658.476	81.06
658.68	84.06
658.883	84.06
659.087	78.06
659.291	82.06
659.494	91.06
659.698	73.06
659.901	82.06
660.105	80.06
660.309	74.06
660.512	87.06
660.716	88.06
660.919	79.06
661.123	92.06
661.326	79.06
661.53	91.06
661.733	76.06
661.936	85.06
662.14	93.06
662.343	85.06
662.546	87.06
662.75	84.06
662.953	81.06
663.156	77.06
663.36	86.06
663.563	88.06
663.766	67.06
663.969	65.06
664.173	76.06
664.376	81.06
664.579	77.06
664.782	87.06
664.985	88.06
665.188	87.06
665.391	96.06
665.594	91.06
665.797	97.06
666	87.06
666.203	77.06
666.406	70.06
666.609	70.06
666.812	72.06
667.015	84.06
667.218	63.06
667.421	70.06
667.624	82.06
667.827	92.06
668.03	77.06
668.232	95.06
668.435	75.06
668.638	79.06
668.841	82.06
669.043	86.06
669.246	95.06
669.449	93.06
669.651	87.06
669.854	75.06
670.057	69.06
670.259	79.06
670.462	89.06
670.665	78.06
670.867	83.06
671.07	75.06
671.272	81.06
671.475	96.06
671.677	75.06
671.88	69.06
672.082	81.06
672.284	77.06
672.487	96.06
672.689	88.06
672.892	77.06
