Data from Circ_1985_H10_HRD10591_00073.txt Node
Date: Wed Jan 03 12:19:37 EST 2024
User: Yrep
Spectrometer: HR+D1059
Trigger mode: 1
Integration Time (sec): 1.000000E-1
Scans to average: 1
Electric dark correction enabled: true
Nonlinearity correction enabled: false
Boxcar width: 0
XAxis mode: Wavelengths
Number of Pixels in Spectrum: 2048
>>>>>Begin Spectral Data<<<<<
223.165	-21.38
223.4	-21.38
223.635	-21.38
223.869	-18.38
224.104	-12.38
224.338	-19.38
224.573	-7.38
224.808	-17.38
225.042	-8.38
225.277	-14.38
225.511	-10.38
225.746	7.62
225.98	18.62
226.215	12.62
226.449	21.62
226.683	17.62
226.918	19.62
227.152	31.62
227.387	39.62
227.621	32.62
227.856	47.62
228.09	43.62
228.324	53.62
228.559	67.62
228.793	69.62
229.027	67.62
229.262	67.62
229.496	68.62
229.73	65.62
229.964	92.62
230.199	85.62
230.433	94.62
230.667	84.62
230.901	85.62
231.136	79.62
231.37	80.62
231.604	79.62
231.838	68.62
232.072	73.62
232.306	82.62
232.541	83.62
232.775	86.62
233.009	81.62
233.243	83.62
233.477	67.62
233.711	82.62
233.945	71.62
234.179	69.62
234.413	72.62
234.647	80.62
234.881	85.62
235.115	86.62
235.349	75.62
235.583	82.62
235.817	66.62
236.051	87.62
236.285	74.62
236.519	81.62
236.753	81.62
236.987	65.62
237.221	80.62
237.455	74.62
237.689	61.62
237.922	69.62
238.156	71.62
238.39	75.62
238.624	83.62
238.858	68.62
239.091	63.62
239.325	75.62
239.559	70.62
239.793	74.62
240.027	81.62
240.26	79.62
240.494	78.62
240.728	73.62
240.961	77.62
241.195	72.62
241.429	85.62
241.662	69.62
241.896	80.62
242.13	84.62
242.363	79.62
242.597	82.62
242.83	72.62
243.064	85.62
243.298	67.62
243.531	62.62
243.765	83.62
243.998	83.62
244.232	78.62
244.465	76.62
244.699	68.62
244.932	83.62
245.166	83.62
245.399	89.62
245.633	84.62
245.866	82.62
246.099	73.62
246.333	73.62
246.566	75.62
246.8	76.62
247.033	92.62
247.266	87.62
247.5	62.62
247.733	79.62
247.966	77.62
248.2	82.62
248.433	67.62
248.666	92.62
248.899	84.62
249.133	83.62
249.366	94.62
249.599	85.62
249.832	83.62
250.066	75.62
250.299	78.62
250.532	85.62
250.765	89.62
250.998	83.62
251.231	75.62
251.465	70.62
251.698	92.62
251.931	74.62
252.164	83.62
252.397	72.62
252.63	83.62
252.863	87.62
253.096	88.62
253.329	84.62
253.562	73.62
253.795	89.62
254.028	87.62
254.261	97.62
254.494	70.62
254.727	75.62
254.96	86.62
255.193	84.62
255.426	60.62
255.659	74.62
255.892	81.62
256.124	86.62
256.357	81.62
256.59	85.62
256.823	80.62
257.056	86.62
257.289	83.62
257.521	80.62
257.754	83.62
257.987	65.62
258.22	83.62
258.452	79.62
258.685	72.62
258.918	83.62
259.151	92.62
259.383	89.62
259.616	65.62
259.849	81.62
260.081	82.62
260.314	83.62
260.547	73.62
260.779	87.62
261.012	87.62
261.244	80.62
261.477	79.62
261.71	83.62
261.942	97.62
262.175	113.62
262.407	87.62
262.64	100.62
262.872	77.62
263.105	77.62
263.337	88.62
263.57	84.62
263.802	80.62
264.035	83.62
264.267	92.62
264.499	77.62
264.732	88.62
264.964	87.62
265.197	76.62
265.429	87.62
265.661	80.62
265.894	88.62
266.126	84.62
266.358	68.62
266.591	71.62
266.823	91.62
267.055	80.62
267.287	88.62
267.52	90.62
267.752	89.62
267.984	84.62
268.216	79.62
268.448	92.62
268.681	84.62
268.913	84.62
269.145	96.62
269.377	91.62
269.609	74.62
269.841	72.62
270.073	80.62
270.306	73.62
270.538	66.62
270.77	85.62
271.002	79.62
271.234	83.62
271.466	68.62
271.698	73.62
271.93	70.62
272.162	73.62
272.394	82.62
272.626	89.62
272.858	81.62
273.09	72.62
273.322	85.62
273.553	78.62
273.785	81.62
274.017	76.62
274.249	89.62
274.481	92.62
274.713	95.62
274.945	90.62
275.176	81.62
275.408	86.62
275.64	91.62
275.872	83.62
276.104	92.62
276.335	99.62
276.567	99.62
276.799	92.62
277.031	106.62
277.262	83.62
277.494	87.62
277.726	75.62
277.957	85.62
278.189	96.62
278.421	84.62
278.652	76.62
278.884	85.62
279.115	86.62
279.347	103.62
279.579	89.62
279.81	93.62
280.042	76.62
280.273	87.62
280.505	85.62
280.736	71.62
280.968	96.62
281.199	82.62
281.431	87.62
281.662	83.62
281.894	109.62
282.125	88.62
282.356	107.62
282.588	108.62
282.819	101.62
283.051	98.62
283.282	83.62
283.513	76.62
283.745	94.62
283.976	63.62
284.207	91.62
284.439	84.62
284.67	92.62
284.901	96.62
285.132	80.62
285.364	85.62
285.595	90.62
285.826	87.62
286.057	99.62
286.288	89.62
286.52	91.62
286.751	80.62
286.982	99.62
287.213	86.62
287.444	109.62
287.675	86.62
287.906	91.62
288.138	77.62
288.369	83.62
288.6	100.62
288.831	77.62
289.062	76.62
289.293	100.62
289.524	88.62
289.755	72.62
289.986	90.62
290.217	70.62
290.448	98.62
290.679	77.62
290.91	100.62
291.141	85.62
291.371	97.62
291.602	91.62
291.833	92.62
292.064	93.62
292.295	82.62
292.526	89.62
292.757	91.62
292.987	89.62
293.218	73.62
293.449	82.62
293.68	95.62
293.91	91.62
294.141	96.62
294.372	87.62
294.603	64.62
294.833	74.62
295.064	86.62
295.295	97.62
295.525	98.62
295.756	95.62
295.987	115.62
296.217	129.62
296.448	132.62
296.679	104.62
296.909	105.62
297.14	74.62
297.37	105.62
297.601	101.62
297.831	96.62
298.062	85.62
298.292	87.62
298.523	100.62
298.753	91.62
298.984	83.62
299.214	89.62
299.445	88.62
299.675	98.62
299.905	88.62
300.136	97.62
300.366	83.62
300.597	95.62
300.827	84.62
301.057	97.62
301.288	108.62
301.518	88.62
301.748	84.62
301.979	102.62
302.209	86.62
302.439	83.62
302.669	85.62
302.9	87.62
303.13	85.62
303.36	100.62
303.59	88.62
303.82	101.62
304.051	86.62
304.281	85.62
304.511	85.62
304.741	96.62
304.971	91.62
305.201	89.62
305.431	88.62
305.661	85.62
305.891	99.62
306.121	85.62
306.352	97.62
306.582	99.62
306.812	100.62
307.042	88.62
307.272	94.62
307.502	105.62
307.731	113.62
307.961	101.62
308.191	103.62
308.421	90.62
308.651	92.62
308.881	92.62
309.111	100.62
309.341	101.62
309.571	98.62
309.8	89.62
310.03	92.62
310.26	97.62
310.49	98.62
310.72	95.62
310.949	99.62
311.179	89.62
311.409	92.62
311.639	97.62
311.868	109.62
312.098	81.62
312.328	103.62
312.557	89.62
312.787	105.62
313.017	95.62
313.246	107.62
313.476	92.62
313.706	80.62
313.935	98.62
314.165	87.62
314.394	103.62
314.624	102.62
314.853	112.62
315.083	85.62
315.312	92.62
315.542	90.62
315.771	87.62
316.001	100.62
316.23	87.62
316.46	93.62
316.689	87.62
316.919	87.62
317.148	100.62
317.377	89.62
317.607	85.62
317.836	83.62
318.065	100.62
318.295	94.62
318.524	96.62
318.753	83.62
318.983	79.62
319.212	92.62
319.441	100.62
319.67	103.62
319.9	93.62
320.129	99.62
320.358	93.62
320.587	106.62
320.816	106.62
321.046	100.62
321.275	80.62
321.504	90.62
321.733	93.62
321.962	77.62
322.191	94.62
322.42	97.62
322.649	104.62
322.878	102.62
323.108	104.62
323.337	116.62
323.566	121.62
323.795	152.62
324.024	195.62
324.253	364.62
324.482	751.62
324.71	1561.62
324.939	2109.62
325.168	745.62
325.397	237.62
325.626	138.62
325.855	121.62
326.084	122.62
326.313	128.62
326.542	148.62
326.77	221.62
326.999	434.62
327.228	898.62
327.457	1660.62
327.686	1295.62
327.914	347.62
328.143	182.62
328.372	171.62
328.6	116.62
328.829	105.62
329.058	117.62
329.287	132.62
329.515	99.62
329.744	98.62
329.972	99.62
330.201	120.62
330.43	149.62
330.658	117.62
330.887	124.62
331.115	122.62
331.344	109.62
331.572	103.62
331.801	95.62
332.03	98.62
332.258	90.62
332.486	92.62
332.715	94.62
332.943	91.62
333.172	76.62
333.4	102.62
333.629	95.62
333.857	117.62
334.085	106.62
334.314	124.62
334.542	157.62
334.771	142.62
334.999	107.62
335.227	91.62
335.455	110.62
335.684	100.62
335.912	79.62
336.14	91.62
336.369	107.62
336.597	99.62
336.825	112.62
337.053	101.62
337.281	88.62
337.51	98.62
337.738	106.62
337.966	96.62
338.194	109.62
338.422	97.62
338.65	92.62
338.878	95.62
339.106	89.62
339.334	106.62
339.562	100.62
339.79	83.62
340.018	98.62
340.246	103.62
340.474	102.62
340.702	90.62
340.93	88.62
341.158	92.62
341.386	99.62
341.614	112.62
341.842	101.62
342.07	96.62
342.298	90.62
342.526	91.62
342.754	92.62
342.981	99.62
343.209	100.62
343.437	98.62
343.665	89.62
343.893	79.62
344.12	92.62
344.348	103.62
344.576	81.62
344.804	92.62
345.031	85.62
345.259	89.62
345.487	88.62
345.714	99.62
345.942	91.62
346.17	96.62
346.397	96.62
346.625	104.62
346.853	89.62
347.08	100.62
347.308	71.62
347.535	102.62
347.763	111.62
347.99	93.62
348.218	98.62
348.445	105.62
348.673	93.62
348.9	101.62
349.128	92.62
349.355	108.62
349.583	81.62
349.81	101.62
350.037	80.62
350.265	90.62
350.492	92.62
350.72	97.62
350.947	75.62
351.174	100.62
351.402	93.62
351.629	101.62
351.856	103.62
352.083	112.62
352.311	91.62
352.538	97.62
352.765	115.62
352.992	96.62
353.22	113.62
353.447	107.62
353.674	91.62
353.901	105.62
354.128	101.62
354.355	106.62
354.583	91.62
354.81	112.62
355.037	96.62
355.264	97.62
355.491	92.62
355.718	96.62
355.945	97.62
356.172	93.62
356.399	100.62
356.626	101.62
356.853	93.62
357.08	89.62
357.307	101.62
357.534	75.62
357.761	102.62
357.988	91.62
358.215	109.62
358.441	101.62
358.668	83.62
358.895	87.62
359.122	83.62
359.349	81.62
359.576	100.62
359.802	95.62
360.029	115.62
360.256	105.62
360.483	93.62
360.709	84.62
360.936	92.62
361.163	81.62
361.39	87.62
361.616	96.62
361.843	85.62
362.07	94.62
362.296	90.62
362.523	94.62
362.749	93.62
362.976	95.62
363.203	91.62
363.429	95.62
363.656	100.62
363.882	92.62
364.109	81.62
364.335	99.62
364.562	106.62
364.788	93.62
365.015	107.62
365.241	100.62
365.468	95.62
365.694	104.62
365.92	89.62
366.147	71.62
366.373	71.62
366.599	85.62
366.826	96.62
367.052	83.62
367.278	99.62
367.505	94.62
367.731	87.62
367.957	79.62
368.184	88.62
368.41	112.62
368.636	101.62
368.862	111.62
369.089	98.62
369.315	87.62
369.541	82.62
369.767	100.62
369.993	98.62
370.219	90.62
370.445	85.62
370.672	87.62
370.898	88.62
371.124	91.62
371.35	88.62
371.576	87.62
371.802	96.62
372.028	97.62
372.254	85.62
372.48	105.62
372.706	76.62
372.932	75.62
373.158	76.62
373.384	72.62
373.61	91.62
373.835	92.62
374.061	97.62
374.287	85.62
374.513	100.62
374.739	89.62
374.965	94.62
375.191	92.62
375.416	83.62
375.642	77.62
375.868	104.62
376.094	98.62
376.319	93.62
376.545	81.62
376.771	107.62
376.997	89.62
377.222	92.62
377.448	81.62
377.674	95.62
377.899	85.62
378.125	88.62
378.35	92.62
378.576	90.62
378.802	97.62
379.027	92.62
379.253	93.62
379.478	97.62
379.704	97.62
379.929	98.62
380.155	96.62
380.38	104.62
380.606	87.62
380.831	80.62
381.057	99.62
381.282	95.62
381.507	90.62
381.733	88.62
381.958	107.62
382.184	96.62
382.409	104.62
382.634	106.62
382.86	107.62
383.085	95.62
383.31	96.62
383.535	109.62
383.761	104.62
383.986	86.62
384.211	88.62
384.436	105.62
384.662	101.62
384.887	112.62
385.112	88.62
385.337	109.62
385.562	114.62
385.787	106.62
386.013	99.62
386.238	92.62
386.463	106.62
386.688	108.62
386.913	101.62
387.138	106.62
387.363	92.62
387.588	105.62
387.813	106.62
388.038	96.62
388.263	126.62
388.488	112.62
388.713	105.62
388.938	101.62
389.163	93.62
389.387	89.62
389.612	85.62
389.837	91.62
390.062	98.62
390.287	100.62
390.512	94.62
390.736	100.62
390.961	85.62
391.186	96.62
391.411	86.62
391.636	82.62
391.86	85.62
392.085	87.62
392.31	96.62
392.534	84.62
392.759	99.62
392.984	79.62
393.208	95.62
393.433	80.62
393.658	95.62
393.882	99.62
394.107	93.62
394.331	101.62
394.556	85.62
394.78	89.62
395.005	82.62
395.229	90.62
395.454	80.62
395.678	93.62
395.903	95.62
396.127	101.62
396.352	83.62
396.576	105.62
396.801	80.62
397.025	80.62
397.249	87.62
397.474	84.62
397.698	90.62
397.922	90.62
398.147	81.62
398.371	83.62
398.595	99.62
398.82	97.62
399.044	98.62
399.268	88.62
399.492	83.62
399.717	103.62
399.941	94.62
400.165	95.62
400.389	75.62
400.613	85.62
400.837	96.62
401.062	87.62
401.286	90.62
401.51	97.62
401.734	86.62
401.958	93.62
402.182	108.62
402.406	140.62
402.63	116.62
402.854	101.62
403.078	85.62
403.302	87.62
403.526	91.62
403.75	76.62
403.974	91.62
404.198	79.62
404.422	85.62
404.645	83.62
404.869	90.62
405.093	103.62
405.317	102.62
405.541	99.62
405.765	101.62
405.988	116.62
406.212	158.62
406.436	204.62
406.66	125.62
406.883	99.62
407.107	77.62
407.331	97.62
407.555	97.62
407.778	91.62
408.002	99.62
408.226	84.62
408.449	73.62
408.673	85.62
408.896	83.62
409.12	109.62
409.344	93.62
409.567	80.62
409.791	90.62
410.014	92.62
410.238	100.62
410.461	90.62
410.685	94.62
410.908	88.62
411.132	94.62
411.355	89.62
411.578	92.62
411.802	95.62
412.025	101.62
412.249	99.62
412.472	92.62
412.695	94.62
412.919	104.62
413.142	87.62
413.365	99.62
413.589	94.62
413.812	101.62
414.035	98.62
414.258	84.62
414.482	102.62
414.705	85.62
414.928	88.62
415.151	100.62
415.374	85.62
415.597	87.62
415.821	77.62
416.044	93.62
416.267	96.62
416.49	87.62
416.713	87.62
416.936	83.62
417.159	86.62
417.382	83.62
417.605	99.62
417.828	88.62
418.051	90.62
418.274	94.62
418.497	96.62
418.72	92.62
418.943	89.62
419.166	91.62
419.389	91.62
419.611	86.62
419.834	94.62
420.057	92.62
420.28	89.62
420.503	91.62
420.726	84.62
420.948	73.62
421.171	85.62
421.394	99.62
421.617	90.62
421.839	82.62
422.062	98.62
422.285	91.62
422.507	99.62
422.73	95.62
422.953	89.62
423.175	67.62
423.398	82.62
423.621	92.62
423.843	94.62
424.066	91.62
424.288	87.62
424.511	83.62
424.733	76.62
424.956	104.62
425.178	85.62
425.401	103.62
425.623	83.62
425.846	86.62
426.068	93.62
426.291	89.62
426.513	91.62
426.735	81.62
426.958	90.62
427.18	94.62
427.402	110.62
427.625	129.62
427.847	122.62
428.069	110.62
428.292	104.62
428.514	88.62
428.736	92.62
428.958	83.62
429.181	82.62
429.403	85.62
429.625	79.62
429.847	97.62
430.069	90.62
430.292	103.62
430.514	84.62
430.736	91.62
430.958	83.62
431.18	82.62
431.402	92.62
431.624	80.62
431.846	71.62
432.068	92.62
432.29	101.62
432.512	90.62
432.734	88.62
432.956	86.62
433.178	108.62
433.4	91.62
433.622	86.62
433.844	84.62
434.066	95.62
434.287	99.62
434.509	92.62
434.731	84.62
434.953	77.62
435.175	101.62
435.397	100.62
435.618	94.62
435.84	110.62
436.062	101.62
436.284	106.62
436.505	99.62
436.727	95.62
436.949	101.62
437.17	99.62
437.392	85.62
437.614	89.62
437.835	104.62
438.057	99.62
438.278	114.62
438.5	93.62
438.721	102.62
438.943	97.62
439.165	93.62
439.386	93.62
439.608	88.62
439.829	103.62
440.05	114.62
440.272	127.62
440.493	77.62
440.715	80.62
440.936	85.62
441.158	84.62
441.379	102.62
441.6	92.62
441.822	112.62
442.043	83.62
442.264	93.62
442.486	96.62
442.707	109.62
442.928	105.62
443.149	122.62
443.371	126.62
443.592	113.62
443.813	104.62
444.034	114.62
444.255	80.62
444.476	95.62
444.698	74.62
444.919	95.62
445.14	127.62
445.361	113.62
445.582	108.62
445.803	122.62
446.024	112.62
446.245	107.62
446.466	97.62
446.687	99.62
446.908	95.62
447.129	100.62
447.35	79.62
447.571	101.62
447.792	89.62
448.013	89.62
448.234	107.62
448.455	103.62
448.675	97.62
448.896	98.62
449.117	101.62
449.338	109.62
449.559	130.62
449.779	122.62
450	98.62
450.221	87.62
450.442	75.62
450.662	95.62
450.883	95.62
451.104	112.62
451.324	98.62
451.545	92.62
451.766	93.62
451.986	99.62
452.207	81.62
452.428	84.62
452.648	88.62
452.869	101.62
453.089	122.62
453.31	111.62
453.53	83.62
453.751	83.62
453.971	100.62
454.192	100.62
454.412	99.62
454.633	81.62
454.853	95.62
455.073	95.62
455.294	91.62
455.514	94.62
455.734	93.62
455.955	95.62
456.175	99.62
456.395	87.62
456.616	76.62
456.836	88.62
457.056	98.62
457.276	75.62
457.497	93.62
457.717	93.62
457.937	87.62
458.157	81.62
458.377	85.62
458.598	93.62
458.818	139.62
459.038	146.62
459.258	112.62
459.478	95.62
459.698	90.62
459.918	85.62
460.138	94.62
460.358	91.62
460.578	105.62
460.798	87.62
461.018	97.62
461.238	97.62
461.458	100.62
461.678	91.62
461.898	84.62
462.118	75.62
462.338	84.62
462.558	85.62
462.777	79.62
462.997	73.62
463.217	81.62
463.437	75.62
463.657	85.62
463.876	88.62
464.096	97.62
464.316	90.62
464.536	89.62
464.755	91.62
464.975	94.62
465.195	146.62
465.414	136.62
465.634	95.62
465.854	96.62
466.073	74.62
466.293	92.62
466.512	83.62
466.732	88.62
466.951	92.62
467.171	99.62
467.391	72.62
467.61	87.62
467.829	101.62
468.049	97.62
468.268	105.62
468.488	81.62
468.707	91.62
468.927	69.62
469.146	97.62
469.365	89.62
469.585	93.62
469.804	97.62
470.023	96.62
470.243	97.62
470.462	92.62
470.681	103.62
470.901	87.62
471.12	81.62
471.339	95.62
471.558	74.62
471.777	98.62
471.997	108.62
472.216	119.62
472.435	177.62
472.654	92.62
472.873	87.62
473.092	92.62
473.311	88.62
473.53	82.62
473.749	96.62
473.968	89.62
474.187	104.62
474.406	95.62
474.625	100.62
474.844	98.62
475.063	64.62
475.282	74.62
475.501	87.62
475.72	86.62
475.939	91.62
476.158	79.62
476.377	86.62
476.596	87.62
476.814	101.62
477.033	97.62
477.252	86.62
477.471	80.62
477.69	99.62
477.908	92.62
478.127	74.62
478.346	85.62
478.564	85.62
478.783	92.62
479.002	101.62
479.22	83.62
479.439	91.62
479.658	100.62
479.876	102.62
480.095	88.62
480.313	81.62
480.532	84.62
480.751	99.62
480.969	132.62
481.188	257.62
481.406	173.62
481.624	97.62
481.843	80.62
482.061	87.62
482.28	84.62
482.498	98.62
482.717	75.62
482.935	83.62
483.153	82.62
483.372	76.62
483.59	85.62
483.808	101.62
484.027	80.62
484.245	90.62
484.463	76.62
484.681	97.62
484.9	87.62
485.118	86.62
485.336	96.62
485.554	104.62
485.772	95.62
485.99	106.62
486.209	104.62
486.427	110.62
486.645	107.62
486.863	105.62
487.081	97.62
487.299	93.62
487.517	86.62
487.735	99.62
487.953	90.62
488.171	81.62
488.389	98.62
488.607	89.62
488.825	92.62
489.043	75.62
489.261	82.62
489.479	94.62
489.696	92.62
489.914	89.62
490.132	98.62
490.35	93.62
490.568	95.62
490.786	69.62
491.003	79.62
491.221	91.62
491.439	75.62
491.657	101.62
491.874	98.62
492.092	99.62
492.31	96.62
492.527	89.62
492.745	96.62
492.963	93.62
493.18	90.62
493.398	80.62
493.615	93.62
493.833	91.62
494.05	86.62
494.268	93.62
494.485	82.62
494.703	98.62
494.92	95.62
495.138	74.62
495.355	77.62
495.573	98.62
495.79	109.62
496.008	90.62
496.225	84.62
496.442	86.62
496.66	91.62
496.877	81.62
497.094	100.62
497.312	88.62
497.529	88.62
497.746	92.62
497.963	98.62
498.181	89.62
498.398	91.62
498.615	96.62
498.832	98.62
499.049	103.62
499.267	86.62
499.484	85.62
499.701	104.62
499.918	84.62
500.135	96.62
500.352	91.62
500.569	88.62
500.786	96.62
501.003	90.62
501.22	83.62
501.437	92.62
501.654	100.62
501.871	101.62
502.088	92.62
502.305	85.62
502.522	81.62
502.739	83.62
502.956	111.62
503.172	85.62
503.389	94.62
503.606	104.62
503.823	89.62
504.04	88.62
504.256	90.62
504.473	95.62
504.69	90.62
504.907	98.62
505.123	90.62
505.34	97.62
505.557	94.62
505.773	94.62
505.99	88.62
506.207	82.62
506.423	88.62
506.64	91.62
506.856	91.62
507.073	76.62
507.289	101.62
507.506	94.62
507.722	95.62
507.939	92.62
508.155	101.62
508.372	84.62
508.588	88.62
508.805	100.62
509.021	88.62
509.238	99.62
509.454	107.62
509.67	91.62
509.887	100.62
510.103	120.62
510.319	196.62
510.536	675.62
510.752	2128.62
510.968	576.62
511.184	139.62
511.401	105.62
511.617	85.62
511.833	94.62
512.049	101.62
512.265	99.62
512.481	89.62
512.698	98.62
512.914	89.62
513.13	88.62
513.346	88.62
513.562	85.62
513.778	88.62
513.994	93.62
514.21	115.62
514.426	118.62
514.642	115.62
514.858	117.62
515.074	139.62
515.29	393.62
515.506	1247.62
515.721	475.62
515.937	153.62
516.153	110.62
516.369	85.62
516.585	91.62
516.801	92.62
517.016	85.62
517.232	81.62
517.448	95.62
517.664	92.62
517.879	108.62
518.095	82.62
518.311	96.62
518.527	113.62
518.742	108.62
518.958	90.62
519.173	103.62
519.389	91.62
519.605	93.62
519.82	103.62
520.036	101.62
520.251	108.62
520.467	121.62
520.682	94.62
520.898	101.62
521.113	114.62
521.329	126.62
521.544	190.62
521.76	464.62
521.975	2000.62
522.19	1197.62
522.406	263.62
522.621	122.62
522.836	96.62
523.052	91.62
523.267	83.62
523.482	99.62
523.698	107.62
523.913	114.62
524.128	87.62
524.343	91.62
524.559	90.62
524.774	92.62
524.989	107.62
525.204	107.62
525.419	97.62
525.634	94.62
525.849	81.62
526.064	93.62
526.28	101.62
526.495	85.62
526.71	75.62
526.925	88.62
527.14	83.62
527.355	100.62
527.57	92.62
527.785	104.62
527.999	91.62
528.214	80.62
528.429	100.62
528.644	72.62
528.859	80.62
529.074	101.62
529.289	118.62
529.503	163.62
529.718	97.62
529.933	99.62
530.148	96.62
530.363	93.62
530.577	85.62
530.792	87.62
531.007	89.62
531.221	97.62
531.436	91.62
531.651	99.62
531.865	105.62
532.08	80.62
532.295	81.62
532.509	91.62
532.724	92.62
532.938	99.62
533.153	97.62
533.367	82.62
533.582	95.62
533.796	99.62
534.011	96.62
534.225	79.62
534.44	97.62
534.654	74.62
534.868	90.62
535.083	85.62
535.297	83.62
535.511	102.62
535.726	95.62
535.94	84.62
536.154	95.62
536.369	96.62
536.583	85.62
536.797	106.62
537.011	64.62
537.225	87.62
537.44	93.62
537.654	86.62
537.868	92.62
538.082	101.62
538.296	99.62
538.51	95.62
538.724	101.62
538.938	95.62
539.153	91.62
539.367	79.62
539.581	93.62
539.795	101.62
540.009	84.62
540.222	80.62
540.436	91.62
540.65	87.62
540.864	98.62
541.078	81.62
541.292	92.62
541.506	102.62
541.72	97.62
541.934	89.62
542.147	91.62
542.361	91.62
542.575	95.62
542.789	91.62
543.002	88.62
543.216	90.62
543.43	89.62
543.644	80.62
543.857	73.62
544.071	84.62
544.285	91.62
544.498	88.62
544.712	87.62
544.925	77.62
545.139	90.62
545.352	89.62
545.566	90.62
545.779	86.62
545.993	89.62
546.206	84.62
546.42	92.62
546.633	88.62
546.847	96.62
547.06	89.62
547.274	92.62
547.487	85.62
547.7	98.62
547.914	80.62
548.127	87.62
548.34	98.62
548.554	83.62
548.767	94.62
548.98	98.62
549.193	100.62
549.407	73.62
549.62	89.62
549.833	96.62
550.046	84.62
550.259	98.62
550.473	109.62
550.686	98.62
550.899	96.62
551.112	90.62
551.325	99.62
551.538	100.62
551.751	90.62
551.964	104.62
552.177	88.62
552.39	81.62
552.603	77.62
552.816	81.62
553.029	85.62
553.242	84.62
553.455	88.62
553.667	97.62
553.88	98.62
554.093	89.62
554.306	97.62
554.519	92.62
554.732	102.62
554.944	97.62
555.157	90.62
555.37	97.62
555.583	95.62
555.795	89.62
556.008	84.62
556.221	92.62
556.433	90.62
556.646	101.62
556.859	85.62
557.071	104.62
557.284	88.62
557.496	101.62
557.709	95.62
557.921	92.62
558.134	92.62
558.346	87.62
558.559	83.62
558.771	93.62
558.984	94.62
559.196	81.62
559.409	91.62
559.621	96.62
559.833	103.62
560.046	85.62
560.258	91.62
560.47	70.62
560.683	99.62
560.895	75.62
561.107	90.62
561.32	95.62
561.532	95.62
561.744	89.62
561.956	89.62
562.168	88.62
562.381	87.62
562.593	99.62
562.805	92.62
563.017	87.62
563.229	86.62
563.441	84.62
563.653	79.62
563.865	78.62
564.077	96.62
564.289	96.62
564.501	92.62
564.713	93.62
564.925	90.62
565.137	101.62
565.349	99.62
565.561	81.62
565.773	86.62
565.985	81.62
566.197	91.62
566.408	99.62
566.62	90.62
566.832	89.62
567.044	80.62
567.255	92.62
567.467	84.62
567.679	80.62
567.891	92.62
568.102	97.62
568.314	82.62
568.526	96.62
568.737	93.62
568.949	92.62
569.161	96.62
569.372	90.62
569.584	92.62
569.795	87.62
570.007	125.62
570.218	218.62
570.43	129.62
570.641	99.62
570.853	83.62
571.064	87.62
571.276	71.62
571.487	81.62
571.698	94.62
571.91	77.62
572.121	90.62
572.333	95.62
572.544	96.62
572.755	84.62
572.966	84.62
573.178	91.62
573.389	82.62
573.6	87.62
573.811	77.62
574.023	85.62
574.234	92.62
574.445	91.62
574.656	79.62
574.867	75.62
575.078	81.62
575.289	87.62
575.501	81.62
575.712	86.62
575.923	81.62
576.134	90.62
576.345	96.62
576.556	95.62
576.767	100.62
576.978	90.62
577.188	98.62
577.399	100.62
577.61	92.62
577.821	95.62
578.032	113.62
578.243	268.62
578.454	652.62
578.665	188.62
578.875	95.62
579.086	87.62
579.297	101.62
579.508	92.62
579.718	89.62
579.929	92.62
580.14	91.62
580.35	90.62
580.561	89.62
580.772	80.62
580.982	76.62
581.193	88.62
581.403	87.62
581.614	81.62
581.825	97.62
582.035	99.62
582.246	92.62
582.456	87.62
582.667	76.62
582.877	89.62
583.087	96.62
583.298	86.62
583.508	75.62
583.719	85.62
583.929	97.62
584.139	100.62
584.35	94.62
584.56	83.62
584.77	104.62
584.981	82.62
585.191	84.62
585.401	88.62
585.611	93.62
585.821	95.62
586.032	105.62
586.242	91.62
586.452	98.62
586.662	103.62
586.872	79.62
587.082	105.62
587.292	85.62
587.502	83.62
587.713	97.62
587.923	80.62
588.133	83.62
588.343	88.62
588.553	83.62
588.762	89.62
588.972	77.62
589.182	103.62
589.392	96.62
589.602	98.62
589.812	98.62
590.022	89.62
590.232	99.62
590.441	76.62
590.651	93.62
590.861	86.62
591.071	85.62
591.281	91.62
591.49	76.62
591.7	90.62
591.91	91.62
592.119	92.62
592.329	85.62
592.539	97.62
592.748	96.62
592.958	79.62
593.167	80.62
593.377	103.62
593.587	109.62
593.796	90.62
594.006	85.62
594.215	80.62
594.424	104.62
594.634	100.62
594.843	88.62
595.053	87.62
595.262	91.62
595.472	99.62
595.681	90.62
595.89	96.62
596.1	91.62
596.309	93.62
596.518	95.62
596.727	89.62
596.937	96.62
597.146	89.62
597.355	83.62
597.564	85.62
597.774	77.62
597.983	75.62
598.192	75.62
598.401	92.62
598.61	91.62
598.819	91.62
599.028	80.62
599.237	92.62
599.446	98.62
599.655	83.62
599.864	92.62
600.073	73.62
600.282	90.62
600.491	87.62
600.7	98.62
600.909	92.62
601.118	88.62
601.327	69.62
601.536	84.62
601.745	83.62
601.953	95.62
602.162	90.62
602.371	91.62
602.58	98.62
602.789	87.62
602.997	90.62
603.206	93.62
603.415	80.62
603.623	99.62
603.832	73.62
604.041	87.62
604.249	96.62
604.458	93.62
604.666	85.62
604.875	84.62
605.084	82.62
605.292	96.62
605.501	74.62
605.709	79.62
605.918	82.62
606.126	100.62
606.334	79.62
606.543	100.62
606.751	103.62
606.96	83.62
607.168	85.62
607.376	81.62
607.585	95.62
607.793	101.62
608.001	72.62
608.21	86.62
608.418	69.62
608.626	83.62
608.834	87.62
609.043	93.62
609.251	80.62
609.459	81.62
609.667	78.62
609.875	96.62
610.083	81.62
610.291	95.62
610.499	79.62
610.707	89.62
610.916	73.62
611.124	91.62
611.332	95.62
611.54	77.62
611.748	89.62
611.955	93.62
612.163	77.62
612.371	86.62
612.579	94.62
612.787	94.62
612.995	68.62
613.203	71.62
613.411	81.62
613.618	79.62
613.826	81.62
614.034	84.62
614.242	89.62
614.449	87.62
614.657	81.62
614.865	83.62
615.072	90.62
615.28	85.62
615.488	86.62
615.695	103.62
615.903	87.62
616.111	99.62
616.318	95.62
616.526	104.62
616.733	91.62
616.941	95.62
617.148	85.62
617.356	96.62
617.563	86.62
617.771	73.62
617.978	83.62
618.185	90.62
618.393	91.62
618.6	81.62
618.807	74.62
619.015	85.62
619.222	79.62
619.429	87.62
619.637	97.62
619.844	88.62
620.051	87.62
620.258	91.62
620.466	97.62
620.673	79.62
620.88	73.62
621.087	79.62
621.294	80.62
621.501	80.62
621.708	81.62
621.915	101.62
622.122	87.62
622.329	88.62
622.536	77.62
622.743	83.62
622.95	79.62
623.157	84.62
623.364	87.62
623.571	81.62
623.778	83.62
623.985	89.62
624.192	82.62
624.399	83.62
624.606	84.62
624.812	84.62
625.019	94.62
625.226	76.62
625.433	79.62
625.639	87.62
625.846	97.62
626.053	88.62
626.259	92.62
626.466	88.62
626.673	77.62
626.879	85.62
627.086	106.62
627.293	79.62
627.499	64.62
627.706	99.62
627.912	69.62
628.119	84.62
628.325	83.62
628.532	83.62
628.738	80.62
628.945	75.62
629.151	89.62
629.357	102.62
629.564	87.62
629.77	94.62
629.976	99.62
630.183	81.62
630.389	83.62
630.595	82.62
630.802	81.62
631.008	87.62
631.214	95.62
631.42	84.62
631.627	81.62
631.833	77.62
632.039	79.62
632.245	81.62
632.451	90.62
632.657	91.62
632.863	82.62
633.069	87.62
633.275	79.62
633.481	82.62
633.688	84.62
633.893	91.62
634.099	84.62
634.305	92.62
634.511	89.62
634.717	90.62
634.923	72.62
635.129	85.62
635.335	87.62
635.541	93.62
635.747	70.62
635.952	66.62
636.158	98.62
636.364	93.62
636.57	81.62
636.775	84.62
636.981	84.62
637.187	83.62
637.392	74.62
637.598	71.62
637.804	65.62
638.009	79.62
638.215	76.62
638.421	77.62
638.626	75.62
638.832	75.62
639.037	87.62
639.243	72.62
639.448	84.62
639.654	91.62
639.859	88.62
640.065	89.62
640.27	98.62
640.475	95.62
640.681	79.62
640.886	94.62
641.091	71.62
641.297	89.62
641.502	65.62
641.707	99.62
641.913	104.62
642.118	90.62
642.323	95.62
642.528	83.62
642.733	97.62
642.939	85.62
643.144	79.62
643.349	82.62
643.554	93.62
643.759	83.62
643.964	64.62
644.169	80.62
644.374	61.62
644.579	92.62
644.784	87.62
644.989	96.62
645.194	83.62
645.399	84.62
645.604	83.62
645.809	84.62
646.014	87.62
646.219	83.62
646.423	87.62
646.628	94.62
646.833	86.62
647.038	79.62
647.243	91.62
647.447	99.62
647.652	90.62
647.857	76.62
648.062	92.62
648.266	89.62
648.471	100.62
648.676	92.62
648.88	75.62
649.085	86.62
649.289	96.62
649.494	113.62
649.698	147.62
649.903	110.62
650.107	87.62
650.312	83.62
650.516	87.62
650.721	91.62
650.925	79.62
651.13	90.62
651.334	93.62
651.539	81.62
651.743	98.62
651.947	82.62
652.152	83.62
652.356	88.62
652.56	79.62
652.764	69.62
652.969	73.62
653.173	74.62
653.377	95.62
653.581	91.62
653.785	83.62
653.99	75.62
654.194	92.62
654.398	76.62
654.602	75.62
654.806	97.62
655.01	103.62
655.214	104.62
655.418	96.62
655.622	100.62
655.826	79.62
656.03	103.62
656.234	96.62
656.438	93.62
656.642	93.62
656.846	91.62
657.049	76.62
657.253	92.62
657.457	92.62
657.661	84.62
657.865	90.62
658.068	71.62
658.272	70.62
658.476	97.62
658.68	78.62
658.883	74.62
659.087	59.62
659.291	64.62
659.494	76.62
659.698	82.62
659.901	97.62
660.105	85.62
660.309	74.62
660.512	89.62
660.716	73.62
660.919	83.62
661.123	73.62
661.326	85.62
661.53	75.62
661.733	76.62
661.936	85.62
662.14	91.62
662.343	87.62
662.546	68.62
662.75	79.62
662.953	79.62
663.156	80.62
663.36	83.62
663.563	74.62
663.766	79.62
663.969	87.62
664.173	96.62
664.376	85.62
664.579	76.62
664.782	84.62
664.985	87.62
665.188	88.62
665.391	79.62
665.594	71.62
665.797	94.62
666	76.62
666.203	79.62
666.406	79.62
666.609	100.62
666.812	74.62
667.015	81.62
667.218	83.62
667.421	79.62
667.624	77.62
667.827	85.62
668.03	84.62
668.232	86.62
668.435	90.62
668.638	88.62
668.841	92.62
669.043	89.62
669.246	83.62
669.449	77.62
669.651	86.62
669.854	85.62
670.057	77.62
670.259	72.62
670.462	86.62
670.665	80.62
670.867	101.62
671.07	69.62
671.272	79.62
671.475	104.62
671.677	75.62
671.88	87.62
672.082	83.62
672.284	84.62
672.487	79.62
672.689	91.62
672.892	76.62
