Data from Circ_1998_H10_HRD10591_00071.txt Node
Date: Wed Jan 03 11:27:03 EST 2024
User: Yrep
Spectrometer: HR+D1059
Trigger mode: 1
Integration Time (sec): 1.000000E-1
Scans to average: 1
Electric dark correction enabled: true
Nonlinearity correction enabled: false
Boxcar width: 0
XAxis mode: Wavelengths
Number of Pixels in Spectrum: 2048
>>>>>Begin Spectral Data<<<<<
223.165	-9.75
223.4	-9.75
223.635	-9.75
223.869	-24.75
224.104	-19.75
224.338	-17.75
224.573	-10.75
224.808	-18.75
225.042	-10.75
225.277	-13.75
225.511	-10.75
225.746	13.25
225.98	6.25
226.215	6.25
226.449	10.25
226.683	23.25
226.918	37.25
227.152	40.25
227.387	33.25
227.621	43.25
227.856	26.25
228.09	54.25
228.324	55.25
228.559	42.25
228.793	62.25
229.027	58.25
229.262	68.25
229.496	78.25
229.73	100.25
229.964	100.25
230.199	83.25
230.433	83.25
230.667	87.25
230.901	80.25
231.136	76.25
231.37	56.25
231.604	83.25
231.838	66.25
232.072	86.25
232.306	74.25
232.541	78.25
232.775	80.25
233.009	82.25
233.243	82.25
233.477	89.25
233.711	76.25
233.945	67.25
234.179	82.25
234.413	78.25
234.647	81.25
234.881	67.25
235.115	79.25
235.349	70.25
235.583	76.25
235.817	87.25
236.051	77.25
236.285	82.25
236.519	74.25
236.753	76.25
236.987	75.25
237.221	78.25
237.455	91.25
237.689	76.25
237.922	77.25
238.156	67.25
238.39	91.25
238.624	84.25
238.858	70.25
239.091	73.25
239.325	87.25
239.559	81.25
239.793	92.25
240.027	94.25
240.26	79.25
240.494	63.25
240.728	68.25
240.961	68.25
241.195	72.25
241.429	86.25
241.662	70.25
241.896	73.25
242.13	73.25
242.363	79.25
242.597	67.25
242.83	85.25
243.064	85.25
243.298	79.25
243.531	92.25
243.765	78.25
243.998	95.25
244.232	86.25
244.465	105.25
244.699	89.25
244.932	82.25
245.166	71.25
245.399	87.25
245.633	88.25
245.866	75.25
246.099	93.25
246.333	77.25
246.566	73.25
246.8	75.25
247.033	70.25
247.266	79.25
247.5	84.25
247.733	62.25
247.966	84.25
248.2	82.25
248.433	78.25
248.666	68.25
248.899	88.25
249.133	81.25
249.366	104.25
249.599	127.25
249.832	85.25
250.066	91.25
250.299	86.25
250.532	72.25
250.765	68.25
250.998	82.25
251.231	92.25
251.465	85.25
251.698	83.25
251.931	82.25
252.164	80.25
252.397	68.25
252.63	87.25
252.863	69.25
253.096	80.25
253.329	78.25
253.562	92.25
253.795	78.25
254.028	92.25
254.261	87.25
254.494	82.25
254.727	79.25
254.96	68.25
255.193	67.25
255.426	88.25
255.659	93.25
255.892	88.25
256.124	96.25
256.357	103.25
256.59	91.25
256.823	82.25
257.056	84.25
257.289	95.25
257.521	70.25
257.754	70.25
257.987	87.25
258.22	93.25
258.452	108.25
258.685	83.25
258.918	86.25
259.151	84.25
259.383	89.25
259.616	82.25
259.849	90.25
260.081	91.25
260.314	94.25
260.547	84.25
260.779	102.25
261.012	119.25
261.244	126.25
261.477	105.25
261.71	116.25
261.942	148.25
262.175	163.25
262.407	104.25
262.64	82.25
262.872	80.25
263.105	88.25
263.337	70.25
263.57	86.25
263.802	82.25
264.035	72.25
264.267	84.25
264.499	74.25
264.732	85.25
264.964	73.25
265.197	84.25
265.429	82.25
265.661	78.25
265.894	80.25
266.126	70.25
266.358	89.25
266.591	88.25
266.823	89.25
267.055	98.25
267.287	83.25
267.52	86.25
267.752	85.25
267.984	91.25
268.216	91.25
268.448	90.25
268.681	93.25
268.913	98.25
269.145	82.25
269.377	78.25
269.609	73.25
269.841	89.25
270.073	103.25
270.306	74.25
270.538	83.25
270.77	75.25
271.002	92.25
271.234	95.25
271.466	86.25
271.698	102.25
271.93	84.25
272.162	85.25
272.394	89.25
272.626	95.25
272.858	71.25
273.09	83.25
273.322	79.25
273.553	89.25
273.785	72.25
274.017	78.25
274.249	86.25
274.481	100.25
274.713	83.25
274.945	95.25
275.176	95.25
275.408	108.25
275.64	118.25
275.872	141.25
276.104	116.25
276.335	108.25
276.567	123.25
276.799	198.25
277.031	217.25
277.262	258.25
277.494	178.25
277.726	110.25
277.957	100.25
278.189	102.25
278.421	94.25
278.652	88.25
278.884	93.25
279.115	88.25
279.347	106.25
279.579	108.25
279.81	151.25
280.042	259.25
280.273	357.25
280.505	218.25
280.736	122.25
280.968	82.25
281.199	90.25
281.431	88.25
281.662	85.25
281.894	85.25
282.125	109.25
282.356	154.25
282.588	194.25
282.819	131.25
283.051	85.25
283.282	87.25
283.513	84.25
283.745	75.25
283.976	65.25
284.207	93.25
284.439	72.25
284.67	78.25
284.901	93.25
285.132	83.25
285.364	98.25
285.595	72.25
285.826	89.25
286.057	90.25
286.288	83.25
286.52	95.25
286.751	91.25
286.982	90.25
287.213	81.25
287.444	88.25
287.675	101.25
287.906	80.25
288.138	84.25
288.369	94.25
288.6	75.25
288.831	90.25
289.062	88.25
289.293	94.25
289.524	79.25
289.755	90.25
289.986	94.25
290.217	80.25
290.448	95.25
290.679	92.25
290.91	85.25
291.141	88.25
291.371	97.25
291.602	89.25
291.833	94.25
292.064	91.25
292.295	86.25
292.526	84.25
292.757	84.25
292.987	86.25
293.218	91.25
293.449	86.25
293.68	80.25
293.91	82.25
294.141	95.25
294.372	73.25
294.603	78.25
294.833	72.25
295.064	84.25
295.295	97.25
295.525	92.25
295.756	107.25
295.987	124.25
296.217	182.25
296.448	143.25
296.679	105.25
296.909	85.25
297.14	91.25
297.37	91.25
297.601	80.25
297.831	88.25
298.062	100.25
298.292	91.25
298.523	103.25
298.753	92.25
298.984	81.25
299.214	76.25
299.445	93.25
299.675	102.25
299.905	91.25
300.136	96.25
300.366	98.25
300.597	82.25
300.827	89.25
301.057	101.25
301.288	118.25
301.518	93.25
301.748	110.25
301.979	120.25
302.209	100.25
302.439	84.25
302.669	90.25
302.9	97.25
303.13	92.25
303.36	128.25
303.59	148.25
303.82	179.25
304.051	108.25
304.281	95.25
304.511	98.25
304.741	94.25
304.971	96.25
305.201	103.25
305.431	102.25
305.661	107.25
305.891	93.25
306.121	95.25
306.352	110.25
306.582	121.25
306.812	115.25
307.042	136.25
307.272	190.25
307.502	235.25
307.731	212.25
307.961	151.25
308.191	107.25
308.421	79.25
308.651	93.25
308.881	96.25
309.111	108.25
309.341	88.25
309.571	95.25
309.8	93.25
310.03	112.25
310.26	118.25
310.49	101.25
310.72	112.25
310.949	115.25
311.179	109.25
311.409	84.25
311.639	103.25
311.868	97.25
312.098	104.25
312.328	93.25
312.557	117.25
312.787	118.25
313.017	105.25
313.246	90.25
313.476	87.25
313.706	95.25
313.935	108.25
314.165	119.25
314.394	111.25
314.624	107.25
314.853	110.25
315.083	96.25
315.312	79.25
315.542	93.25
315.771	97.25
316.001	96.25
316.23	98.25
316.46	92.25
316.689	97.25
316.919	92.25
317.148	103.25
317.377	103.25
317.607	101.25
317.836	104.25
318.065	73.25
318.295	85.25
318.524	90.25
318.753	106.25
318.983	110.25
319.212	124.25
319.441	123.25
319.67	115.25
319.9	97.25
320.129	101.25
320.358	109.25
320.587	84.25
320.816	114.25
321.046	112.25
321.275	94.25
321.504	112.25
321.733	99.25
321.962	97.25
322.191	108.25
322.42	121.25
322.649	104.25
322.878	122.25
323.108	125.25
323.337	142.25
323.566	159.25
323.795	168.25
324.024	284.25
324.253	538.25
324.482	1206.25
324.71	2483.25
324.939	3268.25
325.168	1180.25
325.397	328.25
325.626	182.25
325.855	147.25
326.084	131.25
326.313	147.25
326.542	193.25
326.77	280.25
326.999	614.25
327.228	1253.25
327.457	2349.25
327.686	1871.25
327.914	696.25
328.143	710.25
328.372	998.25
328.6	536.25
328.829	237.25
329.058	221.25
329.287	222.25
329.515	212.25
329.744	339.25
329.972	709.25
330.201	1522.25
330.43	2269.25
330.658	951.25
330.887	362.25
331.115	233.25
331.344	144.25
331.572	127.25
331.801	124.25
332.03	135.25
332.258	120.25
332.486	115.25
332.715	113.25
332.943	129.25
333.172	136.25
333.4	166.25
333.629	182.25
333.857	305.25
334.085	614.25
334.314	1387.25
334.542	2804.25
334.771	2565.25
334.999	634.25
335.227	225.25
335.455	152.25
335.684	122.25
335.912	122.25
336.14	120.25
336.369	112.25
336.597	107.25
336.825	111.25
337.053	106.25
337.281	97.25
337.51	89.25
337.738	86.25
337.966	101.25
338.194	109.25
338.422	96.25
338.65	103.25
338.878	105.25
339.106	108.25
339.334	116.25
339.562	88.25
339.79	84.25
340.018	100.25
340.246	109.25
340.474	93.25
340.702	84.25
340.93	115.25
341.158	95.25
341.386	102.25
341.614	103.25
341.842	98.25
342.07	99.25
342.298	84.25
342.526	93.25
342.754	95.25
342.981	84.25
343.209	75.25
343.437	87.25
343.665	85.25
343.893	86.25
344.12	100.25
344.348	86.25
344.576	86.25
344.804	89.25
345.031	104.25
345.259	114.25
345.487	100.25
345.714	102.25
345.942	107.25
346.17	96.25
346.397	102.25
346.625	88.25
346.853	100.25
347.08	95.25
347.308	95.25
347.535	97.25
347.763	109.25
347.99	107.25
348.218	111.25
348.445	123.25
348.673	99.25
348.9	98.25
349.128	91.25
349.355	83.25
349.583	93.25
349.81	99.25
350.037	83.25
350.265	111.25
350.492	102.25
350.72	105.25
350.947	126.25
351.174	139.25
351.402	121.25
351.629	86.25
351.856	114.25
352.083	114.25
352.311	135.25
352.538	125.25
352.765	125.25
352.992	115.25
353.22	122.25
353.447	101.25
353.674	94.25
353.901	93.25
354.128	103.25
354.355	88.25
354.583	86.25
354.81	93.25
355.037	94.25
355.264	80.25
355.491	89.25
355.718	84.25
355.945	80.25
356.172	82.25
356.399	90.25
356.626	86.25
356.853	84.25
357.08	87.25
357.307	96.25
357.534	97.25
357.761	84.25
357.988	93.25
358.215	105.25
358.441	90.25
358.668	89.25
358.895	85.25
359.122	78.25
359.349	76.25
359.576	102.25
359.802	117.25
360.029	154.25
360.256	159.25
360.483	130.25
360.709	82.25
360.936	92.25
361.163	100.25
361.39	96.25
361.616	108.25
361.843	101.25
362.07	82.25
362.296	93.25
362.523	86.25
362.749	96.25
362.976	100.25
363.203	104.25
363.429	85.25
363.656	105.25
363.882	89.25
364.109	90.25
364.335	99.25
364.562	97.25
364.788	98.25
365.015	90.25
365.241	111.25
365.468	119.25
365.694	120.25
365.92	101.25
366.147	90.25
366.373	95.25
366.599	88.25
366.826	85.25
367.052	84.25
367.278	85.25
367.505	86.25
367.731	84.25
367.957	84.25
368.184	84.25
368.41	111.25
368.636	129.25
368.862	119.25
369.089	109.25
369.315	108.25
369.541	77.25
369.767	99.25
369.993	92.25
370.219	101.25
370.445	92.25
370.672	90.25
370.898	83.25
371.124	90.25
371.35	84.25
371.576	89.25
371.802	79.25
372.028	85.25
372.254	84.25
372.48	79.25
372.706	85.25
372.932	92.25
373.158	74.25
373.384	104.25
373.61	88.25
373.835	84.25
374.061	92.25
374.287	92.25
374.513	93.25
374.739	80.25
374.965	92.25
375.191	79.25
375.416	95.25
375.642	74.25
375.868	89.25
376.094	96.25
376.319	87.25
376.545	84.25
376.771	85.25
376.997	86.25
377.222	89.25
377.448	86.25
377.674	92.25
377.899	88.25
378.125	86.25
378.35	95.25
378.576	102.25
378.802	95.25
379.027	94.25
379.253	90.25
379.478	91.25
379.704	102.25
379.929	85.25
380.155	91.25
380.38	96.25
380.606	95.25
380.831	102.25
381.057	104.25
381.282	79.25
381.507	97.25
381.733	86.25
381.958	85.25
382.184	99.25
382.409	96.25
382.634	108.25
382.86	83.25
383.085	83.25
383.31	85.25
383.535	90.25
383.761	104.25
383.986	85.25
384.211	99.25
384.436	91.25
384.662	95.25
384.887	106.25
385.112	100.25
385.337	104.25
385.562	95.25
385.787	95.25
386.013	96.25
386.238	117.25
386.463	112.25
386.688	94.25
386.913	94.25
387.138	94.25
387.363	99.25
387.588	98.25
387.813	92.25
388.038	87.25
388.263	91.25
388.488	94.25
388.713	87.25
388.938	103.25
389.163	100.25
389.387	75.25
389.612	92.25
389.837	91.25
390.062	89.25
390.287	106.25
390.512	89.25
390.736	80.25
390.961	91.25
391.186	90.25
391.411	96.25
391.636	94.25
391.86	85.25
392.085	77.25
392.31	80.25
392.534	84.25
392.759	78.25
392.984	93.25
393.208	74.25
393.433	88.25
393.658	91.25
393.882	74.25
394.107	91.25
394.331	72.25
394.556	87.25
394.78	89.25
395.005	78.25
395.229	82.25
395.454	97.25
395.678	82.25
395.903	99.25
396.127	90.25
396.352	76.25
396.576	94.25
396.801	95.25
397.025	79.25
397.249	90.25
397.474	94.25
397.698	80.25
397.922	91.25
398.147	84.25
398.371	87.25
398.595	88.25
398.82	94.25
399.044	84.25
399.268	94.25
399.492	90.25
399.717	97.25
399.941	84.25
400.165	100.25
400.389	80.25
400.613	91.25
400.837	92.25
401.062	87.25
401.286	78.25
401.51	93.25
401.734	101.25
401.958	125.25
402.182	166.25
402.406	237.25
402.63	154.25
402.854	121.25
403.078	104.25
403.302	95.25
403.526	89.25
403.75	72.25
403.974	79.25
404.198	92.25
404.422	92.25
404.645	102.25
404.869	79.25
405.093	123.25
405.317	152.25
405.541	140.25
405.765	118.25
405.988	142.25
406.212	232.25
406.436	370.25
406.66	220.25
406.883	132.25
407.107	105.25
407.331	106.25
407.555	117.25
407.778	109.25
408.002	100.25
408.226	96.25
408.449	94.25
408.673	89.25
408.896	100.25
409.12	93.25
409.344	86.25
409.567	87.25
409.791	90.25
410.014	98.25
410.238	90.25
410.461	99.25
410.685	90.25
410.908	96.25
411.132	100.25
411.355	99.25
411.578	83.25
411.802	85.25
412.025	83.25
412.249	103.25
412.472	125.25
412.695	139.25
412.919	120.25
413.142	93.25
413.365	99.25
413.589	87.25
413.812	78.25
414.035	105.25
414.258	99.25
414.482	87.25
414.705	85.25
414.928	88.25
415.151	94.25
415.374	97.25
415.597	97.25
415.821	84.25
416.044	83.25
416.267	85.25
416.49	85.25
416.713	91.25
416.936	99.25
417.159	81.25
417.382	96.25
417.605	111.25
417.828	122.25
418.051	108.25
418.274	85.25
418.497	94.25
418.72	91.25
418.943	98.25
419.166	92.25
419.389	82.25
419.611	96.25
419.834	101.25
420.057	93.25
420.28	95.25
420.503	96.25
420.726	85.25
420.948	95.25
421.171	111.25
421.394	95.25
421.617	91.25
421.839	86.25
422.062	86.25
422.285	92.25
422.507	96.25
422.73	111.25
422.953	91.25
423.175	86.25
423.398	94.25
423.621	86.25
423.843	82.25
424.066	93.25
424.288	91.25
424.511	100.25
424.733	100.25
424.956	123.25
425.178	103.25
425.401	105.25
425.623	123.25
425.846	102.25
426.068	97.25
426.291	94.25
426.513	93.25
426.735	102.25
426.958	99.25
427.18	124.25
427.402	200.25
427.625	302.25
427.847	282.25
428.069	282.25
428.292	136.25
428.514	90.25
428.736	86.25
428.958	98.25
429.181	84.25
429.403	92.25
429.625	92.25
429.847	91.25
430.069	116.25
430.292	105.25
430.514	89.25
430.736	71.25
430.958	82.25
431.18	95.25
431.402	88.25
431.624	102.25
431.846	73.25
432.068	81.25
432.29	92.25
432.512	95.25
432.734	82.25
432.956	84.25
433.178	110.25
433.4	107.25
433.622	93.25
433.844	103.25
434.066	100.25
434.287	97.25
434.509	93.25
434.731	90.25
434.953	83.25
435.175	77.25
435.397	90.25
435.618	101.25
435.84	108.25
436.062	139.25
436.284	137.25
436.505	118.25
436.727	110.25
436.949	87.25
437.17	95.25
437.392	90.25
437.614	98.25
437.835	118.25
438.057	156.25
438.278	127.25
438.5	121.25
438.721	143.25
438.943	111.25
439.165	91.25
439.386	100.25
439.608	100.25
439.829	110.25
440.05	160.25
440.272	195.25
440.493	121.25
440.715	94.25
440.936	96.25
441.158	89.25
441.379	82.25
441.6	100.25
441.822	103.25
442.043	111.25
442.264	119.25
442.486	130.25
442.707	109.25
442.928	117.25
443.149	189.25
443.371	176.25
443.592	154.25
443.813	152.25
444.034	116.25
444.255	88.25
444.476	88.25
444.698	93.25
444.919	87.25
445.14	153.25
445.361	144.25
445.582	131.25
445.803	179.25
446.024	174.25
446.245	170.25
446.466	134.25
446.687	89.25
446.908	85.25
447.129	83.25
447.35	98.25
447.571	98.25
447.792	93.25
448.013	117.25
448.234	132.25
448.455	106.25
448.675	124.25
448.896	146.25
449.117	102.25
449.338	130.25
449.559	156.25
449.779	158.25
450	101.25
450.221	77.25
450.442	95.25
450.662	109.25
450.883	138.25
451.104	148.25
451.324	111.25
451.545	79.25
451.766	84.25
451.986	81.25
452.207	89.25
452.428	94.25
452.648	87.25
452.869	119.25
453.089	140.25
453.31	146.25
453.53	115.25
453.751	103.25
453.971	116.25
454.192	156.25
454.412	111.25
454.633	80.25
454.853	81.25
455.073	93.25
455.294	93.25
455.514	109.25
455.734	92.25
455.955	100.25
456.175	85.25
456.395	82.25
456.616	74.25
456.836	91.25
457.056	88.25
457.276	69.25
457.497	90.25
457.717	92.25
457.937	79.25
458.157	90.25
458.377	98.25
458.598	135.25
458.818	229.25
459.038	259.25
459.258	154.25
459.478	103.25
459.698	105.25
459.918	80.25
460.138	83.25
460.358	94.25
460.578	87.25
460.798	101.25
461.018	93.25
461.238	78.25
461.458	84.25
461.678	92.25
461.898	91.25
462.118	78.25
462.338	98.25
462.558	85.25
462.777	84.25
462.997	96.25
463.217	122.25
463.437	100.25
463.657	89.25
463.876	87.25
464.096	93.25
464.316	102.25
464.536	96.25
464.755	114.25
464.975	112.25
465.195	272.25
465.414	276.25
465.634	131.25
465.854	102.25
466.073	95.25
466.293	100.25
466.512	108.25
466.732	88.25
466.951	108.25
467.171	109.25
467.391	124.25
467.61	184.25
467.829	287.25
468.049	910.25
468.268	1399.25
468.488	314.25
468.707	110.25
468.927	109.25
469.146	103.25
469.365	95.25
469.585	99.25
469.804	108.25
470.023	110.25
470.243	110.25
470.462	116.25
470.681	144.25
470.901	114.25
471.12	105.25
471.339	111.25
471.558	142.25
471.777	186.25
471.997	428.25
472.216	1796.25
472.435	4142.25
472.654	881.25
472.873	186.25
473.092	114.25
473.311	98.25
473.53	105.25
473.749	84.25
473.968	115.25
474.187	128.25
474.406	104.25
474.625	82.25
474.844	81.25
475.063	82.25
475.282	80.25
475.501	97.25
475.72	83.25
475.939	100.25
476.158	90.25
476.377	91.25
476.596	106.25
476.814	106.25
477.033	103.25
477.252	92.25
477.471	84.25
477.69	96.25
477.908	109.25
478.127	89.25
478.346	100.25
478.564	110.25
478.783	125.25
479.002	115.25
479.22	125.25
479.439	130.25
479.658	146.25
479.876	142.25
480.095	158.25
480.313	167.25
480.532	220.25
480.751	396.25
480.969	1616.25
481.188	6985.25
481.406	3856.25
481.624	532.25
481.843	157.25
482.061	125.25
482.28	111.25
482.498	89.25
482.717	96.25
482.935	100.25
483.153	99.25
483.372	96.25
483.59	100.25
483.808	96.25
484.027	92.25
484.245	97.25
484.463	94.25
484.681	96.25
484.9	91.25
485.118	90.25
485.336	106.25
485.554	101.25
485.772	99.25
485.99	94.25
486.209	110.25
486.427	122.25
486.645	132.25
486.863	138.25
487.081	103.25
487.299	91.25
487.517	101.25
487.735	92.25
487.953	97.25
488.171	100.25
488.389	98.25
488.607	93.25
488.825	91.25
489.043	91.25
489.261	99.25
489.479	95.25
489.696	100.25
489.914	91.25
490.132	90.25
490.35	99.25
490.568	69.25
490.786	85.25
491.003	96.25
491.221	116.25
491.439	110.25
491.657	94.25
491.874	93.25
492.092	100.25
492.31	96.25
492.527	97.25
492.745	102.25
492.963	93.25
493.18	113.25
493.398	97.25
493.615	102.25
493.833	84.25
494.05	79.25
494.268	82.25
494.485	84.25
494.703	87.25
494.92	94.25
495.138	94.25
495.355	80.25
495.573	91.25
495.79	99.25
496.008	107.25
496.225	94.25
496.442	82.25
496.66	95.25
496.877	95.25
497.094	100.25
497.312	87.25
497.529	106.25
497.746	94.25
497.963	88.25
498.181	87.25
498.398	106.25
498.615	118.25
498.832	109.25
499.049	95.25
499.267	91.25
499.484	82.25
499.701	86.25
499.918	92.25
500.135	85.25
500.352	94.25
500.569	89.25
500.786	92.25
501.003	81.25
501.22	81.25
501.437	86.25
501.654	106.25
501.871	125.25
502.088	104.25
502.305	96.25
502.522	81.25
502.739	75.25
502.956	97.25
503.172	102.25
503.389	93.25
503.606	119.25
503.823	111.25
504.04	92.25
504.256	102.25
504.473	88.25
504.69	90.25
504.907	99.25
505.123	92.25
505.34	104.25
505.557	93.25
505.773	95.25
505.99	95.25
506.207	95.25
506.423	81.25
506.64	90.25
506.856	89.25
507.073	103.25
507.289	100.25
507.506	98.25
507.722	146.25
507.939	152.25
508.155	101.25
508.372	88.25
508.588	111.25
508.805	96.25
509.021	101.25
509.238	116.25
509.454	99.25
509.67	114.25
509.887	117.25
510.103	150.25
510.319	283.25
510.536	1097.25
510.752	4035.25
510.968	1010.25
511.184	200.25
511.401	132.25
511.617	109.25
511.833	111.25
512.049	103.25
512.265	102.25
512.481	95.25
512.698	106.25
512.914	98.25
513.13	95.25
513.346	101.25
513.562	95.25
513.778	93.25
513.994	110.25
514.21	122.25
514.426	171.25
514.642	191.25
514.858	176.25
515.074	239.25
515.29	858.25
515.506	3112.25
515.721	1080.25
515.937	258.25
516.153	154.25
516.369	99.25
516.585	127.25
516.801	107.25
517.016	115.25
517.232	95.25
517.448	102.25
517.664	98.25
517.879	116.25
518.095	111.25
518.311	101.25
518.527	118.25
518.742	105.25
518.958	115.25
519.173	90.25
519.389	103.25
519.605	109.25
519.82	112.25
520.036	117.25
520.251	169.25
520.467	139.25
520.682	106.25
520.898	142.25
521.113	148.25
521.329	199.25
521.544	342.25
521.76	1122.25
521.975	5236.25
522.19	3073.25
522.406	590.25
522.621	184.25
522.836	123.25
523.052	108.25
523.267	115.25
523.482	111.25
523.698	108.25
523.913	160.25
524.128	138.25
524.343	98.25
524.559	103.25
524.774	88.25
524.989	109.25
525.204	127.25
525.419	102.25
525.634	99.25
525.849	83.25
526.064	88.25
526.28	100.25
526.495	91.25
526.71	83.25
526.925	78.25
527.14	98.25
527.355	80.25
527.57	79.25
527.785	87.25
527.999	88.25
528.214	101.25
528.429	95.25
528.644	104.25
528.859	102.25
529.074	107.25
529.289	161.25
529.503	287.25
529.718	116.25
529.933	96.25
530.148	90.25
530.363	96.25
530.577	86.25
530.792	91.25
531.007	80.25
531.221	94.25
531.436	91.25
531.651	80.25
531.865	89.25
532.08	92.25
532.295	96.25
532.509	104.25
532.724	81.25
532.938	84.25
533.153	99.25
533.367	88.25
533.582	92.25
533.796	86.25
534.011	94.25
534.225	91.25
534.44	95.25
534.654	87.25
534.868	99.25
535.083	93.25
535.297	89.25
535.511	102.25
535.726	100.25
535.94	102.25
536.154	101.25
536.369	103.25
536.583	88.25
536.797	97.25
537.011	90.25
537.225	96.25
537.44	83.25
537.654	89.25
537.868	84.25
538.082	89.25
538.296	94.25
538.51	70.25
538.724	91.25
538.938	89.25
539.153	102.25
539.367	125.25
539.581	118.25
539.795	88.25
540.009	100.25
540.222	94.25
540.436	92.25
540.65	81.25
540.864	89.25
541.078	101.25
541.292	90.25
541.506	84.25
541.72	89.25
541.934	94.25
542.147	89.25
542.361	88.25
542.575	85.25
542.789	101.25
543.002	100.25
543.216	95.25
543.43	101.25
543.644	85.25
543.857	85.25
544.071	94.25
544.285	83.25
544.498	88.25
544.712	92.25
544.925	86.25
545.139	96.25
545.352	79.25
545.566	88.25
545.779	94.25
545.993	89.25
546.206	82.25
546.42	84.25
546.633	99.25
546.847	91.25
547.06	93.25
547.274	88.25
547.487	95.25
547.7	87.25
547.914	92.25
548.127	86.25
548.34	93.25
548.554	88.25
548.767	84.25
548.98	89.25
549.193	66.25
549.407	100.25
549.62	97.25
549.833	80.25
550.046	87.25
550.259	72.25
550.473	92.25
550.686	91.25
550.899	80.25
551.112	95.25
551.325	87.25
551.538	95.25
551.751	88.25
551.964	92.25
552.177	97.25
552.39	91.25
552.603	93.25
552.816	92.25
553.029	98.25
553.242	94.25
553.455	106.25
553.667	117.25
553.88	118.25
554.093	109.25
554.306	126.25
554.519	134.25
554.732	91.25
554.944	84.25
555.157	84.25
555.37	86.25
555.583	94.25
555.795	94.25
556.008	82.25
556.221	73.25
556.433	102.25
556.646	90.25
556.859	97.25
557.071	101.25
557.284	83.25
557.496	72.25
557.709	102.25
557.921	101.25
558.134	102.25
558.346	95.25
558.559	80.25
558.771	86.25
558.984	86.25
559.196	90.25
559.409	89.25
559.621	93.25
559.833	88.25
560.046	103.25
560.258	128.25
560.47	175.25
560.683	123.25
560.895	102.25
561.107	87.25
561.32	85.25
561.532	72.25
561.744	93.25
561.956	94.25
562.168	80.25
562.381	102.25
562.593	91.25
562.805	94.25
563.017	90.25
563.229	88.25
563.441	80.25
563.653	85.25
563.865	80.25
564.077	103.25
564.289	104.25
564.501	89.25
564.713	79.25
564.925	89.25
565.137	103.25
565.349	94.25
565.561	81.25
565.773	91.25
565.985	86.25
566.197	79.25
566.408	79.25
566.62	82.25
566.832	88.25
567.044	76.25
567.255	83.25
567.467	82.25
567.679	85.25
567.891	95.25
568.102	92.25
568.314	82.25
568.526	81.25
568.737	90.25
568.949	83.25
569.161	71.25
569.372	87.25
569.584	92.25
569.795	100.25
570.007	145.25
570.218	343.25
570.43	172.25
570.641	96.25
570.853	93.25
571.064	87.25
571.276	80.25
571.487	67.25
571.698	88.25
571.91	90.25
572.121	80.25
572.333	76.25
572.544	96.25
572.755	77.25
572.966	86.25
573.178	96.25
573.389	81.25
573.6	82.25
573.811	92.25
574.023	91.25
574.234	93.25
574.445	75.25
574.656	92.25
574.867	75.25
575.078	80.25
575.289	88.25
575.501	84.25
575.712	99.25
575.923	94.25
576.134	86.25
576.345	91.25
576.556	86.25
576.767	83.25
576.978	98.25
577.188	106.25
577.399	90.25
577.61	93.25
577.821	100.25
578.032	122.25
578.243	378.25
578.454	1217.25
578.665	287.25
578.875	113.25
579.086	96.25
579.297	98.25
579.508	82.25
579.718	88.25
579.929	89.25
580.14	108.25
580.35	85.25
580.561	72.25
580.772	93.25
580.982	94.25
581.193	88.25
581.403	86.25
581.614	90.25
581.825	92.25
582.035	78.25
582.246	78.25
582.456	91.25
582.667	85.25
582.877	93.25
583.087	74.25
583.298	80.25
583.508	92.25
583.719	79.25
583.929	84.25
584.139	73.25
584.35	91.25
584.56	83.25
584.77	86.25
584.981	93.25
585.191	78.25
585.401	90.25
585.611	86.25
585.821	99.25
586.032	102.25
586.242	95.25
586.452	84.25
586.662	90.25
586.872	77.25
587.082	73.25
587.292	93.25
587.502	80.25
587.713	66.25
587.923	79.25
588.133	80.25
588.343	85.25
588.553	93.25
588.762	88.25
588.972	86.25
589.182	130.25
589.392	120.25
589.602	89.25
589.812	112.25
590.022	111.25
590.232	94.25
590.441	89.25
590.651	93.25
590.861	90.25
591.071	95.25
591.281	94.25
591.49	93.25
591.7	86.25
591.91	73.25
592.119	72.25
592.329	99.25
592.539	92.25
592.748	93.25
592.958	86.25
593.167	85.25
593.377	84.25
593.587	106.25
593.796	72.25
594.006	90.25
594.215	89.25
594.424	77.25
594.634	75.25
594.843	89.25
595.053	88.25
595.262	84.25
595.472	86.25
595.681	74.25
595.89	93.25
596.1	88.25
596.309	77.25
596.518	74.25
596.727	85.25
596.937	89.25
597.146	83.25
597.355	89.25
597.564	83.25
597.774	83.25
597.983	83.25
598.192	75.25
598.401	82.25
598.61	89.25
598.819	81.25
599.028	76.25
599.237	79.25
599.446	71.25
599.655	100.25
599.864	99.25
600.073	88.25
600.282	78.25
600.491	102.25
600.7	75.25
600.909	101.25
601.118	89.25
601.327	78.25
601.536	96.25
601.745	91.25
601.953	89.25
602.162	87.25
602.371	95.25
602.58	101.25
602.789	89.25
602.997	86.25
603.206	92.25
603.415	82.25
603.623	77.25
603.832	87.25
604.041	92.25
604.249	85.25
604.458	74.25
604.666	79.25
604.875	78.25
605.084	92.25
605.292	96.25
605.501	85.25
605.709	92.25
605.918	91.25
606.126	65.25
606.334	80.25
606.543	91.25
606.751	88.25
606.96	83.25
607.168	83.25
607.376	85.25
607.585	87.25
607.793	83.25
608.001	80.25
608.21	84.25
608.418	78.25
608.626	89.25
608.834	72.25
609.043	82.25
609.251	87.25
609.459	74.25
609.667	96.25
609.875	90.25
610.083	98.25
610.291	84.25
610.499	83.25
610.707	64.25
610.916	85.25
611.124	78.25
611.332	81.25
611.54	81.25
611.748	82.25
611.955	79.25
612.163	101.25
612.371	91.25
612.579	84.25
612.787	89.25
612.995	90.25
613.203	87.25
613.411	63.25
613.618	78.25
613.826	86.25
614.034	87.25
614.242	84.25
614.449	88.25
614.657	88.25
614.865	86.25
615.072	86.25
615.28	102.25
615.488	86.25
615.695	93.25
615.903	106.25
616.111	102.25
616.318	88.25
616.526	89.25
616.733	86.25
616.941	90.25
617.148	84.25
617.356	97.25
617.563	90.25
617.771	81.25
617.978	86.25
618.185	88.25
618.393	77.25
618.6	75.25
618.807	72.25
619.015	91.25
619.222	91.25
619.429	70.25
619.637	84.25
619.844	72.25
620.051	77.25
620.258	79.25
620.466	95.25
620.673	99.25
620.88	80.25
621.087	87.25
621.294	77.25
621.501	92.25
621.708	82.25
621.915	86.25
622.122	72.25
622.329	80.25
622.536	82.25
622.743	93.25
622.95	92.25
623.157	78.25
623.364	83.25
623.571	83.25
623.778	82.25
623.985	70.25
624.192	85.25
624.399	76.25
624.606	80.25
624.812	86.25
625.019	87.25
625.226	73.25
625.433	74.25
625.639	85.25
625.846	100.25
626.053	83.25
626.259	83.25
626.466	84.25
626.673	70.25
626.879	75.25
627.086	82.25
627.293	83.25
627.499	76.25
627.706	88.25
627.912	77.25
628.119	72.25
628.325	66.25
628.532	89.25
628.738	79.25
628.945	79.25
629.151	88.25
629.357	82.25
629.564	79.25
629.77	74.25
629.976	79.25
630.183	79.25
630.389	86.25
630.595	75.25
630.802	68.25
631.008	96.25
631.214	79.25
631.42	77.25
631.627	85.25
631.833	72.25
632.039	81.25
632.245	85.25
632.451	95.25
632.657	70.25
632.863	96.25
633.069	85.25
633.275	85.25
633.481	87.25
633.688	80.25
633.893	74.25
634.099	74.25
634.305	82.25
634.511	83.25
634.717	78.25
634.923	72.25
635.129	81.25
635.335	90.25
635.541	86.25
635.747	83.25
635.952	112.25
636.158	166.25
636.364	588.25
636.57	502.25
636.775	172.25
636.981	103.25
637.187	85.25
637.392	95.25
637.598	85.25
637.804	81.25
638.009	86.25
638.215	88.25
638.421	79.25
638.626	86.25
638.832	84.25
639.037	88.25
639.243	90.25
639.448	73.25
639.654	79.25
639.859	88.25
640.065	82.25
640.27	77.25
640.475	80.25
640.681	69.25
640.886	88.25
641.091	83.25
641.297	92.25
641.502	101.25
641.707	102.25
641.913	74.25
642.118	83.25
642.323	79.25
642.528	95.25
642.733	95.25
642.939	82.25
643.144	71.25
643.349	82.25
643.554	81.25
643.759	82.25
643.964	78.25
644.169	80.25
644.374	66.25
644.579	92.25
644.784	72.25
644.989	90.25
645.194	91.25
645.399	86.25
645.604	83.25
645.809	82.25
646.014	75.25
646.219	80.25
646.423	94.25
646.628	87.25
646.833	90.25
647.038	74.25
647.243	86.25
647.447	86.25
647.652	92.25
647.857	80.25
648.062	87.25
648.266	74.25
648.471	80.25
648.676	85.25
648.88	89.25
649.085	80.25
649.289	83.25
649.494	95.25
649.698	143.25
649.903	108.25
650.107	75.25
650.312	64.25
650.516	72.25
650.721	77.25
650.925	79.25
651.13	78.25
651.334	75.25
651.539	80.25
651.743	95.25
651.947	93.25
652.152	67.25
652.356	83.25
652.56	77.25
652.764	66.25
652.969	87.25
653.173	86.25
653.377	70.25
653.581	84.25
653.785	86.25
653.99	79.25
654.194	96.25
654.398	80.25
654.602	83.25
654.806	92.25
655.01	102.25
655.214	91.25
655.418	82.25
655.622	72.25
655.826	73.25
656.03	93.25
656.234	85.25
656.438	97.25
656.642	106.25
656.846	95.25
657.049	87.25
657.253	86.25
657.457	85.25
657.661	84.25
657.865	94.25
658.068	71.25
658.272	73.25
658.476	72.25
658.68	73.25
658.883	76.25
659.087	70.25
659.291	73.25
659.494	73.25
659.698	61.25
659.901	77.25
660.105	87.25
660.309	77.25
660.512	71.25
660.716	86.25
660.919	77.25
661.123	83.25
661.326	65.25
661.53	76.25
661.733	90.25
661.936	73.25
662.14	68.25
662.343	79.25
662.546	77.25
662.75	68.25
662.953	73.25
663.156	74.25
663.36	83.25
663.563	75.25
663.766	86.25
663.969	75.25
664.173	84.25
664.376	81.25
664.579	83.25
664.782	74.25
664.985	70.25
665.188	75.25
665.391	77.25
665.594	94.25
665.797	74.25
666	80.25
666.203	70.25
666.406	62.25
666.609	82.25
666.812	78.25
667.015	74.25
667.218	90.25
667.421	71.25
667.624	76.25
667.827	76.25
668.03	67.25
668.232	68.25
668.435	84.25
668.638	87.25
668.841	75.25
669.043	78.25
669.246	76.25
669.449	76.25
669.651	78.25
669.854	99.25
670.057	79.25
670.259	69.25
670.462	94.25
670.665	60.25
670.867	79.25
671.07	92.25
671.272	72.25
671.475	91.25
671.677	78.25
671.88	76.25
672.082	71.25
672.284	76.25
672.487	75.25
672.689	86.25
672.892	88.25
