Data from Circ_1998_H10_HRD10591_00038.txt Node
Date: Wed Jan 03 11:26:56 EST 2024
User: Yrep
Spectrometer: HR+D1059
Trigger mode: 1
Integration Time (sec): 1.000000E-1
Scans to average: 1
Electric dark correction enabled: true
Nonlinearity correction enabled: false
Boxcar width: 0
XAxis mode: Wavelengths
Number of Pixels in Spectrum: 2048
>>>>>Begin Spectral Data<<<<<
223.165	-17.31
223.4	-17.31
223.635	-17.31
223.869	-8.31
224.104	-9.31
224.338	-14.31
224.573	-19.31
224.808	-6.31
225.042	-3.31
225.277	-9.31
225.511	11.69
225.746	3.69
225.98	-7.31
226.215	-3.31
226.449	12.69
226.683	21.69
226.918	28.69
227.152	19.69
227.387	28.69
227.621	35.69
227.856	38.69
228.09	43.69
228.324	35.69
228.559	64.69
228.793	67.69
229.027	49.69
229.262	56.69
229.496	85.69
229.73	100.69
229.964	97.69
230.199	87.69
230.433	76.69
230.667	84.69
230.901	63.69
231.136	85.69
231.37	74.69
231.604	88.69
231.838	81.69
232.072	80.69
232.306	80.69
232.541	58.69
232.775	59.69
233.009	83.69
233.243	81.69
233.477	93.69
233.711	88.69
233.945	96.69
234.179	74.69
234.413	84.69
234.647	63.69
234.881	78.69
235.115	78.69
235.349	82.69
235.583	94.69
235.817	61.69
236.051	83.69
236.285	80.69
236.519	67.69
236.753	71.69
236.987	79.69
237.221	83.69
237.455	95.69
237.689	73.69
237.922	83.69
238.156	85.69
238.39	64.69
238.624	78.69
238.858	73.69
239.091	59.69
239.325	80.69
239.559	82.69
239.793	85.69
240.027	78.69
240.26	84.69
240.494	81.69
240.728	85.69
240.961	76.69
241.195	69.69
241.429	80.69
241.662	79.69
241.896	69.69
242.13	63.69
242.363	75.69
242.597	72.69
242.83	88.69
243.064	93.69
243.298	73.69
243.531	69.69
243.765	79.69
243.998	96.69
244.232	93.69
244.465	89.69
244.699	74.69
244.932	73.69
245.166	73.69
245.399	88.69
245.633	79.69
245.866	90.69
246.099	74.69
246.333	95.69
246.566	60.69
246.8	64.69
247.033	72.69
247.266	75.69
247.5	86.69
247.733	79.69
247.966	78.69
248.2	77.69
248.433	65.69
248.666	64.69
248.899	74.69
249.133	89.69
249.366	123.69
249.599	98.69
249.832	87.69
250.066	92.69
250.299	87.69
250.532	79.69
250.765	86.69
250.998	85.69
251.231	85.69
251.465	81.69
251.698	86.69
251.931	92.69
252.164	80.69
252.397	92.69
252.63	73.69
252.863	89.69
253.096	79.69
253.329	69.69
253.562	82.69
253.795	77.69
254.028	79.69
254.261	88.69
254.494	70.69
254.727	81.69
254.96	76.69
255.193	92.69
255.426	88.69
255.659	85.69
255.892	102.69
256.124	90.69
256.357	81.69
256.59	83.69
256.823	85.69
257.056	95.69
257.289	77.69
257.521	79.69
257.754	84.69
257.987	88.69
258.22	105.69
258.452	98.69
258.685	101.69
258.918	87.69
259.151	93.69
259.383	83.69
259.616	92.69
259.849	84.69
260.081	89.69
260.314	112.69
260.547	91.69
260.779	87.69
261.012	116.69
261.244	106.69
261.477	105.69
261.71	100.69
261.942	129.69
262.175	157.69
262.407	99.69
262.64	92.69
262.872	94.69
263.105	81.69
263.337	75.69
263.57	92.69
263.802	74.69
264.035	92.69
264.267	81.69
264.499	95.69
264.732	83.69
264.964	88.69
265.197	88.69
265.429	79.69
265.661	73.69
265.894	79.69
266.126	93.69
266.358	90.69
266.591	105.69
266.823	77.69
267.055	87.69
267.287	83.69
267.52	91.69
267.752	86.69
267.984	74.69
268.216	77.69
268.448	84.69
268.681	86.69
268.913	102.69
269.145	86.69
269.377	86.69
269.609	97.69
269.841	86.69
270.073	84.69
270.306	69.69
270.538	71.69
270.77	89.69
271.002	84.69
271.234	83.69
271.466	83.69
271.698	84.69
271.93	79.69
272.162	100.69
272.394	92.69
272.626	91.69
272.858	95.69
273.09	82.69
273.322	91.69
273.553	64.69
273.785	79.69
274.017	87.69
274.249	88.69
274.481	87.69
274.713	87.69
274.945	87.69
275.176	109.69
275.408	109.69
275.64	123.69
275.872	147.69
276.104	97.69
276.335	99.69
276.567	113.69
276.799	156.69
277.031	201.69
277.262	240.69
277.494	162.69
277.726	112.69
277.957	95.69
278.189	104.69
278.421	86.69
278.652	91.69
278.884	92.69
279.115	97.69
279.347	90.69
279.579	107.69
279.81	151.69
280.042	248.69
280.273	337.69
280.505	209.69
280.736	113.69
280.968	104.69
281.199	76.69
281.431	92.69
281.662	95.69
281.894	88.69
282.125	104.69
282.356	147.69
282.588	181.69
282.819	139.69
283.051	87.69
283.282	87.69
283.513	81.69
283.745	83.69
283.976	69.69
284.207	94.69
284.439	95.69
284.67	68.69
284.901	88.69
285.132	79.69
285.364	96.69
285.595	89.69
285.826	85.69
286.057	102.69
286.288	70.69
286.52	81.69
286.751	74.69
286.982	81.69
287.213	86.69
287.444	91.69
287.675	94.69
287.906	80.69
288.138	106.69
288.369	106.69
288.6	81.69
288.831	91.69
289.062	85.69
289.293	87.69
289.524	88.69
289.755	87.69
289.986	88.69
290.217	87.69
290.448	97.69
290.679	89.69
290.91	80.69
291.141	79.69
291.371	84.69
291.602	91.69
291.833	78.69
292.064	79.69
292.295	97.69
292.526	93.69
292.757	100.69
292.987	97.69
293.218	89.69
293.449	79.69
293.68	84.69
293.91	72.69
294.141	77.69
294.372	82.69
294.603	89.69
294.833	94.69
295.064	91.69
295.295	94.69
295.525	85.69
295.756	114.69
295.987	136.69
296.217	174.69
296.448	153.69
296.679	101.69
296.909	97.69
297.14	106.69
297.37	85.69
297.601	91.69
297.831	87.69
298.062	114.69
298.292	102.69
298.523	84.69
298.753	84.69
298.984	77.69
299.214	93.69
299.445	101.69
299.675	103.69
299.905	92.69
300.136	100.69
300.366	93.69
300.597	85.69
300.827	82.69
301.057	112.69
301.288	132.69
301.518	96.69
301.748	112.69
301.979	116.69
302.209	100.69
302.439	97.69
302.669	100.69
302.9	81.69
303.13	96.69
303.36	116.69
303.59	148.69
303.82	154.69
304.051	104.69
304.281	93.69
304.511	115.69
304.741	88.69
304.971	93.69
305.201	104.69
305.431	91.69
305.661	103.69
305.891	98.69
306.121	99.69
306.352	124.69
306.582	135.69
306.812	115.69
307.042	137.69
307.272	184.69
307.502	225.69
307.731	206.69
307.961	151.69
308.191	117.69
308.421	98.69
308.651	92.69
308.881	110.69
309.111	99.69
309.341	105.69
309.571	100.69
309.8	90.69
310.03	104.69
310.26	103.69
310.49	93.69
310.72	117.69
310.949	112.69
311.179	110.69
311.409	97.69
311.639	117.69
311.868	92.69
312.098	93.69
312.328	117.69
312.557	117.69
312.787	128.69
313.017	107.69
313.246	114.69
313.476	92.69
313.706	93.69
313.935	97.69
314.165	106.69
314.394	117.69
314.624	103.69
314.853	97.69
315.083	101.69
315.312	93.69
315.542	95.69
315.771	104.69
316.001	96.69
316.23	100.69
316.46	82.69
316.689	87.69
316.919	92.69
317.148	107.69
317.377	102.69
317.607	92.69
317.836	95.69
318.065	88.69
318.295	90.69
318.524	79.69
318.753	100.69
318.983	96.69
319.212	109.69
319.441	108.69
319.67	101.69
319.9	103.69
320.129	91.69
320.358	113.69
320.587	102.69
320.816	114.69
321.046	120.69
321.275	98.69
321.504	108.69
321.733	108.69
321.962	104.69
322.191	111.69
322.42	127.69
322.649	122.69
322.878	127.69
323.108	134.69
323.337	155.69
323.566	175.69
323.795	200.69
324.024	255.69
324.253	546.69
324.482	1207.69
324.71	2539.69
324.939	3387.69
325.168	1253.69
325.397	331.69
325.626	176.69
325.855	157.69
326.084	146.69
326.313	147.69
326.542	197.69
326.77	292.69
326.999	571.69
327.228	1291.69
327.457	2444.69
327.686	1990.69
327.914	680.69
328.143	671.69
328.372	893.69
328.6	478.69
328.829	233.69
329.058	219.69
329.287	221.69
329.515	211.69
329.744	329.69
329.972	616.69
330.201	1363.69
330.43	2011.69
330.658	873.69
330.887	342.69
331.115	220.69
331.344	136.69
331.572	131.69
331.801	147.69
332.03	111.69
332.258	115.69
332.486	104.69
332.715	115.69
332.943	126.69
333.172	135.69
333.4	143.69
333.629	177.69
333.857	278.69
334.085	564.69
334.314	1245.69
334.542	2477.69
334.771	2288.69
334.999	583.69
335.227	213.69
335.455	153.69
335.684	133.69
335.912	114.69
336.14	113.69
336.369	103.69
336.597	106.69
336.825	112.69
337.053	92.69
337.281	106.69
337.51	80.69
337.738	101.69
337.966	100.69
338.194	117.69
338.422	108.69
338.65	95.69
338.878	90.69
339.106	87.69
339.334	100.69
339.562	94.69
339.79	102.69
340.018	91.69
340.246	108.69
340.474	103.69
340.702	77.69
340.93	95.69
341.158	104.69
341.386	98.69
341.614	96.69
341.842	98.69
342.07	90.69
342.298	98.69
342.526	94.69
342.754	95.69
342.981	91.69
343.209	87.69
343.437	96.69
343.665	94.69
343.893	108.69
344.12	89.69
344.348	93.69
344.576	99.69
344.804	103.69
345.031	101.69
345.259	115.69
345.487	114.69
345.714	103.69
345.942	87.69
346.17	97.69
346.397	91.69
346.625	95.69
346.853	93.69
347.08	88.69
347.308	110.69
347.535	101.69
347.763	114.69
347.99	109.69
348.218	109.69
348.445	126.69
348.673	104.69
348.9	109.69
349.128	102.69
349.355	90.69
349.583	100.69
349.81	95.69
350.037	95.69
350.265	91.69
350.492	89.69
350.72	108.69
350.947	108.69
351.174	115.69
351.402	139.69
351.629	108.69
351.856	106.69
352.083	104.69
352.311	119.69
352.538	120.69
352.765	126.69
352.992	111.69
353.22	120.69
353.447	126.69
353.674	102.69
353.901	91.69
354.128	90.69
354.355	97.69
354.583	97.69
354.81	89.69
355.037	94.69
355.264	93.69
355.491	87.69
355.718	75.69
355.945	90.69
356.172	82.69
356.399	90.69
356.626	83.69
356.853	90.69
357.08	91.69
357.307	93.69
357.534	94.69
357.761	83.69
357.988	80.69
358.215	87.69
358.441	93.69
358.668	89.69
358.895	100.69
359.122	96.69
359.349	93.69
359.576	86.69
359.802	109.69
360.029	144.69
360.256	144.69
360.483	114.69
360.709	87.69
360.936	106.69
361.163	103.69
361.39	99.69
361.616	110.69
361.843	95.69
362.07	101.69
362.296	111.69
362.523	106.69
362.749	93.69
362.976	95.69
363.203	112.69
363.429	86.69
363.656	102.69
363.882	101.69
364.109	94.69
364.335	94.69
364.562	107.69
364.788	88.69
365.015	107.69
365.241	102.69
365.468	110.69
365.694	117.69
365.92	92.69
366.147	110.69
366.373	87.69
366.599	83.69
366.826	89.69
367.052	86.69
367.278	85.69
367.505	80.69
367.731	105.69
367.957	97.69
368.184	95.69
368.41	109.69
368.636	132.69
368.862	137.69
369.089	125.69
369.315	95.69
369.541	87.69
369.767	94.69
369.993	93.69
370.219	107.69
370.445	97.69
370.672	90.69
370.898	82.69
371.124	95.69
371.35	85.69
371.576	87.69
371.802	92.69
372.028	85.69
372.254	81.69
372.48	92.69
372.706	87.69
372.932	70.69
373.158	95.69
373.384	92.69
373.61	97.69
373.835	89.69
374.061	91.69
374.287	100.69
374.513	92.69
374.739	83.69
374.965	90.69
375.191	84.69
375.416	92.69
375.642	82.69
375.868	91.69
376.094	112.69
376.319	97.69
376.545	75.69
376.771	97.69
376.997	82.69
377.222	83.69
377.448	92.69
377.674	88.69
377.899	91.69
378.125	94.69
378.35	100.69
378.576	90.69
378.802	85.69
379.027	93.69
379.253	81.69
379.478	94.69
379.704	78.69
379.929	91.69
380.155	92.69
380.38	94.69
380.606	91.69
380.831	102.69
381.057	106.69
381.282	86.69
381.507	89.69
381.733	105.69
381.958	97.69
382.184	97.69
382.409	94.69
382.634	95.69
382.86	95.69
383.085	96.69
383.31	92.69
383.535	90.69
383.761	89.69
383.986	103.69
384.211	111.69
384.436	104.69
384.662	95.69
384.887	96.69
385.112	104.69
385.337	104.69
385.562	108.69
385.787	117.69
386.013	111.69
386.238	126.69
386.463	131.69
386.688	110.69
386.913	111.69
387.138	96.69
387.363	111.69
387.588	102.69
387.813	107.69
388.038	95.69
388.263	119.69
388.488	119.69
388.713	104.69
388.938	105.69
389.163	99.69
389.387	80.69
389.612	88.69
389.837	79.69
390.062	83.69
390.287	97.69
390.512	80.69
390.736	89.69
390.961	73.69
391.186	84.69
391.411	97.69
391.636	87.69
391.86	93.69
392.085	94.69
392.31	92.69
392.534	86.69
392.759	98.69
392.984	92.69
393.208	85.69
393.433	90.69
393.658	91.69
393.882	95.69
394.107	84.69
394.331	85.69
394.556	78.69
394.78	89.69
395.005	86.69
395.229	85.69
395.454	91.69
395.678	85.69
395.903	93.69
396.127	91.69
396.352	92.69
396.576	98.69
396.801	80.69
397.025	91.69
397.249	86.69
397.474	90.69
397.698	93.69
397.922	93.69
398.147	80.69
398.371	79.69
398.595	83.69
398.82	85.69
399.044	86.69
399.268	94.69
399.492	78.69
399.717	85.69
399.941	101.69
400.165	105.69
400.389	96.69
400.613	94.69
400.837	87.69
401.062	80.69
401.286	94.69
401.51	90.69
401.734	100.69
401.958	113.69
402.182	171.69
402.406	212.69
402.63	159.69
402.854	104.69
403.078	86.69
403.302	91.69
403.526	93.69
403.75	94.69
403.974	85.69
404.198	91.69
404.422	87.69
404.645	115.69
404.869	103.69
405.093	120.69
405.317	154.69
405.541	143.69
405.765	116.69
405.988	153.69
406.212	225.69
406.436	353.69
406.66	235.69
406.883	134.69
407.107	87.69
407.331	100.69
407.555	105.69
407.778	109.69
408.002	109.69
408.226	86.69
408.449	92.69
408.673	102.69
408.896	100.69
409.12	95.69
409.344	85.69
409.567	86.69
409.791	88.69
410.014	96.69
410.238	97.69
410.461	91.69
410.685	83.69
410.908	94.69
411.132	87.69
411.355	101.69
411.578	87.69
411.802	86.69
412.025	92.69
412.249	97.69
412.472	111.69
412.695	149.69
412.919	118.69
413.142	108.69
413.365	103.69
413.589	99.69
413.812	93.69
414.035	104.69
414.258	100.69
414.482	85.69
414.705	60.69
414.928	95.69
415.151	93.69
415.374	100.69
415.597	94.69
415.821	105.69
416.044	99.69
416.267	80.69
416.49	83.69
416.713	89.69
416.936	89.69
417.159	88.69
417.382	104.69
417.605	127.69
417.828	131.69
418.051	105.69
418.274	101.69
418.497	93.69
418.72	90.69
418.943	88.69
419.166	82.69
419.389	97.69
419.611	87.69
419.834	91.69
420.057	92.69
420.28	99.69
420.503	96.69
420.726	86.69
420.948	101.69
421.171	104.69
421.394	96.69
421.617	81.69
421.839	69.69
422.062	91.69
422.285	91.69
422.507	112.69
422.73	113.69
422.953	92.69
423.175	85.69
423.398	103.69
423.621	93.69
423.843	83.69
424.066	97.69
424.288	80.69
424.511	86.69
424.733	96.69
424.956	118.69
425.178	118.69
425.401	124.69
425.623	105.69
425.846	86.69
426.068	84.69
426.291	90.69
426.513	101.69
426.735	109.69
426.958	106.69
427.18	132.69
427.402	193.69
427.625	285.69
427.847	283.69
428.069	260.69
428.292	125.69
428.514	100.69
428.736	76.69
428.958	95.69
429.181	83.69
429.403	107.69
429.625	87.69
429.847	102.69
430.069	113.69
430.292	95.69
430.514	101.69
430.736	86.69
430.958	83.69
431.18	81.69
431.402	94.69
431.624	88.69
431.846	86.69
432.068	87.69
432.29	87.69
432.512	92.69
432.734	98.69
432.956	89.69
433.178	109.69
433.4	109.69
433.622	105.69
433.844	88.69
434.066	100.69
434.287	88.69
434.509	87.69
434.731	91.69
434.953	87.69
435.175	93.69
435.397	84.69
435.618	105.69
435.84	131.69
436.062	161.69
436.284	132.69
436.505	110.69
436.727	119.69
436.949	86.69
437.17	95.69
437.392	90.69
437.614	105.69
437.835	135.69
438.057	166.69
438.278	127.69
438.5	119.69
438.721	131.69
438.943	116.69
439.165	101.69
439.386	99.69
439.608	93.69
439.829	115.69
440.05	169.69
440.272	200.69
440.493	113.69
440.715	94.69
440.936	83.69
441.158	77.69
441.379	80.69
441.6	108.69
441.822	108.69
442.043	109.69
442.264	129.69
442.486	117.69
442.707	106.69
442.928	128.69
443.149	181.69
443.371	180.69
443.592	136.69
443.813	138.69
444.034	147.69
444.255	103.69
444.476	83.69
444.698	109.69
444.919	92.69
445.14	152.69
445.361	133.69
445.582	136.69
445.803	204.69
446.024	198.69
446.245	180.69
446.466	137.69
446.687	91.69
446.908	94.69
447.129	85.69
447.35	87.69
447.571	103.69
447.792	89.69
448.013	104.69
448.234	115.69
448.455	116.69
448.675	126.69
448.896	142.69
449.117	125.69
449.338	125.69
449.559	143.69
449.779	150.69
450	108.69
450.221	85.69
450.442	101.69
450.662	110.69
450.883	119.69
451.104	129.69
451.324	102.69
451.545	96.69
451.766	81.69
451.986	81.69
452.207	101.69
452.428	105.69
452.648	103.69
452.869	139.69
453.089	142.69
453.31	153.69
453.53	96.69
453.751	107.69
453.971	118.69
454.192	143.69
454.412	104.69
454.633	101.69
454.853	93.69
455.073	92.69
455.294	101.69
455.514	129.69
455.734	86.69
455.955	78.69
456.175	102.69
456.395	87.69
456.616	76.69
456.836	86.69
457.056	94.69
457.276	89.69
457.497	117.69
457.717	91.69
457.937	78.69
458.157	75.69
458.377	107.69
458.598	149.69
458.818	221.69
459.038	266.69
459.258	158.69
459.478	91.69
459.698	84.69
459.918	94.69
460.138	92.69
460.358	97.69
460.578	79.69
460.798	95.69
461.018	86.69
461.238	87.69
461.458	108.69
461.678	86.69
461.898	80.69
462.118	77.69
462.338	63.69
462.558	83.69
462.777	86.69
462.997	97.69
463.217	120.69
463.437	103.69
463.657	91.69
463.876	91.69
464.096	94.69
464.316	104.69
464.536	107.69
464.755	100.69
464.975	131.69
465.195	239.69
465.414	270.69
465.634	126.69
465.854	76.69
466.073	84.69
466.293	97.69
466.512	93.69
466.732	104.69
466.951	108.69
467.171	90.69
467.391	106.69
467.61	184.69
467.829	264.69
468.049	771.69
468.268	1227.69
468.488	295.69
468.707	119.69
468.927	103.69
469.146	97.69
469.365	87.69
469.585	92.69
469.804	101.69
470.023	111.69
470.243	124.69
470.462	134.69
470.681	151.69
470.901	110.69
471.12	110.69
471.339	113.69
471.558	133.69
471.777	176.69
471.997	392.69
472.216	1548.69
472.435	3719.69
472.654	783.69
472.873	200.69
473.092	115.69
473.311	94.69
473.53	98.69
473.749	94.69
473.968	110.69
474.187	131.69
474.406	114.69
474.625	96.69
474.844	85.69
475.063	94.69
475.282	108.69
475.501	97.69
475.72	98.69
475.939	76.69
476.158	105.69
476.377	90.69
476.596	96.69
476.814	117.69
477.033	101.69
477.252	87.69
477.471	97.69
477.69	81.69
477.908	96.69
478.127	94.69
478.346	95.69
478.564	119.69
478.783	123.69
479.002	126.69
479.22	97.69
479.439	123.69
479.658	154.69
479.876	131.69
480.095	132.69
480.313	151.69
480.532	192.69
480.751	346.69
480.969	1398.69
481.188	6195.69
481.406	3470.69
481.624	480.69
481.843	155.69
482.061	123.69
482.28	111.69
482.498	97.69
482.717	97.69
482.935	96.69
483.153	96.69
483.372	92.69
483.59	87.69
483.808	99.69
484.027	103.69
484.245	104.69
484.463	91.69
484.681	99.69
484.9	102.69
485.118	110.69
485.336	90.69
485.554	96.69
485.772	109.69
485.99	106.69
486.209	110.69
486.427	118.69
486.645	119.69
486.863	135.69
487.081	110.69
487.299	112.69
487.517	101.69
487.735	109.69
487.953	93.69
488.171	93.69
488.389	88.69
488.607	102.69
488.825	77.69
489.043	88.69
489.261	90.69
489.479	103.69
489.696	84.69
489.914	87.69
490.132	107.69
490.35	93.69
490.568	88.69
490.786	97.69
491.003	90.69
491.221	97.69
491.439	84.69
491.657	90.69
491.874	82.69
492.092	79.69
492.31	97.69
492.527	103.69
492.745	97.69
492.963	91.69
493.18	93.69
493.398	84.69
493.615	93.69
493.833	89.69
494.05	96.69
494.268	79.69
494.485	91.69
494.703	103.69
494.92	89.69
495.138	80.69
495.355	85.69
495.573	93.69
495.79	71.69
496.008	87.69
496.225	99.69
496.442	99.69
496.66	82.69
496.877	94.69
497.094	83.69
497.312	93.69
497.529	108.69
497.746	101.69
497.963	91.69
498.181	107.69
498.398	103.69
498.615	127.69
498.832	113.69
499.049	95.69
499.267	103.69
499.484	87.69
499.701	93.69
499.918	85.69
500.135	98.69
500.352	89.69
500.569	98.69
500.786	101.69
501.003	94.69
501.22	83.69
501.437	85.69
501.654	107.69
501.871	123.69
502.088	106.69
502.305	102.69
502.522	92.69
502.739	98.69
502.956	101.69
503.172	102.69
503.389	107.69
503.606	137.69
503.823	114.69
504.04	95.69
504.256	107.69
504.473	75.69
504.69	88.69
504.907	91.69
505.123	89.69
505.34	94.69
505.557	77.69
505.773	90.69
505.99	84.69
506.207	92.69
506.423	86.69
506.64	101.69
506.856	94.69
507.073	99.69
507.289	99.69
507.506	102.69
507.722	135.69
507.939	141.69
508.155	109.69
508.372	92.69
508.588	96.69
508.805	102.69
509.021	109.69
509.238	113.69
509.454	95.69
509.67	98.69
509.887	122.69
510.103	155.69
510.319	260.69
510.536	1061.69
510.752	3947.69
510.968	1029.69
511.184	202.69
511.401	133.69
511.617	114.69
511.833	97.69
512.049	109.69
512.265	84.69
512.481	75.69
512.698	78.69
512.914	101.69
513.13	99.69
513.346	104.69
513.562	97.69
513.778	101.69
513.994	118.69
514.21	123.69
514.426	147.69
514.642	190.69
514.858	162.69
515.074	244.69
515.29	809.69
515.506	3087.69
515.721	1025.69
515.937	235.69
516.153	142.69
516.369	115.69
516.585	110.69
516.801	111.69
517.016	90.69
517.232	95.69
517.448	91.69
517.664	99.69
517.879	95.69
518.095	89.69
518.311	122.69
518.527	126.69
518.742	109.69
518.958	103.69
519.173	87.69
519.389	100.69
519.605	111.69
519.82	89.69
520.036	115.69
520.251	154.69
520.467	151.69
520.682	133.69
520.898	129.69
521.113	144.69
521.329	205.69
521.544	325.69
521.76	1072.69
521.975	5139.69
522.19	2997.69
522.406	589.69
522.621	174.69
522.836	117.69
523.052	115.69
523.267	108.69
523.482	102.69
523.698	122.69
523.913	160.69
524.128	129.69
524.343	101.69
524.559	84.69
524.774	96.69
524.989	112.69
525.204	130.69
525.419	111.69
525.634	101.69
525.849	89.69
526.064	101.69
526.28	83.69
526.495	103.69
526.71	95.69
526.925	71.69
527.14	97.69
527.355	88.69
527.57	97.69
527.785	97.69
527.999	90.69
528.214	94.69
528.429	94.69
528.644	90.69
528.859	108.69
529.074	114.69
529.289	166.69
529.503	285.69
529.718	135.69
529.933	87.69
530.148	92.69
530.363	94.69
530.577	95.69
530.792	87.69
531.007	97.69
531.221	103.69
531.436	93.69
531.651	88.69
531.865	95.69
532.08	81.69
532.295	103.69
532.509	106.69
532.724	96.69
532.938	84.69
533.153	101.69
533.367	96.69
533.582	94.69
533.796	89.69
534.011	94.69
534.225	86.69
534.44	94.69
534.654	93.69
534.868	98.69
535.083	92.69
535.297	96.69
535.511	120.69
535.726	127.69
535.94	105.69
536.154	108.69
536.369	97.69
536.583	96.69
536.797	93.69
537.011	87.69
537.225	96.69
537.44	105.69
537.654	83.69
537.868	97.69
538.082	97.69
538.296	82.69
538.51	96.69
538.724	75.69
538.938	89.69
539.153	103.69
539.367	126.69
539.581	102.69
539.795	73.69
540.009	87.69
540.222	96.69
540.436	81.69
540.65	100.69
540.864	100.69
541.078	100.69
541.292	99.69
541.506	99.69
541.72	89.69
541.934	92.69
542.147	101.69
542.361	97.69
542.575	98.69
542.789	99.69
543.002	78.69
543.216	103.69
543.43	94.69
543.644	97.69
543.857	93.69
544.071	92.69
544.285	90.69
544.498	93.69
544.712	78.69
544.925	87.69
545.139	85.69
545.352	86.69
545.566	82.69
545.779	99.69
545.993	87.69
546.206	80.69
546.42	84.69
546.633	80.69
546.847	100.69
547.06	103.69
547.274	91.69
547.487	87.69
547.7	81.69
547.914	84.69
548.127	80.69
548.34	98.69
548.554	91.69
548.767	94.69
548.98	88.69
549.193	95.69
549.407	84.69
549.62	96.69
549.833	87.69
550.046	88.69
550.259	83.69
550.473	84.69
550.686	80.69
550.899	82.69
551.112	83.69
551.325	94.69
551.538	102.69
551.751	95.69
551.964	86.69
552.177	87.69
552.39	83.69
552.603	96.69
552.816	94.69
553.029	100.69
553.242	93.69
553.455	108.69
553.667	136.69
553.88	123.69
554.093	105.69
554.306	129.69
554.519	139.69
554.732	96.69
554.944	100.69
555.157	100.69
555.37	96.69
555.583	107.69
555.795	87.69
556.008	98.69
556.221	93.69
556.433	90.69
556.646	89.69
556.859	98.69
557.071	85.69
557.284	99.69
557.496	78.69
557.709	80.69
557.921	95.69
558.134	95.69
558.346	88.69
558.559	82.69
558.771	74.69
558.984	92.69
559.196	89.69
559.409	73.69
559.621	81.69
559.833	86.69
560.046	93.69
560.258	122.69
560.47	150.69
560.683	124.69
560.895	99.69
561.107	106.69
561.32	89.69
561.532	95.69
561.744	96.69
561.956	87.69
562.168	102.69
562.381	104.69
562.593	98.69
562.805	92.69
563.017	89.69
563.229	84.69
563.441	87.69
563.653	91.69
563.865	81.69
564.077	86.69
564.289	91.69
564.501	87.69
564.713	102.69
564.925	94.69
565.137	113.69
565.349	100.69
565.561	98.69
565.773	93.69
565.985	83.69
566.197	96.69
566.408	83.69
566.62	86.69
566.832	87.69
567.044	82.69
567.255	88.69
567.467	93.69
567.679	90.69
567.891	94.69
568.102	86.69
568.314	82.69
568.526	88.69
568.737	92.69
568.949	86.69
569.161	79.69
569.372	96.69
569.584	93.69
569.795	103.69
570.007	135.69
570.218	329.69
570.43	150.69
570.641	99.69
570.853	90.69
571.064	87.69
571.276	89.69
571.487	94.69
571.698	105.69
571.91	87.69
572.121	70.69
572.333	90.69
572.544	87.69
572.755	92.69
572.966	87.69
573.178	90.69
573.389	91.69
573.6	83.69
573.811	82.69
574.023	70.69
574.234	99.69
574.445	96.69
574.656	86.69
574.867	77.69
575.078	75.69
575.289	96.69
575.501	91.69
575.712	87.69
575.923	88.69
576.134	96.69
576.345	86.69
576.556	78.69
576.767	94.69
576.978	83.69
577.188	94.69
577.399	94.69
577.61	96.69
577.821	112.69
578.032	128.69
578.243	350.69
578.454	1160.69
578.665	280.69
578.875	116.69
579.086	92.69
579.297	86.69
579.508	87.69
579.718	87.69
579.929	86.69
580.14	83.69
580.35	76.69
580.561	89.69
580.772	79.69
580.982	69.69
581.193	82.69
581.403	88.69
581.614	73.69
581.825	82.69
582.035	79.69
582.246	101.69
582.456	82.69
582.667	89.69
582.877	90.69
583.087	94.69
583.298	79.69
583.508	88.69
583.719	85.69
583.929	78.69
584.139	108.69
584.35	95.69
584.56	83.69
584.77	76.69
584.981	85.69
585.191	94.69
585.401	97.69
585.611	83.69
585.821	97.69
586.032	91.69
586.242	99.69
586.452	90.69
586.662	93.69
586.872	75.69
587.082	80.69
587.292	84.69
587.502	92.69
587.713	89.69
587.923	82.69
588.133	84.69
588.343	93.69
588.553	82.69
588.762	67.69
588.972	88.69
589.182	155.69
589.392	115.69
589.602	94.69
589.812	127.69
590.022	93.69
590.232	65.69
590.441	85.69
590.651	83.69
590.861	76.69
591.071	89.69
591.281	83.69
591.49	87.69
591.7	73.69
591.91	80.69
592.119	72.69
592.329	72.69
592.539	100.69
592.748	76.69
592.958	82.69
593.167	88.69
593.377	82.69
593.587	90.69
593.796	92.69
594.006	81.69
594.215	86.69
594.424	82.69
594.634	76.69
594.843	80.69
595.053	80.69
595.262	78.69
595.472	77.69
595.681	83.69
595.89	73.69
596.1	87.69
596.309	72.69
596.518	84.69
596.727	95.69
596.937	94.69
597.146	91.69
597.355	95.69
597.564	89.69
597.774	96.69
597.983	92.69
598.192	72.69
598.401	84.69
598.61	93.69
598.819	86.69
599.028	83.69
599.237	83.69
599.446	80.69
599.655	72.69
599.864	88.69
600.073	71.69
600.282	88.69
600.491	79.69
600.7	85.69
600.909	81.69
601.118	85.69
601.327	91.69
601.536	88.69
601.745	75.69
601.953	89.69
602.162	84.69
602.371	102.69
602.58	80.69
602.789	89.69
602.997	84.69
603.206	96.69
603.415	91.69
603.623	76.69
603.832	100.69
604.041	90.69
604.249	83.69
604.458	77.69
604.666	93.69
604.875	79.69
605.084	88.69
605.292	87.69
605.501	78.69
605.709	80.69
605.918	89.69
606.126	91.69
606.334	95.69
606.543	84.69
606.751	81.69
606.96	74.69
607.168	76.69
607.376	87.69
607.585	69.69
607.793	75.69
608.001	79.69
608.21	79.69
608.418	92.69
608.626	84.69
608.834	86.69
609.043	70.69
609.251	84.69
609.459	84.69
609.667	89.69
609.875	81.69
610.083	87.69
610.291	87.69
610.499	78.69
610.707	86.69
610.916	84.69
611.124	91.69
611.332	91.69
611.54	79.69
611.748	81.69
611.955	92.69
612.163	92.69
612.371	98.69
612.579	71.69
612.787	77.69
612.995	86.69
613.203	101.69
613.411	83.69
613.618	70.69
613.826	75.69
614.034	91.69
614.242	89.69
614.449	78.69
614.657	77.69
614.865	75.69
615.072	78.69
615.28	87.69
615.488	98.69
615.695	87.69
615.903	92.69
616.111	89.69
616.318	99.69
616.526	92.69
616.733	97.69
616.941	79.69
617.148	93.69
617.356	77.69
617.563	82.69
617.771	82.69
617.978	91.69
618.185	91.69
618.393	88.69
618.6	91.69
618.807	89.69
619.015	82.69
619.222	90.69
619.429	72.69
619.637	84.69
619.844	92.69
620.051	86.69
620.258	86.69
620.466	74.69
620.673	74.69
620.88	89.69
621.087	80.69
621.294	80.69
621.501	84.69
621.708	74.69
621.915	93.69
622.122	85.69
622.329	86.69
622.536	74.69
622.743	82.69
622.95	94.69
623.157	81.69
623.364	88.69
623.571	95.69
623.778	71.69
623.985	85.69
624.192	99.69
624.399	79.69
624.606	71.69
624.812	95.69
625.019	83.69
625.226	79.69
625.433	97.69
625.639	100.69
625.846	92.69
626.053	80.69
626.259	77.69
626.466	97.69
626.673	95.69
626.879	76.69
627.086	74.69
627.293	75.69
627.499	88.69
627.706	94.69
627.912	83.69
628.119	80.69
628.325	86.69
628.532	82.69
628.738	65.69
628.945	77.69
629.151	79.69
629.357	93.69
629.564	67.69
629.77	69.69
629.976	94.69
630.183	88.69
630.389	72.69
630.595	91.69
630.802	80.69
631.008	92.69
631.214	83.69
631.42	80.69
631.627	83.69
631.833	69.69
632.039	78.69
632.245	70.69
632.451	94.69
632.657	70.69
632.863	68.69
633.069	76.69
633.275	83.69
633.481	77.69
633.688	83.69
633.893	78.69
634.099	80.69
634.305	76.69
634.511	90.69
634.717	75.69
634.923	96.69
635.129	75.69
635.335	76.69
635.541	89.69
635.747	85.69
635.952	103.69
636.158	164.69
636.364	543.69
636.57	441.69
636.775	156.69
636.981	90.69
637.187	86.69
637.392	88.69
637.598	87.69
637.804	84.69
638.009	76.69
638.215	79.69
638.421	102.69
638.626	82.69
638.832	92.69
639.037	81.69
639.243	88.69
639.448	78.69
639.654	99.69
639.859	76.69
640.065	72.69
640.27	88.69
640.475	78.69
640.681	72.69
640.886	89.69
641.091	79.69
641.297	83.69
641.502	86.69
641.707	84.69
641.913	84.69
642.118	80.69
642.323	78.69
642.528	83.69
642.733	87.69
642.939	73.69
643.144	90.69
643.349	83.69
643.554	66.69
643.759	71.69
643.964	86.69
644.169	97.69
644.374	88.69
644.579	84.69
644.784	99.69
644.989	83.69
645.194	93.69
645.399	88.69
645.604	76.69
645.809	87.69
646.014	88.69
646.219	81.69
646.423	82.69
646.628	79.69
646.833	83.69
647.038	94.69
647.243	90.69
647.447	84.69
647.652	74.69
647.857	94.69
648.062	74.69
648.266	95.69
648.471	82.69
648.676	88.69
648.88	92.69
649.085	85.69
649.289	95.69
649.494	103.69
649.698	150.69
649.903	105.69
650.107	79.69
650.312	79.69
650.516	85.69
650.721	95.69
650.925	92.69
651.13	71.69
651.334	102.69
651.539	79.69
651.743	93.69
651.947	89.69
652.152	81.69
652.356	87.69
652.56	81.69
652.764	89.69
652.969	77.69
653.173	87.69
653.377	83.69
653.581	70.69
653.785	84.69
653.99	82.69
654.194	79.69
654.398	75.69
654.602	101.69
654.806	83.69
655.01	115.69
655.214	87.69
655.418	79.69
655.622	81.69
655.826	74.69
656.03	80.69
656.234	91.69
656.438	90.69
656.642	102.69
656.846	88.69
657.049	83.69
657.253	86.69
657.457	86.69
657.661	83.69
657.865	80.69
658.068	83.69
658.272	84.69
658.476	80.69
658.68	85.69
658.883	77.69
659.087	84.69
659.291	74.69
659.494	76.69
659.698	74.69
659.901	81.69
660.105	73.69
660.309	77.69
660.512	76.69
660.716	77.69
660.919	68.69
661.123	75.69
661.326	80.69
661.53	85.69
661.733	75.69
661.936	83.69
662.14	78.69
662.343	89.69
662.546	76.69
662.75	81.69
662.953	70.69
663.156	75.69
663.36	79.69
663.563	81.69
663.766	71.69
663.969	83.69
664.173	78.69
664.376	79.69
664.579	68.69
664.782	72.69
664.985	75.69
665.188	79.69
665.391	84.69
665.594	71.69
665.797	68.69
666	84.69
666.203	72.69
666.406	78.69
666.609	86.69
666.812	79.69
667.015	85.69
667.218	88.69
667.421	87.69
667.624	81.69
667.827	84.69
668.03	79.69
668.232	59.69
668.435	63.69
668.638	67.69
668.841	83.69
669.043	78.69
669.246	84.69
669.449	83.69
669.651	90.69
669.854	81.69
670.057	78.69
670.259	81.69
670.462	79.69
670.665	69.69
670.867	81.69
671.07	80.69
671.272	80.69
671.475	89.69
671.677	74.69
671.88	75.69
672.082	73.69
672.284	72.69
672.487	67.69
672.689	75.69
672.892	88.69
