Data from Circ_1998_H10_HRD10591_00090.txt Node
Date: Wed Jan 03 11:27:06 EST 2024
User: Yrep
Spectrometer: HR+D1059
Trigger mode: 1
Integration Time (sec): 1.000000E-1
Scans to average: 1
Electric dark correction enabled: true
Nonlinearity correction enabled: false
Boxcar width: 0
XAxis mode: Wavelengths
Number of Pixels in Spectrum: 2048
>>>>>Begin Spectral Data<<<<<
223.165	-14.12
223.4	-14.12
223.635	-14.12
223.869	-34.12
224.104	-27.12
224.338	-8.12
224.573	-29.12
224.808	-7.12
225.042	-11.12
225.277	-4.12
225.511	9.88
225.746	6.88
225.98	7.88
226.215	15.88
226.449	15.88
226.683	11.88
226.918	28.88
227.152	37.88
227.387	21.88
227.621	37.88
227.856	49.88
228.09	38.88
228.324	57.88
228.559	57.88
228.793	45.88
229.027	49.88
229.262	71.88
229.496	90.88
229.73	105.88
229.964	100.88
230.199	69.88
230.433	66.88
230.667	75.88
230.901	82.88
231.136	70.88
231.37	84.88
231.604	87.88
231.838	70.88
232.072	83.88
232.306	68.88
232.541	73.88
232.775	73.88
233.009	87.88
233.243	77.88
233.477	90.88
233.711	77.88
233.945	81.88
234.179	65.88
234.413	64.88
234.647	72.88
234.881	69.88
235.115	78.88
235.349	81.88
235.583	69.88
235.817	73.88
236.051	70.88
236.285	71.88
236.519	86.88
236.753	73.88
236.987	92.88
237.221	92.88
237.455	89.88
237.689	80.88
237.922	63.88
238.156	77.88
238.39	74.88
238.624	71.88
238.858	64.88
239.091	86.88
239.325	86.88
239.559	65.88
239.793	69.88
240.027	70.88
240.26	71.88
240.494	92.88
240.728	70.88
240.961	68.88
241.195	84.88
241.429	74.88
241.662	57.88
241.896	71.88
242.13	77.88
242.363	62.88
242.597	87.88
242.83	84.88
243.064	81.88
243.298	83.88
243.531	83.88
243.765	68.88
243.998	77.88
244.232	83.88
244.465	85.88
244.699	79.88
244.932	76.88
245.166	99.88
245.399	75.88
245.633	83.88
245.866	84.88
246.099	69.88
246.333	77.88
246.566	73.88
246.8	74.88
247.033	83.88
247.266	73.88
247.5	84.88
247.733	87.88
247.966	72.88
248.2	75.88
248.433	76.88
248.666	77.88
248.899	82.88
249.133	93.88
249.366	113.88
249.599	116.88
249.832	80.88
250.066	85.88
250.299	94.88
250.532	99.88
250.765	73.88
250.998	73.88
251.231	82.88
251.465	88.88
251.698	92.88
251.931	93.88
252.164	94.88
252.397	84.88
252.63	72.88
252.863	61.88
253.096	80.88
253.329	73.88
253.562	77.88
253.795	84.88
254.028	75.88
254.261	92.88
254.494	85.88
254.727	76.88
254.96	97.88
255.193	81.88
255.426	75.88
255.659	82.88
255.892	76.88
256.124	94.88
256.357	72.88
256.59	74.88
256.823	101.88
257.056	90.88
257.289	88.88
257.521	99.88
257.754	83.88
257.987	85.88
258.22	95.88
258.452	100.88
258.685	111.88
258.918	93.88
259.151	76.88
259.383	86.88
259.616	76.88
259.849	77.88
260.081	80.88
260.314	77.88
260.547	83.88
260.779	99.88
261.012	125.88
261.244	125.88
261.477	101.88
261.71	107.88
261.942	131.88
262.175	152.88
262.407	103.88
262.64	72.88
262.872	54.88
263.105	85.88
263.337	74.88
263.57	88.88
263.802	92.88
264.035	75.88
264.267	70.88
264.499	72.88
264.732	83.88
264.964	82.88
265.197	70.88
265.429	85.88
265.661	73.88
265.894	73.88
266.126	69.88
266.358	82.88
266.591	91.88
266.823	87.88
267.055	87.88
267.287	77.88
267.52	85.88
267.752	82.88
267.984	92.88
268.216	91.88
268.448	85.88
268.681	86.88
268.913	89.88
269.145	77.88
269.377	91.88
269.609	82.88
269.841	81.88
270.073	84.88
270.306	79.88
270.538	89.88
270.77	85.88
271.002	99.88
271.234	85.88
271.466	104.88
271.698	85.88
271.93	93.88
272.162	86.88
272.394	88.88
272.626	73.88
272.858	82.88
273.09	83.88
273.322	75.88
273.553	75.88
273.785	69.88
274.017	82.88
274.249	84.88
274.481	90.88
274.713	95.88
274.945	97.88
275.176	77.88
275.408	94.88
275.64	123.88
275.872	130.88
276.104	118.88
276.335	99.88
276.567	127.88
276.799	181.88
277.031	213.88
277.262	253.88
277.494	187.88
277.726	113.88
277.957	100.88
278.189	88.88
278.421	89.88
278.652	95.88
278.884	89.88
279.115	89.88
279.347	86.88
279.579	117.88
279.81	174.88
280.042	286.88
280.273	402.88
280.505	254.88
280.736	112.88
280.968	92.88
281.199	97.88
281.431	99.88
281.662	84.88
281.894	83.88
282.125	105.88
282.356	145.88
282.588	183.88
282.819	128.88
283.051	92.88
283.282	87.88
283.513	92.88
283.745	87.88
283.976	75.88
284.207	83.88
284.439	87.88
284.67	101.88
284.901	63.88
285.132	84.88
285.364	68.88
285.595	84.88
285.826	93.88
286.057	99.88
286.288	73.88
286.52	77.88
286.751	90.88
286.982	87.88
287.213	96.88
287.444	85.88
287.675	90.88
287.906	87.88
288.138	83.88
288.369	99.88
288.6	91.88
288.831	98.88
289.062	105.88
289.293	89.88
289.524	104.88
289.755	84.88
289.986	85.88
290.217	84.88
290.448	84.88
290.679	88.88
290.91	84.88
291.141	85.88
291.371	83.88
291.602	91.88
291.833	88.88
292.064	82.88
292.295	81.88
292.526	91.88
292.757	87.88
292.987	91.88
293.218	90.88
293.449	79.88
293.68	92.88
293.91	94.88
294.141	103.88
294.372	84.88
294.603	87.88
294.833	87.88
295.064	79.88
295.295	76.88
295.525	88.88
295.756	113.88
295.987	141.88
296.217	182.88
296.448	170.88
296.679	92.88
296.909	81.88
297.14	99.88
297.37	94.88
297.601	84.88
297.831	96.88
298.062	90.88
298.292	88.88
298.523	69.88
298.753	73.88
298.984	92.88
299.214	70.88
299.445	87.88
299.675	97.88
299.905	107.88
300.136	96.88
300.366	94.88
300.597	83.88
300.827	99.88
301.057	101.88
301.288	114.88
301.518	93.88
301.748	113.88
301.979	127.88
302.209	96.88
302.439	87.88
302.669	92.88
302.9	92.88
303.13	103.88
303.36	114.88
303.59	138.88
303.82	150.88
304.051	116.88
304.281	92.88
304.511	85.88
304.741	85.88
304.971	92.88
305.201	82.88
305.431	77.88
305.661	78.88
305.891	85.88
306.121	99.88
306.352	111.88
306.582	130.88
306.812	122.88
307.042	143.88
307.272	197.88
307.502	236.88
307.731	231.88
307.961	138.88
308.191	105.88
308.421	94.88
308.651	104.88
308.881	85.88
309.111	87.88
309.341	93.88
309.571	98.88
309.8	106.88
310.03	116.88
310.26	98.88
310.49	110.88
310.72	102.88
310.949	112.88
311.179	119.88
311.409	99.88
311.639	94.88
311.868	96.88
312.098	85.88
312.328	115.88
312.557	131.88
312.787	125.88
313.017	108.88
313.246	95.88
313.476	81.88
313.706	84.88
313.935	99.88
314.165	111.88
314.394	111.88
314.624	103.88
314.853	94.88
315.083	101.88
315.312	92.88
315.542	87.88
315.771	101.88
316.001	86.88
316.23	96.88
316.46	84.88
316.689	91.88
316.919	92.88
317.148	95.88
317.377	108.88
317.607	91.88
317.836	99.88
318.065	104.88
318.295	93.88
318.524	90.88
318.753	96.88
318.983	90.88
319.212	89.88
319.441	127.88
319.67	121.88
319.9	88.88
320.129	99.88
320.358	99.88
320.587	101.88
320.816	115.88
321.046	104.88
321.275	105.88
321.504	102.88
321.733	106.88
321.962	110.88
322.191	118.88
322.42	129.88
322.649	118.88
322.878	134.88
323.108	142.88
323.337	151.88
323.566	175.88
323.795	223.88
324.024	313.88
324.253	617.88
324.482	1420.88
324.71	3123.88
324.939	4179.88
325.168	1428.88
325.397	369.88
325.626	193.88
325.855	164.88
326.084	167.88
326.313	193.88
326.542	222.88
326.77	334.88
326.999	705.88
327.228	1546.88
327.457	2970.88
327.686	2371.88
327.914	807.88
328.143	821.88
328.372	1090.88
328.6	583.88
328.829	249.88
329.058	220.88
329.287	238.88
329.515	213.88
329.744	385.88
329.972	778.88
330.201	1715.88
330.43	2575.88
330.658	1030.88
330.887	380.88
331.115	235.88
331.344	149.88
331.572	118.88
331.801	129.88
332.03	147.88
332.258	130.88
332.486	129.88
332.715	121.88
332.943	110.88
333.172	131.88
333.4	156.88
333.629	197.88
333.857	328.88
334.085	681.88
334.314	1567.88
334.542	3240.88
334.771	2923.88
334.999	682.88
335.227	225.88
335.455	154.88
335.684	125.88
335.912	120.88
336.14	125.88
336.369	109.88
336.597	99.88
336.825	117.88
337.053	97.88
337.281	85.88
337.51	94.88
337.738	115.88
337.966	93.88
338.194	111.88
338.422	117.88
338.65	106.88
338.878	96.88
339.106	89.88
339.334	96.88
339.562	108.88
339.79	90.88
340.018	81.88
340.246	92.88
340.474	102.88
340.702	99.88
340.93	90.88
341.158	98.88
341.386	108.88
341.614	118.88
341.842	115.88
342.07	93.88
342.298	98.88
342.526	92.88
342.754	81.88
342.981	91.88
343.209	87.88
343.437	94.88
343.665	87.88
343.893	97.88
344.12	86.88
344.348	103.88
344.576	98.88
344.804	91.88
345.031	91.88
345.259	108.88
345.487	99.88
345.714	98.88
345.942	95.88
346.17	86.88
346.397	95.88
346.625	95.88
346.853	100.88
347.08	91.88
347.308	89.88
347.535	113.88
347.763	115.88
347.99	99.88
348.218	117.88
348.445	122.88
348.673	125.88
348.9	95.88
349.128	93.88
349.355	85.88
349.583	92.88
349.81	91.88
350.037	103.88
350.265	79.88
350.492	105.88
350.72	106.88
350.947	101.88
351.174	129.88
351.402	113.88
351.629	101.88
351.856	100.88
352.083	99.88
352.311	115.88
352.538	121.88
352.765	130.88
352.992	121.88
353.22	127.88
353.447	108.88
353.674	98.88
353.901	92.88
354.128	100.88
354.355	98.88
354.583	105.88
354.81	92.88
355.037	80.88
355.264	81.88
355.491	94.88
355.718	86.88
355.945	93.88
356.172	86.88
356.399	98.88
356.626	93.88
356.853	82.88
357.08	91.88
357.307	82.88
357.534	75.88
357.761	92.88
357.988	84.88
358.215	77.88
358.441	89.88
358.668	91.88
358.895	79.88
359.122	85.88
359.349	95.88
359.576	92.88
359.802	110.88
360.029	154.88
360.256	147.88
360.483	137.88
360.709	93.88
360.936	101.88
361.163	93.88
361.39	108.88
361.616	111.88
361.843	93.88
362.07	105.88
362.296	105.88
362.523	95.88
362.749	90.88
362.976	85.88
363.203	100.88
363.429	97.88
363.656	89.88
363.882	78.88
364.109	90.88
364.335	87.88
364.562	86.88
364.788	79.88
365.015	90.88
365.241	110.88
365.468	103.88
365.694	120.88
365.92	106.88
366.147	94.88
366.373	74.88
366.599	85.88
366.826	81.88
367.052	87.88
367.278	105.88
367.505	86.88
367.731	88.88
367.957	89.88
368.184	104.88
368.41	125.88
368.636	119.88
368.862	126.88
369.089	113.88
369.315	90.88
369.541	99.88
369.767	92.88
369.993	107.88
370.219	90.88
370.445	89.88
370.672	71.88
370.898	93.88
371.124	79.88
371.35	77.88
371.576	67.88
371.802	83.88
372.028	77.88
372.254	85.88
372.48	76.88
372.706	81.88
372.932	90.88
373.158	77.88
373.384	91.88
373.61	98.88
373.835	101.88
374.061	92.88
374.287	81.88
374.513	84.88
374.739	77.88
374.965	82.88
375.191	83.88
375.416	62.88
375.642	76.88
375.868	90.88
376.094	80.88
376.319	79.88
376.545	73.88
376.771	77.88
376.997	91.88
377.222	89.88
377.448	87.88
377.674	92.88
377.899	77.88
378.125	93.88
378.35	103.88
378.576	88.88
378.802	100.88
379.027	94.88
379.253	86.88
379.478	86.88
379.704	92.88
379.929	86.88
380.155	97.88
380.38	99.88
380.606	92.88
380.831	90.88
381.057	93.88
381.282	101.88
381.507	97.88
381.733	91.88
381.958	95.88
382.184	89.88
382.409	104.88
382.634	87.88
382.86	85.88
383.085	93.88
383.31	86.88
383.535	99.88
383.761	89.88
383.986	90.88
384.211	84.88
384.436	92.88
384.662	94.88
384.887	84.88
385.112	96.88
385.337	101.88
385.562	90.88
385.787	90.88
386.013	104.88
386.238	122.88
386.463	95.88
386.688	109.88
386.913	93.88
387.138	93.88
387.363	91.88
387.588	80.88
387.813	97.88
388.038	101.88
388.263	89.88
388.488	93.88
388.713	93.88
388.938	73.88
389.163	85.88
389.387	88.88
389.612	79.88
389.837	81.88
390.062	91.88
390.287	92.88
390.512	85.88
390.736	86.88
390.961	82.88
391.186	100.88
391.411	93.88
391.636	89.88
391.86	73.88
392.085	78.88
392.31	74.88
392.534	84.88
392.759	80.88
392.984	82.88
393.208	80.88
393.433	89.88
393.658	89.88
393.882	62.88
394.107	80.88
394.331	75.88
394.556	82.88
394.78	90.88
395.005	90.88
395.229	75.88
395.454	91.88
395.678	81.88
395.903	94.88
396.127	85.88
396.352	82.88
396.576	78.88
396.801	91.88
397.025	91.88
397.249	81.88
397.474	73.88
397.698	73.88
397.922	77.88
398.147	91.88
398.371	85.88
398.595	84.88
398.82	73.88
399.044	88.88
399.268	82.88
399.492	74.88
399.717	91.88
399.941	90.88
400.165	100.88
400.389	100.88
400.613	82.88
400.837	81.88
401.062	93.88
401.286	88.88
401.51	106.88
401.734	89.88
401.958	98.88
402.182	157.88
402.406	204.88
402.63	155.88
402.854	107.88
403.078	100.88
403.302	88.88
403.526	97.88
403.75	85.88
403.974	93.88
404.198	74.88
404.422	93.88
404.645	95.88
404.869	113.88
405.093	124.88
405.317	157.88
405.541	150.88
405.765	131.88
405.988	153.88
406.212	253.88
406.436	353.88
406.66	236.88
406.883	127.88
407.107	91.88
407.331	97.88
407.555	107.88
407.778	102.88
408.002	91.88
408.226	97.88
408.449	78.88
408.673	87.88
408.896	86.88
409.12	101.88
409.344	85.88
409.567	91.88
409.791	74.88
410.014	91.88
410.238	77.88
410.461	90.88
410.685	87.88
410.908	94.88
411.132	107.88
411.355	94.88
411.578	103.88
411.802	89.88
412.025	90.88
412.249	102.88
412.472	114.88
412.695	159.88
412.919	106.88
413.142	98.88
413.365	86.88
413.589	101.88
413.812	85.88
414.035	83.88
414.258	72.88
414.482	71.88
414.705	77.88
414.928	107.88
415.151	101.88
415.374	98.88
415.597	90.88
415.821	78.88
416.044	90.88
416.267	93.88
416.49	92.88
416.713	87.88
416.936	86.88
417.159	100.88
417.382	93.88
417.605	106.88
417.828	104.88
418.051	97.88
418.274	101.88
418.497	82.88
418.72	84.88
418.943	92.88
419.166	92.88
419.389	85.88
419.611	91.88
419.834	84.88
420.057	96.88
420.28	95.88
420.503	96.88
420.726	94.88
420.948	95.88
421.171	101.88
421.394	97.88
421.617	86.88
421.839	85.88
422.062	97.88
422.285	94.88
422.507	114.88
422.73	126.88
422.953	90.88
423.175	84.88
423.398	95.88
423.621	77.88
423.843	70.88
424.066	87.88
424.288	78.88
424.511	99.88
424.733	100.88
424.956	107.88
425.178	114.88
425.401	115.88
425.623	114.88
425.846	105.88
426.068	107.88
426.291	108.88
426.513	87.88
426.735	103.88
426.958	98.88
427.18	137.88
427.402	208.88
427.625	325.88
427.847	316.88
428.069	318.88
428.292	157.88
428.514	103.88
428.736	86.88
428.958	95.88
429.181	86.88
429.403	84.88
429.625	80.88
429.847	92.88
430.069	112.88
430.292	104.88
430.514	82.88
430.736	87.88
430.958	72.88
431.18	93.88
431.402	86.88
431.624	94.88
431.846	95.88
432.068	80.88
432.29	90.88
432.512	78.88
432.734	91.88
432.956	80.88
433.178	107.88
433.4	99.88
433.622	94.88
433.844	84.88
434.066	96.88
434.287	85.88
434.509	95.88
434.731	104.88
434.953	95.88
435.175	93.88
435.397	95.88
435.618	85.88
435.84	110.88
436.062	157.88
436.284	141.88
436.505	114.88
436.727	114.88
436.949	84.88
437.17	96.88
437.392	87.88
437.614	90.88
437.835	126.88
438.057	149.88
438.278	136.88
438.5	124.88
438.721	146.88
438.943	110.88
439.165	95.88
439.386	83.88
439.608	93.88
439.829	111.88
440.05	168.88
440.272	252.88
440.493	126.88
440.715	102.88
440.936	91.88
441.158	96.88
441.379	95.88
441.6	114.88
441.822	96.88
442.043	108.88
442.264	115.88
442.486	117.88
442.707	92.88
442.928	130.88
443.149	188.88
443.371	197.88
443.592	135.88
443.813	147.88
444.034	123.88
444.255	96.88
444.476	89.88
444.698	93.88
444.919	93.88
445.14	136.88
445.361	129.88
445.582	143.88
445.803	222.88
446.024	186.88
446.245	223.88
446.466	146.88
446.687	93.88
446.908	94.88
447.129	100.88
447.35	90.88
447.571	98.88
447.792	87.88
448.013	109.88
448.234	122.88
448.455	113.88
448.675	131.88
448.896	133.88
449.117	120.88
449.338	132.88
449.559	150.88
449.779	176.88
450	107.88
450.221	96.88
450.442	105.88
450.662	112.88
450.883	141.88
451.104	156.88
451.324	98.88
451.545	86.88
451.766	85.88
451.986	89.88
452.207	84.88
452.428	92.88
452.648	122.88
452.869	124.88
453.089	146.88
453.31	156.88
453.53	89.88
453.751	101.88
453.971	122.88
454.192	137.88
454.412	115.88
454.633	95.88
454.853	69.88
455.073	99.88
455.294	90.88
455.514	116.88
455.734	105.88
455.955	78.88
456.175	73.88
456.395	78.88
456.616	83.88
456.836	92.88
457.056	93.88
457.276	79.88
457.497	83.88
457.717	92.88
457.937	106.88
458.157	89.88
458.377	106.88
458.598	134.88
458.818	215.88
459.038	266.88
459.258	155.88
459.478	97.88
459.698	83.88
459.918	90.88
460.138	77.88
460.358	84.88
460.578	77.88
460.798	91.88
461.018	101.88
461.238	73.88
461.458	93.88
461.678	92.88
461.898	83.88
462.118	73.88
462.338	91.88
462.558	101.88
462.777	93.88
462.997	95.88
463.217	117.88
463.437	95.88
463.657	94.88
463.876	96.88
464.096	86.88
464.316	97.88
464.536	101.88
464.755	104.88
464.975	134.88
465.195	271.88
465.414	285.88
465.634	109.88
465.854	92.88
466.073	93.88
466.293	88.88
466.512	93.88
466.732	109.88
466.951	101.88
467.171	107.88
467.391	122.88
467.61	179.88
467.829	317.88
468.049	983.88
468.268	1483.88
468.488	344.88
468.707	131.88
468.927	92.88
469.146	104.88
469.365	90.88
469.585	98.88
469.804	113.88
470.023	121.88
470.243	107.88
470.462	131.88
470.681	157.88
470.901	118.88
471.12	110.88
471.339	108.88
471.558	141.88
471.777	190.88
471.997	478.88
472.216	1959.88
472.435	4586.88
472.654	961.88
472.873	227.88
473.092	130.88
473.311	99.88
473.53	94.88
473.749	95.88
473.968	121.88
474.187	119.88
474.406	119.88
474.625	105.88
474.844	90.88
475.063	87.88
475.282	95.88
475.501	83.88
475.72	77.88
475.939	100.88
476.158	94.88
476.377	99.88
476.596	103.88
476.814	107.88
477.033	101.88
477.252	82.88
477.471	93.88
477.69	94.88
477.908	89.88
478.127	106.88
478.346	105.88
478.564	105.88
478.783	124.88
479.002	113.88
479.22	110.88
479.439	140.88
479.658	160.88
479.876	155.88
480.095	143.88
480.313	152.88
480.532	227.88
480.751	438.88
480.969	1752.88
481.188	7755.88
481.406	4322.88
481.624	558.88
481.843	177.88
482.061	121.88
482.28	117.88
482.498	98.88
482.717	95.88
482.935	101.88
483.153	97.88
483.372	90.88
483.59	85.88
483.808	90.88
484.027	83.88
484.245	100.88
484.463	93.88
484.681	100.88
484.9	102.88
485.118	103.88
485.336	98.88
485.554	103.88
485.772	114.88
485.99	106.88
486.209	113.88
486.427	124.88
486.645	134.88
486.863	133.88
487.081	107.88
487.299	103.88
487.517	99.88
487.735	91.88
487.953	99.88
488.171	89.88
488.389	103.88
488.607	121.88
488.825	92.88
489.043	84.88
489.261	89.88
489.479	101.88
489.696	99.88
489.914	82.88
490.132	95.88
490.35	87.88
490.568	94.88
490.786	85.88
491.003	98.88
491.221	89.88
491.439	97.88
491.657	101.88
491.874	89.88
492.092	90.88
492.31	98.88
492.527	101.88
492.745	101.88
492.963	95.88
493.18	83.88
493.398	101.88
493.615	85.88
493.833	93.88
494.05	86.88
494.268	96.88
494.485	83.88
494.703	90.88
494.92	88.88
495.138	97.88
495.355	97.88
495.573	93.88
495.79	76.88
496.008	85.88
496.225	95.88
496.442	101.88
496.66	92.88
496.877	95.88
497.094	85.88
497.312	75.88
497.529	89.88
497.746	97.88
497.963	88.88
498.181	93.88
498.398	92.88
498.615	127.88
498.832	114.88
499.049	91.88
499.267	94.88
499.484	95.88
499.701	94.88
499.918	108.88
500.135	78.88
500.352	83.88
500.569	93.88
500.786	92.88
501.003	89.88
501.22	92.88
501.437	85.88
501.654	103.88
501.871	123.88
502.088	102.88
502.305	74.88
502.522	94.88
502.739	103.88
502.956	93.88
503.172	98.88
503.389	121.88
503.606	126.88
503.823	121.88
504.04	94.88
504.256	92.88
504.473	77.88
504.69	91.88
504.907	71.88
505.123	84.88
505.34	87.88
505.557	82.88
505.773	90.88
505.99	81.88
506.207	88.88
506.423	99.88
506.64	90.88
506.856	92.88
507.073	93.88
507.289	94.88
507.506	92.88
507.722	149.88
507.939	146.88
508.155	94.88
508.372	101.88
508.588	89.88
508.805	101.88
509.021	95.88
509.238	104.88
509.454	105.88
509.67	98.88
509.887	134.88
510.103	137.88
510.319	265.88
510.536	1033.88
510.752	3871.88
510.968	1001.88
511.184	197.88
511.401	130.88
511.617	119.88
511.833	114.88
512.049	97.88
512.265	97.88
512.481	83.88
512.698	86.88
512.914	99.88
513.13	91.88
513.346	100.88
513.562	84.88
513.778	94.88
513.994	110.88
514.21	118.88
514.426	155.88
514.642	197.88
514.858	188.88
515.074	240.88
515.29	813.88
515.506	3034.88
515.721	1059.88
515.937	228.88
516.153	140.88
516.369	117.88
516.585	119.88
516.801	110.88
517.016	100.88
517.232	97.88
517.448	90.88
517.664	103.88
517.879	101.88
518.095	107.88
518.311	113.88
518.527	115.88
518.742	102.88
518.958	95.88
519.173	88.88
519.389	89.88
519.605	100.88
519.82	99.88
520.036	120.88
520.251	162.88
520.467	140.88
520.682	133.88
520.898	130.88
521.113	151.88
521.329	207.88
521.544	357.88
521.76	1137.88
521.975	5241.88
522.19	3047.88
522.406	577.88
522.621	173.88
522.836	119.88
523.052	111.88
523.267	106.88
523.482	99.88
523.698	115.88
523.913	135.88
524.128	132.88
524.343	104.88
524.559	98.88
524.774	91.88
524.989	108.88
525.204	119.88
525.419	104.88
525.634	82.88
525.849	94.88
526.064	82.88
526.28	95.88
526.495	92.88
526.71	84.88
526.925	105.88
527.14	92.88
527.355	95.88
527.57	86.88
527.785	89.88
527.999	86.88
528.214	90.88
528.429	107.88
528.644	95.88
528.859	87.88
529.074	89.88
529.289	166.88
529.503	317.88
529.718	143.88
529.933	100.88
530.148	81.88
530.363	89.88
530.577	95.88
530.792	101.88
531.007	89.88
531.221	101.88
531.436	83.88
531.651	92.88
531.865	76.88
532.08	86.88
532.295	93.88
532.509	95.88
532.724	96.88
532.938	99.88
533.153	78.88
533.367	90.88
533.582	94.88
533.796	82.88
534.011	101.88
534.225	82.88
534.44	96.88
534.654	90.88
534.868	78.88
535.083	100.88
535.297	92.88
535.511	103.88
535.726	103.88
535.94	85.88
536.154	92.88
536.369	89.88
536.583	90.88
536.797	83.88
537.011	91.88
537.225	82.88
537.44	100.88
537.654	83.88
537.868	93.88
538.082	104.88
538.296	99.88
538.51	109.88
538.724	75.88
538.938	71.88
539.153	97.88
539.367	118.88
539.581	105.88
539.795	90.88
540.009	77.88
540.222	78.88
540.436	94.88
540.65	90.88
540.864	101.88
541.078	114.88
541.292	90.88
541.506	79.88
541.72	88.88
541.934	77.88
542.147	86.88
542.361	92.88
542.575	96.88
542.789	81.88
543.002	84.88
543.216	85.88
543.43	115.88
543.644	92.88
543.857	91.88
544.071	100.88
544.285	101.88
544.498	92.88
544.712	91.88
544.925	84.88
545.139	83.88
545.352	80.88
545.566	83.88
545.779	86.88
545.993	87.88
546.206	89.88
546.42	82.88
546.633	89.88
546.847	88.88
547.06	89.88
547.274	92.88
547.487	91.88
547.7	79.88
547.914	86.88
548.127	77.88
548.34	91.88
548.554	81.88
548.767	99.88
548.98	87.88
549.193	88.88
549.407	82.88
549.62	87.88
549.833	94.88
550.046	68.88
550.259	84.88
550.473	89.88
550.686	92.88
550.899	93.88
551.112	87.88
551.325	101.88
551.538	92.88
551.751	87.88
551.964	86.88
552.177	101.88
552.39	73.88
552.603	81.88
552.816	91.88
553.029	92.88
553.242	94.88
553.455	101.88
553.667	125.88
553.88	118.88
554.093	103.88
554.306	132.88
554.519	149.88
554.732	110.88
554.944	104.88
555.157	85.88
555.37	91.88
555.583	111.88
555.795	111.88
556.008	87.88
556.221	96.88
556.433	73.88
556.646	75.88
556.859	98.88
557.071	87.88
557.284	77.88
557.496	90.88
557.709	87.88
557.921	84.88
558.134	95.88
558.346	100.88
558.559	93.88
558.771	85.88
558.984	79.88
559.196	76.88
559.409	80.88
559.621	83.88
559.833	92.88
560.046	86.88
560.258	114.88
560.47	166.88
560.683	125.88
560.895	95.88
561.107	92.88
561.32	94.88
561.532	89.88
561.744	80.88
561.956	91.88
562.168	92.88
562.381	91.88
562.593	95.88
562.805	87.88
563.017	73.88
563.229	97.88
563.441	88.88
563.653	83.88
563.865	83.88
564.077	86.88
564.289	75.88
564.501	92.88
564.713	84.88
564.925	101.88
565.137	114.88
565.349	73.88
565.561	87.88
565.773	83.88
565.985	93.88
566.197	79.88
566.408	86.88
566.62	74.88
566.832	82.88
567.044	94.88
567.255	83.88
567.467	104.88
567.679	74.88
567.891	103.88
568.102	83.88
568.314	74.88
568.526	76.88
568.737	81.88
568.949	81.88
569.161	86.88
569.372	91.88
569.584	87.88
569.795	94.88
570.007	123.88
570.218	316.88
570.43	180.88
570.641	99.88
570.853	83.88
571.064	82.88
571.276	91.88
571.487	79.88
571.698	74.88
571.91	81.88
572.121	88.88
572.333	77.88
572.544	84.88
572.755	84.88
572.966	76.88
573.178	72.88
573.389	93.88
573.6	70.88
573.811	86.88
574.023	83.88
574.234	100.88
574.445	87.88
574.656	84.88
574.867	104.88
575.078	96.88
575.289	93.88
575.501	90.88
575.712	83.88
575.923	81.88
576.134	89.88
576.345	79.88
576.556	86.88
576.767	88.88
576.978	90.88
577.188	86.88
577.399	90.88
577.61	80.88
577.821	97.88
578.032	131.88
578.243	355.88
578.454	1149.88
578.665	285.88
578.875	111.88
579.086	93.88
579.297	91.88
579.508	92.88
579.718	89.88
579.929	93.88
580.14	88.88
580.35	76.88
580.561	83.88
580.772	86.88
580.982	79.88
581.193	83.88
581.403	92.88
581.614	75.88
581.825	78.88
582.035	97.88
582.246	79.88
582.456	73.88
582.667	74.88
582.877	97.88
583.087	86.88
583.298	77.88
583.508	85.88
583.719	94.88
583.929	101.88
584.139	85.88
584.35	81.88
584.56	91.88
584.77	80.88
584.981	75.88
585.191	75.88
585.401	93.88
585.611	84.88
585.821	86.88
586.032	79.88
586.242	80.88
586.452	83.88
586.662	89.88
586.872	91.88
587.082	86.88
587.292	77.88
587.502	95.88
587.713	89.88
587.923	75.88
588.133	87.88
588.343	76.88
588.553	70.88
588.762	76.88
588.972	90.88
589.182	116.88
589.392	94.88
589.602	80.88
589.812	109.88
590.022	95.88
590.232	89.88
590.441	90.88
590.651	92.88
590.861	77.88
591.071	91.88
591.281	86.88
591.49	84.88
591.7	97.88
591.91	87.88
592.119	86.88
592.329	87.88
592.539	95.88
592.748	86.88
592.958	99.88
593.167	82.88
593.377	81.88
593.587	85.88
593.796	88.88
594.006	74.88
594.215	77.88
594.424	82.88
594.634	76.88
594.843	82.88
595.053	77.88
595.262	80.88
595.472	73.88
595.681	72.88
595.89	91.88
596.1	85.88
596.309	77.88
596.518	81.88
596.727	82.88
596.937	87.88
597.146	82.88
597.355	102.88
597.564	81.88
597.774	91.88
597.983	87.88
598.192	71.88
598.401	78.88
598.61	81.88
598.819	72.88
599.028	82.88
599.237	81.88
599.446	91.88
599.655	80.88
599.864	85.88
600.073	85.88
600.282	84.88
600.491	70.88
600.7	74.88
600.909	89.88
601.118	78.88
601.327	90.88
601.536	89.88
601.745	84.88
601.953	78.88
602.162	100.88
602.371	89.88
602.58	86.88
602.789	73.88
602.997	87.88
603.206	89.88
603.415	82.88
603.623	94.88
603.832	85.88
604.041	81.88
604.249	78.88
604.458	75.88
604.666	78.88
604.875	85.88
605.084	71.88
605.292	60.88
605.501	81.88
605.709	83.88
605.918	74.88
606.126	81.88
606.334	82.88
606.543	72.88
606.751	94.88
606.96	90.88
607.168	87.88
607.376	108.88
607.585	86.88
607.793	76.88
608.001	76.88
608.21	84.88
608.418	83.88
608.626	72.88
608.834	82.88
609.043	77.88
609.251	89.88
609.459	89.88
609.667	93.88
609.875	83.88
610.083	78.88
610.291	75.88
610.499	91.88
610.707	77.88
610.916	78.88
611.124	90.88
611.332	79.88
611.54	69.88
611.748	87.88
611.955	84.88
612.163	81.88
612.371	79.88
612.579	77.88
612.787	81.88
612.995	83.88
613.203	94.88
613.411	77.88
613.618	81.88
613.826	88.88
614.034	86.88
614.242	66.88
614.449	86.88
614.657	86.88
614.865	84.88
615.072	90.88
615.28	94.88
615.488	92.88
615.695	85.88
615.903	87.88
616.111	98.88
616.318	89.88
616.526	104.88
616.733	81.88
616.941	85.88
617.148	80.88
617.356	89.88
617.563	87.88
617.771	76.88
617.978	72.88
618.185	90.88
618.393	92.88
618.6	89.88
618.807	76.88
619.015	82.88
619.222	73.88
619.429	92.88
619.637	93.88
619.844	74.88
620.051	81.88
620.258	74.88
620.466	61.88
620.673	88.88
620.88	85.88
621.087	75.88
621.294	90.88
621.501	99.88
621.708	84.88
621.915	89.88
622.122	90.88
622.329	88.88
622.536	94.88
622.743	86.88
622.95	84.88
623.157	74.88
623.364	70.88
623.571	86.88
623.778	81.88
623.985	76.88
624.192	68.88
624.399	82.88
624.606	78.88
624.812	86.88
625.019	89.88
625.226	76.88
625.433	79.88
625.639	91.88
625.846	69.88
626.053	83.88
626.259	81.88
626.466	81.88
626.673	79.88
626.879	76.88
627.086	98.88
627.293	89.88
627.499	77.88
627.706	91.88
627.912	90.88
628.119	93.88
628.325	85.88
628.532	95.88
628.738	85.88
628.945	91.88
629.151	69.88
629.357	84.88
629.564	84.88
629.77	92.88
629.976	81.88
630.183	67.88
630.389	61.88
630.595	84.88
630.802	86.88
631.008	74.88
631.214	89.88
631.42	85.88
631.627	70.88
631.833	76.88
632.039	82.88
632.245	72.88
632.451	81.88
632.657	86.88
632.863	73.88
633.069	82.88
633.275	91.88
633.481	77.88
633.688	81.88
633.893	71.88
634.099	88.88
634.305	92.88
634.511	89.88
634.717	86.88
634.923	87.88
635.129	86.88
635.335	95.88
635.541	89.88
635.747	88.88
635.952	116.88
636.158	173.88
636.364	635.88
636.57	545.88
636.775	189.88
636.981	109.88
637.187	98.88
637.392	86.88
637.598	79.88
637.804	90.88
638.009	62.88
638.215	75.88
638.421	83.88
638.626	77.88
638.832	83.88
639.037	69.88
639.243	71.88
639.448	87.88
639.654	87.88
639.859	91.88
640.065	91.88
640.27	89.88
640.475	56.88
640.681	54.88
640.886	83.88
641.091	75.88
641.297	77.88
641.502	77.88
641.707	89.88
641.913	76.88
642.118	82.88
642.323	80.88
642.528	77.88
642.733	90.88
642.939	76.88
643.144	94.88
643.349	92.88
643.554	89.88
643.759	63.88
643.964	82.88
644.169	64.88
644.374	84.88
644.579	83.88
644.784	94.88
644.989	72.88
645.194	87.88
645.399	77.88
645.604	70.88
645.809	88.88
646.014	86.88
646.219	76.88
646.423	84.88
646.628	90.88
646.833	90.88
647.038	81.88
647.243	75.88
647.447	76.88
647.652	87.88
647.857	86.88
648.062	71.88
648.266	79.88
648.471	81.88
648.676	99.88
648.88	83.88
649.085	88.88
649.289	90.88
649.494	109.88
649.698	180.88
649.903	99.88
650.107	97.88
650.312	66.88
650.516	66.88
650.721	71.88
650.925	76.88
651.13	74.88
651.334	81.88
651.539	79.88
651.743	77.88
651.947	86.88
652.152	65.88
652.356	89.88
652.56	86.88
652.764	79.88
652.969	72.88
653.173	63.88
653.377	74.88
653.581	89.88
653.785	92.88
653.99	71.88
654.194	70.88
654.398	76.88
654.602	96.88
654.806	84.88
655.01	113.88
655.214	93.88
655.418	79.88
655.622	80.88
655.826	73.88
656.03	79.88
656.234	84.88
656.438	99.88
656.642	94.88
656.846	93.88
657.049	70.88
657.253	84.88
657.457	79.88
657.661	78.88
657.865	93.88
658.068	89.88
658.272	81.88
658.476	75.88
658.68	67.88
658.883	74.88
659.087	70.88
659.291	84.88
659.494	57.88
659.698	83.88
659.901	64.88
660.105	85.88
660.309	86.88
660.512	78.88
660.716	94.88
660.919	79.88
661.123	68.88
661.326	74.88
661.53	85.88
661.733	69.88
661.936	63.88
662.14	78.88
662.343	75.88
662.546	78.88
662.75	77.88
662.953	78.88
663.156	71.88
663.36	71.88
663.563	83.88
663.766	83.88
663.969	82.88
664.173	79.88
664.376	72.88
664.579	79.88
664.782	80.88
664.985	81.88
665.188	83.88
665.391	77.88
665.594	90.88
665.797	93.88
666	72.88
666.203	88.88
666.406	89.88
666.609	58.88
666.812	77.88
667.015	70.88
667.218	66.88
667.421	72.88
667.624	77.88
667.827	70.88
668.03	71.88
668.232	76.88
668.435	75.88
668.638	77.88
668.841	75.88
669.043	70.88
669.246	74.88
669.449	86.88
669.651	74.88
669.854	81.88
670.057	81.88
670.259	68.88
670.462	78.88
670.665	86.88
670.867	86.88
671.07	74.88
671.272	84.88
671.475	74.88
671.677	85.88
671.88	88.88
672.082	66.88
672.284	87.88
672.487	78.88
672.689	86.88
672.892	99.88
