Data from Uncirc_1995_H10_HRD10591_00038.txt Node
Date: Wed Jan 03 11:35:41 EST 2024
User: Yrep
Spectrometer: HR+D1059
Trigger mode: 1
Integration Time (sec): 1.000000E-1
Scans to average: 1
Electric dark correction enabled: true
Nonlinearity correction enabled: false
Boxcar width: 0
XAxis mode: Wavelengths
Number of Pixels in Spectrum: 2048
>>>>>Begin Spectral Data<<<<<
223.165	-8.44
223.4	-8.44
223.635	-8.44
223.869	-26.44
224.104	-16.44
224.338	-11.44
224.573	-20.44
224.808	-22.44
225.042	-22.44
225.277	-20.44
225.511	-9.44
225.746	18.56
225.98	6.56
226.215	20.56
226.449	32.56
226.683	24.56
226.918	29.56
227.152	25.56
227.387	42.56
227.621	42.56
227.856	34.56
228.09	40.56
228.324	50.56
228.559	40.56
228.793	53.56
229.027	71.56
229.262	70.56
229.496	62.56
229.73	77.56
229.964	79.56
230.199	79.56
230.433	80.56
230.667	83.56
230.901	70.56
231.136	89.56
231.37	70.56
231.604	74.56
231.838	92.56
232.072	99.56
232.306	84.56
232.541	72.56
232.775	83.56
233.009	72.56
233.243	90.56
233.477	83.56
233.711	90.56
233.945	80.56
234.179	76.56
234.413	74.56
234.647	79.56
234.881	69.56
235.115	82.56
235.349	99.56
235.583	77.56
235.817	80.56
236.051	74.56
236.285	79.56
236.519	87.56
236.753	74.56
236.987	75.56
237.221	83.56
237.455	85.56
237.689	70.56
237.922	88.56
238.156	85.56
238.39	84.56
238.624	83.56
238.858	66.56
239.091	80.56
239.325	90.56
239.559	93.56
239.793	72.56
240.027	73.56
240.26	90.56
240.494	86.56
240.728	78.56
240.961	82.56
241.195	59.56
241.429	78.56
241.662	85.56
241.896	79.56
242.13	73.56
242.363	80.56
242.597	79.56
242.83	70.56
243.064	79.56
243.298	83.56
243.531	72.56
243.765	71.56
243.998	87.56
244.232	78.56
244.465	68.56
244.699	91.56
244.932	70.56
245.166	80.56
245.399	86.56
245.633	86.56
245.866	84.56
246.099	90.56
246.333	85.56
246.566	68.56
246.8	56.56
247.033	83.56
247.266	67.56
247.5	70.56
247.733	86.56
247.966	81.56
248.2	71.56
248.433	86.56
248.666	73.56
248.899	88.56
249.133	80.56
249.366	92.56
249.599	100.56
249.832	67.56
250.066	76.56
250.299	75.56
250.532	82.56
250.765	71.56
250.998	74.56
251.231	71.56
251.465	74.56
251.698	78.56
251.931	88.56
252.164	69.56
252.397	68.56
252.63	87.56
252.863	78.56
253.096	77.56
253.329	68.56
253.562	80.56
253.795	80.56
254.028	83.56
254.261	87.56
254.494	87.56
254.727	105.56
254.96	88.56
255.193	75.56
255.426	76.56
255.659	84.56
255.892	81.56
256.124	84.56
256.357	86.56
256.59	77.56
256.823	70.56
257.056	65.56
257.289	87.56
257.521	63.56
257.754	86.56
257.987	84.56
258.22	92.56
258.452	92.56
258.685	78.56
258.918	82.56
259.151	83.56
259.383	78.56
259.616	77.56
259.849	98.56
260.081	82.56
260.314	79.56
260.547	92.56
260.779	92.56
261.012	93.56
261.244	86.56
261.477	95.56
261.71	93.56
261.942	106.56
262.175	94.56
262.407	74.56
262.64	67.56
262.872	90.56
263.105	81.56
263.337	88.56
263.57	86.56
263.802	92.56
264.035	89.56
264.267	77.56
264.499	94.56
264.732	89.56
264.964	90.56
265.197	79.56
265.429	85.56
265.661	88.56
265.894	78.56
266.126	91.56
266.358	83.56
266.591	76.56
266.823	81.56
267.055	71.56
267.287	84.56
267.52	94.56
267.752	90.56
267.984	85.56
268.216	88.56
268.448	71.56
268.681	88.56
268.913	81.56
269.145	79.56
269.377	98.56
269.609	81.56
269.841	68.56
270.073	80.56
270.306	90.56
270.538	82.56
270.77	89.56
271.002	84.56
271.234	81.56
271.466	91.56
271.698	86.56
271.93	82.56
272.162	71.56
272.394	79.56
272.626	89.56
272.858	80.56
273.09	82.56
273.322	98.56
273.553	86.56
273.785	80.56
274.017	87.56
274.249	70.56
274.481	86.56
274.713	87.56
274.945	77.56
275.176	78.56
275.408	101.56
275.64	97.56
275.872	84.56
276.104	84.56
276.335	94.56
276.567	98.56
276.799	101.56
277.031	92.56
277.262	96.56
277.494	85.56
277.726	82.56
277.957	75.56
278.189	87.56
278.421	84.56
278.652	88.56
278.884	92.56
279.115	82.56
279.347	78.56
279.579	91.56
279.81	83.56
280.042	83.56
280.273	83.56
280.505	90.56
280.736	89.56
280.968	82.56
281.199	99.56
281.431	76.56
281.662	92.56
281.894	87.56
282.125	97.56
282.356	106.56
282.588	142.56
282.819	110.56
283.051	87.56
283.282	69.56
283.513	74.56
283.745	87.56
283.976	72.56
284.207	82.56
284.439	107.56
284.67	95.56
284.901	74.56
285.132	82.56
285.364	86.56
285.595	81.56
285.826	79.56
286.057	81.56
286.288	83.56
286.52	96.56
286.751	83.56
286.982	94.56
287.213	89.56
287.444	76.56
287.675	97.56
287.906	68.56
288.138	95.56
288.369	97.56
288.6	89.56
288.831	76.56
289.062	85.56
289.293	70.56
289.524	85.56
289.755	91.56
289.986	95.56
290.217	76.56
290.448	81.56
290.679	86.56
290.91	91.56
291.141	86.56
291.371	92.56
291.602	81.56
291.833	87.56
292.064	80.56
292.295	104.56
292.526	86.56
292.757	90.56
292.987	90.56
293.218	100.56
293.449	88.56
293.68	88.56
293.91	76.56
294.141	85.56
294.372	84.56
294.603	90.56
294.833	88.56
295.064	83.56
295.295	91.56
295.525	95.56
295.756	91.56
295.987	112.56
296.217	130.56
296.448	124.56
296.679	113.56
296.909	98.56
297.14	80.56
297.37	88.56
297.601	73.56
297.831	90.56
298.062	85.56
298.292	94.56
298.523	92.56
298.753	91.56
298.984	90.56
299.214	77.56
299.445	84.56
299.675	104.56
299.905	93.56
300.136	94.56
300.366	84.56
300.597	88.56
300.827	95.56
301.057	99.56
301.288	97.56
301.518	95.56
301.748	89.56
301.979	108.56
302.209	99.56
302.439	97.56
302.669	93.56
302.9	105.56
303.13	84.56
303.36	100.56
303.59	82.56
303.82	106.56
304.051	94.56
304.281	84.56
304.511	99.56
304.741	87.56
304.971	94.56
305.201	92.56
305.431	93.56
305.661	86.56
305.891	78.56
306.121	98.56
306.352	97.56
306.582	110.56
306.812	97.56
307.042	86.56
307.272	92.56
307.502	83.56
307.731	98.56
307.961	106.56
308.191	84.56
308.421	94.56
308.651	100.56
308.881	88.56
309.111	91.56
309.341	97.56
309.571	92.56
309.8	102.56
310.03	89.56
310.26	99.56
310.49	113.56
310.72	95.56
310.949	100.56
311.179	97.56
311.409	94.56
311.639	79.56
311.868	94.56
312.098	97.56
312.328	101.56
312.557	99.56
312.787	96.56
313.017	94.56
313.246	94.56
313.476	101.56
313.706	91.56
313.935	91.56
314.165	99.56
314.394	92.56
314.624	93.56
314.853	99.56
315.083	86.56
315.312	93.56
315.542	77.56
315.771	90.56
316.001	83.56
316.23	90.56
316.46	93.56
316.689	84.56
316.919	99.56
317.148	88.56
317.377	91.56
317.607	94.56
317.836	88.56
318.065	85.56
318.295	99.56
318.524	82.56
318.753	71.56
318.983	92.56
319.212	101.56
319.441	92.56
319.67	95.56
319.9	87.56
320.129	87.56
320.358	111.56
320.587	82.56
320.816	107.56
321.046	90.56
321.275	108.56
321.504	84.56
321.733	100.56
321.962	92.56
322.191	106.56
322.42	115.56
322.649	114.56
322.878	93.56
323.108	112.56
323.337	127.56
323.566	124.56
323.795	152.56
324.024	208.56
324.253	393.56
324.482	796.56
324.71	1649.56
324.939	2188.56
325.168	786.56
325.397	228.56
325.626	137.56
325.855	141.56
326.084	133.56
326.313	138.56
326.542	154.56
326.77	232.56
326.999	440.56
327.228	926.56
327.457	1715.56
327.686	1338.56
327.914	385.56
328.143	204.56
328.372	148.56
328.6	119.56
328.829	118.56
329.058	114.56
329.287	123.56
329.515	111.56
329.744	82.56
329.972	86.56
330.201	94.56
330.43	113.56
330.658	119.56
330.887	118.56
331.115	106.56
331.344	106.56
331.572	89.56
331.801	94.56
332.03	99.56
332.258	94.56
332.486	88.56
332.715	90.56
332.943	86.56
333.172	90.56
333.4	94.56
333.629	103.56
333.857	107.56
334.085	113.56
334.314	92.56
334.542	95.56
334.771	83.56
334.999	100.56
335.227	78.56
335.455	85.56
335.684	105.56
335.912	89.56
336.14	99.56
336.369	106.56
336.597	95.56
336.825	114.56
337.053	90.56
337.281	90.56
337.51	111.56
337.738	91.56
337.966	91.56
338.194	101.56
338.422	105.56
338.65	94.56
338.878	94.56
339.106	80.56
339.334	88.56
339.562	94.56
339.79	83.56
340.018	88.56
340.246	82.56
340.474	98.56
340.702	97.56
340.93	98.56
341.158	94.56
341.386	92.56
341.614	93.56
341.842	86.56
342.07	95.56
342.298	86.56
342.526	97.56
342.754	86.56
342.981	94.56
343.209	89.56
343.437	99.56
343.665	84.56
343.893	92.56
344.12	83.56
344.348	99.56
344.576	89.56
344.804	102.56
345.031	99.56
345.259	93.56
345.487	98.56
345.714	89.56
345.942	85.56
346.17	95.56
346.397	87.56
346.625	102.56
346.853	100.56
347.08	89.56
347.308	87.56
347.535	86.56
347.763	92.56
347.99	100.56
348.218	112.56
348.445	109.56
348.673	97.56
348.9	109.56
349.128	91.56
349.355	99.56
349.583	86.56
349.81	89.56
350.037	87.56
350.265	110.56
350.492	87.56
350.72	82.56
350.947	102.56
351.174	111.56
351.402	113.56
351.629	103.56
351.856	85.56
352.083	97.56
352.311	108.56
352.538	115.56
352.765	111.56
352.992	104.56
353.22	114.56
353.447	116.56
353.674	105.56
353.901	94.56
354.128	98.56
354.355	98.56
354.583	102.56
354.81	102.56
355.037	104.56
355.264	94.56
355.491	96.56
355.718	92.56
355.945	96.56
356.172	100.56
356.399	96.56
356.626	91.56
356.853	89.56
357.08	95.56
357.307	102.56
357.534	89.56
357.761	79.56
357.988	99.56
358.215	76.56
358.441	77.56
358.668	97.56
358.895	93.56
359.122	102.56
359.349	91.56
359.576	92.56
359.802	102.56
360.029	97.56
360.256	95.56
360.483	92.56
360.709	95.56
360.936	96.56
361.163	88.56
361.39	78.56
361.616	85.56
361.843	94.56
362.07	93.56
362.296	88.56
362.523	97.56
362.749	87.56
362.976	87.56
363.203	104.56
363.429	97.56
363.656	82.56
363.882	83.56
364.109	84.56
364.335	97.56
364.562	92.56
364.788	93.56
365.015	96.56
365.241	118.56
365.468	105.56
365.694	88.56
365.92	107.56
366.147	83.56
366.373	103.56
366.599	75.56
366.826	91.56
367.052	80.56
367.278	94.56
367.505	94.56
367.731	81.56
367.957	78.56
368.184	90.56
368.41	99.56
368.636	102.56
368.862	121.56
369.089	106.56
369.315	81.56
369.541	99.56
369.767	83.56
369.993	87.56
370.219	107.56
370.445	86.56
370.672	74.56
370.898	89.56
371.124	88.56
371.35	69.56
371.576	96.56
371.802	90.56
372.028	95.56
372.254	88.56
372.48	86.56
372.706	88.56
372.932	96.56
373.158	84.56
373.384	95.56
373.61	100.56
373.835	97.56
374.061	90.56
374.287	95.56
374.513	87.56
374.739	88.56
374.965	89.56
375.191	103.56
375.416	84.56
375.642	86.56
375.868	87.56
376.094	77.56
376.319	89.56
376.545	78.56
376.771	93.56
376.997	86.56
377.222	107.56
377.448	81.56
377.674	92.56
377.899	88.56
378.125	103.56
378.35	98.56
378.576	106.56
378.802	94.56
379.027	80.56
379.253	97.56
379.478	94.56
379.704	96.56
379.929	92.56
380.155	100.56
380.38	91.56
380.606	82.56
380.831	95.56
381.057	98.56
381.282	91.56
381.507	102.56
381.733	96.56
381.958	103.56
382.184	107.56
382.409	89.56
382.634	105.56
382.86	105.56
383.085	96.56
383.31	93.56
383.535	93.56
383.761	107.56
383.986	94.56
384.211	99.56
384.436	97.56
384.662	99.56
384.887	104.56
385.112	103.56
385.337	91.56
385.562	102.56
385.787	112.56
386.013	113.56
386.238	97.56
386.463	111.56
386.688	100.56
386.913	103.56
387.138	90.56
387.363	109.56
387.588	108.56
387.813	95.56
388.038	106.56
388.263	107.56
388.488	106.56
388.713	106.56
388.938	95.56
389.163	90.56
389.387	98.56
389.612	98.56
389.837	113.56
390.062	90.56
390.287	96.56
390.512	97.56
390.736	91.56
390.961	103.56
391.186	90.56
391.411	96.56
391.636	89.56
391.86	76.56
392.085	83.56
392.31	90.56
392.534	74.56
392.759	95.56
392.984	78.56
393.208	90.56
393.433	91.56
393.658	89.56
393.882	79.56
394.107	78.56
394.331	80.56
394.556	88.56
394.78	91.56
395.005	82.56
395.229	85.56
395.454	90.56
395.678	85.56
395.903	100.56
396.127	95.56
396.352	94.56
396.576	91.56
396.801	93.56
397.025	91.56
397.249	74.56
397.474	86.56
397.698	81.56
397.922	95.56
398.147	98.56
398.371	87.56
398.595	94.56
398.82	97.56
399.044	95.56
399.268	88.56
399.492	81.56
399.717	88.56
399.941	95.56
400.165	83.56
400.389	86.56
400.613	88.56
400.837	84.56
401.062	90.56
401.286	88.56
401.51	84.56
401.734	99.56
401.958	115.56
402.182	120.56
402.406	150.56
402.63	109.56
402.854	80.56
403.078	88.56
403.302	90.56
403.526	96.56
403.75	83.56
403.974	90.56
404.198	79.56
404.422	86.56
404.645	92.56
404.869	90.56
405.093	71.56
405.317	90.56
405.541	90.56
405.765	103.56
405.988	123.56
406.212	167.56
406.436	216.56
406.66	126.56
406.883	83.56
407.107	88.56
407.331	87.56
407.555	90.56
407.778	98.56
408.002	89.56
408.226	105.56
408.449	93.56
408.673	80.56
408.896	94.56
409.12	102.56
409.344	89.56
409.567	90.56
409.791	84.56
410.014	95.56
410.238	99.56
410.461	91.56
410.685	94.56
410.908	94.56
411.132	105.56
411.355	89.56
411.578	99.56
411.802	85.56
412.025	82.56
412.249	93.56
412.472	85.56
412.695	68.56
412.919	94.56
413.142	90.56
413.365	96.56
413.589	77.56
413.812	74.56
414.035	94.56
414.258	79.56
414.482	86.56
414.705	88.56
414.928	94.56
415.151	91.56
415.374	109.56
415.597	86.56
415.821	100.56
416.044	89.56
416.267	95.56
416.49	88.56
416.713	91.56
416.936	74.56
417.159	82.56
417.382	82.56
417.605	82.56
417.828	90.56
418.051	113.56
418.274	100.56
418.497	76.56
418.72	76.56
418.943	95.56
419.166	107.56
419.389	102.56
419.611	88.56
419.834	89.56
420.057	91.56
420.28	78.56
420.503	70.56
420.726	91.56
420.948	78.56
421.171	104.56
421.394	82.56
421.617	91.56
421.839	85.56
422.062	89.56
422.285	105.56
422.507	98.56
422.73	103.56
422.953	91.56
423.175	83.56
423.398	82.56
423.621	97.56
423.843	86.56
424.066	89.56
424.288	87.56
424.511	74.56
424.733	80.56
424.956	91.56
425.178	85.56
425.401	95.56
425.623	122.56
425.846	78.56
426.068	104.56
426.291	83.56
426.513	81.56
426.735	75.56
426.958	82.56
427.18	97.56
427.402	144.56
427.625	175.56
427.847	115.56
428.069	97.56
428.292	91.56
428.514	89.56
428.736	88.56
428.958	72.56
429.181	101.56
429.403	88.56
429.625	85.56
429.847	73.56
430.069	90.56
430.292	84.56
430.514	75.56
430.736	79.56
430.958	88.56
431.18	90.56
431.402	77.56
431.624	76.56
431.846	82.56
432.068	79.56
432.29	92.56
432.512	84.56
432.734	77.56
432.956	88.56
433.178	97.56
433.4	109.56
433.622	109.56
433.844	99.56
434.066	80.56
434.287	90.56
434.509	112.56
434.731	102.56
434.953	95.56
435.175	101.56
435.397	91.56
435.618	82.56
435.84	90.56
436.062	97.56
436.284	104.56
436.505	104.56
436.727	112.56
436.949	86.56
437.17	103.56
437.392	93.56
437.614	104.56
437.835	86.56
438.057	85.56
438.278	107.56
438.5	84.56
438.721	97.56
438.943	104.56
439.165	88.56
439.386	93.56
439.608	86.56
439.829	97.56
440.05	111.56
440.272	139.56
440.493	93.56
440.715	81.56
440.936	70.56
441.158	82.56
441.379	70.56
441.6	75.56
441.822	88.56
442.043	80.56
442.264	100.56
442.486	88.56
442.707	92.56
442.928	84.56
443.149	99.56
443.371	127.56
443.592	98.56
443.813	87.56
444.034	108.56
444.255	90.56
444.476	92.56
444.698	88.56
444.919	75.56
445.14	130.56
445.361	112.56
445.582	115.56
445.803	122.56
446.024	115.56
446.245	123.56
446.466	96.56
446.687	85.56
446.908	86.56
447.129	72.56
447.35	93.56
447.571	97.56
447.792	91.56
448.013	103.56
448.234	98.56
448.455	97.56
448.675	107.56
448.896	112.56
449.117	99.56
449.338	88.56
449.559	123.56
449.779	121.56
450	102.56
450.221	90.56
450.442	103.56
450.662	87.56
450.883	95.56
451.104	114.56
451.324	78.56
451.545	87.56
451.766	76.56
451.986	86.56
452.207	90.56
452.428	100.56
452.648	109.56
452.869	103.56
453.089	100.56
453.31	118.56
453.53	97.56
453.751	89.56
453.971	94.56
454.192	103.56
454.412	99.56
454.633	80.56
454.853	88.56
455.073	86.56
455.294	87.56
455.514	90.56
455.734	75.56
455.955	85.56
456.175	80.56
456.395	91.56
456.616	86.56
456.836	67.56
457.056	83.56
457.276	78.56
457.497	89.56
457.717	85.56
457.937	75.56
458.157	94.56
458.377	82.56
458.598	102.56
458.818	139.56
459.038	147.56
459.258	104.56
459.478	74.56
459.698	84.56
459.918	80.56
460.138	93.56
460.358	92.56
460.578	95.56
460.798	99.56
461.018	88.56
461.238	83.56
461.458	79.56
461.678	94.56
461.898	87.56
462.118	92.56
462.338	91.56
462.558	99.56
462.777	87.56
462.997	72.56
463.217	91.56
463.437	82.56
463.657	80.56
463.876	86.56
464.096	90.56
464.316	89.56
464.536	97.56
464.755	92.56
464.975	111.56
465.195	130.56
465.414	143.56
465.634	87.56
465.854	90.56
466.073	78.56
466.293	92.56
466.512	74.56
466.732	104.56
466.951	78.56
467.171	84.56
467.391	71.56
467.61	116.56
467.829	90.56
468.049	96.56
468.268	83.56
468.488	96.56
468.707	82.56
468.927	96.56
469.146	98.56
469.365	84.56
469.585	71.56
469.804	87.56
470.023	97.56
470.243	103.56
470.462	95.56
470.681	91.56
470.901	90.56
471.12	79.56
471.339	89.56
471.558	83.56
471.777	94.56
471.997	90.56
472.216	96.56
472.435	97.56
472.654	88.56
472.873	90.56
473.092	86.56
473.311	93.56
473.53	95.56
473.749	89.56
473.968	100.56
474.187	97.56
474.406	103.56
474.625	86.56
474.844	82.56
475.063	80.56
475.282	81.56
475.501	79.56
475.72	100.56
475.939	79.56
476.158	86.56
476.377	89.56
476.596	85.56
476.814	99.56
477.033	86.56
477.252	95.56
477.471	80.56
477.69	102.56
477.908	96.56
478.127	91.56
478.346	98.56
478.564	87.56
478.783	90.56
479.002	100.56
479.22	91.56
479.439	93.56
479.658	104.56
479.876	107.56
480.095	107.56
480.313	79.56
480.532	79.56
480.751	91.56
480.969	90.56
481.188	105.56
481.406	81.56
481.624	103.56
481.843	85.56
482.061	74.56
482.28	90.56
482.498	90.56
482.717	81.56
482.935	93.56
483.153	99.56
483.372	81.56
483.59	86.56
483.808	100.56
484.027	82.56
484.245	92.56
484.463	92.56
484.681	81.56
484.9	89.56
485.118	86.56
485.336	94.56
485.554	103.56
485.772	110.56
485.99	89.56
486.209	106.56
486.427	95.56
486.645	108.56
486.863	121.56
487.081	95.56
487.299	117.56
487.517	95.56
487.735	94.56
487.953	99.56
488.171	107.56
488.389	96.56
488.607	98.56
488.825	90.56
489.043	95.56
489.261	96.56
489.479	88.56
489.696	88.56
489.914	80.56
490.132	92.56
490.35	89.56
490.568	97.56
490.786	91.56
491.003	96.56
491.221	99.56
491.439	82.56
491.657	103.56
491.874	97.56
492.092	89.56
492.31	101.56
492.527	79.56
492.745	84.56
492.963	86.56
493.18	89.56
493.398	91.56
493.615	99.56
493.833	92.56
494.05	94.56
494.268	93.56
494.485	92.56
494.703	87.56
494.92	99.56
495.138	92.56
495.355	81.56
495.573	99.56
495.79	104.56
496.008	86.56
496.225	80.56
496.442	90.56
496.66	91.56
496.877	85.56
497.094	89.56
497.312	85.56
497.529	92.56
497.746	92.56
497.963	91.56
498.181	110.56
498.398	102.56
498.615	116.56
498.832	103.56
499.049	100.56
499.267	78.56
499.484	101.56
499.701	90.56
499.918	98.56
500.135	102.56
500.352	94.56
500.569	95.56
500.786	87.56
501.003	89.56
501.22	91.56
501.437	107.56
501.654	95.56
501.871	92.56
502.088	88.56
502.305	87.56
502.522	97.56
502.739	96.56
502.956	83.56
503.172	86.56
503.389	81.56
503.606	99.56
503.823	112.56
504.04	100.56
504.256	94.56
504.473	89.56
504.69	90.56
504.907	89.56
505.123	86.56
505.34	89.56
505.557	87.56
505.773	99.56
505.99	105.56
506.207	94.56
506.423	86.56
506.64	89.56
506.856	88.56
507.073	85.56
507.289	99.56
507.506	100.56
507.722	106.56
507.939	103.56
508.155	106.56
508.372	106.56
508.588	97.56
508.805	106.56
509.021	102.56
509.238	105.56
509.454	104.56
509.67	103.56
509.887	98.56
510.103	127.56
510.319	207.56
510.536	751.56
510.752	2350.56
510.968	641.56
511.184	156.56
511.401	98.56
511.617	110.56
511.833	93.56
512.049	98.56
512.265	95.56
512.481	82.56
512.698	90.56
512.914	89.56
513.13	92.56
513.346	94.56
513.562	77.56
513.778	104.56
513.994	95.56
514.21	109.56
514.426	107.56
514.642	134.56
514.858	118.56
515.074	160.56
515.29	426.56
515.506	1360.56
515.721	478.56
515.937	144.56
516.153	109.56
516.369	102.56
516.585	75.56
516.801	90.56
517.016	104.56
517.232	96.56
517.448	97.56
517.664	104.56
517.879	99.56
518.095	104.56
518.311	96.56
518.527	107.56
518.742	87.56
518.958	98.56
519.173	101.56
519.389	96.56
519.605	98.56
519.82	86.56
520.036	100.56
520.251	123.56
520.467	91.56
520.682	103.56
520.898	103.56
521.113	111.56
521.329	122.56
521.544	202.56
521.76	521.56
521.975	2234.56
522.19	1326.56
522.406	302.56
522.621	113.56
522.836	106.56
523.052	104.56
523.267	94.56
523.482	98.56
523.698	104.56
523.913	112.56
524.128	107.56
524.343	104.56
524.559	88.56
524.774	94.56
524.989	88.56
525.204	110.56
525.419	99.56
525.634	80.56
525.849	75.56
526.064	91.56
526.28	100.56
526.495	87.56
526.71	92.56
526.925	97.56
527.14	97.56
527.355	84.56
527.57	86.56
527.785	94.56
527.999	93.56
528.214	98.56
528.429	89.56
528.644	99.56
528.859	86.56
529.074	100.56
529.289	116.56
529.503	159.56
529.718	99.56
529.933	99.56
530.148	85.56
530.363	93.56
530.577	84.56
530.792	95.56
531.007	93.56
531.221	96.56
531.436	89.56
531.651	101.56
531.865	89.56
532.08	90.56
532.295	97.56
532.509	95.56
532.724	78.56
532.938	106.56
533.153	111.56
533.367	88.56
533.582	90.56
533.796	91.56
534.011	95.56
534.225	96.56
534.44	98.56
534.654	106.56
534.868	92.56
535.083	102.56
535.297	100.56
535.511	93.56
535.726	109.56
535.94	106.56
536.154	100.56
536.369	84.56
536.583	82.56
536.797	91.56
537.011	103.56
537.225	87.56
537.44	93.56
537.654	92.56
537.868	91.56
538.082	95.56
538.296	100.56
538.51	85.56
538.724	78.56
538.938	100.56
539.153	95.56
539.367	90.56
539.581	92.56
539.795	94.56
540.009	92.56
540.222	81.56
540.436	106.56
540.65	95.56
540.864	97.56
541.078	107.56
541.292	92.56
541.506	84.56
541.72	95.56
541.934	94.56
542.147	98.56
542.361	88.56
542.575	101.56
542.789	78.56
543.002	85.56
543.216	94.56
543.43	85.56
543.644	103.56
543.857	93.56
544.071	93.56
544.285	94.56
544.498	87.56
544.712	92.56
544.925	104.56
545.139	91.56
545.352	91.56
545.566	103.56
545.779	82.56
545.993	104.56
546.206	91.56
546.42	104.56
546.633	91.56
546.847	90.56
547.06	81.56
547.274	78.56
547.487	90.56
547.7	82.56
547.914	107.56
548.127	90.56
548.34	94.56
548.554	90.56
548.767	83.56
548.98	95.56
549.193	88.56
549.407	88.56
549.62	94.56
549.833	95.56
550.046	87.56
550.259	88.56
550.473	94.56
550.686	98.56
550.899	99.56
551.112	87.56
551.325	98.56
551.538	89.56
551.751	95.56
551.964	95.56
552.177	96.56
552.39	97.56
552.603	103.56
552.816	92.56
553.029	100.56
553.242	107.56
553.455	108.56
553.667	98.56
553.88	112.56
554.093	107.56
554.306	87.56
554.519	79.56
554.732	90.56
554.944	100.56
555.157	102.56
555.37	98.56
555.583	88.56
555.795	95.56
556.008	90.56
556.221	88.56
556.433	86.56
556.646	92.56
556.859	96.56
557.071	86.56
557.284	97.56
557.496	93.56
557.709	92.56
557.921	100.56
558.134	86.56
558.346	105.56
558.559	87.56
558.771	92.56
558.984	103.56
559.196	93.56
559.409	90.56
559.621	83.56
559.833	82.56
560.046	96.56
560.258	98.56
560.47	88.56
560.683	88.56
560.895	95.56
561.107	91.56
561.32	97.56
561.532	92.56
561.744	90.56
561.956	97.56
562.168	93.56
562.381	86.56
562.593	81.56
562.805	80.56
563.017	95.56
563.229	92.56
563.441	90.56
563.653	90.56
563.865	91.56
564.077	87.56
564.289	93.56
564.501	94.56
564.713	88.56
564.925	97.56
565.137	98.56
565.349	96.56
565.561	93.56
565.773	86.56
565.985	85.56
566.197	83.56
566.408	87.56
566.62	78.56
566.832	85.56
567.044	101.56
567.255	82.56
567.467	90.56
567.679	80.56
567.891	87.56
568.102	97.56
568.314	106.56
568.526	101.56
568.737	104.56
568.949	88.56
569.161	100.56
569.372	90.56
569.584	96.56
569.795	104.56
570.007	126.56
570.218	257.56
570.43	126.56
570.641	90.56
570.853	86.56
571.064	86.56
571.276	79.56
571.487	80.56
571.698	105.56
571.91	94.56
572.121	101.56
572.333	100.56
572.544	85.56
572.755	91.56
572.966	89.56
573.178	77.56
573.389	88.56
573.6	89.56
573.811	94.56
574.023	74.56
574.234	91.56
574.445	83.56
574.656	95.56
574.867	84.56
575.078	86.56
575.289	110.56
575.501	96.56
575.712	80.56
575.923	81.56
576.134	90.56
576.345	76.56
576.556	101.56
576.767	94.56
576.978	94.56
577.188	87.56
577.399	90.56
577.61	84.56
577.821	92.56
578.032	109.56
578.243	283.56
578.454	791.56
578.665	226.56
578.875	111.56
579.086	111.56
579.297	104.56
579.508	97.56
579.718	96.56
579.929	83.56
580.14	83.56
580.35	86.56
580.561	78.56
580.772	83.56
580.982	78.56
581.193	89.56
581.403	99.56
581.614	88.56
581.825	95.56
582.035	95.56
582.246	100.56
582.456	87.56
582.667	101.56
582.877	93.56
583.087	94.56
583.298	80.56
583.508	85.56
583.719	82.56
583.929	86.56
584.139	83.56
584.35	98.56
584.56	89.56
584.77	75.56
584.981	79.56
585.191	89.56
585.401	101.56
585.611	99.56
585.821	79.56
586.032	100.56
586.242	91.56
586.452	92.56
586.662	90.56
586.872	100.56
587.082	99.56
587.292	88.56
587.502	89.56
587.713	91.56
587.923	95.56
588.133	91.56
588.343	98.56
588.553	100.56
588.762	98.56
588.972	103.56
589.182	90.56
589.392	96.56
589.602	92.56
589.812	105.56
590.022	90.56
590.232	85.56
590.441	76.56
590.651	81.56
590.861	91.56
591.071	96.56
591.281	96.56
591.49	89.56
591.7	95.56
591.91	90.56
592.119	80.56
592.329	80.56
592.539	81.56
592.748	85.56
592.958	100.56
593.167	99.56
593.377	86.56
593.587	86.56
593.796	90.56
594.006	94.56
594.215	84.56
594.424	90.56
594.634	95.56
594.843	99.56
595.053	73.56
595.262	100.56
595.472	82.56
595.681	88.56
595.89	87.56
596.1	97.56
596.309	84.56
596.518	84.56
596.727	84.56
596.937	83.56
597.146	97.56
597.355	98.56
597.564	84.56
597.774	95.56
597.983	83.56
598.192	83.56
598.401	83.56
598.61	76.56
598.819	88.56
599.028	81.56
599.237	88.56
599.446	89.56
599.655	100.56
599.864	97.56
600.073	89.56
600.282	75.56
600.491	83.56
600.7	88.56
600.909	90.56
601.118	94.56
601.327	95.56
601.536	98.56
601.745	90.56
601.953	82.56
602.162	78.56
602.371	98.56
602.58	78.56
602.789	84.56
602.997	90.56
603.206	86.56
603.415	81.56
603.623	76.56
603.832	83.56
604.041	93.56
604.249	86.56
604.458	85.56
604.666	82.56
604.875	66.56
605.084	95.56
605.292	94.56
605.501	91.56
605.709	72.56
605.918	87.56
606.126	89.56
606.334	78.56
606.543	97.56
606.751	91.56
606.96	87.56
607.168	91.56
607.376	105.56
607.585	88.56
607.793	74.56
608.001	89.56
608.21	93.56
608.418	85.56
608.626	79.56
608.834	79.56
609.043	81.56
609.251	82.56
609.459	88.56
609.667	74.56
609.875	81.56
610.083	95.56
610.291	82.56
610.499	82.56
610.707	81.56
610.916	94.56
611.124	94.56
611.332	87.56
611.54	85.56
611.748	83.56
611.955	88.56
612.163	86.56
612.371	81.56
612.579	100.56
612.787	86.56
612.995	100.56
613.203	87.56
613.411	79.56
613.618	85.56
613.826	82.56
614.034	91.56
614.242	95.56
614.449	93.56
614.657	85.56
614.865	95.56
615.072	87.56
615.28	92.56
615.488	93.56
615.695	98.56
615.903	92.56
616.111	108.56
616.318	102.56
616.526	96.56
616.733	100.56
616.941	97.56
617.148	91.56
617.356	105.56
617.563	76.56
617.771	95.56
617.978	94.56
618.185	92.56
618.393	82.56
618.6	80.56
618.807	84.56
619.015	92.56
619.222	90.56
619.429	95.56
619.637	92.56
619.844	83.56
620.051	86.56
620.258	90.56
620.466	82.56
620.673	100.56
620.88	79.56
621.087	76.56
621.294	84.56
621.501	92.56
621.708	85.56
621.915	95.56
622.122	91.56
622.329	85.56
622.536	91.56
622.743	86.56
622.95	93.56
623.157	88.56
623.364	62.56
623.571	79.56
623.778	87.56
623.985	84.56
624.192	86.56
624.399	84.56
624.606	74.56
624.812	65.56
625.019	88.56
625.226	90.56
625.433	99.56
625.639	83.56
625.846	78.56
626.053	78.56
626.259	67.56
626.466	74.56
626.673	74.56
626.879	97.56
627.086	83.56
627.293	91.56
627.499	92.56
627.706	84.56
627.912	80.56
628.119	76.56
628.325	95.56
628.532	86.56
628.738	86.56
628.945	78.56
629.151	89.56
629.357	81.56
629.564	85.56
629.77	75.56
629.976	90.56
630.183	84.56
630.389	80.56
630.595	83.56
630.802	90.56
631.008	75.56
631.214	82.56
631.42	97.56
631.627	84.56
631.833	87.56
632.039	91.56
632.245	74.56
632.451	102.56
632.657	69.56
632.863	83.56
633.069	68.56
633.275	81.56
633.481	64.56
633.688	78.56
633.893	81.56
634.099	79.56
634.305	86.56
634.511	75.56
634.717	88.56
634.923	75.56
635.129	75.56
635.335	87.56
635.541	95.56
635.747	98.56
635.952	70.56
636.158	99.56
636.364	91.56
636.57	87.56
636.775	81.56
636.981	84.56
637.187	90.56
637.392	78.56
637.598	81.56
637.804	101.56
638.009	75.56
638.215	86.56
638.421	89.56
638.626	92.56
638.832	78.56
639.037	86.56
639.243	82.56
639.448	84.56
639.654	95.56
639.859	88.56
640.065	80.56
640.27	92.56
640.475	88.56
640.681	73.56
640.886	81.56
641.091	86.56
641.297	84.56
641.502	65.56
641.707	78.56
641.913	85.56
642.118	84.56
642.323	87.56
642.528	88.56
642.733	92.56
642.939	87.56
643.144	89.56
643.349	95.56
643.554	85.56
643.759	76.56
643.964	89.56
644.169	82.56
644.374	73.56
644.579	74.56
644.784	80.56
644.989	89.56
645.194	79.56
645.399	83.56
645.604	104.56
645.809	90.56
646.014	86.56
646.219	92.56
646.423	98.56
646.628	98.56
646.833	95.56
647.038	89.56
647.243	70.56
647.447	95.56
647.652	88.56
647.857	82.56
648.062	74.56
648.266	87.56
648.471	90.56
648.676	95.56
648.88	91.56
649.085	94.56
649.289	81.56
649.494	94.56
649.698	131.56
649.903	95.56
650.107	98.56
650.312	81.56
650.516	78.56
650.721	76.56
650.925	63.56
651.13	78.56
651.334	78.56
651.539	77.56
651.743	78.56
651.947	91.56
652.152	82.56
652.356	87.56
652.56	79.56
652.764	78.56
652.969	94.56
653.173	79.56
653.377	74.56
653.581	82.56
653.785	82.56
653.99	94.56
654.194	88.56
654.398	78.56
654.602	78.56
654.806	87.56
655.01	85.56
655.214	91.56
655.418	102.56
655.622	88.56
655.826	73.56
656.03	93.56
656.234	96.56
656.438	111.56
656.642	96.56
656.846	99.56
657.049	82.56
657.253	57.56
657.457	74.56
657.661	89.56
657.865	91.56
658.068	94.56
658.272	86.56
658.476	75.56
658.68	88.56
658.883	72.56
659.087	83.56
659.291	79.56
659.494	79.56
659.698	79.56
659.901	86.56
660.105	83.56
660.309	80.56
660.512	78.56
660.716	90.56
660.919	82.56
661.123	83.56
661.326	72.56
661.53	76.56
661.733	69.56
661.936	72.56
662.14	80.56
662.343	78.56
662.546	70.56
662.75	86.56
662.953	90.56
663.156	91.56
663.36	63.56
663.563	84.56
663.766	89.56
663.969	69.56
664.173	73.56
664.376	83.56
664.579	72.56
664.782	78.56
664.985	90.56
665.188	78.56
665.391	94.56
665.594	86.56
665.797	84.56
666	82.56
666.203	71.56
666.406	72.56
666.609	66.56
666.812	79.56
667.015	89.56
667.218	81.56
667.421	87.56
667.624	96.56
667.827	93.56
668.03	73.56
668.232	92.56
668.435	73.56
668.638	67.56
668.841	90.56
669.043	82.56
669.246	80.56
669.449	80.56
669.651	77.56
669.854	81.56
670.057	74.56
670.259	70.56
670.462	80.56
670.665	80.56
670.867	87.56
671.07	84.56
671.272	71.56
671.475	71.56
671.677	90.56
671.88	71.56
672.082	86.56
672.284	78.56
672.487	89.56
672.689	67.56
672.892	73.56
