Data from Uncirc_1995_H10_HRD10591_00050.txt Node
Date: Wed Jan 03 11:35:43 EST 2024
User: Yrep
Spectrometer: HR+D1059
Trigger mode: 1
Integration Time (sec): 1.000000E-1
Scans to average: 1
Electric dark correction enabled: true
Nonlinearity correction enabled: false
Boxcar width: 0
XAxis mode: Wavelengths
Number of Pixels in Spectrum: 2048
>>>>>Begin Spectral Data<<<<<
223.165	-25.5
223.4	-25.5
223.635	-25.5
223.869	-18.5
224.104	-29.5
224.338	-18.5
224.573	-15.5
224.808	-19.5
225.042	1.5
225.277	2.5
225.511	12.5
225.746	-9.5
225.98	-0.5
226.215	18.5
226.449	27.5
226.683	11.5
226.918	26.5
227.152	36.5
227.387	39.5
227.621	38.5
227.856	56.5
228.09	44.5
228.324	56.5
228.559	57.5
228.793	56.5
229.027	70.5
229.262	77.5
229.496	92.5
229.73	81.5
229.964	78.5
230.199	79.5
230.433	76.5
230.667	78.5
230.901	84.5
231.136	83.5
231.37	91.5
231.604	76.5
231.838	68.5
232.072	80.5
232.306	87.5
232.541	86.5
232.775	97.5
233.009	88.5
233.243	88.5
233.477	78.5
233.711	95.5
233.945	88.5
234.179	60.5
234.413	97.5
234.647	95.5
234.881	89.5
235.115	81.5
235.349	72.5
235.583	83.5
235.817	79.5
236.051	72.5
236.285	74.5
236.519	79.5
236.753	77.5
236.987	67.5
237.221	94.5
237.455	84.5
237.689	78.5
237.922	83.5
238.156	84.5
238.39	69.5
238.624	62.5
238.858	85.5
239.091	74.5
239.325	85.5
239.559	67.5
239.793	77.5
240.027	88.5
240.26	70.5
240.494	76.5
240.728	77.5
240.961	85.5
241.195	82.5
241.429	76.5
241.662	82.5
241.896	68.5
242.13	80.5
242.363	72.5
242.597	78.5
242.83	96.5
243.064	68.5
243.298	88.5
243.531	76.5
243.765	79.5
243.998	81.5
244.232	75.5
244.465	90.5
244.699	80.5
244.932	80.5
245.166	81.5
245.399	90.5
245.633	83.5
245.866	90.5
246.099	87.5
246.333	79.5
246.566	68.5
246.8	83.5
247.033	88.5
247.266	80.5
247.5	96.5
247.733	80.5
247.966	68.5
248.2	68.5
248.433	85.5
248.666	90.5
248.899	76.5
249.133	89.5
249.366	105.5
249.599	95.5
249.832	74.5
250.066	84.5
250.299	93.5
250.532	72.5
250.765	74.5
250.998	72.5
251.231	89.5
251.465	85.5
251.698	88.5
251.931	80.5
252.164	80.5
252.397	89.5
252.63	77.5
252.863	65.5
253.096	88.5
253.329	94.5
253.562	93.5
253.795	84.5
254.028	81.5
254.261	78.5
254.494	82.5
254.727	73.5
254.96	78.5
255.193	77.5
255.426	88.5
255.659	79.5
255.892	98.5
256.124	90.5
256.357	79.5
256.59	78.5
256.823	95.5
257.056	82.5
257.289	91.5
257.521	74.5
257.754	72.5
257.987	70.5
258.22	78.5
258.452	72.5
258.685	83.5
258.918	83.5
259.151	77.5
259.383	92.5
259.616	88.5
259.849	77.5
260.081	86.5
260.314	96.5
260.547	74.5
260.779	89.5
261.012	82.5
261.244	88.5
261.477	94.5
261.71	93.5
261.942	108.5
262.175	112.5
262.407	87.5
262.64	82.5
262.872	93.5
263.105	79.5
263.337	90.5
263.57	89.5
263.802	92.5
264.035	81.5
264.267	86.5
264.499	91.5
264.732	85.5
264.964	76.5
265.197	86.5
265.429	75.5
265.661	73.5
265.894	90.5
266.126	82.5
266.358	95.5
266.591	85.5
266.823	79.5
267.055	73.5
267.287	88.5
267.52	88.5
267.752	98.5
267.984	97.5
268.216	104.5
268.448	91.5
268.681	85.5
268.913	65.5
269.145	91.5
269.377	73.5
269.609	88.5
269.841	90.5
270.073	84.5
270.306	93.5
270.538	76.5
270.77	76.5
271.002	91.5
271.234	94.5
271.466	100.5
271.698	84.5
271.93	88.5
272.162	97.5
272.394	103.5
272.626	93.5
272.858	94.5
273.09	78.5
273.322	86.5
273.553	84.5
273.785	81.5
274.017	90.5
274.249	92.5
274.481	99.5
274.713	82.5
274.945	85.5
275.176	100.5
275.408	78.5
275.64	84.5
275.872	93.5
276.104	83.5
276.335	99.5
276.567	100.5
276.799	99.5
277.031	95.5
277.262	80.5
277.494	93.5
277.726	84.5
277.957	89.5
278.189	85.5
278.421	87.5
278.652	84.5
278.884	96.5
279.115	68.5
279.347	84.5
279.579	80.5
279.81	92.5
280.042	96.5
280.273	74.5
280.505	95.5
280.736	79.5
280.968	94.5
281.199	92.5
281.431	97.5
281.662	86.5
281.894	90.5
282.125	99.5
282.356	111.5
282.588	128.5
282.819	92.5
283.051	82.5
283.282	81.5
283.513	83.5
283.745	105.5
283.976	94.5
284.207	89.5
284.439	78.5
284.67	87.5
284.901	101.5
285.132	89.5
285.364	86.5
285.595	89.5
285.826	87.5
286.057	90.5
286.288	87.5
286.52	90.5
286.751	87.5
286.982	99.5
287.213	91.5
287.444	77.5
287.675	87.5
287.906	85.5
288.138	87.5
288.369	98.5
288.6	74.5
288.831	82.5
289.062	108.5
289.293	88.5
289.524	88.5
289.755	93.5
289.986	89.5
290.217	84.5
290.448	94.5
290.679	98.5
290.91	101.5
291.141	74.5
291.371	89.5
291.602	100.5
291.833	90.5
292.064	88.5
292.295	88.5
292.526	93.5
292.757	87.5
292.987	89.5
293.218	72.5
293.449	85.5
293.68	77.5
293.91	97.5
294.141	94.5
294.372	90.5
294.603	91.5
294.833	82.5
295.064	88.5
295.295	84.5
295.525	89.5
295.756	91.5
295.987	118.5
296.217	141.5
296.448	127.5
296.679	88.5
296.909	88.5
297.14	80.5
297.37	91.5
297.601	94.5
297.831	78.5
298.062	84.5
298.292	95.5
298.523	91.5
298.753	90.5
298.984	88.5
299.214	88.5
299.445	94.5
299.675	82.5
299.905	87.5
300.136	82.5
300.366	96.5
300.597	96.5
300.827	89.5
301.057	104.5
301.288	102.5
301.518	95.5
301.748	75.5
301.979	102.5
302.209	103.5
302.439	97.5
302.669	78.5
302.9	96.5
303.13	95.5
303.36	102.5
303.59	107.5
303.82	99.5
304.051	99.5
304.281	88.5
304.511	86.5
304.741	96.5
304.971	81.5
305.201	91.5
305.431	100.5
305.661	88.5
305.891	90.5
306.121	98.5
306.352	113.5
306.582	107.5
306.812	98.5
307.042	108.5
307.272	92.5
307.502	100.5
307.731	92.5
307.961	101.5
308.191	85.5
308.421	79.5
308.651	84.5
308.881	105.5
309.111	105.5
309.341	101.5
309.571	112.5
309.8	107.5
310.03	96.5
310.26	97.5
310.49	91.5
310.72	113.5
310.949	101.5
311.179	94.5
311.409	94.5
311.639	93.5
311.868	100.5
312.098	118.5
312.328	94.5
312.557	92.5
312.787	108.5
313.017	113.5
313.246	101.5
313.476	102.5
313.706	94.5
313.935	98.5
314.165	95.5
314.394	94.5
314.624	92.5
314.853	92.5
315.083	100.5
315.312	75.5
315.542	104.5
315.771	105.5
316.001	84.5
316.23	81.5
316.46	96.5
316.689	73.5
316.919	110.5
317.148	98.5
317.377	101.5
317.607	84.5
317.836	98.5
318.065	101.5
318.295	98.5
318.524	97.5
318.753	96.5
318.983	92.5
319.212	102.5
319.441	108.5
319.67	114.5
319.9	84.5
320.129	92.5
320.358	104.5
320.587	90.5
320.816	98.5
321.046	108.5
321.275	99.5
321.504	97.5
321.733	95.5
321.962	97.5
322.191	97.5
322.42	108.5
322.649	101.5
322.878	111.5
323.108	108.5
323.337	113.5
323.566	142.5
323.795	146.5
324.024	192.5
324.253	372.5
324.482	793.5
324.71	1615.5
324.939	2063.5
325.168	765.5
325.397	243.5
325.626	132.5
325.855	117.5
326.084	129.5
326.313	133.5
326.542	161.5
326.77	232.5
326.999	440.5
327.228	911.5
327.457	1604.5
327.686	1301.5
327.914	357.5
328.143	184.5
328.372	147.5
328.6	122.5
328.829	123.5
329.058	110.5
329.287	115.5
329.515	119.5
329.744	98.5
329.972	94.5
330.201	88.5
330.43	121.5
330.658	114.5
330.887	122.5
331.115	120.5
331.344	93.5
331.572	100.5
331.801	96.5
332.03	101.5
332.258	110.5
332.486	97.5
332.715	92.5
332.943	97.5
333.172	92.5
333.4	84.5
333.629	116.5
333.857	111.5
334.085	103.5
334.314	99.5
334.542	100.5
334.771	93.5
334.999	105.5
335.227	102.5
335.455	102.5
335.684	110.5
335.912	107.5
336.14	107.5
336.369	110.5
336.597	112.5
336.825	95.5
337.053	93.5
337.281	100.5
337.51	81.5
337.738	84.5
337.966	94.5
338.194	86.5
338.422	76.5
338.65	91.5
338.878	98.5
339.106	86.5
339.334	107.5
339.562	104.5
339.79	96.5
340.018	88.5
340.246	86.5
340.474	91.5
340.702	93.5
340.93	82.5
341.158	100.5
341.386	93.5
341.614	98.5
341.842	102.5
342.07	94.5
342.298	95.5
342.526	98.5
342.754	102.5
342.981	85.5
343.209	88.5
343.437	94.5
343.665	103.5
343.893	100.5
344.12	91.5
344.348	105.5
344.576	96.5
344.804	92.5
345.031	93.5
345.259	108.5
345.487	105.5
345.714	92.5
345.942	91.5
346.17	94.5
346.397	92.5
346.625	99.5
346.853	112.5
347.08	91.5
347.308	103.5
347.535	94.5
347.763	110.5
347.99	102.5
348.218	101.5
348.445	103.5
348.673	83.5
348.9	94.5
349.128	105.5
349.355	100.5
349.583	100.5
349.81	96.5
350.037	101.5
350.265	96.5
350.492	90.5
350.72	98.5
350.947	95.5
351.174	114.5
351.402	111.5
351.629	89.5
351.856	107.5
352.083	106.5
352.311	106.5
352.538	132.5
352.765	104.5
352.992	108.5
353.22	98.5
353.447	100.5
353.674	92.5
353.901	99.5
354.128	105.5
354.355	97.5
354.583	113.5
354.81	102.5
355.037	98.5
355.264	105.5
355.491	101.5
355.718	101.5
355.945	110.5
356.172	82.5
356.399	97.5
356.626	97.5
356.853	83.5
357.08	87.5
357.307	92.5
357.534	113.5
357.761	97.5
357.988	103.5
358.215	103.5
358.441	113.5
358.668	94.5
358.895	75.5
359.122	86.5
359.349	95.5
359.576	98.5
359.802	99.5
360.029	90.5
360.256	99.5
360.483	112.5
360.709	93.5
360.936	98.5
361.163	88.5
361.39	84.5
361.616	80.5
361.843	94.5
362.07	96.5
362.296	109.5
362.523	90.5
362.749	80.5
362.976	101.5
363.203	93.5
363.429	90.5
363.656	95.5
363.882	100.5
364.109	91.5
364.335	96.5
364.562	96.5
364.788	86.5
365.015	103.5
365.241	99.5
365.468	104.5
365.694	96.5
365.92	109.5
366.147	102.5
366.373	91.5
366.599	90.5
366.826	91.5
367.052	85.5
367.278	96.5
367.505	77.5
367.731	85.5
367.957	97.5
368.184	97.5
368.41	101.5
368.636	98.5
368.862	112.5
369.089	106.5
369.315	98.5
369.541	94.5
369.767	98.5
369.993	94.5
370.219	86.5
370.445	94.5
370.672	99.5
370.898	92.5
371.124	93.5
371.35	79.5
371.576	92.5
371.802	99.5
372.028	68.5
372.254	83.5
372.48	94.5
372.706	80.5
372.932	87.5
373.158	99.5
373.384	116.5
373.61	87.5
373.835	101.5
374.061	91.5
374.287	106.5
374.513	92.5
374.739	82.5
374.965	105.5
375.191	91.5
375.416	79.5
375.642	86.5
375.868	85.5
376.094	91.5
376.319	88.5
376.545	91.5
376.771	100.5
376.997	99.5
377.222	84.5
377.448	96.5
377.674	94.5
377.899	98.5
378.125	94.5
378.35	112.5
378.576	85.5
378.802	84.5
379.027	89.5
379.253	105.5
379.478	100.5
379.704	100.5
379.929	93.5
380.155	93.5
380.38	99.5
380.606	95.5
380.831	93.5
381.057	109.5
381.282	100.5
381.507	104.5
381.733	96.5
381.958	101.5
382.184	100.5
382.409	89.5
382.634	116.5
382.86	94.5
383.085	109.5
383.31	110.5
383.535	108.5
383.761	110.5
383.986	101.5
384.211	98.5
384.436	104.5
384.662	99.5
384.887	103.5
385.112	110.5
385.337	101.5
385.562	101.5
385.787	103.5
386.013	102.5
386.238	117.5
386.463	113.5
386.688	115.5
386.913	111.5
387.138	107.5
387.363	111.5
387.588	110.5
387.813	108.5
388.038	108.5
388.263	124.5
388.488	110.5
388.713	91.5
388.938	104.5
389.163	94.5
389.387	105.5
389.612	101.5
389.837	99.5
390.062	97.5
390.287	102.5
390.512	90.5
390.736	91.5
390.961	96.5
391.186	85.5
391.411	87.5
391.636	88.5
391.86	98.5
392.085	94.5
392.31	92.5
392.534	87.5
392.759	101.5
392.984	72.5
393.208	90.5
393.433	92.5
393.658	99.5
393.882	89.5
394.107	101.5
394.331	91.5
394.556	71.5
394.78	87.5
395.005	81.5
395.229	78.5
395.454	108.5
395.678	82.5
395.903	92.5
396.127	98.5
396.352	106.5
396.576	84.5
396.801	93.5
397.025	90.5
397.249	88.5
397.474	95.5
397.698	96.5
397.922	98.5
398.147	88.5
398.371	92.5
398.595	87.5
398.82	80.5
399.044	86.5
399.268	93.5
399.492	88.5
399.717	76.5
399.941	99.5
400.165	98.5
400.389	100.5
400.613	99.5
400.837	95.5
401.062	92.5
401.286	84.5
401.51	100.5
401.734	93.5
401.958	108.5
402.182	133.5
402.406	156.5
402.63	131.5
402.854	85.5
403.078	105.5
403.302	95.5
403.526	82.5
403.75	78.5
403.974	92.5
404.198	90.5
404.422	94.5
404.645	101.5
404.869	105.5
405.093	80.5
405.317	102.5
405.541	107.5
405.765	117.5
405.988	112.5
406.212	176.5
406.436	216.5
406.66	153.5
406.883	102.5
407.107	85.5
407.331	94.5
407.555	111.5
407.778	98.5
408.002	101.5
408.226	83.5
408.449	100.5
408.673	81.5
408.896	86.5
409.12	102.5
409.344	83.5
409.567	96.5
409.791	97.5
410.014	98.5
410.238	100.5
410.461	93.5
410.685	107.5
410.908	99.5
411.132	118.5
411.355	98.5
411.578	88.5
411.802	84.5
412.025	91.5
412.249	93.5
412.472	83.5
412.695	84.5
412.919	88.5
413.142	93.5
413.365	92.5
413.589	98.5
413.812	99.5
414.035	95.5
414.258	97.5
414.482	94.5
414.705	96.5
414.928	87.5
415.151	101.5
415.374	100.5
415.597	108.5
415.821	91.5
416.044	90.5
416.267	82.5
416.49	96.5
416.713	102.5
416.936	98.5
417.159	82.5
417.382	100.5
417.605	87.5
417.828	110.5
418.051	89.5
418.274	89.5
418.497	85.5
418.72	87.5
418.943	96.5
419.166	95.5
419.389	105.5
419.611	87.5
419.834	84.5
420.057	74.5
420.28	91.5
420.503	83.5
420.726	86.5
420.948	89.5
421.171	98.5
421.394	97.5
421.617	92.5
421.839	90.5
422.062	101.5
422.285	96.5
422.507	83.5
422.73	99.5
422.953	96.5
423.175	99.5
423.398	91.5
423.621	91.5
423.843	93.5
424.066	78.5
424.288	94.5
424.511	72.5
424.733	92.5
424.956	117.5
425.178	98.5
425.401	104.5
425.623	99.5
425.846	97.5
426.068	88.5
426.291	100.5
426.513	87.5
426.735	107.5
426.958	109.5
427.18	90.5
427.402	131.5
427.625	150.5
427.847	113.5
428.069	106.5
428.292	90.5
428.514	92.5
428.736	85.5
428.958	92.5
429.181	106.5
429.403	97.5
429.625	96.5
429.847	84.5
430.069	95.5
430.292	97.5
430.514	88.5
430.736	83.5
430.958	86.5
431.18	93.5
431.402	96.5
431.624	85.5
431.846	98.5
432.068	91.5
432.29	92.5
432.512	96.5
432.734	82.5
432.956	97.5
433.178	102.5
433.4	97.5
433.622	95.5
433.844	110.5
434.066	96.5
434.287	95.5
434.509	91.5
434.731	80.5
434.953	84.5
435.175	92.5
435.397	84.5
435.618	91.5
435.84	97.5
436.062	103.5
436.284	105.5
436.505	103.5
436.727	107.5
436.949	93.5
437.17	80.5
437.392	86.5
437.614	106.5
437.835	95.5
438.057	105.5
438.278	95.5
438.5	100.5
438.721	104.5
438.943	95.5
439.165	86.5
439.386	100.5
439.608	85.5
439.829	100.5
440.05	112.5
440.272	124.5
440.493	93.5
440.715	89.5
440.936	80.5
441.158	93.5
441.379	81.5
441.6	85.5
441.822	81.5
442.043	91.5
442.264	100.5
442.486	118.5
442.707	103.5
442.928	93.5
443.149	123.5
443.371	115.5
443.592	96.5
443.813	110.5
444.034	102.5
444.255	95.5
444.476	84.5
444.698	92.5
444.919	84.5
445.14	124.5
445.361	118.5
445.582	95.5
445.803	112.5
446.024	121.5
446.245	122.5
446.466	90.5
446.687	94.5
446.908	92.5
447.129	90.5
447.35	88.5
447.571	89.5
447.792	80.5
448.013	101.5
448.234	105.5
448.455	100.5
448.675	116.5
448.896	96.5
449.117	96.5
449.338	107.5
449.559	107.5
449.779	135.5
450	104.5
450.221	94.5
450.442	98.5
450.662	91.5
450.883	93.5
451.104	94.5
451.324	95.5
451.545	84.5
451.766	102.5
451.986	83.5
452.207	95.5
452.428	98.5
452.648	83.5
452.869	103.5
453.089	98.5
453.31	106.5
453.53	94.5
453.751	85.5
453.971	89.5
454.192	99.5
454.412	105.5
454.633	90.5
454.853	82.5
455.073	74.5
455.294	103.5
455.514	104.5
455.734	92.5
455.955	93.5
456.175	91.5
456.395	85.5
456.616	88.5
456.836	101.5
457.056	87.5
457.276	86.5
457.497	95.5
457.717	78.5
457.937	80.5
458.157	93.5
458.377	81.5
458.598	114.5
458.818	143.5
459.038	148.5
459.258	98.5
459.478	82.5
459.698	96.5
459.918	83.5
460.138	97.5
460.358	89.5
460.578	97.5
460.798	91.5
461.018	89.5
461.238	84.5
461.458	96.5
461.678	78.5
461.898	98.5
462.118	81.5
462.338	70.5
462.558	98.5
462.777	90.5
462.997	88.5
463.217	72.5
463.437	93.5
463.657	91.5
463.876	95.5
464.096	90.5
464.316	89.5
464.536	93.5
464.755	98.5
464.975	114.5
465.195	154.5
465.414	138.5
465.634	94.5
465.854	84.5
466.073	81.5
466.293	96.5
466.512	83.5
466.732	86.5
466.951	83.5
467.171	103.5
467.391	102.5
467.61	106.5
467.829	109.5
468.049	97.5
468.268	92.5
468.488	83.5
468.707	89.5
468.927	88.5
469.146	90.5
469.365	85.5
469.585	81.5
469.804	97.5
470.023	81.5
470.243	96.5
470.462	91.5
470.681	99.5
470.901	89.5
471.12	83.5
471.339	85.5
471.558	95.5
471.777	96.5
471.997	89.5
472.216	76.5
472.435	87.5
472.654	105.5
472.873	78.5
473.092	95.5
473.311	86.5
473.53	102.5
473.749	94.5
473.968	107.5
474.187	106.5
474.406	80.5
474.625	85.5
474.844	90.5
475.063	76.5
475.282	95.5
475.501	91.5
475.72	98.5
475.939	83.5
476.158	92.5
476.377	89.5
476.596	90.5
476.814	105.5
477.033	106.5
477.252	99.5
477.471	96.5
477.69	97.5
477.908	84.5
478.127	92.5
478.346	92.5
478.564	85.5
478.783	95.5
479.002	94.5
479.22	95.5
479.439	108.5
479.658	111.5
479.876	88.5
480.095	83.5
480.313	94.5
480.532	85.5
480.751	97.5
480.969	105.5
481.188	102.5
481.406	99.5
481.624	97.5
481.843	95.5
482.061	95.5
482.28	91.5
482.498	91.5
482.717	95.5
482.935	77.5
483.153	94.5
483.372	108.5
483.59	95.5
483.808	84.5
484.027	99.5
484.245	97.5
484.463	87.5
484.681	93.5
484.9	105.5
485.118	101.5
485.336	85.5
485.554	107.5
485.772	83.5
485.99	113.5
486.209	105.5
486.427	106.5
486.645	103.5
486.863	116.5
487.081	102.5
487.299	94.5
487.517	104.5
487.735	99.5
487.953	84.5
488.171	105.5
488.389	92.5
488.607	104.5
488.825	90.5
489.043	82.5
489.261	87.5
489.479	89.5
489.696	99.5
489.914	89.5
490.132	83.5
490.35	84.5
490.568	106.5
490.786	97.5
491.003	93.5
491.221	80.5
491.439	91.5
491.657	72.5
491.874	99.5
492.092	92.5
492.31	75.5
492.527	98.5
492.745	90.5
492.963	94.5
493.18	89.5
493.398	79.5
493.615	92.5
493.833	91.5
494.05	77.5
494.268	93.5
494.485	94.5
494.703	98.5
494.92	88.5
495.138	90.5
495.355	102.5
495.573	89.5
495.79	81.5
496.008	90.5
496.225	95.5
496.442	88.5
496.66	94.5
496.877	95.5
497.094	88.5
497.312	91.5
497.529	99.5
497.746	100.5
497.963	99.5
498.181	100.5
498.398	93.5
498.615	111.5
498.832	114.5
499.049	84.5
499.267	88.5
499.484	87.5
499.701	91.5
499.918	91.5
500.135	92.5
500.352	95.5
500.569	92.5
500.786	97.5
501.003	101.5
501.22	88.5
501.437	88.5
501.654	90.5
501.871	98.5
502.088	81.5
502.305	90.5
502.522	112.5
502.739	96.5
502.956	95.5
503.172	116.5
503.389	93.5
503.606	105.5
503.823	95.5
504.04	97.5
504.256	106.5
504.473	81.5
504.69	88.5
504.907	89.5
505.123	101.5
505.34	101.5
505.557	99.5
505.773	92.5
505.99	85.5
506.207	97.5
506.423	96.5
506.64	87.5
506.856	86.5
507.073	92.5
507.289	107.5
507.506	109.5
507.722	107.5
507.939	115.5
508.155	97.5
508.372	98.5
508.588	106.5
508.805	101.5
509.021	104.5
509.238	96.5
509.454	85.5
509.67	106.5
509.887	110.5
510.103	125.5
510.319	218.5
510.536	720.5
510.752	2251.5
510.968	632.5
511.184	156.5
511.401	115.5
511.617	96.5
511.833	99.5
512.049	101.5
512.265	85.5
512.481	94.5
512.698	93.5
512.914	100.5
513.13	97.5
513.346	82.5
513.562	106.5
513.778	96.5
513.994	109.5
514.21	101.5
514.426	111.5
514.642	117.5
514.858	112.5
515.074	145.5
515.29	406.5
515.506	1374.5
515.721	489.5
515.937	141.5
516.153	91.5
516.369	99.5
516.585	82.5
516.801	101.5
517.016	107.5
517.232	98.5
517.448	84.5
517.664	89.5
517.879	119.5
518.095	104.5
518.311	100.5
518.527	80.5
518.742	100.5
518.958	92.5
519.173	116.5
519.389	101.5
519.605	90.5
519.82	108.5
520.036	113.5
520.251	100.5
520.467	98.5
520.682	103.5
520.898	101.5
521.113	98.5
521.329	138.5
521.544	186.5
521.76	531.5
521.975	2240.5
522.19	1316.5
522.406	288.5
522.621	120.5
522.836	97.5
523.052	101.5
523.267	100.5
523.482	93.5
523.698	100.5
523.913	102.5
524.128	97.5
524.343	106.5
524.559	100.5
524.774	89.5
524.989	87.5
525.204	101.5
525.419	98.5
525.634	90.5
525.849	102.5
526.064	87.5
526.28	73.5
526.495	87.5
526.71	98.5
526.925	98.5
527.14	83.5
527.355	88.5
527.57	97.5
527.785	88.5
527.999	95.5
528.214	100.5
528.429	89.5
528.644	97.5
528.859	89.5
529.074	76.5
529.289	106.5
529.503	156.5
529.718	99.5
529.933	89.5
530.148	92.5
530.363	90.5
530.577	94.5
530.792	84.5
531.007	98.5
531.221	99.5
531.436	93.5
531.651	107.5
531.865	91.5
532.08	90.5
532.295	106.5
532.509	93.5
532.724	97.5
532.938	107.5
533.153	80.5
533.367	81.5
533.582	94.5
533.796	101.5
534.011	101.5
534.225	93.5
534.44	78.5
534.654	102.5
534.868	91.5
535.083	85.5
535.297	81.5
535.511	98.5
535.726	118.5
535.94	105.5
536.154	105.5
536.369	88.5
536.583	90.5
536.797	86.5
537.011	82.5
537.225	93.5
537.44	90.5
537.654	101.5
537.868	94.5
538.082	98.5
538.296	84.5
538.51	92.5
538.724	88.5
538.938	80.5
539.153	97.5
539.367	96.5
539.581	106.5
539.795	96.5
540.009	96.5
540.222	82.5
540.436	93.5
540.65	93.5
540.864	105.5
541.078	100.5
541.292	96.5
541.506	90.5
541.72	101.5
541.934	94.5
542.147	81.5
542.361	72.5
542.575	81.5
542.789	84.5
543.002	99.5
543.216	92.5
543.43	92.5
543.644	95.5
543.857	106.5
544.071	97.5
544.285	102.5
544.498	101.5
544.712	76.5
544.925	94.5
545.139	77.5
545.352	89.5
545.566	73.5
545.779	95.5
545.993	85.5
546.206	85.5
546.42	98.5
546.633	95.5
546.847	92.5
547.06	98.5
547.274	93.5
547.487	101.5
547.7	81.5
547.914	80.5
548.127	80.5
548.34	86.5
548.554	100.5
548.767	95.5
548.98	98.5
549.193	82.5
549.407	93.5
549.62	85.5
549.833	70.5
550.046	85.5
550.259	106.5
550.473	90.5
550.686	97.5
550.899	111.5
551.112	106.5
551.325	86.5
551.538	94.5
551.751	88.5
551.964	90.5
552.177	101.5
552.39	106.5
552.603	93.5
552.816	88.5
553.029	78.5
553.242	99.5
553.455	92.5
553.667	107.5
553.88	107.5
554.093	97.5
554.306	94.5
554.519	100.5
554.732	105.5
554.944	81.5
555.157	86.5
555.37	94.5
555.583	84.5
555.795	101.5
556.008	99.5
556.221	100.5
556.433	98.5
556.646	96.5
556.859	99.5
557.071	97.5
557.284	100.5
557.496	90.5
557.709	76.5
557.921	85.5
558.134	79.5
558.346	102.5
558.559	94.5
558.771	84.5
558.984	88.5
559.196	78.5
559.409	92.5
559.621	83.5
559.833	84.5
560.046	107.5
560.258	97.5
560.47	96.5
560.683	87.5
560.895	101.5
561.107	91.5
561.32	100.5
561.532	91.5
561.744	90.5
561.956	99.5
562.168	101.5
562.381	91.5
562.593	91.5
562.805	95.5
563.017	93.5
563.229	90.5
563.441	82.5
563.653	91.5
563.865	84.5
564.077	86.5
564.289	85.5
564.501	108.5
564.713	96.5
564.925	91.5
565.137	112.5
565.349	94.5
565.561	85.5
565.773	75.5
565.985	74.5
566.197	79.5
566.408	107.5
566.62	76.5
566.832	97.5
567.044	85.5
567.255	88.5
567.467	90.5
567.679	90.5
567.891	91.5
568.102	82.5
568.314	92.5
568.526	75.5
568.737	98.5
568.949	104.5
569.161	82.5
569.372	81.5
569.584	89.5
569.795	102.5
570.007	117.5
570.218	244.5
570.43	136.5
570.641	96.5
570.853	88.5
571.064	99.5
571.276	93.5
571.487	90.5
571.698	109.5
571.91	92.5
572.121	88.5
572.333	93.5
572.544	91.5
572.755	90.5
572.966	94.5
573.178	102.5
573.389	93.5
573.6	89.5
573.811	85.5
574.023	99.5
574.234	93.5
574.445	101.5
574.656	98.5
574.867	90.5
575.078	77.5
575.289	95.5
575.501	98.5
575.712	79.5
575.923	90.5
576.134	78.5
576.345	89.5
576.556	83.5
576.767	104.5
576.978	105.5
577.188	88.5
577.399	92.5
577.61	88.5
577.821	108.5
578.032	121.5
578.243	287.5
578.454	779.5
578.665	221.5
578.875	90.5
579.086	94.5
579.297	98.5
579.508	83.5
579.718	81.5
579.929	87.5
580.14	103.5
580.35	100.5
580.561	93.5
580.772	100.5
580.982	98.5
581.193	69.5
581.403	89.5
581.614	77.5
581.825	86.5
582.035	99.5
582.246	88.5
582.456	89.5
582.667	86.5
582.877	99.5
583.087	93.5
583.298	93.5
583.508	93.5
583.719	94.5
583.929	99.5
584.139	80.5
584.35	84.5
584.56	91.5
584.77	91.5
584.981	91.5
585.191	112.5
585.401	94.5
585.611	75.5
585.821	95.5
586.032	103.5
586.242	87.5
586.452	96.5
586.662	89.5
586.872	92.5
587.082	91.5
587.292	95.5
587.502	98.5
587.713	80.5
587.923	91.5
588.133	102.5
588.343	99.5
588.553	94.5
588.762	74.5
588.972	97.5
589.182	92.5
589.392	100.5
589.602	96.5
589.812	77.5
590.022	94.5
590.232	80.5
590.441	100.5
590.651	94.5
590.861	85.5
591.071	81.5
591.281	99.5
591.49	100.5
591.7	77.5
591.91	87.5
592.119	97.5
592.329	89.5
592.539	90.5
592.748	91.5
592.958	83.5
593.167	93.5
593.377	97.5
593.587	83.5
593.796	87.5
594.006	68.5
594.215	93.5
594.424	92.5
594.634	103.5
594.843	89.5
595.053	98.5
595.262	96.5
595.472	100.5
595.681	83.5
595.89	93.5
596.1	87.5
596.309	82.5
596.518	98.5
596.727	93.5
596.937	98.5
597.146	95.5
597.355	85.5
597.564	89.5
597.774	82.5
597.983	96.5
598.192	92.5
598.401	82.5
598.61	90.5
598.819	96.5
599.028	100.5
599.237	98.5
599.446	86.5
599.655	82.5
599.864	81.5
600.073	86.5
600.282	96.5
600.491	88.5
600.7	99.5
600.909	96.5
601.118	81.5
601.327	97.5
601.536	76.5
601.745	84.5
601.953	78.5
602.162	95.5
602.371	83.5
602.58	83.5
602.789	94.5
602.997	97.5
603.206	96.5
603.415	83.5
603.623	89.5
603.832	95.5
604.041	94.5
604.249	74.5
604.458	81.5
604.666	100.5
604.875	87.5
605.084	83.5
605.292	90.5
605.501	86.5
605.709	84.5
605.918	92.5
606.126	85.5
606.334	96.5
606.543	101.5
606.751	98.5
606.96	98.5
607.168	72.5
607.376	85.5
607.585	94.5
607.793	84.5
608.001	82.5
608.21	100.5
608.418	108.5
608.626	87.5
608.834	91.5
609.043	102.5
609.251	92.5
609.459	83.5
609.667	87.5
609.875	85.5
610.083	84.5
610.291	101.5
610.499	84.5
610.707	93.5
610.916	78.5
611.124	90.5
611.332	89.5
611.54	87.5
611.748	94.5
611.955	90.5
612.163	90.5
612.371	102.5
612.579	81.5
612.787	81.5
612.995	74.5
613.203	90.5
613.411	98.5
613.618	95.5
613.826	84.5
614.034	100.5
614.242	87.5
614.449	96.5
614.657	82.5
614.865	96.5
615.072	98.5
615.28	82.5
615.488	85.5
615.695	91.5
615.903	95.5
616.111	78.5
616.318	113.5
616.526	99.5
616.733	92.5
616.941	97.5
617.148	99.5
617.356	106.5
617.563	92.5
617.771	85.5
617.978	70.5
618.185	89.5
618.393	98.5
618.6	87.5
618.807	81.5
619.015	97.5
619.222	82.5
619.429	97.5
619.637	86.5
619.844	99.5
620.051	96.5
620.258	83.5
620.466	99.5
620.673	85.5
620.88	84.5
621.087	83.5
621.294	89.5
621.501	91.5
621.708	85.5
621.915	80.5
622.122	75.5
622.329	83.5
622.536	98.5
622.743	88.5
622.95	94.5
623.157	77.5
623.364	79.5
623.571	84.5
623.778	91.5
623.985	78.5
624.192	90.5
624.399	95.5
624.606	93.5
624.812	98.5
625.019	82.5
625.226	90.5
625.433	96.5
625.639	98.5
625.846	85.5
626.053	84.5
626.259	90.5
626.466	87.5
626.673	95.5
626.879	90.5
627.086	86.5
627.293	85.5
627.499	86.5
627.706	94.5
627.912	86.5
628.119	80.5
628.325	82.5
628.532	98.5
628.738	92.5
628.945	85.5
629.151	80.5
629.357	88.5
629.564	99.5
629.77	100.5
629.976	102.5
630.183	91.5
630.389	96.5
630.595	83.5
630.802	80.5
631.008	88.5
631.214	84.5
631.42	70.5
631.627	81.5
631.833	84.5
632.039	88.5
632.245	92.5
632.451	85.5
632.657	85.5
632.863	91.5
633.069	95.5
633.275	88.5
633.481	102.5
633.688	83.5
633.893	77.5
634.099	77.5
634.305	84.5
634.511	83.5
634.717	70.5
634.923	93.5
635.129	82.5
635.335	77.5
635.541	82.5
635.747	92.5
635.952	89.5
636.158	81.5
636.364	83.5
636.57	86.5
636.775	84.5
636.981	101.5
637.187	105.5
637.392	80.5
637.598	81.5
637.804	100.5
638.009	95.5
638.215	86.5
638.421	93.5
638.626	88.5
638.832	103.5
639.037	83.5
639.243	79.5
639.448	83.5
639.654	97.5
639.859	88.5
640.065	81.5
640.27	93.5
640.475	91.5
640.681	82.5
640.886	92.5
641.091	83.5
641.297	86.5
641.502	95.5
641.707	102.5
641.913	88.5
642.118	89.5
642.323	90.5
642.528	100.5
642.733	92.5
642.939	80.5
643.144	93.5
643.349	81.5
643.554	92.5
643.759	93.5
643.964	84.5
644.169	72.5
644.374	81.5
644.579	85.5
644.784	86.5
644.989	94.5
645.194	86.5
645.399	91.5
645.604	94.5
645.809	82.5
646.014	94.5
646.219	81.5
646.423	80.5
646.628	81.5
646.833	78.5
647.038	96.5
647.243	97.5
647.447	82.5
647.652	79.5
647.857	76.5
648.062	93.5
648.266	89.5
648.471	107.5
648.676	95.5
648.88	98.5
649.085	96.5
649.289	113.5
649.494	110.5
649.698	129.5
649.903	110.5
650.107	78.5
650.312	87.5
650.516	88.5
650.721	92.5
650.925	91.5
651.13	84.5
651.334	93.5
651.539	83.5
651.743	92.5
651.947	88.5
652.152	93.5
652.356	88.5
652.56	88.5
652.764	78.5
652.969	99.5
653.173	77.5
653.377	84.5
653.581	80.5
653.785	84.5
653.99	90.5
654.194	79.5
654.398	91.5
654.602	82.5
654.806	81.5
655.01	84.5
655.214	85.5
655.418	88.5
655.622	80.5
655.826	87.5
656.03	84.5
656.234	88.5
656.438	97.5
656.642	108.5
656.846	84.5
657.049	88.5
657.253	83.5
657.457	92.5
657.661	89.5
657.865	82.5
658.068	81.5
658.272	81.5
658.476	84.5
658.68	84.5
658.883	93.5
659.087	70.5
659.291	62.5
659.494	81.5
659.698	86.5
659.901	81.5
660.105	90.5
660.309	74.5
660.512	82.5
660.716	90.5
660.919	87.5
661.123	80.5
661.326	94.5
661.53	77.5
661.733	75.5
661.936	81.5
662.14	88.5
662.343	77.5
662.546	82.5
662.75	78.5
662.953	90.5
663.156	89.5
663.36	78.5
663.563	100.5
663.766	88.5
663.969	78.5
664.173	71.5
664.376	61.5
664.579	75.5
664.782	82.5
664.985	83.5
665.188	80.5
665.391	69.5
665.594	86.5
665.797	59.5
666	90.5
666.203	81.5
666.406	83.5
666.609	89.5
666.812	85.5
667.015	68.5
667.218	84.5
667.421	95.5
667.624	92.5
667.827	83.5
668.03	73.5
668.232	80.5
668.435	77.5
668.638	84.5
668.841	73.5
669.043	84.5
669.246	77.5
669.449	82.5
669.651	77.5
669.854	68.5
670.057	78.5
670.259	83.5
670.462	76.5
670.665	89.5
670.867	85.5
671.07	101.5
671.272	96.5
671.475	85.5
671.677	83.5
671.88	103.5
672.082	80.5
672.284	89.5
672.487	81.5
672.689	83.5
672.892	81.5
