Data from Uncirc_1995_H10_HRD10591_00029.txt Node
Date: Wed Jan 03 11:35:39 EST 2024
User: Yrep
Spectrometer: HR+D1059
Trigger mode: 1
Integration Time (sec): 1.000000E-1
Scans to average: 1
Electric dark correction enabled: true
Nonlinearity correction enabled: false
Boxcar width: 0
XAxis mode: Wavelengths
Number of Pixels in Spectrum: 2048
>>>>>Begin Spectral Data<<<<<
223.165	-6.56
223.4	-6.56
223.635	-6.56
223.869	-36.56
224.104	-19.56
224.338	-1.56
224.573	0.44
224.808	-11.56
225.042	-17.56
225.277	3.44
225.511	-7.56
225.746	-0.56
225.98	-4.56
226.215	0.44
226.449	26.44
226.683	20.44
226.918	24.44
227.152	30.44
227.387	30.44
227.621	42.44
227.856	40.44
228.09	54.44
228.324	55.44
228.559	67.44
228.793	42.44
229.027	45.44
229.262	75.44
229.496	84.44
229.73	99.44
229.964	87.44
230.199	80.44
230.433	66.44
230.667	74.44
230.901	83.44
231.136	80.44
231.37	78.44
231.604	78.44
231.838	72.44
232.072	86.44
232.306	89.44
232.541	73.44
232.775	86.44
233.009	81.44
233.243	80.44
233.477	90.44
233.711	75.44
233.945	70.44
234.179	87.44
234.413	87.44
234.647	65.44
234.881	83.44
235.115	64.44
235.349	75.44
235.583	89.44
235.817	82.44
236.051	80.44
236.285	82.44
236.519	59.44
236.753	80.44
236.987	75.44
237.221	78.44
237.455	86.44
237.689	88.44
237.922	76.44
238.156	75.44
238.39	81.44
238.624	79.44
238.858	81.44
239.091	66.44
239.325	73.44
239.559	73.44
239.793	74.44
240.027	71.44
240.26	84.44
240.494	80.44
240.728	70.44
240.961	74.44
241.195	67.44
241.429	83.44
241.662	82.44
241.896	80.44
242.13	79.44
242.363	83.44
242.597	89.44
242.83	72.44
243.064	81.44
243.298	87.44
243.531	82.44
243.765	88.44
243.998	93.44
244.232	82.44
244.465	77.44
244.699	82.44
244.932	77.44
245.166	77.44
245.399	83.44
245.633	73.44
245.866	93.44
246.099	76.44
246.333	73.44
246.566	85.44
246.8	81.44
247.033	86.44
247.266	82.44
247.5	81.44
247.733	78.44
247.966	72.44
248.2	81.44
248.433	76.44
248.666	80.44
248.899	80.44
249.133	86.44
249.366	86.44
249.599	95.44
249.832	80.44
250.066	71.44
250.299	73.44
250.532	78.44
250.765	78.44
250.998	80.44
251.231	75.44
251.465	77.44
251.698	72.44
251.931	82.44
252.164	73.44
252.397	75.44
252.63	83.44
252.863	73.44
253.096	63.44
253.329	80.44
253.562	86.44
253.795	91.44
254.028	87.44
254.261	86.44
254.494	81.44
254.727	66.44
254.96	60.44
255.193	79.44
255.426	74.44
255.659	82.44
255.892	89.44
256.124	82.44
256.357	79.44
256.59	71.44
256.823	91.44
257.056	89.44
257.289	67.44
257.521	83.44
257.754	98.44
257.987	95.44
258.22	95.44
258.452	93.44
258.685	70.44
258.918	80.44
259.151	80.44
259.383	89.44
259.616	91.44
259.849	92.44
260.081	75.44
260.314	69.44
260.547	78.44
260.779	82.44
261.012	84.44
261.244	86.44
261.477	80.44
261.71	92.44
261.942	103.44
262.175	103.44
262.407	86.44
262.64	93.44
262.872	80.44
263.105	80.44
263.337	75.44
263.57	76.44
263.802	89.44
264.035	88.44
264.267	78.44
264.499	86.44
264.732	87.44
264.964	88.44
265.197	86.44
265.429	79.44
265.661	64.44
265.894	87.44
266.126	83.44
266.358	71.44
266.591	77.44
266.823	67.44
267.055	78.44
267.287	82.44
267.52	92.44
267.752	85.44
267.984	76.44
268.216	81.44
268.448	90.44
268.681	81.44
268.913	91.44
269.145	80.44
269.377	85.44
269.609	78.44
269.841	73.44
270.073	81.44
270.306	73.44
270.538	90.44
270.77	74.44
271.002	84.44
271.234	83.44
271.466	97.44
271.698	84.44
271.93	97.44
272.162	76.44
272.394	96.44
272.626	106.44
272.858	100.44
273.09	80.44
273.322	80.44
273.553	76.44
273.785	94.44
274.017	81.44
274.249	77.44
274.481	90.44
274.713	79.44
274.945	84.44
275.176	89.44
275.408	86.44
275.64	91.44
275.872	92.44
276.104	90.44
276.335	84.44
276.567	91.44
276.799	97.44
277.031	116.44
277.262	82.44
277.494	94.44
277.726	89.44
277.957	79.44
278.189	85.44
278.421	75.44
278.652	83.44
278.884	82.44
279.115	68.44
279.347	77.44
279.579	94.44
279.81	94.44
280.042	90.44
280.273	82.44
280.505	86.44
280.736	89.44
280.968	77.44
281.199	86.44
281.431	80.44
281.662	97.44
281.894	95.44
282.125	105.44
282.356	114.44
282.588	128.44
282.819	95.44
283.051	78.44
283.282	61.44
283.513	86.44
283.745	77.44
283.976	90.44
284.207	82.44
284.439	82.44
284.67	91.44
284.901	93.44
285.132	91.44
285.364	82.44
285.595	90.44
285.826	80.44
286.057	99.44
286.288	100.44
286.52	79.44
286.751	88.44
286.982	82.44
287.213	97.44
287.444	96.44
287.675	90.44
287.906	91.44
288.138	98.44
288.369	100.44
288.6	80.44
288.831	78.44
289.062	88.44
289.293	91.44
289.524	83.44
289.755	98.44
289.986	73.44
290.217	83.44
290.448	82.44
290.679	77.44
290.91	75.44
291.141	79.44
291.371	100.44
291.602	94.44
291.833	100.44
292.064	83.44
292.295	86.44
292.526	91.44
292.757	90.44
292.987	79.44
293.218	77.44
293.449	84.44
293.68	73.44
293.91	82.44
294.141	99.44
294.372	87.44
294.603	93.44
294.833	91.44
295.064	91.44
295.295	86.44
295.525	95.44
295.756	87.44
295.987	105.44
296.217	138.44
296.448	116.44
296.679	82.44
296.909	80.44
297.14	95.44
297.37	96.44
297.601	73.44
297.831	84.44
298.062	96.44
298.292	84.44
298.523	95.44
298.753	87.44
298.984	90.44
299.214	90.44
299.445	91.44
299.675	92.44
299.905	88.44
300.136	88.44
300.366	95.44
300.597	92.44
300.827	86.44
301.057	111.44
301.288	106.44
301.518	73.44
301.748	87.44
301.979	96.44
302.209	77.44
302.439	76.44
302.669	89.44
302.9	90.44
303.13	93.44
303.36	102.44
303.59	87.44
303.82	115.44
304.051	91.44
304.281	92.44
304.511	106.44
304.741	89.44
304.971	99.44
305.201	83.44
305.431	93.44
305.661	87.44
305.891	92.44
306.121	92.44
306.352	98.44
306.582	90.44
306.812	94.44
307.042	100.44
307.272	109.44
307.502	89.44
307.731	74.44
307.961	98.44
308.191	71.44
308.421	83.44
308.651	91.44
308.881	82.44
309.111	89.44
309.341	88.44
309.571	93.44
309.8	100.44
310.03	109.44
310.26	104.44
310.49	84.44
310.72	90.44
310.949	109.44
311.179	94.44
311.409	91.44
311.639	85.44
311.868	91.44
312.098	90.44
312.328	91.44
312.557	107.44
312.787	95.44
313.017	87.44
313.246	98.44
313.476	110.44
313.706	97.44
313.935	94.44
314.165	86.44
314.394	84.44
314.624	98.44
314.853	90.44
315.083	98.44
315.312	84.44
315.542	91.44
315.771	88.44
316.001	94.44
316.23	106.44
316.46	102.44
316.689	83.44
316.919	82.44
317.148	97.44
317.377	104.44
317.607	96.44
317.836	84.44
318.065	81.44
318.295	93.44
318.524	94.44
318.753	91.44
318.983	86.44
319.212	103.44
319.441	104.44
319.67	100.44
319.9	84.44
320.129	93.44
320.358	86.44
320.587	106.44
320.816	93.44
321.046	97.44
321.275	96.44
321.504	100.44
321.733	88.44
321.962	106.44
322.191	103.44
322.42	99.44
322.649	104.44
322.878	98.44
323.108	124.44
323.337	122.44
323.566	123.44
323.795	142.44
324.024	190.44
324.253	371.44
324.482	762.44
324.71	1552.44
324.939	1998.44
325.168	728.44
325.397	218.44
325.626	151.44
325.855	126.44
326.084	121.44
326.313	136.44
326.542	152.44
326.77	213.44
326.999	456.44
327.228	890.44
327.457	1578.44
327.686	1252.44
327.914	359.44
328.143	183.44
328.372	140.44
328.6	132.44
328.829	121.44
329.058	128.44
329.287	124.44
329.515	86.44
329.744	102.44
329.972	88.44
330.201	86.44
330.43	104.44
330.658	115.44
330.887	123.44
331.115	95.44
331.344	95.44
331.572	92.44
331.801	108.44
332.03	95.44
332.258	110.44
332.486	91.44
332.715	92.44
332.943	103.44
333.172	93.44
333.4	85.44
333.629	85.44
333.857	94.44
334.085	124.44
334.314	93.44
334.542	102.44
334.771	87.44
334.999	83.44
335.227	89.44
335.455	88.44
335.684	106.44
335.912	98.44
336.14	91.44
336.369	103.44
336.597	91.44
336.825	92.44
337.053	94.44
337.281	96.44
337.51	86.44
337.738	106.44
337.966	95.44
338.194	93.44
338.422	109.44
338.65	95.44
338.878	95.44
339.106	87.44
339.334	92.44
339.562	103.44
339.79	82.44
340.018	86.44
340.246	88.44
340.474	81.44
340.702	87.44
340.93	103.44
341.158	103.44
341.386	96.44
341.614	103.44
341.842	104.44
342.07	87.44
342.298	89.44
342.526	89.44
342.754	91.44
342.981	90.44
343.209	88.44
343.437	99.44
343.665	78.44
343.893	91.44
344.12	94.44
344.348	79.44
344.576	90.44
344.804	81.44
345.031	88.44
345.259	97.44
345.487	99.44
345.714	79.44
345.942	92.44
346.17	83.44
346.397	87.44
346.625	96.44
346.853	107.44
347.08	78.44
347.308	81.44
347.535	78.44
347.763	110.44
347.99	95.44
348.218	102.44
348.445	88.44
348.673	87.44
348.9	87.44
349.128	90.44
349.355	81.44
349.583	82.44
349.81	101.44
350.037	93.44
350.265	95.44
350.492	89.44
350.72	104.44
350.947	90.44
351.174	115.44
351.402	127.44
351.629	90.44
351.856	108.44
352.083	92.44
352.311	108.44
352.538	104.44
352.765	102.44
352.992	109.44
353.22	118.44
353.447	98.44
353.674	95.44
353.901	86.44
354.128	108.44
354.355	83.44
354.583	114.44
354.81	113.44
355.037	90.44
355.264	104.44
355.491	87.44
355.718	98.44
355.945	76.44
356.172	90.44
356.399	99.44
356.626	97.44
356.853	98.44
357.08	106.44
357.307	95.44
357.534	99.44
357.761	95.44
357.988	91.44
358.215	107.44
358.441	113.44
358.668	103.44
358.895	87.44
359.122	104.44
359.349	86.44
359.576	103.44
359.802	97.44
360.029	109.44
360.256	92.44
360.483	99.44
360.709	87.44
360.936	95.44
361.163	100.44
361.39	86.44
361.616	96.44
361.843	80.44
362.07	88.44
362.296	87.44
362.523	89.44
362.749	98.44
362.976	83.44
363.203	89.44
363.429	92.44
363.656	77.44
363.882	95.44
364.109	99.44
364.335	88.44
364.562	95.44
364.788	104.44
365.015	84.44
365.241	96.44
365.468	111.44
365.694	102.44
365.92	86.44
366.147	93.44
366.373	101.44
366.599	86.44
366.826	89.44
367.052	98.44
367.278	104.44
367.505	100.44
367.731	90.44
367.957	90.44
368.184	98.44
368.41	97.44
368.636	105.44
368.862	113.44
369.089	106.44
369.315	93.44
369.541	86.44
369.767	82.44
369.993	76.44
370.219	101.44
370.445	84.44
370.672	90.44
370.898	87.44
371.124	72.44
371.35	101.44
371.576	76.44
371.802	92.44
372.028	83.44
372.254	102.44
372.48	76.44
372.706	80.44
372.932	86.44
373.158	90.44
373.384	94.44
373.61	94.44
373.835	93.44
374.061	100.44
374.287	78.44
374.513	98.44
374.739	105.44
374.965	79.44
375.191	85.44
375.416	91.44
375.642	87.44
375.868	86.44
376.094	90.44
376.319	86.44
376.545	98.44
376.771	92.44
376.997	89.44
377.222	99.44
377.448	98.44
377.674	94.44
377.899	85.44
378.125	78.44
378.35	106.44
378.576	92.44
378.802	95.44
379.027	92.44
379.253	79.44
379.478	95.44
379.704	96.44
379.929	106.44
380.155	102.44
380.38	101.44
380.606	79.44
380.831	94.44
381.057	103.44
381.282	90.44
381.507	95.44
381.733	90.44
381.958	90.44
382.184	98.44
382.409	97.44
382.634	98.44
382.86	106.44
383.085	120.44
383.31	96.44
383.535	105.44
383.761	96.44
383.986	102.44
384.211	93.44
384.436	98.44
384.662	91.44
384.887	109.44
385.112	102.44
385.337	104.44
385.562	98.44
385.787	102.44
386.013	96.44
386.238	112.44
386.463	104.44
386.688	107.44
386.913	100.44
387.138	104.44
387.363	90.44
387.588	97.44
387.813	89.44
388.038	99.44
388.263	110.44
388.488	111.44
388.713	95.44
388.938	96.44
389.163	90.44
389.387	83.44
389.612	93.44
389.837	100.44
390.062	96.44
390.287	83.44
390.512	105.44
390.736	97.44
390.961	96.44
391.186	95.44
391.411	106.44
391.636	92.44
391.86	79.44
392.085	93.44
392.31	92.44
392.534	90.44
392.759	88.44
392.984	73.44
393.208	84.44
393.433	80.44
393.658	108.44
393.882	81.44
394.107	94.44
394.331	92.44
394.556	80.44
394.78	90.44
395.005	92.44
395.229	86.44
395.454	84.44
395.678	87.44
395.903	92.44
396.127	100.44
396.352	83.44
396.576	95.44
396.801	86.44
397.025	85.44
397.249	99.44
397.474	90.44
397.698	102.44
397.922	86.44
398.147	86.44
398.371	77.44
398.595	89.44
398.82	92.44
399.044	83.44
399.268	85.44
399.492	91.44
399.717	86.44
399.941	88.44
400.165	88.44
400.389	91.44
400.613	84.44
400.837	106.44
401.062	86.44
401.286	88.44
401.51	88.44
401.734	87.44
401.958	104.44
402.182	113.44
402.406	129.44
402.63	108.44
402.854	81.44
403.078	91.44
403.302	92.44
403.526	81.44
403.75	99.44
403.974	87.44
404.198	106.44
404.422	88.44
404.645	92.44
404.869	94.44
405.093	89.44
405.317	95.44
405.541	100.44
405.765	107.44
405.988	99.44
406.212	169.44
406.436	220.44
406.66	122.44
406.883	103.44
407.107	86.44
407.331	97.44
407.555	100.44
407.778	91.44
408.002	87.44
408.226	90.44
408.449	75.44
408.673	80.44
408.896	95.44
409.12	99.44
409.344	92.44
409.567	81.44
409.791	92.44
410.014	99.44
410.238	90.44
410.461	99.44
410.685	91.44
410.908	96.44
411.132	101.44
411.355	97.44
411.578	87.44
411.802	81.44
412.025	89.44
412.249	82.44
412.472	96.44
412.695	87.44
412.919	99.44
413.142	90.44
413.365	88.44
413.589	93.44
413.812	79.44
414.035	82.44
414.258	88.44
414.482	102.44
414.705	92.44
414.928	74.44
415.151	95.44
415.374	88.44
415.597	82.44
415.821	87.44
416.044	70.44
416.267	82.44
416.49	92.44
416.713	86.44
416.936	80.44
417.159	89.44
417.382	95.44
417.605	78.44
417.828	86.44
418.051	99.44
418.274	90.44
418.497	76.44
418.72	88.44
418.943	85.44
419.166	100.44
419.389	90.44
419.611	89.44
419.834	98.44
420.057	82.44
420.28	71.44
420.503	87.44
420.726	71.44
420.948	91.44
421.171	93.44
421.394	88.44
421.617	92.44
421.839	85.44
422.062	78.44
422.285	97.44
422.507	95.44
422.73	93.44
422.953	91.44
423.175	87.44
423.398	97.44
423.621	87.44
423.843	109.44
424.066	89.44
424.288	84.44
424.511	76.44
424.733	88.44
424.956	108.44
425.178	110.44
425.401	92.44
425.623	112.44
425.846	94.44
426.068	93.44
426.291	89.44
426.513	96.44
426.735	86.44
426.958	96.44
427.18	106.44
427.402	121.44
427.625	147.44
427.847	117.44
428.069	99.44
428.292	94.44
428.514	74.44
428.736	83.44
428.958	71.44
429.181	92.44
429.403	91.44
429.625	89.44
429.847	92.44
430.069	100.44
430.292	87.44
430.514	93.44
430.736	90.44
430.958	98.44
431.18	76.44
431.402	92.44
431.624	86.44
431.846	80.44
432.068	93.44
432.29	92.44
432.512	92.44
432.734	81.44
432.956	88.44
433.178	91.44
433.4	101.44
433.622	95.44
433.844	102.44
434.066	91.44
434.287	85.44
434.509	82.44
434.731	89.44
434.953	88.44
435.175	78.44
435.397	86.44
435.618	77.44
435.84	103.44
436.062	109.44
436.284	113.44
436.505	102.44
436.727	91.44
436.949	98.44
437.17	91.44
437.392	90.44
437.614	91.44
437.835	91.44
438.057	116.44
438.278	104.44
438.5	109.44
438.721	106.44
438.943	107.44
439.165	82.44
439.386	86.44
439.608	94.44
439.829	93.44
440.05	108.44
440.272	128.44
440.493	82.44
440.715	88.44
440.936	78.44
441.158	81.44
441.379	81.44
441.6	76.44
441.822	86.44
442.043	89.44
442.264	104.44
442.486	92.44
442.707	95.44
442.928	97.44
443.149	125.44
443.371	130.44
443.592	113.44
443.813	121.44
444.034	108.44
444.255	95.44
444.476	94.44
444.698	93.44
444.919	95.44
445.14	125.44
445.361	109.44
445.582	115.44
445.803	145.44
446.024	110.44
446.245	105.44
446.466	106.44
446.687	92.44
446.908	90.44
447.129	88.44
447.35	94.44
447.571	90.44
447.792	85.44
448.013	96.44
448.234	114.44
448.455	89.44
448.675	97.44
448.896	115.44
449.117	105.44
449.338	98.44
449.559	118.44
449.779	138.44
450	93.44
450.221	91.44
450.442	88.44
450.662	98.44
450.883	93.44
451.104	117.44
451.324	107.44
451.545	95.44
451.766	88.44
451.986	82.44
452.207	88.44
452.428	92.44
452.648	95.44
452.869	105.44
453.089	105.44
453.31	111.44
453.53	92.44
453.751	107.44
453.971	102.44
454.192	94.44
454.412	79.44
454.633	80.44
454.853	75.44
455.073	94.44
455.294	88.44
455.514	94.44
455.734	92.44
455.955	90.44
456.175	73.44
456.395	84.44
456.616	82.44
456.836	80.44
457.056	76.44
457.276	87.44
457.497	99.44
457.717	79.44
457.937	93.44
458.157	88.44
458.377	96.44
458.598	109.44
458.818	147.44
459.038	139.44
459.258	102.44
459.478	77.44
459.698	76.44
459.918	85.44
460.138	80.44
460.358	88.44
460.578	83.44
460.798	76.44
461.018	95.44
461.238	76.44
461.458	74.44
461.678	81.44
461.898	77.44
462.118	90.44
462.338	94.44
462.558	79.44
462.777	78.44
462.997	90.44
463.217	90.44
463.437	87.44
463.657	92.44
463.876	98.44
464.096	83.44
464.316	85.44
464.536	99.44
464.755	89.44
464.975	98.44
465.195	138.44
465.414	143.44
465.634	98.44
465.854	86.44
466.073	83.44
466.293	77.44
466.512	71.44
466.732	88.44
466.951	79.44
467.171	86.44
467.391	86.44
467.61	104.44
467.829	103.44
468.049	106.44
468.268	84.44
468.488	85.44
468.707	86.44
468.927	87.44
469.146	85.44
469.365	90.44
469.585	83.44
469.804	99.44
470.023	100.44
470.243	92.44
470.462	94.44
470.681	89.44
470.901	88.44
471.12	85.44
471.339	100.44
471.558	86.44
471.777	84.44
471.997	92.44
472.216	88.44
472.435	104.44
472.654	67.44
472.873	81.44
473.092	102.44
473.311	76.44
473.53	89.44
473.749	91.44
473.968	85.44
474.187	106.44
474.406	103.44
474.625	80.44
474.844	99.44
475.063	83.44
475.282	84.44
475.501	86.44
475.72	89.44
475.939	89.44
476.158	89.44
476.377	95.44
476.596	75.44
476.814	104.44
477.033	92.44
477.252	92.44
477.471	109.44
477.69	95.44
477.908	97.44
478.127	91.44
478.346	62.44
478.564	90.44
478.783	92.44
479.002	104.44
479.22	98.44
479.439	83.44
479.658	102.44
479.876	99.44
480.095	91.44
480.313	99.44
480.532	85.44
480.751	90.44
480.969	100.44
481.188	104.44
481.406	97.44
481.624	92.44
481.843	90.44
482.061	95.44
482.28	86.44
482.498	81.44
482.717	79.44
482.935	96.44
483.153	85.44
483.372	98.44
483.59	81.44
483.808	93.44
484.027	91.44
484.245	100.44
484.463	106.44
484.681	106.44
484.9	90.44
485.118	90.44
485.336	95.44
485.554	98.44
485.772	119.44
485.99	104.44
486.209	106.44
486.427	115.44
486.645	105.44
486.863	101.44
487.081	114.44
487.299	95.44
487.517	97.44
487.735	101.44
487.953	103.44
488.171	103.44
488.389	90.44
488.607	103.44
488.825	90.44
489.043	84.44
489.261	103.44
489.479	100.44
489.696	94.44
489.914	76.44
490.132	96.44
490.35	70.44
490.568	94.44
490.786	98.44
491.003	98.44
491.221	90.44
491.439	92.44
491.657	87.44
491.874	92.44
492.092	91.44
492.31	98.44
492.527	99.44
492.745	90.44
492.963	98.44
493.18	79.44
493.398	98.44
493.615	109.44
493.833	86.44
494.05	99.44
494.268	94.44
494.485	80.44
494.703	95.44
494.92	102.44
495.138	94.44
495.355	98.44
495.573	95.44
495.79	98.44
496.008	96.44
496.225	89.44
496.442	94.44
496.66	77.44
496.877	98.44
497.094	97.44
497.312	73.44
497.529	103.44
497.746	93.44
497.963	98.44
498.181	94.44
498.398	102.44
498.615	104.44
498.832	100.44
499.049	93.44
499.267	93.44
499.484	88.44
499.701	78.44
499.918	105.44
500.135	98.44
500.352	92.44
500.569	75.44
500.786	83.44
501.003	100.44
501.22	84.44
501.437	90.44
501.654	93.44
501.871	104.44
502.088	80.44
502.305	86.44
502.522	91.44
502.739	85.44
502.956	94.44
503.172	86.44
503.389	97.44
503.606	108.44
503.823	101.44
504.04	104.44
504.256	105.44
504.473	79.44
504.69	83.44
504.907	95.44
505.123	89.44
505.34	96.44
505.557	96.44
505.773	112.44
505.99	78.44
506.207	79.44
506.423	89.44
506.64	93.44
506.856	84.44
507.073	94.44
507.289	87.44
507.506	106.44
507.722	101.44
507.939	114.44
508.155	80.44
508.372	99.44
508.588	99.44
508.805	107.44
509.021	83.44
509.238	106.44
509.454	100.44
509.67	101.44
509.887	108.44
510.103	126.44
510.319	216.44
510.536	731.44
510.752	2201.44
510.968	621.44
511.184	148.44
511.401	114.44
511.617	86.44
511.833	86.44
512.049	92.44
512.265	88.44
512.481	77.44
512.698	112.44
512.914	92.44
513.13	92.44
513.346	87.44
513.562	106.44
513.778	92.44
513.994	92.44
514.21	105.44
514.426	107.44
514.642	118.44
514.858	128.44
515.074	159.44
515.29	422.44
515.506	1271.44
515.721	469.44
515.937	134.44
516.153	99.44
516.369	88.44
516.585	90.44
516.801	88.44
517.016	79.44
517.232	104.44
517.448	96.44
517.664	90.44
517.879	86.44
518.095	84.44
518.311	102.44
518.527	79.44
518.742	103.44
518.958	98.44
519.173	108.44
519.389	105.44
519.605	97.44
519.82	88.44
520.036	96.44
520.251	104.44
520.467	103.44
520.682	107.44
520.898	117.44
521.113	106.44
521.329	127.44
521.544	175.44
521.76	497.44
521.975	2060.44
522.19	1265.44
522.406	272.44
522.621	113.44
522.836	104.44
523.052	96.44
523.267	93.44
523.482	109.44
523.698	106.44
523.913	118.44
524.128	110.44
524.343	92.44
524.559	80.44
524.774	92.44
524.989	95.44
525.204	96.44
525.419	104.44
525.634	92.44
525.849	91.44
526.064	90.44
526.28	84.44
526.495	79.44
526.71	90.44
526.925	90.44
527.14	87.44
527.355	87.44
527.57	92.44
527.785	83.44
527.999	97.44
528.214	106.44
528.429	90.44
528.644	98.44
528.859	80.44
529.074	99.44
529.289	121.44
529.503	156.44
529.718	102.44
529.933	88.44
530.148	104.44
530.363	98.44
530.577	80.44
530.792	82.44
531.007	92.44
531.221	82.44
531.436	72.44
531.651	79.44
531.865	80.44
532.08	78.44
532.295	95.44
532.509	91.44
532.724	98.44
532.938	96.44
533.153	85.44
533.367	99.44
533.582	95.44
533.796	91.44
534.011	89.44
534.225	90.44
534.44	76.44
534.654	80.44
534.868	95.44
535.083	103.44
535.297	89.44
535.511	82.44
535.726	103.44
535.94	98.44
536.154	92.44
536.369	84.44
536.583	87.44
536.797	83.44
537.011	104.44
537.225	90.44
537.44	95.44
537.654	84.44
537.868	83.44
538.082	95.44
538.296	82.44
538.51	103.44
538.724	88.44
538.938	100.44
539.153	92.44
539.367	106.44
539.581	79.44
539.795	85.44
540.009	95.44
540.222	86.44
540.436	93.44
540.65	90.44
540.864	97.44
541.078	86.44
541.292	87.44
541.506	112.44
541.72	104.44
541.934	78.44
542.147	86.44
542.361	81.44
542.575	89.44
542.789	85.44
543.002	92.44
543.216	95.44
543.43	84.44
543.644	95.44
543.857	94.44
544.071	103.44
544.285	94.44
544.498	84.44
544.712	78.44
544.925	95.44
545.139	89.44
545.352	76.44
545.566	98.44
545.779	98.44
545.993	86.44
546.206	97.44
546.42	79.44
546.633	89.44
546.847	91.44
547.06	81.44
547.274	84.44
547.487	92.44
547.7	87.44
547.914	96.44
548.127	90.44
548.34	103.44
548.554	92.44
548.767	89.44
548.98	85.44
549.193	75.44
549.407	94.44
549.62	91.44
549.833	90.44
550.046	80.44
550.259	86.44
550.473	97.44
550.686	88.44
550.899	99.44
551.112	96.44
551.325	88.44
551.538	82.44
551.751	100.44
551.964	86.44
552.177	90.44
552.39	92.44
552.603	82.44
552.816	78.44
553.029	92.44
553.242	87.44
553.455	96.44
553.667	106.44
553.88	104.44
554.093	86.44
554.306	94.44
554.519	90.44
554.732	103.44
554.944	90.44
555.157	81.44
555.37	108.44
555.583	101.44
555.795	84.44
556.008	90.44
556.221	96.44
556.433	86.44
556.646	97.44
556.859	89.44
557.071	93.44
557.284	113.44
557.496	96.44
557.709	89.44
557.921	87.44
558.134	97.44
558.346	86.44
558.559	94.44
558.771	84.44
558.984	86.44
559.196	97.44
559.409	75.44
559.621	84.44
559.833	88.44
560.046	97.44
560.258	76.44
560.47	101.44
560.683	88.44
560.895	100.44
561.107	89.44
561.32	88.44
561.532	83.44
561.744	95.44
561.956	86.44
562.168	93.44
562.381	99.44
562.593	93.44
562.805	87.44
563.017	95.44
563.229	89.44
563.441	94.44
563.653	94.44
563.865	93.44
564.077	75.44
564.289	96.44
564.501	93.44
564.713	103.44
564.925	95.44
565.137	116.44
565.349	97.44
565.561	94.44
565.773	80.44
565.985	78.44
566.197	81.44
566.408	86.44
566.62	96.44
566.832	101.44
567.044	80.44
567.255	88.44
567.467	92.44
567.679	89.44
567.891	98.44
568.102	87.44
568.314	92.44
568.526	82.44
568.737	92.44
568.949	76.44
569.161	83.44
569.372	86.44
569.584	83.44
569.795	100.44
570.007	133.44
570.218	247.44
570.43	142.44
570.641	99.44
570.853	80.44
571.064	98.44
571.276	117.44
571.487	100.44
571.698	86.44
571.91	96.44
572.121	79.44
572.333	94.44
572.544	94.44
572.755	92.44
572.966	87.44
573.178	92.44
573.389	94.44
573.6	73.44
573.811	86.44
574.023	91.44
574.234	89.44
574.445	85.44
574.656	92.44
574.867	85.44
575.078	87.44
575.289	90.44
575.501	83.44
575.712	94.44
575.923	94.44
576.134	72.44
576.345	94.44
576.556	102.44
576.767	100.44
576.978	91.44
577.188	85.44
577.399	87.44
577.61	91.44
577.821	109.44
578.032	115.44
578.243	255.44
578.454	760.44
578.665	212.44
578.875	107.44
579.086	86.44
579.297	111.44
579.508	88.44
579.718	91.44
579.929	76.44
580.14	70.44
580.35	87.44
580.561	91.44
580.772	80.44
580.982	92.44
581.193	84.44
581.403	96.44
581.614	92.44
581.825	82.44
582.035	90.44
582.246	90.44
582.456	79.44
582.667	86.44
582.877	82.44
583.087	77.44
583.298	82.44
583.508	90.44
583.719	78.44
583.929	90.44
584.139	98.44
584.35	89.44
584.56	102.44
584.77	82.44
584.981	95.44
585.191	83.44
585.401	81.44
585.611	87.44
585.821	92.44
586.032	96.44
586.242	95.44
586.452	82.44
586.662	80.44
586.872	100.44
587.082	95.44
587.292	92.44
587.502	97.44
587.713	90.44
587.923	93.44
588.133	82.44
588.343	90.44
588.553	86.44
588.762	84.44
588.972	72.44
589.182	90.44
589.392	100.44
589.602	85.44
589.812	80.44
590.022	92.44
590.232	81.44
590.441	97.44
590.651	80.44
590.861	73.44
591.071	80.44
591.281	83.44
591.49	97.44
591.7	88.44
591.91	91.44
592.119	90.44
592.329	79.44
592.539	84.44
592.748	81.44
592.958	74.44
593.167	84.44
593.377	82.44
593.587	98.44
593.796	88.44
594.006	71.44
594.215	93.44
594.424	80.44
594.634	90.44
594.843	84.44
595.053	87.44
595.262	74.44
595.472	77.44
595.681	84.44
595.89	99.44
596.1	103.44
596.309	81.44
596.518	90.44
596.727	93.44
596.937	79.44
597.146	89.44
597.355	96.44
597.564	93.44
597.774	92.44
597.983	88.44
598.192	77.44
598.401	86.44
598.61	79.44
598.819	96.44
599.028	87.44
599.237	81.44
599.446	97.44
599.655	91.44
599.864	100.44
600.073	73.44
600.282	88.44
600.491	98.44
600.7	92.44
600.909	89.44
601.118	91.44
601.327	90.44
601.536	92.44
601.745	75.44
601.953	85.44
602.162	80.44
602.371	94.44
602.58	85.44
602.789	88.44
602.997	79.44
603.206	90.44
603.415	94.44
603.623	101.44
603.832	95.44
604.041	84.44
604.249	83.44
604.458	90.44
604.666	91.44
604.875	91.44
605.084	78.44
605.292	80.44
605.501	81.44
605.709	81.44
605.918	88.44
606.126	81.44
606.334	96.44
606.543	96.44
606.751	90.44
606.96	76.44
607.168	75.44
607.376	71.44
607.585	98.44
607.793	89.44
608.001	80.44
608.21	84.44
608.418	90.44
608.626	79.44
608.834	94.44
609.043	96.44
609.251	92.44
609.459	93.44
609.667	83.44
609.875	86.44
610.083	81.44
610.291	86.44
610.499	76.44
610.707	90.44
610.916	93.44
611.124	88.44
611.332	89.44
611.54	87.44
611.748	87.44
611.955	85.44
612.163	94.44
612.371	91.44
612.579	78.44
612.787	67.44
612.995	77.44
613.203	97.44
613.411	97.44
613.618	84.44
613.826	65.44
614.034	84.44
614.242	82.44
614.449	79.44
614.657	92.44
614.865	82.44
615.072	85.44
615.28	99.44
615.488	89.44
615.695	93.44
615.903	103.44
616.111	113.44
616.318	94.44
616.526	88.44
616.733	97.44
616.941	97.44
617.148	105.44
617.356	97.44
617.563	88.44
617.771	67.44
617.978	93.44
618.185	79.44
618.393	96.44
618.6	89.44
618.807	77.44
619.015	96.44
619.222	98.44
619.429	65.44
619.637	83.44
619.844	94.44
620.051	95.44
620.258	92.44
620.466	95.44
620.673	89.44
620.88	87.44
621.087	94.44
621.294	92.44
621.501	75.44
621.708	90.44
621.915	90.44
622.122	90.44
622.329	82.44
622.536	97.44
622.743	99.44
622.95	87.44
623.157	76.44
623.364	82.44
623.571	85.44
623.778	90.44
623.985	89.44
624.192	92.44
624.399	91.44
624.606	99.44
624.812	85.44
625.019	87.44
625.226	88.44
625.433	82.44
625.639	84.44
625.846	90.44
626.053	74.44
626.259	76.44
626.466	92.44
626.673	95.44
626.879	93.44
627.086	87.44
627.293	85.44
627.499	99.44
627.706	101.44
627.912	84.44
628.119	78.44
628.325	78.44
628.532	86.44
628.738	85.44
628.945	89.44
629.151	91.44
629.357	80.44
629.564	92.44
629.77	80.44
629.976	82.44
630.183	66.44
630.389	81.44
630.595	73.44
630.802	90.44
631.008	78.44
631.214	83.44
631.42	86.44
631.627	90.44
631.833	95.44
632.039	77.44
632.245	79.44
632.451	83.44
632.657	75.44
632.863	95.44
633.069	82.44
633.275	76.44
633.481	93.44
633.688	89.44
633.893	95.44
634.099	73.44
634.305	72.44
634.511	85.44
634.717	94.44
634.923	76.44
635.129	92.44
635.335	83.44
635.541	93.44
635.747	86.44
635.952	73.44
636.158	79.44
636.364	71.44
636.57	80.44
636.775	94.44
636.981	92.44
637.187	82.44
637.392	92.44
637.598	80.44
637.804	94.44
638.009	93.44
638.215	79.44
638.421	86.44
638.626	79.44
638.832	91.44
639.037	96.44
639.243	79.44
639.448	78.44
639.654	90.44
639.859	92.44
640.065	83.44
640.27	83.44
640.475	66.44
640.681	67.44
640.886	79.44
641.091	82.44
641.297	94.44
641.502	79.44
641.707	75.44
641.913	86.44
642.118	77.44
642.323	87.44
642.528	104.44
642.733	96.44
642.939	79.44
643.144	104.44
643.349	84.44
643.554	88.44
643.759	74.44
643.964	81.44
644.169	90.44
644.374	89.44
644.579	71.44
644.784	76.44
644.989	87.44
645.194	78.44
645.399	87.44
645.604	82.44
645.809	97.44
646.014	83.44
646.219	94.44
646.423	80.44
646.628	65.44
646.833	89.44
647.038	89.44
647.243	91.44
647.447	82.44
647.652	75.44
647.857	81.44
648.062	87.44
648.266	87.44
648.471	80.44
648.676	88.44
648.88	89.44
649.085	88.44
649.289	86.44
649.494	96.44
649.698	123.44
649.903	105.44
650.107	85.44
650.312	100.44
650.516	89.44
650.721	96.44
650.925	72.44
651.13	81.44
651.334	87.44
651.539	87.44
651.743	93.44
651.947	84.44
652.152	89.44
652.356	79.44
652.56	83.44
652.764	84.44
652.969	82.44
653.173	82.44
653.377	67.44
653.581	80.44
653.785	95.44
653.99	90.44
654.194	94.44
654.398	87.44
654.602	87.44
654.806	82.44
655.01	106.44
655.214	91.44
655.418	85.44
655.622	79.44
655.826	95.44
656.03	83.44
656.234	86.44
656.438	96.44
656.642	90.44
656.846	88.44
657.049	89.44
657.253	94.44
657.457	84.44
657.661	88.44
657.865	95.44
658.068	98.44
658.272	76.44
658.476	88.44
658.68	91.44
658.883	88.44
659.087	87.44
659.291	96.44
659.494	65.44
659.698	64.44
659.901	76.44
660.105	83.44
660.309	70.44
660.512	81.44
660.716	91.44
660.919	84.44
661.123	84.44
661.326	79.44
661.53	67.44
661.733	79.44
661.936	78.44
662.14	84.44
662.343	76.44
662.546	80.44
662.75	91.44
662.953	82.44
663.156	79.44
663.36	78.44
663.563	75.44
663.766	74.44
663.969	80.44
664.173	90.44
664.376	83.44
664.579	78.44
664.782	79.44
664.985	86.44
665.188	90.44
665.391	81.44
665.594	62.44
665.797	68.44
666	80.44
666.203	72.44
666.406	66.44
666.609	87.44
666.812	65.44
667.015	81.44
667.218	87.44
667.421	86.44
667.624	79.44
667.827	87.44
668.03	93.44
668.232	70.44
668.435	82.44
668.638	65.44
668.841	84.44
669.043	85.44
669.246	86.44
669.449	80.44
669.651	84.44
669.854	73.44
670.057	71.44
670.259	80.44
670.462	67.44
670.665	77.44
670.867	80.44
671.07	82.44
671.272	83.44
671.475	82.44
671.677	69.44
671.88	67.44
672.082	86.44
672.284	93.44
672.487	94.44
672.689	82.44
672.892	76.44
