Data from Uncirc_1995_H10_HRD10591_00045.txt Node
Date: Wed Jan 03 11:35:42 EST 2024
User: Yrep
Spectrometer: HR+D1059
Trigger mode: 1
Integration Time (sec): 1.000000E-1
Scans to average: 1
Electric dark correction enabled: true
Nonlinearity correction enabled: false
Boxcar width: 0
XAxis mode: Wavelengths
Number of Pixels in Spectrum: 2048
>>>>>Begin Spectral Data<<<<<
223.165	-21.56
223.4	-21.56
223.635	-21.56
223.869	-24.56
224.104	-9.56
224.338	-5.56
224.573	-14.56
224.808	-15.56
225.042	7.44
225.277	-5.56
225.511	2.44
225.746	4.44
225.98	-1.56
226.215	5.44
226.449	15.44
226.683	9.44
226.918	23.44
227.152	30.44
227.387	27.44
227.621	33.44
227.856	51.44
228.09	48.44
228.324	58.44
228.559	59.44
228.793	59.44
229.027	71.44
229.262	55.44
229.496	70.44
229.73	81.44
229.964	82.44
230.199	75.44
230.433	85.44
230.667	83.44
230.901	69.44
231.136	74.44
231.37	77.44
231.604	84.44
231.838	87.44
232.072	75.44
232.306	77.44
232.541	79.44
232.775	83.44
233.009	88.44
233.243	78.44
233.477	81.44
233.711	77.44
233.945	78.44
234.179	76.44
234.413	85.44
234.647	87.44
234.881	93.44
235.115	78.44
235.349	78.44
235.583	78.44
235.817	84.44
236.051	66.44
236.285	75.44
236.519	74.44
236.753	59.44
236.987	78.44
237.221	77.44
237.455	78.44
237.689	81.44
237.922	72.44
238.156	86.44
238.39	75.44
238.624	77.44
238.858	87.44
239.091	94.44
239.325	80.44
239.559	80.44
239.793	84.44
240.027	92.44
240.26	90.44
240.494	69.44
240.728	75.44
240.961	77.44
241.195	72.44
241.429	70.44
241.662	83.44
241.896	68.44
242.13	71.44
242.363	81.44
242.597	84.44
242.83	75.44
243.064	82.44
243.298	71.44
243.531	64.44
243.765	72.44
243.998	78.44
244.232	94.44
244.465	78.44
244.699	77.44
244.932	77.44
245.166	77.44
245.399	70.44
245.633	87.44
245.866	78.44
246.099	83.44
246.333	73.44
246.566	89.44
246.8	75.44
247.033	81.44
247.266	81.44
247.5	65.44
247.733	71.44
247.966	76.44
248.2	67.44
248.433	79.44
248.666	80.44
248.899	79.44
249.133	85.44
249.366	78.44
249.599	88.44
249.832	90.44
250.066	102.44
250.299	86.44
250.532	73.44
250.765	86.44
250.998	77.44
251.231	86.44
251.465	77.44
251.698	69.44
251.931	81.44
252.164	77.44
252.397	93.44
252.63	88.44
252.863	75.44
253.096	71.44
253.329	73.44
253.562	82.44
253.795	85.44
254.028	85.44
254.261	77.44
254.494	72.44
254.727	69.44
254.96	89.44
255.193	74.44
255.426	93.44
255.659	79.44
255.892	107.44
256.124	86.44
256.357	81.44
256.59	90.44
256.823	81.44
257.056	91.44
257.289	95.44
257.521	71.44
257.754	88.44
257.987	79.44
258.22	89.44
258.452	88.44
258.685	67.44
258.918	71.44
259.151	80.44
259.383	79.44
259.616	86.44
259.849	81.44
260.081	101.44
260.314	83.44
260.547	85.44
260.779	89.44
261.012	78.44
261.244	82.44
261.477	82.44
261.71	94.44
261.942	104.44
262.175	110.44
262.407	83.44
262.64	98.44
262.872	85.44
263.105	75.44
263.337	93.44
263.57	87.44
263.802	86.44
264.035	90.44
264.267	82.44
264.499	78.44
264.732	86.44
264.964	86.44
265.197	73.44
265.429	77.44
265.661	81.44
265.894	86.44
266.126	83.44
266.358	90.44
266.591	75.44
266.823	88.44
267.055	69.44
267.287	83.44
267.52	87.44
267.752	89.44
267.984	79.44
268.216	77.44
268.448	89.44
268.681	89.44
268.913	94.44
269.145	82.44
269.377	76.44
269.609	78.44
269.841	100.44
270.073	87.44
270.306	73.44
270.538	92.44
270.77	87.44
271.002	86.44
271.234	89.44
271.466	82.44
271.698	83.44
271.93	99.44
272.162	89.44
272.394	96.44
272.626	87.44
272.858	86.44
273.09	75.44
273.322	85.44
273.553	78.44
273.785	97.44
274.017	95.44
274.249	87.44
274.481	88.44
274.713	87.44
274.945	78.44
275.176	90.44
275.408	87.44
275.64	72.44
275.872	94.44
276.104	79.44
276.335	86.44
276.567	82.44
276.799	98.44
277.031	97.44
277.262	75.44
277.494	78.44
277.726	88.44
277.957	77.44
278.189	84.44
278.421	91.44
278.652	94.44
278.884	91.44
279.115	85.44
279.347	94.44
279.579	88.44
279.81	101.44
280.042	89.44
280.273	85.44
280.505	82.44
280.736	79.44
280.968	98.44
281.199	74.44
281.431	65.44
281.662	69.44
281.894	93.44
282.125	110.44
282.356	121.44
282.588	142.44
282.819	97.44
283.051	83.44
283.282	87.44
283.513	81.44
283.745	77.44
283.976	96.44
284.207	80.44
284.439	74.44
284.67	87.44
284.901	80.44
285.132	81.44
285.364	100.44
285.595	85.44
285.826	82.44
286.057	95.44
286.288	90.44
286.52	93.44
286.751	89.44
286.982	93.44
287.213	78.44
287.444	77.44
287.675	82.44
287.906	88.44
288.138	90.44
288.369	92.44
288.6	91.44
288.831	94.44
289.062	89.44
289.293	89.44
289.524	94.44
289.755	75.44
289.986	91.44
290.217	97.44
290.448	87.44
290.679	78.44
290.91	87.44
291.141	81.44
291.371	76.44
291.602	82.44
291.833	72.44
292.064	86.44
292.295	81.44
292.526	83.44
292.757	70.44
292.987	88.44
293.218	96.44
293.449	85.44
293.68	93.44
293.91	94.44
294.141	81.44
294.372	93.44
294.603	83.44
294.833	95.44
295.064	87.44
295.295	91.44
295.525	90.44
295.756	109.44
295.987	117.44
296.217	154.44
296.448	123.44
296.679	72.44
296.909	93.44
297.14	78.44
297.37	86.44
297.601	75.44
297.831	91.44
298.062	100.44
298.292	85.44
298.523	77.44
298.753	97.44
298.984	78.44
299.214	88.44
299.445	99.44
299.675	79.44
299.905	93.44
300.136	88.44
300.366	84.44
300.597	81.44
300.827	104.44
301.057	94.44
301.288	98.44
301.518	93.44
301.748	93.44
301.979	111.44
302.209	93.44
302.439	101.44
302.669	85.44
302.9	86.44
303.13	87.44
303.36	92.44
303.59	80.44
303.82	107.44
304.051	86.44
304.281	86.44
304.511	93.44
304.741	90.44
304.971	80.44
305.201	91.44
305.431	78.44
305.661	98.44
305.891	82.44
306.121	89.44
306.352	95.44
306.582	99.44
306.812	90.44
307.042	93.44
307.272	96.44
307.502	86.44
307.731	92.44
307.961	89.44
308.191	82.44
308.421	83.44
308.651	89.44
308.881	102.44
309.111	90.44
309.341	96.44
309.571	98.44
309.8	95.44
310.03	91.44
310.26	91.44
310.49	94.44
310.72	103.44
310.949	105.44
311.179	96.44
311.409	95.44
311.639	87.44
311.868	98.44
312.098	98.44
312.328	104.44
312.557	102.44
312.787	96.44
313.017	116.44
313.246	101.44
313.476	89.44
313.706	90.44
313.935	90.44
314.165	93.44
314.394	101.44
314.624	91.44
314.853	91.44
315.083	99.44
315.312	101.44
315.542	88.44
315.771	88.44
316.001	105.44
316.23	82.44
316.46	91.44
316.689	93.44
316.919	86.44
317.148	90.44
317.377	97.44
317.607	77.44
317.836	104.44
318.065	80.44
318.295	105.44
318.524	103.44
318.753	95.44
318.983	104.44
319.212	92.44
319.441	109.44
319.67	104.44
319.9	94.44
320.129	96.44
320.358	92.44
320.587	98.44
320.816	95.44
321.046	86.44
321.275	103.44
321.504	99.44
321.733	91.44
321.962	104.44
322.191	104.44
322.42	115.44
322.649	105.44
322.878	93.44
323.108	113.44
323.337	131.44
323.566	127.44
323.795	133.44
324.024	214.44
324.253	368.44
324.482	802.44
324.71	1708.44
324.939	2232.44
325.168	813.44
325.397	244.44
325.626	165.44
325.855	128.44
326.084	136.44
326.313	140.44
326.542	143.44
326.77	219.44
326.999	451.44
327.228	943.44
327.457	1739.44
327.686	1353.44
327.914	367.44
328.143	200.44
328.372	161.44
328.6	117.44
328.829	104.44
329.058	111.44
329.287	120.44
329.515	92.44
329.744	87.44
329.972	88.44
330.201	95.44
330.43	108.44
330.658	113.44
330.887	137.44
331.115	126.44
331.344	93.44
331.572	97.44
331.801	101.44
332.03	97.44
332.258	105.44
332.486	108.44
332.715	90.44
332.943	87.44
333.172	90.44
333.4	95.44
333.629	100.44
333.857	93.44
334.085	86.44
334.314	99.44
334.542	103.44
334.771	112.44
334.999	99.44
335.227	86.44
335.455	87.44
335.684	99.44
335.912	96.44
336.14	91.44
336.369	94.44
336.597	97.44
336.825	107.44
337.053	78.44
337.281	106.44
337.51	74.44
337.738	99.44
337.966	99.44
338.194	97.44
338.422	89.44
338.65	79.44
338.878	88.44
339.106	84.44
339.334	92.44
339.562	107.44
339.79	90.44
340.018	91.44
340.246	90.44
340.474	80.44
340.702	89.44
340.93	98.44
341.158	89.44
341.386	96.44
341.614	109.44
341.842	101.44
342.07	99.44
342.298	85.44
342.526	87.44
342.754	98.44
342.981	96.44
343.209	106.44
343.437	113.44
343.665	99.44
343.893	99.44
344.12	106.44
344.348	94.44
344.576	92.44
344.804	91.44
345.031	97.44
345.259	95.44
345.487	99.44
345.714	83.44
345.942	99.44
346.17	99.44
346.397	103.44
346.625	97.44
346.853	80.44
347.08	89.44
347.308	94.44
347.535	86.44
347.763	98.44
347.99	100.44
348.218	87.44
348.445	103.44
348.673	103.44
348.9	93.44
349.128	97.44
349.355	85.44
349.583	82.44
349.81	81.44
350.037	88.44
350.265	104.44
350.492	83.44
350.72	92.44
350.947	105.44
351.174	117.44
351.402	88.44
351.629	85.44
351.856	96.44
352.083	106.44
352.311	99.44
352.538	87.44
352.765	99.44
352.992	116.44
353.22	106.44
353.447	94.44
353.674	99.44
353.901	90.44
354.128	96.44
354.355	85.44
354.583	106.44
354.81	90.44
355.037	95.44
355.264	86.44
355.491	98.44
355.718	95.44
355.945	87.44
356.172	106.44
356.399	92.44
356.626	98.44
356.853	91.44
357.08	92.44
357.307	92.44
357.534	85.44
357.761	87.44
357.988	86.44
358.215	99.44
358.441	83.44
358.668	83.44
358.895	87.44
359.122	90.44
359.349	88.44
359.576	89.44
359.802	91.44
360.029	97.44
360.256	104.44
360.483	101.44
360.709	109.44
360.936	95.44
361.163	104.44
361.39	105.44
361.616	91.44
361.843	90.44
362.07	87.44
362.296	101.44
362.523	93.44
362.749	74.44
362.976	99.44
363.203	95.44
363.429	78.44
363.656	91.44
363.882	80.44
364.109	96.44
364.335	87.44
364.562	93.44
364.788	98.44
365.015	89.44
365.241	85.44
365.468	98.44
365.694	92.44
365.92	99.44
366.147	79.44
366.373	85.44
366.599	79.44
366.826	86.44
367.052	94.44
367.278	90.44
367.505	96.44
367.731	92.44
367.957	86.44
368.184	87.44
368.41	102.44
368.636	110.44
368.862	107.44
369.089	89.44
369.315	91.44
369.541	90.44
369.767	90.44
369.993	89.44
370.219	92.44
370.445	83.44
370.672	92.44
370.898	87.44
371.124	85.44
371.35	86.44
371.576	87.44
371.802	91.44
372.028	84.44
372.254	81.44
372.48	77.44
372.706	82.44
372.932	91.44
373.158	75.44
373.384	85.44
373.61	93.44
373.835	82.44
374.061	92.44
374.287	90.44
374.513	74.44
374.739	94.44
374.965	88.44
375.191	81.44
375.416	82.44
375.642	111.44
375.868	95.44
376.094	85.44
376.319	101.44
376.545	87.44
376.771	83.44
376.997	82.44
377.222	88.44
377.448	77.44
377.674	97.44
377.899	88.44
378.125	97.44
378.35	91.44
378.576	74.44
378.802	93.44
379.027	94.44
379.253	96.44
379.478	94.44
379.704	94.44
379.929	94.44
380.155	87.44
380.38	82.44
380.606	88.44
380.831	83.44
381.057	92.44
381.282	101.44
381.507	98.44
381.733	97.44
381.958	100.44
382.184	98.44
382.409	106.44
382.634	98.44
382.86	95.44
383.085	89.44
383.31	106.44
383.535	97.44
383.761	102.44
383.986	105.44
384.211	117.44
384.436	97.44
384.662	97.44
384.887	106.44
385.112	92.44
385.337	99.44
385.562	102.44
385.787	97.44
386.013	106.44
386.238	122.44
386.463	110.44
386.688	97.44
386.913	101.44
387.138	89.44
387.363	103.44
387.588	89.44
387.813	93.44
388.038	116.44
388.263	118.44
388.488	109.44
388.713	99.44
388.938	86.44
389.163	95.44
389.387	103.44
389.612	99.44
389.837	103.44
390.062	102.44
390.287	93.44
390.512	91.44
390.736	93.44
390.961	88.44
391.186	101.44
391.411	80.44
391.636	108.44
391.86	81.44
392.085	87.44
392.31	89.44
392.534	95.44
392.759	93.44
392.984	90.44
393.208	89.44
393.433	83.44
393.658	75.44
393.882	93.44
394.107	91.44
394.331	86.44
394.556	79.44
394.78	67.44
395.005	82.44
395.229	88.44
395.454	86.44
395.678	95.44
395.903	82.44
396.127	91.44
396.352	92.44
396.576	79.44
396.801	74.44
397.025	84.44
397.249	86.44
397.474	86.44
397.698	89.44
397.922	92.44
398.147	91.44
398.371	95.44
398.595	93.44
398.82	84.44
399.044	79.44
399.268	98.44
399.492	94.44
399.717	95.44
399.941	82.44
400.165	96.44
400.389	101.44
400.613	77.44
400.837	65.44
401.062	98.44
401.286	79.44
401.51	98.44
401.734	93.44
401.958	97.44
402.182	126.44
402.406	154.44
402.63	119.44
402.854	93.44
403.078	73.44
403.302	85.44
403.526	96.44
403.75	76.44
403.974	85.44
404.198	85.44
404.422	82.44
404.645	91.44
404.869	81.44
405.093	91.44
405.317	90.44
405.541	99.44
405.765	90.44
405.988	99.44
406.212	168.44
406.436	205.44
406.66	138.44
406.883	106.44
407.107	99.44
407.331	79.44
407.555	98.44
407.778	86.44
408.002	93.44
408.226	86.44
408.449	81.44
408.673	94.44
408.896	98.44
409.12	86.44
409.344	85.44
409.567	75.44
409.791	96.44
410.014	92.44
410.238	89.44
410.461	94.44
410.685	89.44
410.908	91.44
411.132	111.44
411.355	103.44
411.578	91.44
411.802	74.44
412.025	90.44
412.249	81.44
412.472	89.44
412.695	95.44
412.919	87.44
413.142	81.44
413.365	80.44
413.589	79.44
413.812	86.44
414.035	87.44
414.258	94.44
414.482	80.44
414.705	89.44
414.928	81.44
415.151	86.44
415.374	89.44
415.597	99.44
415.821	81.44
416.044	80.44
416.267	84.44
416.49	91.44
416.713	75.44
416.936	68.44
417.159	74.44
417.382	82.44
417.605	98.44
417.828	99.44
418.051	101.44
418.274	88.44
418.497	76.44
418.72	95.44
418.943	91.44
419.166	97.44
419.389	94.44
419.611	96.44
419.834	93.44
420.057	86.44
420.28	93.44
420.503	78.44
420.726	91.44
420.948	93.44
421.171	89.44
421.394	93.44
421.617	89.44
421.839	92.44
422.062	96.44
422.285	97.44
422.507	98.44
422.73	88.44
422.953	90.44
423.175	85.44
423.398	86.44
423.621	94.44
423.843	85.44
424.066	85.44
424.288	90.44
424.511	79.44
424.733	86.44
424.956	90.44
425.178	96.44
425.401	107.44
425.623	112.44
425.846	85.44
426.068	91.44
426.291	97.44
426.513	88.44
426.735	85.44
426.958	102.44
427.18	99.44
427.402	148.44
427.625	155.44
427.847	116.44
428.069	91.44
428.292	90.44
428.514	82.44
428.736	81.44
428.958	81.44
429.181	79.44
429.403	93.44
429.625	64.44
429.847	85.44
430.069	83.44
430.292	84.44
430.514	89.44
430.736	79.44
430.958	74.44
431.18	75.44
431.402	74.44
431.624	88.44
431.846	68.44
432.068	74.44
432.29	75.44
432.512	89.44
432.734	91.44
432.956	100.44
433.178	88.44
433.4	96.44
433.622	94.44
433.844	83.44
434.066	96.44
434.287	89.44
434.509	92.44
434.731	95.44
434.953	93.44
435.175	94.44
435.397	96.44
435.618	96.44
435.84	101.44
436.062	111.44
436.284	99.44
436.505	98.44
436.727	107.44
436.949	98.44
437.17	70.44
437.392	93.44
437.614	82.44
437.835	109.44
438.057	107.44
438.278	88.44
438.5	96.44
438.721	101.44
438.943	99.44
439.165	92.44
439.386	88.44
439.608	79.44
439.829	91.44
440.05	115.44
440.272	125.44
440.493	95.44
440.715	85.44
440.936	76.44
441.158	98.44
441.379	91.44
441.6	81.44
441.822	96.44
442.043	82.44
442.264	92.44
442.486	101.44
442.707	97.44
442.928	111.44
443.149	135.44
443.371	108.44
443.592	96.44
443.813	96.44
444.034	91.44
444.255	91.44
444.476	98.44
444.698	99.44
444.919	89.44
445.14	121.44
445.361	122.44
445.582	102.44
445.803	121.44
446.024	121.44
446.245	116.44
446.466	104.44
446.687	94.44
446.908	88.44
447.129	95.44
447.35	94.44
447.571	79.44
447.792	90.44
448.013	103.44
448.234	102.44
448.455	95.44
448.675	112.44
448.896	116.44
449.117	86.44
449.338	109.44
449.559	116.44
449.779	141.44
450	90.44
450.221	101.44
450.442	85.44
450.662	88.44
450.883	98.44
451.104	102.44
451.324	98.44
451.545	89.44
451.766	79.44
451.986	80.44
452.207	78.44
452.428	82.44
452.648	100.44
452.869	95.44
453.089	119.44
453.31	118.44
453.53	78.44
453.751	85.44
453.971	85.44
454.192	108.44
454.412	97.44
454.633	80.44
454.853	78.44
455.073	77.44
455.294	75.44
455.514	86.44
455.734	83.44
455.955	85.44
456.175	82.44
456.395	71.44
456.616	90.44
456.836	101.44
457.056	83.44
457.276	80.44
457.497	101.44
457.717	103.44
457.937	105.44
458.157	92.44
458.377	91.44
458.598	113.44
458.818	149.44
459.038	157.44
459.258	115.44
459.478	87.44
459.698	88.44
459.918	90.44
460.138	87.44
460.358	91.44
460.578	87.44
460.798	87.44
461.018	79.44
461.238	105.44
461.458	88.44
461.678	74.44
461.898	92.44
462.118	82.44
462.338	83.44
462.558	84.44
462.777	90.44
462.997	95.44
463.217	98.44
463.437	89.44
463.657	85.44
463.876	83.44
464.096	92.44
464.316	93.44
464.536	98.44
464.755	83.44
464.975	102.44
465.195	168.44
465.414	153.44
465.634	113.44
465.854	87.44
466.073	96.44
466.293	93.44
466.512	75.44
466.732	85.44
466.951	87.44
467.171	93.44
467.391	90.44
467.61	106.44
467.829	102.44
468.049	92.44
468.268	93.44
468.488	95.44
468.707	91.44
468.927	81.44
469.146	80.44
469.365	85.44
469.585	79.44
469.804	73.44
470.023	95.44
470.243	98.44
470.462	105.44
470.681	98.44
470.901	77.44
471.12	98.44
471.339	84.44
471.558	89.44
471.777	86.44
471.997	100.44
472.216	94.44
472.435	90.44
472.654	99.44
472.873	89.44
473.092	77.44
473.311	90.44
473.53	83.44
473.749	83.44
473.968	95.44
474.187	110.44
474.406	112.44
474.625	85.44
474.844	84.44
475.063	90.44
475.282	99.44
475.501	101.44
475.72	100.44
475.939	90.44
476.158	93.44
476.377	79.44
476.596	82.44
476.814	78.44
477.033	94.44
477.252	103.44
477.471	93.44
477.69	82.44
477.908	96.44
478.127	95.44
478.346	75.44
478.564	105.44
478.783	98.44
479.002	79.44
479.22	99.44
479.439	99.44
479.658	106.44
479.876	82.44
480.095	93.44
480.313	93.44
480.532	78.44
480.751	98.44
480.969	101.44
481.188	105.44
481.406	97.44
481.624	98.44
481.843	102.44
482.061	91.44
482.28	79.44
482.498	90.44
482.717	81.44
482.935	87.44
483.153	64.44
483.372	91.44
483.59	102.44
483.808	92.44
484.027	82.44
484.245	90.44
484.463	104.44
484.681	82.44
484.9	94.44
485.118	104.44
485.336	101.44
485.554	95.44
485.772	89.44
485.99	101.44
486.209	105.44
486.427	106.44
486.645	107.44
486.863	104.44
487.081	90.44
487.299	102.44
487.517	91.44
487.735	95.44
487.953	95.44
488.171	95.44
488.389	90.44
488.607	103.44
488.825	96.44
489.043	87.44
489.261	99.44
489.479	84.44
489.696	83.44
489.914	88.44
490.132	75.44
490.35	98.44
490.568	92.44
490.786	89.44
491.003	93.44
491.221	91.44
491.439	98.44
491.657	88.44
491.874	75.44
492.092	100.44
492.31	104.44
492.527	88.44
492.745	91.44
492.963	90.44
493.18	85.44
493.398	94.44
493.615	105.44
493.833	99.44
494.05	81.44
494.268	88.44
494.485	92.44
494.703	99.44
494.92	90.44
495.138	83.44
495.355	98.44
495.573	89.44
495.79	96.44
496.008	97.44
496.225	75.44
496.442	96.44
496.66	98.44
496.877	87.44
497.094	90.44
497.312	87.44
497.529	81.44
497.746	85.44
497.963	87.44
498.181	82.44
498.398	91.44
498.615	113.44
498.832	100.44
499.049	89.44
499.267	96.44
499.484	90.44
499.701	93.44
499.918	77.44
500.135	91.44
500.352	90.44
500.569	91.44
500.786	110.44
501.003	94.44
501.22	81.44
501.437	83.44
501.654	95.44
501.871	101.44
502.088	94.44
502.305	91.44
502.522	109.44
502.739	88.44
502.956	98.44
503.172	99.44
503.389	78.44
503.606	98.44
503.823	92.44
504.04	97.44
504.256	85.44
504.473	86.44
504.69	95.44
504.907	89.44
505.123	86.44
505.34	93.44
505.557	80.44
505.773	81.44
505.99	80.44
506.207	100.44
506.423	79.44
506.64	80.44
506.856	79.44
507.073	89.44
507.289	88.44
507.506	90.44
507.722	114.44
507.939	102.44
508.155	99.44
508.372	99.44
508.588	99.44
508.805	86.44
509.021	97.44
509.238	105.44
509.454	99.44
509.67	103.44
509.887	103.44
510.103	126.44
510.319	229.44
510.536	828.44
510.752	2573.44
510.968	713.44
511.184	146.44
511.401	110.44
511.617	93.44
511.833	86.44
512.049	96.44
512.265	84.44
512.481	92.44
512.698	90.44
512.914	105.44
513.13	95.44
513.346	101.44
513.562	98.44
513.778	85.44
513.994	101.44
514.21	98.44
514.426	110.44
514.642	153.44
514.858	114.44
515.074	158.44
515.29	458.44
515.506	1492.44
515.721	537.44
515.937	162.44
516.153	117.44
516.369	98.44
516.585	79.44
516.801	101.44
517.016	106.44
517.232	90.44
517.448	81.44
517.664	89.44
517.879	73.44
518.095	99.44
518.311	111.44
518.527	102.44
518.742	95.44
518.958	100.44
519.173	98.44
519.389	106.44
519.605	114.44
519.82	78.44
520.036	105.44
520.251	123.44
520.467	118.44
520.682	102.44
520.898	109.44
521.113	111.44
521.329	137.44
521.544	198.44
521.76	571.44
521.975	2490.44
522.19	1461.44
522.406	317.44
522.621	143.44
522.836	110.44
523.052	89.44
523.267	86.44
523.482	100.44
523.698	106.44
523.913	98.44
524.128	108.44
524.343	98.44
524.559	84.44
524.774	91.44
524.989	89.44
525.204	103.44
525.419	100.44
525.634	77.44
525.849	77.44
526.064	91.44
526.28	101.44
526.495	68.44
526.71	70.44
526.925	91.44
527.14	84.44
527.355	89.44
527.57	84.44
527.785	85.44
527.999	94.44
528.214	94.44
528.429	86.44
528.644	86.44
528.859	84.44
529.074	90.44
529.289	113.44
529.503	184.44
529.718	104.44
529.933	79.44
530.148	89.44
530.363	90.44
530.577	85.44
530.792	96.44
531.007	83.44
531.221	87.44
531.436	77.44
531.651	101.44
531.865	89.44
532.08	94.44
532.295	96.44
532.509	88.44
532.724	96.44
532.938	86.44
533.153	99.44
533.367	78.44
533.582	98.44
533.796	98.44
534.011	103.44
534.225	90.44
534.44	91.44
534.654	107.44
534.868	89.44
535.083	97.44
535.297	98.44
535.511	116.44
535.726	93.44
535.94	102.44
536.154	102.44
536.369	99.44
536.583	109.44
536.797	103.44
537.011	89.44
537.225	89.44
537.44	106.44
537.654	91.44
537.868	91.44
538.082	101.44
538.296	89.44
538.51	82.44
538.724	86.44
538.938	82.44
539.153	90.44
539.367	105.44
539.581	98.44
539.795	76.44
540.009	79.44
540.222	88.44
540.436	95.44
540.65	89.44
540.864	69.44
541.078	81.44
541.292	87.44
541.506	97.44
541.72	95.44
541.934	106.44
542.147	99.44
542.361	93.44
542.575	74.44
542.789	85.44
543.002	81.44
543.216	88.44
543.43	88.44
543.644	83.44
543.857	90.44
544.071	86.44
544.285	99.44
544.498	99.44
544.712	94.44
544.925	96.44
545.139	79.44
545.352	85.44
545.566	87.44
545.779	94.44
545.993	83.44
546.206	82.44
546.42	91.44
546.633	96.44
546.847	88.44
547.06	84.44
547.274	91.44
547.487	88.44
547.7	94.44
547.914	90.44
548.127	76.44
548.34	94.44
548.554	79.44
548.767	92.44
548.98	95.44
549.193	92.44
549.407	85.44
549.62	88.44
549.833	94.44
550.046	90.44
550.259	87.44
550.473	82.44
550.686	83.44
550.899	79.44
551.112	86.44
551.325	97.44
551.538	82.44
551.751	81.44
551.964	75.44
552.177	88.44
552.39	89.44
552.603	86.44
552.816	90.44
553.029	90.44
553.242	98.44
553.455	102.44
553.667	103.44
553.88	87.44
554.093	93.44
554.306	83.44
554.519	82.44
554.732	93.44
554.944	92.44
555.157	93.44
555.37	80.44
555.583	85.44
555.795	93.44
556.008	95.44
556.221	103.44
556.433	81.44
556.646	90.44
556.859	95.44
557.071	91.44
557.284	90.44
557.496	92.44
557.709	89.44
557.921	87.44
558.134	96.44
558.346	87.44
558.559	93.44
558.771	96.44
558.984	88.44
559.196	82.44
559.409	88.44
559.621	84.44
559.833	93.44
560.046	82.44
560.258	96.44
560.47	86.44
560.683	85.44
560.895	81.44
561.107	82.44
561.32	82.44
561.532	91.44
561.744	82.44
561.956	90.44
562.168	89.44
562.381	94.44
562.593	87.44
562.805	78.44
563.017	83.44
563.229	96.44
563.441	98.44
563.653	86.44
563.865	82.44
564.077	87.44
564.289	77.44
564.501	88.44
564.713	82.44
564.925	105.44
565.137	97.44
565.349	83.44
565.561	82.44
565.773	80.44
565.985	87.44
566.197	73.44
566.408	81.44
566.62	99.44
566.832	76.44
567.044	82.44
567.255	91.44
567.467	73.44
567.679	89.44
567.891	101.44
568.102	85.44
568.314	92.44
568.526	86.44
568.737	93.44
568.949	74.44
569.161	78.44
569.372	89.44
569.584	84.44
569.795	82.44
570.007	118.44
570.218	279.44
570.43	142.44
570.641	80.44
570.853	94.44
571.064	90.44
571.276	94.44
571.487	82.44
571.698	88.44
571.91	77.44
572.121	87.44
572.333	83.44
572.544	102.44
572.755	86.44
572.966	79.44
573.178	81.44
573.389	93.44
573.6	84.44
573.811	90.44
574.023	86.44
574.234	88.44
574.445	94.44
574.656	81.44
574.867	93.44
575.078	94.44
575.289	103.44
575.501	90.44
575.712	75.44
575.923	90.44
576.134	90.44
576.345	79.44
576.556	94.44
576.767	83.44
576.978	99.44
577.188	79.44
577.399	75.44
577.61	93.44
577.821	100.44
578.032	118.44
578.243	335.44
578.454	867.44
578.665	226.44
578.875	117.44
579.086	96.44
579.297	77.44
579.508	91.44
579.718	71.44
579.929	93.44
580.14	85.44
580.35	74.44
580.561	88.44
580.772	95.44
580.982	73.44
581.193	74.44
581.403	67.44
581.614	81.44
581.825	84.44
582.035	93.44
582.246	90.44
582.456	82.44
582.667	91.44
582.877	91.44
583.087	102.44
583.298	80.44
583.508	77.44
583.719	78.44
583.929	95.44
584.139	98.44
584.35	82.44
584.56	86.44
584.77	82.44
584.981	87.44
585.191	83.44
585.401	88.44
585.611	83.44
585.821	90.44
586.032	87.44
586.242	100.44
586.452	88.44
586.662	75.44
586.872	82.44
587.082	78.44
587.292	87.44
587.502	79.44
587.713	91.44
587.923	89.44
588.133	93.44
588.343	103.44
588.553	88.44
588.762	73.44
588.972	88.44
589.182	89.44
589.392	82.44
589.602	91.44
589.812	96.44
590.022	74.44
590.232	85.44
590.441	90.44
590.651	72.44
590.861	85.44
591.071	91.44
591.281	93.44
591.49	76.44
591.7	87.44
591.91	90.44
592.119	94.44
592.329	100.44
592.539	86.44
592.748	96.44
592.958	88.44
593.167	85.44
593.377	91.44
593.587	95.44
593.796	91.44
594.006	95.44
594.215	88.44
594.424	76.44
594.634	99.44
594.843	80.44
595.053	81.44
595.262	85.44
595.472	87.44
595.681	85.44
595.89	76.44
596.1	96.44
596.309	74.44
596.518	83.44
596.727	94.44
596.937	95.44
597.146	77.44
597.355	95.44
597.564	89.44
597.774	91.44
597.983	78.44
598.192	77.44
598.401	88.44
598.61	83.44
598.819	82.44
599.028	78.44
599.237	87.44
599.446	77.44
599.655	80.44
599.864	98.44
600.073	86.44
600.282	92.44
600.491	71.44
600.7	81.44
600.909	87.44
601.118	105.44
601.327	84.44
601.536	87.44
601.745	82.44
601.953	90.44
602.162	102.44
602.371	78.44
602.58	93.44
602.789	81.44
602.997	92.44
603.206	88.44
603.415	96.44
603.623	91.44
603.832	86.44
604.041	97.44
604.249	94.44
604.458	83.44
604.666	80.44
604.875	88.44
605.084	101.44
605.292	94.44
605.501	79.44
605.709	96.44
605.918	80.44
606.126	91.44
606.334	81.44
606.543	85.44
606.751	83.44
606.96	78.44
607.168	97.44
607.376	83.44
607.585	89.44
607.793	85.44
608.001	79.44
608.21	72.44
608.418	83.44
608.626	93.44
608.834	73.44
609.043	87.44
609.251	86.44
609.459	87.44
609.667	93.44
609.875	105.44
610.083	89.44
610.291	92.44
610.499	81.44
610.707	91.44
610.916	86.44
611.124	77.44
611.332	86.44
611.54	86.44
611.748	90.44
611.955	92.44
612.163	96.44
612.371	86.44
612.579	88.44
612.787	75.44
612.995	95.44
613.203	86.44
613.411	85.44
613.618	88.44
613.826	89.44
614.034	92.44
614.242	85.44
614.449	85.44
614.657	87.44
614.865	80.44
615.072	79.44
615.28	80.44
615.488	83.44
615.695	95.44
615.903	94.44
616.111	97.44
616.318	101.44
616.526	98.44
616.733	97.44
616.941	91.44
617.148	89.44
617.356	87.44
617.563	82.44
617.771	77.44
617.978	90.44
618.185	94.44
618.393	85.44
618.6	85.44
618.807	88.44
619.015	86.44
619.222	66.44
619.429	84.44
619.637	88.44
619.844	89.44
620.051	91.44
620.258	97.44
620.466	75.44
620.673	98.44
620.88	79.44
621.087	79.44
621.294	96.44
621.501	83.44
621.708	87.44
621.915	80.44
622.122	85.44
622.329	88.44
622.536	94.44
622.743	85.44
622.95	73.44
623.157	97.44
623.364	98.44
623.571	93.44
623.778	87.44
623.985	96.44
624.192	76.44
624.399	92.44
624.606	80.44
624.812	86.44
625.019	86.44
625.226	90.44
625.433	71.44
625.639	89.44
625.846	83.44
626.053	94.44
626.259	90.44
626.466	110.44
626.673	76.44
626.879	84.44
627.086	82.44
627.293	71.44
627.499	82.44
627.706	87.44
627.912	77.44
628.119	81.44
628.325	88.44
628.532	85.44
628.738	82.44
628.945	87.44
629.151	80.44
629.357	92.44
629.564	80.44
629.77	94.44
629.976	79.44
630.183	85.44
630.389	93.44
630.595	90.44
630.802	95.44
631.008	70.44
631.214	92.44
631.42	106.44
631.627	98.44
631.833	77.44
632.039	87.44
632.245	88.44
632.451	77.44
632.657	86.44
632.863	85.44
633.069	88.44
633.275	86.44
633.481	93.44
633.688	95.44
633.893	72.44
634.099	91.44
634.305	90.44
634.511	98.44
634.717	72.44
634.923	79.44
635.129	96.44
635.335	77.44
635.541	87.44
635.747	78.44
635.952	79.44
636.158	77.44
636.364	77.44
636.57	80.44
636.775	87.44
636.981	83.44
637.187	92.44
637.392	90.44
637.598	86.44
637.804	101.44
638.009	72.44
638.215	78.44
638.421	85.44
638.626	92.44
638.832	89.44
639.037	92.44
639.243	83.44
639.448	81.44
639.654	78.44
639.859	88.44
640.065	77.44
640.27	94.44
640.475	77.44
640.681	92.44
640.886	91.44
641.091	88.44
641.297	78.44
641.502	78.44
641.707	94.44
641.913	95.44
642.118	82.44
642.323	89.44
642.528	87.44
642.733	86.44
642.939	75.44
643.144	86.44
643.349	83.44
643.554	81.44
643.759	90.44
643.964	105.44
644.169	90.44
644.374	89.44
644.579	89.44
644.784	90.44
644.989	81.44
645.194	88.44
645.399	81.44
645.604	81.44
645.809	90.44
646.014	88.44
646.219	93.44
646.423	75.44
646.628	86.44
646.833	94.44
647.038	77.44
647.243	85.44
647.447	78.44
647.652	95.44
647.857	72.44
648.062	85.44
648.266	98.44
648.471	87.44
648.676	89.44
648.88	101.44
649.085	83.44
649.289	81.44
649.494	102.44
649.698	123.44
649.903	88.44
650.107	95.44
650.312	86.44
650.516	75.44
650.721	71.44
650.925	77.44
651.13	80.44
651.334	93.44
651.539	87.44
651.743	89.44
651.947	75.44
652.152	71.44
652.356	99.44
652.56	75.44
652.764	82.44
652.969	77.44
653.173	97.44
653.377	84.44
653.581	89.44
653.785	71.44
653.99	90.44
654.194	72.44
654.398	89.44
654.602	81.44
654.806	80.44
655.01	102.44
655.214	93.44
655.418	80.44
655.622	91.44
655.826	86.44
656.03	82.44
656.234	94.44
656.438	105.44
656.642	104.44
656.846	92.44
657.049	94.44
657.253	85.44
657.457	78.44
657.661	89.44
657.865	87.44
658.068	66.44
658.272	81.44
658.476	83.44
658.68	93.44
658.883	85.44
659.087	83.44
659.291	81.44
659.494	68.44
659.698	85.44
659.901	82.44
660.105	83.44
660.309	81.44
660.512	70.44
660.716	81.44
660.919	94.44
661.123	75.44
661.326	74.44
661.53	69.44
661.733	76.44
661.936	80.44
662.14	79.44
662.343	82.44
662.546	72.44
662.75	84.44
662.953	86.44
663.156	87.44
663.36	67.44
663.563	90.44
663.766	83.44
663.969	90.44
664.173	79.44
664.376	94.44
664.579	77.44
664.782	89.44
664.985	86.44
665.188	83.44
665.391	68.44
665.594	79.44
665.797	80.44
666	87.44
666.203	70.44
666.406	87.44
666.609	76.44
666.812	73.44
667.015	75.44
667.218	78.44
667.421	82.44
667.624	97.44
667.827	88.44
668.03	85.44
668.232	87.44
668.435	85.44
668.638	84.44
668.841	84.44
669.043	75.44
669.246	81.44
669.449	85.44
669.651	87.44
669.854	102.44
670.057	83.44
670.259	86.44
670.462	90.44
670.665	81.44
670.867	86.44
671.07	85.44
671.272	83.44
671.475	82.44
671.677	82.44
671.88	73.44
672.082	73.44
672.284	82.44
672.487	82.44
672.689	78.44
672.892	87.44
