Data from Uncirc_1995_H10_HRD10591_00041.txt Node
Date: Wed Jan 03 11:35:42 EST 2024
User: Yrep
Spectrometer: HR+D1059
Trigger mode: 1
Integration Time (sec): 1.000000E-1
Scans to average: 1
Electric dark correction enabled: true
Nonlinearity correction enabled: false
Boxcar width: 0
XAxis mode: Wavelengths
Number of Pixels in Spectrum: 2048
>>>>>Begin Spectral Data<<<<<
223.165	-19.69
223.4	-19.69
223.635	-19.69
223.869	-29.69
224.104	-18.69
224.338	-17.69
224.573	-25.69
224.808	-8.69
225.042	4.31
225.277	-12.69
225.511	-2.69
225.746	6.31
225.98	17.31
226.215	18.31
226.449	15.31
226.683	10.31
226.918	30.31
227.152	33.31
227.387	37.31
227.621	36.31
227.856	54.31
228.09	54.31
228.324	72.31
228.559	64.31
228.793	54.31
229.027	62.31
229.262	67.31
229.496	74.31
229.73	74.31
229.964	69.31
230.199	79.31
230.433	56.31
230.667	87.31
230.901	74.31
231.136	90.31
231.37	77.31
231.604	82.31
231.838	80.31
232.072	78.31
232.306	85.31
232.541	75.31
232.775	83.31
233.009	98.31
233.243	94.31
233.477	76.31
233.711	72.31
233.945	83.31
234.179	82.31
234.413	94.31
234.647	81.31
234.881	84.31
235.115	78.31
235.349	83.31
235.583	86.31
235.817	70.31
236.051	80.31
236.285	69.31
236.519	90.31
236.753	74.31
236.987	77.31
237.221	89.31
237.455	81.31
237.689	87.31
237.922	66.31
238.156	86.31
238.39	81.31
238.624	77.31
238.858	72.31
239.091	78.31
239.325	83.31
239.559	89.31
239.793	86.31
240.027	88.31
240.26	85.31
240.494	77.31
240.728	82.31
240.961	73.31
241.195	90.31
241.429	83.31
241.662	68.31
241.896	85.31
242.13	78.31
242.363	93.31
242.597	83.31
242.83	78.31
243.064	85.31
243.298	74.31
243.531	78.31
243.765	82.31
243.998	88.31
244.232	88.31
244.465	84.31
244.699	69.31
244.932	94.31
245.166	75.31
245.399	77.31
245.633	80.31
245.866	84.31
246.099	79.31
246.333	74.31
246.566	80.31
246.8	80.31
247.033	84.31
247.266	86.31
247.5	72.31
247.733	79.31
247.966	79.31
248.2	80.31
248.433	80.31
248.666	70.31
248.899	76.31
249.133	84.31
249.366	95.31
249.599	86.31
249.832	89.31
250.066	81.31
250.299	92.31
250.532	84.31
250.765	81.31
250.998	81.31
251.231	79.31
251.465	66.31
251.698	75.31
251.931	70.31
252.164	92.31
252.397	79.31
252.63	92.31
252.863	91.31
253.096	80.31
253.329	80.31
253.562	102.31
253.795	97.31
254.028	88.31
254.261	78.31
254.494	84.31
254.727	68.31
254.96	65.31
255.193	80.31
255.426	71.31
255.659	82.31
255.892	70.31
256.124	84.31
256.357	93.31
256.59	75.31
256.823	88.31
257.056	86.31
257.289	68.31
257.521	92.31
257.754	86.31
257.987	91.31
258.22	82.31
258.452	80.31
258.685	88.31
258.918	75.31
259.151	83.31
259.383	94.31
259.616	88.31
259.849	87.31
260.081	96.31
260.314	81.31
260.547	95.31
260.779	77.31
261.012	78.31
261.244	102.31
261.477	89.31
261.71	88.31
261.942	110.31
262.175	110.31
262.407	82.31
262.64	77.31
262.872	86.31
263.105	96.31
263.337	103.31
263.57	73.31
263.802	78.31
264.035	98.31
264.267	81.31
264.499	82.31
264.732	82.31
264.964	81.31
265.197	91.31
265.429	89.31
265.661	88.31
265.894	90.31
266.126	93.31
266.358	98.31
266.591	84.31
266.823	77.31
267.055	92.31
267.287	77.31
267.52	81.31
267.752	75.31
267.984	82.31
268.216	77.31
268.448	97.31
268.681	88.31
268.913	98.31
269.145	91.31
269.377	94.31
269.609	77.31
269.841	81.31
270.073	89.31
270.306	77.31
270.538	93.31
270.77	88.31
271.002	89.31
271.234	90.31
271.466	95.31
271.698	94.31
271.93	83.31
272.162	80.31
272.394	90.31
272.626	88.31
272.858	90.31
273.09	82.31
273.322	81.31
273.553	92.31
273.785	91.31
274.017	84.31
274.249	67.31
274.481	81.31
274.713	78.31
274.945	87.31
275.176	80.31
275.408	78.31
275.64	74.31
275.872	102.31
276.104	86.31
276.335	103.31
276.567	102.31
276.799	109.31
277.031	97.31
277.262	74.31
277.494	87.31
277.726	106.31
277.957	103.31
278.189	93.31
278.421	89.31
278.652	99.31
278.884	84.31
279.115	85.31
279.347	78.31
279.579	88.31
279.81	76.31
280.042	74.31
280.273	85.31
280.505	86.31
280.736	68.31
280.968	88.31
281.199	91.31
281.431	83.31
281.662	95.31
281.894	86.31
282.125	87.31
282.356	105.31
282.588	121.31
282.819	105.31
283.051	83.31
283.282	92.31
283.513	93.31
283.745	92.31
283.976	102.31
284.207	94.31
284.439	83.31
284.67	84.31
284.901	84.31
285.132	76.31
285.364	82.31
285.595	90.31
285.826	86.31
286.057	95.31
286.288	90.31
286.52	88.31
286.751	80.31
286.982	82.31
287.213	88.31
287.444	82.31
287.675	79.31
287.906	89.31
288.138	89.31
288.369	96.31
288.6	96.31
288.831	84.31
289.062	84.31
289.293	76.31
289.524	100.31
289.755	100.31
289.986	76.31
290.217	92.31
290.448	91.31
290.679	84.31
290.91	94.31
291.141	89.31
291.371	100.31
291.602	91.31
291.833	85.31
292.064	76.31
292.295	102.31
292.526	96.31
292.757	101.31
292.987	100.31
293.218	97.31
293.449	82.31
293.68	80.31
293.91	88.31
294.141	105.31
294.372	93.31
294.603	90.31
294.833	94.31
295.064	90.31
295.295	75.31
295.525	78.31
295.756	94.31
295.987	92.31
296.217	133.31
296.448	116.31
296.679	107.31
296.909	84.31
297.14	105.31
297.37	91.31
297.601	88.31
297.831	98.31
298.062	90.31
298.292	84.31
298.523	78.31
298.753	96.31
298.984	90.31
299.214	87.31
299.445	87.31
299.675	94.31
299.905	105.31
300.136	82.31
300.366	84.31
300.597	97.31
300.827	98.31
301.057	105.31
301.288	103.31
301.518	94.31
301.748	92.31
301.979	95.31
302.209	95.31
302.439	86.31
302.669	85.31
302.9	77.31
303.13	89.31
303.36	91.31
303.59	106.31
303.82	101.31
304.051	85.31
304.281	93.31
304.511	99.31
304.741	101.31
304.971	92.31
305.201	83.31
305.431	85.31
305.661	88.31
305.891	101.31
306.121	102.31
306.352	111.31
306.582	105.31
306.812	91.31
307.042	78.31
307.272	86.31
307.502	80.31
307.731	93.31
307.961	88.31
308.191	86.31
308.421	86.31
308.651	101.31
308.881	79.31
309.111	85.31
309.341	94.31
309.571	93.31
309.8	97.31
310.03	98.31
310.26	103.31
310.49	109.31
310.72	89.31
310.949	100.31
311.179	85.31
311.409	87.31
311.639	98.31
311.868	82.31
312.098	105.31
312.328	95.31
312.557	94.31
312.787	103.31
313.017	108.31
313.246	91.31
313.476	88.31
313.706	87.31
313.935	91.31
314.165	98.31
314.394	113.31
314.624	90.31
314.853	88.31
315.083	87.31
315.312	86.31
315.542	88.31
315.771	92.31
316.001	92.31
316.23	88.31
316.46	95.31
316.689	100.31
316.919	86.31
317.148	84.31
317.377	95.31
317.607	95.31
317.836	87.31
318.065	98.31
318.295	92.31
318.524	89.31
318.753	100.31
318.983	87.31
319.212	98.31
319.441	113.31
319.67	105.31
319.9	108.31
320.129	93.31
320.358	115.31
320.587	100.31
320.816	92.31
321.046	95.31
321.275	99.31
321.504	94.31
321.733	100.31
321.962	87.31
322.191	97.31
322.42	128.31
322.649	115.31
322.878	113.31
323.108	109.31
323.337	120.31
323.566	136.31
323.795	140.31
324.024	200.31
324.253	391.31
324.482	804.31
324.71	1605.31
324.939	2130.31
325.168	796.31
325.397	257.31
325.626	158.31
325.855	137.31
326.084	124.31
326.313	129.31
326.542	153.31
326.77	226.31
326.999	459.31
327.228	920.31
327.457	1636.31
327.686	1324.31
327.914	380.31
328.143	189.31
328.372	142.31
328.6	133.31
328.829	132.31
329.058	114.31
329.287	124.31
329.515	108.31
329.744	105.31
329.972	101.31
330.201	108.31
330.43	105.31
330.658	119.31
330.887	131.31
331.115	111.31
331.344	112.31
331.572	109.31
331.801	106.31
332.03	89.31
332.258	104.31
332.486	79.31
332.715	101.31
332.943	107.31
333.172	88.31
333.4	112.31
333.629	106.31
333.857	113.31
334.085	100.31
334.314	98.31
334.542	104.31
334.771	94.31
334.999	95.31
335.227	99.31
335.455	104.31
335.684	99.31
335.912	88.31
336.14	92.31
336.369	91.31
336.597	110.31
336.825	101.31
337.053	97.31
337.281	86.31
337.51	70.31
337.738	80.31
337.966	112.31
338.194	85.31
338.422	93.31
338.65	98.31
338.878	94.31
339.106	93.31
339.334	94.31
339.562	85.31
339.79	90.31
340.018	99.31
340.246	94.31
340.474	88.31
340.702	92.31
340.93	91.31
341.158	90.31
341.386	80.31
341.614	78.31
341.842	93.31
342.07	84.31
342.298	98.31
342.526	92.31
342.754	99.31
342.981	85.31
343.209	101.31
343.437	96.31
343.665	104.31
343.893	101.31
344.12	104.31
344.348	92.31
344.576	107.31
344.804	101.31
345.031	99.31
345.259	91.31
345.487	85.31
345.714	90.31
345.942	92.31
346.17	114.31
346.397	86.31
346.625	96.31
346.853	104.31
347.08	98.31
347.308	92.31
347.535	94.31
347.763	98.31
347.99	97.31
348.218	99.31
348.445	95.31
348.673	83.31
348.9	98.31
349.128	94.31
349.355	95.31
349.583	101.31
349.81	87.31
350.037	96.31
350.265	108.31
350.492	113.31
350.72	82.31
350.947	108.31
351.174	101.31
351.402	91.31
351.629	100.31
351.856	98.31
352.083	93.31
352.311	101.31
352.538	103.31
352.765	101.31
352.992	112.31
353.22	106.31
353.447	106.31
353.674	106.31
353.901	105.31
354.128	89.31
354.355	91.31
354.583	96.31
354.81	108.31
355.037	111.31
355.264	109.31
355.491	100.31
355.718	88.31
355.945	98.31
356.172	90.31
356.399	110.31
356.626	88.31
356.853	91.31
357.08	91.31
357.307	99.31
357.534	90.31
357.761	95.31
357.988	91.31
358.215	88.31
358.441	91.31
358.668	92.31
358.895	95.31
359.122	102.31
359.349	99.31
359.576	104.31
359.802	92.31
360.029	110.31
360.256	108.31
360.483	98.31
360.709	92.31
360.936	88.31
361.163	80.31
361.39	111.31
361.616	92.31
361.843	92.31
362.07	86.31
362.296	95.31
362.523	102.31
362.749	95.31
362.976	97.31
363.203	95.31
363.429	91.31
363.656	87.31
363.882	86.31
364.109	82.31
364.335	98.31
364.562	91.31
364.788	105.31
365.015	85.31
365.241	110.31
365.468	110.31
365.694	111.31
365.92	106.31
366.147	97.31
366.373	97.31
366.599	86.31
366.826	84.31
367.052	96.31
367.278	82.31
367.505	89.31
367.731	94.31
367.957	90.31
368.184	86.31
368.41	88.31
368.636	108.31
368.862	127.31
369.089	111.31
369.315	98.31
369.541	92.31
369.767	96.31
369.993	98.31
370.219	100.31
370.445	94.31
370.672	90.31
370.898	98.31
371.124	102.31
371.35	97.31
371.576	77.31
371.802	95.31
372.028	80.31
372.254	90.31
372.48	99.31
372.706	89.31
372.932	80.31
373.158	94.31
373.384	88.31
373.61	76.31
373.835	98.31
374.061	93.31
374.287	108.31
374.513	89.31
374.739	88.31
374.965	80.31
375.191	91.31
375.416	88.31
375.642	84.31
375.868	96.31
376.094	94.31
376.319	85.31
376.545	92.31
376.771	87.31
376.997	98.31
377.222	96.31
377.448	93.31
377.674	94.31
377.899	82.31
378.125	93.31
378.35	102.31
378.576	105.31
378.802	92.31
379.027	88.31
379.253	96.31
379.478	98.31
379.704	76.31
379.929	89.31
380.155	85.31
380.38	90.31
380.606	84.31
380.831	84.31
381.057	103.31
381.282	95.31
381.507	117.31
381.733	98.31
381.958	110.31
382.184	95.31
382.409	101.31
382.634	97.31
382.86	107.31
383.085	98.31
383.31	111.31
383.535	115.31
383.761	108.31
383.986	98.31
384.211	94.31
384.436	96.31
384.662	95.31
384.887	113.31
385.112	113.31
385.337	104.31
385.562	109.31
385.787	95.31
386.013	102.31
386.238	111.31
386.463	95.31
386.688	115.31
386.913	106.31
387.138	91.31
387.363	102.31
387.588	103.31
387.813	121.31
388.038	117.31
388.263	113.31
388.488	113.31
388.713	120.31
388.938	86.31
389.163	104.31
389.387	99.31
389.612	90.31
389.837	90.31
390.062	98.31
390.287	107.31
390.512	106.31
390.736	93.31
390.961	89.31
391.186	85.31
391.411	86.31
391.636	66.31
391.86	91.31
392.085	78.31
392.31	93.31
392.534	85.31
392.759	85.31
392.984	91.31
393.208	89.31
393.433	74.31
393.658	85.31
393.882	92.31
394.107	91.31
394.331	90.31
394.556	84.31
394.78	112.31
395.005	77.31
395.229	96.31
395.454	88.31
395.678	88.31
395.903	93.31
396.127	109.31
396.352	92.31
396.576	86.31
396.801	96.31
397.025	93.31
397.249	87.31
397.474	73.31
397.698	89.31
397.922	97.31
398.147	83.31
398.371	83.31
398.595	81.31
398.82	85.31
399.044	85.31
399.268	90.31
399.492	82.31
399.717	85.31
399.941	103.31
400.165	91.31
400.389	89.31
400.613	92.31
400.837	85.31
401.062	85.31
401.286	86.31
401.51	95.31
401.734	84.31
401.958	103.31
402.182	115.31
402.406	155.31
402.63	112.31
402.854	98.31
403.078	89.31
403.302	90.31
403.526	77.31
403.75	98.31
403.974	100.31
404.198	86.31
404.422	97.31
404.645	91.31
404.869	76.31
405.093	90.31
405.317	90.31
405.541	114.31
405.765	102.31
405.988	111.31
406.212	153.31
406.436	216.31
406.66	126.31
406.883	100.31
407.107	107.31
407.331	101.31
407.555	110.31
407.778	96.31
408.002	81.31
408.226	92.31
408.449	84.31
408.673	93.31
408.896	93.31
409.12	94.31
409.344	97.31
409.567	90.31
409.791	99.31
410.014	103.31
410.238	101.31
410.461	88.31
410.685	99.31
410.908	95.31
411.132	123.31
411.355	88.31
411.578	94.31
411.802	97.31
412.025	95.31
412.249	100.31
412.472	96.31
412.695	85.31
412.919	84.31
413.142	76.31
413.365	88.31
413.589	90.31
413.812	101.31
414.035	91.31
414.258	94.31
414.482	89.31
414.705	94.31
414.928	74.31
415.151	97.31
415.374	98.31
415.597	84.31
415.821	79.31
416.044	104.31
416.267	82.31
416.49	96.31
416.713	77.31
416.936	69.31
417.159	81.31
417.382	82.31
417.605	97.31
417.828	87.31
418.051	92.31
418.274	85.31
418.497	97.31
418.72	86.31
418.943	91.31
419.166	94.31
419.389	92.31
419.611	94.31
419.834	99.31
420.057	93.31
420.28	92.31
420.503	100.31
420.726	87.31
420.948	91.31
421.171	101.31
421.394	92.31
421.617	96.31
421.839	90.31
422.062	99.31
422.285	96.31
422.507	98.31
422.73	98.31
422.953	85.31
423.175	97.31
423.398	104.31
423.621	81.31
423.843	80.31
424.066	92.31
424.288	91.31
424.511	83.31
424.733	103.31
424.956	99.31
425.178	90.31
425.401	98.31
425.623	94.31
425.846	80.31
426.068	98.31
426.291	109.31
426.513	104.31
426.735	81.31
426.958	101.31
427.18	97.31
427.402	141.31
427.625	139.31
427.847	129.31
428.069	106.31
428.292	91.31
428.514	87.31
428.736	83.31
428.958	80.31
429.181	85.31
429.403	80.31
429.625	92.31
429.847	84.31
430.069	90.31
430.292	94.31
430.514	93.31
430.736	85.31
430.958	92.31
431.18	71.31
431.402	93.31
431.624	85.31
431.846	91.31
432.068	77.31
432.29	99.31
432.512	92.31
432.734	80.31
432.956	106.31
433.178	87.31
433.4	99.31
433.622	111.31
433.844	96.31
434.066	73.31
434.287	90.31
434.509	77.31
434.731	89.31
434.953	84.31
435.175	84.31
435.397	96.31
435.618	90.31
435.84	102.31
436.062	124.31
436.284	108.31
436.505	97.31
436.727	108.31
436.949	98.31
437.17	86.31
437.392	89.31
437.614	82.31
437.835	106.31
438.057	107.31
438.278	96.31
438.5	90.31
438.721	102.31
438.943	90.31
439.165	88.31
439.386	104.31
439.608	96.31
439.829	102.31
440.05	121.31
440.272	132.31
440.493	101.31
440.715	97.31
440.936	102.31
441.158	96.31
441.379	90.31
441.6	94.31
441.822	89.31
442.043	101.31
442.264	101.31
442.486	103.31
442.707	106.31
442.928	101.31
443.149	128.31
443.371	124.31
443.592	104.31
443.813	115.31
444.034	114.31
444.255	92.31
444.476	98.31
444.698	114.31
444.919	80.31
445.14	121.31
445.361	117.31
445.582	105.31
445.803	130.31
446.024	122.31
446.245	131.31
446.466	108.31
446.687	102.31
446.908	110.31
447.129	81.31
447.35	82.31
447.571	89.31
447.792	111.31
448.013	99.31
448.234	102.31
448.455	86.31
448.675	104.31
448.896	124.31
449.117	101.31
449.338	93.31
449.559	117.31
449.779	130.31
450	100.31
450.221	80.31
450.442	85.31
450.662	110.31
450.883	100.31
451.104	109.31
451.324	95.31
451.545	99.31
451.766	75.31
451.986	99.31
452.207	92.31
452.428	91.31
452.648	103.31
452.869	99.31
453.089	107.31
453.31	127.31
453.53	74.31
453.751	94.31
453.971	108.31
454.192	114.31
454.412	89.31
454.633	92.31
454.853	93.31
455.073	89.31
455.294	101.31
455.514	99.31
455.734	90.31
455.955	80.31
456.175	88.31
456.395	90.31
456.616	91.31
456.836	73.31
457.056	89.31
457.276	92.31
457.497	86.31
457.717	76.31
457.937	88.31
458.157	108.31
458.377	92.31
458.598	101.31
458.818	144.31
459.038	137.31
459.258	120.31
459.478	91.31
459.698	94.31
459.918	96.31
460.138	113.31
460.358	96.31
460.578	83.31
460.798	93.31
461.018	94.31
461.238	92.31
461.458	73.31
461.678	68.31
461.898	88.31
462.118	91.31
462.338	81.31
462.558	90.31
462.777	80.31
462.997	89.31
463.217	82.31
463.437	93.31
463.657	94.31
463.876	82.31
464.096	80.31
464.316	81.31
464.536	97.31
464.755	77.31
464.975	98.31
465.195	160.31
465.414	136.31
465.634	113.31
465.854	90.31
466.073	94.31
466.293	82.31
466.512	84.31
466.732	94.31
466.951	81.31
467.171	100.31
467.391	99.31
467.61	103.31
467.829	104.31
468.049	85.31
468.268	92.31
468.488	74.31
468.707	88.31
468.927	77.31
469.146	92.31
469.365	80.31
469.585	91.31
469.804	101.31
470.023	102.31
470.243	100.31
470.462	105.31
470.681	108.31
470.901	82.31
471.12	87.31
471.339	85.31
471.558	99.31
471.777	96.31
471.997	101.31
472.216	83.31
472.435	90.31
472.654	92.31
472.873	98.31
473.092	88.31
473.311	83.31
473.53	93.31
473.749	85.31
473.968	95.31
474.187	106.31
474.406	107.31
474.625	87.31
474.844	89.31
475.063	88.31
475.282	94.31
475.501	85.31
475.72	94.31
475.939	84.31
476.158	80.31
476.377	76.31
476.596	95.31
476.814	112.31
477.033	103.31
477.252	94.31
477.471	92.31
477.69	93.31
477.908	85.31
478.127	87.31
478.346	94.31
478.564	89.31
478.783	102.31
479.002	107.31
479.22	86.31
479.439	108.31
479.658	94.31
479.876	87.31
480.095	94.31
480.313	101.31
480.532	83.31
480.751	85.31
480.969	91.31
481.188	105.31
481.406	86.31
481.624	72.31
481.843	89.31
482.061	98.31
482.28	110.31
482.498	94.31
482.717	81.31
482.935	90.31
483.153	99.31
483.372	101.31
483.59	80.31
483.808	100.31
484.027	95.31
484.245	94.31
484.463	108.31
484.681	104.31
484.9	107.31
485.118	89.31
485.336	101.31
485.554	98.31
485.772	106.31
485.99	99.31
486.209	106.31
486.427	112.31
486.645	118.31
486.863	106.31
487.081	101.31
487.299	91.31
487.517	105.31
487.735	103.31
487.953	105.31
488.171	94.31
488.389	102.31
488.607	100.31
488.825	108.31
489.043	85.31
489.261	102.31
489.479	80.31
489.696	86.31
489.914	76.31
490.132	90.31
490.35	98.31
490.568	90.31
490.786	93.31
491.003	82.31
491.221	103.31
491.439	91.31
491.657	83.31
491.874	84.31
492.092	97.31
492.31	98.31
492.527	88.31
492.745	70.31
492.963	93.31
493.18	94.31
493.398	102.31
493.615	105.31
493.833	97.31
494.05	110.31
494.268	96.31
494.485	92.31
494.703	98.31
494.92	100.31
495.138	80.31
495.355	84.31
495.573	109.31
495.79	87.31
496.008	82.31
496.225	111.31
496.442	97.31
496.66	96.31
496.877	94.31
497.094	102.31
497.312	75.31
497.529	84.31
497.746	95.31
497.963	88.31
498.181	91.31
498.398	81.31
498.615	115.31
498.832	98.31
499.049	91.31
499.267	91.31
499.484	87.31
499.701	94.31
499.918	97.31
500.135	92.31
500.352	99.31
500.569	90.31
500.786	97.31
501.003	88.31
501.22	85.31
501.437	94.31
501.654	90.31
501.871	102.31
502.088	95.31
502.305	104.31
502.522	95.31
502.739	95.31
502.956	93.31
503.172	92.31
503.389	85.31
503.606	110.31
503.823	93.31
504.04	85.31
504.256	104.31
504.473	108.31
504.69	84.31
504.907	86.31
505.123	94.31
505.34	91.31
505.557	85.31
505.773	96.31
505.99	94.31
506.207	95.31
506.423	89.31
506.64	87.31
506.856	97.31
507.073	97.31
507.289	99.31
507.506	111.31
507.722	115.31
507.939	125.31
508.155	101.31
508.372	93.31
508.588	99.31
508.805	117.31
509.021	89.31
509.238	90.31
509.454	106.31
509.67	111.31
509.887	110.31
510.103	140.31
510.319	222.31
510.536	726.31
510.752	2274.31
510.968	632.31
511.184	160.31
511.401	104.31
511.617	104.31
511.833	93.31
512.049	92.31
512.265	96.31
512.481	102.31
512.698	96.31
512.914	96.31
513.13	88.31
513.346	97.31
513.562	96.31
513.778	103.31
513.994	108.31
514.21	94.31
514.426	111.31
514.642	122.31
514.858	117.31
515.074	181.31
515.29	425.31
515.506	1344.31
515.721	483.31
515.937	163.31
516.153	124.31
516.369	108.31
516.585	88.31
516.801	101.31
517.016	91.31
517.232	83.31
517.448	83.31
517.664	100.31
517.879	93.31
518.095	91.31
518.311	88.31
518.527	102.31
518.742	102.31
518.958	100.31
519.173	98.31
519.389	102.31
519.605	96.31
519.82	101.31
520.036	108.31
520.251	113.31
520.467	115.31
520.682	106.31
520.898	118.31
521.113	107.31
521.329	130.31
521.544	176.31
521.76	520.31
521.975	2265.31
522.19	1363.31
522.406	290.31
522.621	129.31
522.836	112.31
523.052	90.31
523.267	95.31
523.482	113.31
523.698	96.31
523.913	113.31
524.128	92.31
524.343	94.31
524.559	97.31
524.774	74.31
524.989	106.31
525.204	96.31
525.419	107.31
525.634	109.31
525.849	85.31
526.064	90.31
526.28	97.31
526.495	97.31
526.71	98.31
526.925	98.31
527.14	97.31
527.355	84.31
527.57	102.31
527.785	104.31
527.999	97.31
528.214	90.31
528.429	97.31
528.644	99.31
528.859	101.31
529.074	89.31
529.289	124.31
529.503	167.31
529.718	112.31
529.933	83.31
530.148	87.31
530.363	93.31
530.577	84.31
530.792	85.31
531.007	93.31
531.221	99.31
531.436	100.31
531.651	94.31
531.865	82.31
532.08	102.31
532.295	98.31
532.509	108.31
532.724	101.31
532.938	91.31
533.153	94.31
533.367	86.31
533.582	101.31
533.796	83.31
534.011	81.31
534.225	91.31
534.44	100.31
534.654	82.31
534.868	94.31
535.083	95.31
535.297	112.31
535.511	118.31
535.726	97.31
535.94	112.31
536.154	110.31
536.369	85.31
536.583	89.31
536.797	90.31
537.011	88.31
537.225	84.31
537.44	94.31
537.654	92.31
537.868	86.31
538.082	102.31
538.296	92.31
538.51	96.31
538.724	92.31
538.938	84.31
539.153	97.31
539.367	103.31
539.581	98.31
539.795	87.31
540.009	95.31
540.222	88.31
540.436	100.31
540.65	91.31
540.864	84.31
541.078	96.31
541.292	86.31
541.506	93.31
541.72	106.31
541.934	93.31
542.147	96.31
542.361	94.31
542.575	103.31
542.789	102.31
543.002	92.31
543.216	103.31
543.43	108.31
543.644	98.31
543.857	89.31
544.071	99.31
544.285	94.31
544.498	90.31
544.712	82.31
544.925	89.31
545.139	105.31
545.352	90.31
545.566	93.31
545.779	91.31
545.993	89.31
546.206	85.31
546.42	80.31
546.633	86.31
546.847	105.31
547.06	106.31
547.274	88.31
547.487	94.31
547.7	106.31
547.914	94.31
548.127	81.31
548.34	91.31
548.554	94.31
548.767	91.31
548.98	84.31
549.193	89.31
549.407	98.31
549.62	88.31
549.833	85.31
550.046	81.31
550.259	95.31
550.473	85.31
550.686	89.31
550.899	94.31
551.112	90.31
551.325	93.31
551.538	94.31
551.751	91.31
551.964	74.31
552.177	99.31
552.39	68.31
552.603	99.31
552.816	93.31
553.029	92.31
553.242	93.31
553.455	88.31
553.667	98.31
553.88	103.31
554.093	89.31
554.306	91.31
554.519	89.31
554.732	94.31
554.944	100.31
555.157	111.31
555.37	102.31
555.583	106.31
555.795	94.31
556.008	90.31
556.221	91.31
556.433	91.31
556.646	97.31
556.859	110.31
557.071	86.31
557.284	92.31
557.496	86.31
557.709	78.31
557.921	101.31
558.134	94.31
558.346	107.31
558.559	83.31
558.771	103.31
558.984	94.31
559.196	90.31
559.409	85.31
559.621	94.31
559.833	78.31
560.046	87.31
560.258	84.31
560.47	87.31
560.683	101.31
560.895	93.31
561.107	89.31
561.32	97.31
561.532	78.31
561.744	99.31
561.956	88.31
562.168	83.31
562.381	90.31
562.593	96.31
562.805	97.31
563.017	95.31
563.229	95.31
563.441	89.31
563.653	89.31
563.865	81.31
564.077	83.31
564.289	99.31
564.501	85.31
564.713	97.31
564.925	110.31
565.137	88.31
565.349	97.31
565.561	77.31
565.773	96.31
565.985	83.31
566.197	84.31
566.408	85.31
566.62	87.31
566.832	76.31
567.044	82.31
567.255	87.31
567.467	88.31
567.679	99.31
567.891	89.31
568.102	102.31
568.314	107.31
568.526	94.31
568.737	97.31
568.949	89.31
569.161	90.31
569.372	93.31
569.584	87.31
569.795	88.31
570.007	118.31
570.218	224.31
570.43	147.31
570.641	92.31
570.853	101.31
571.064	92.31
571.276	98.31
571.487	87.31
571.698	95.31
571.91	99.31
572.121	77.31
572.333	86.31
572.544	89.31
572.755	78.31
572.966	92.31
573.178	92.31
573.389	100.31
573.6	90.31
573.811	96.31
574.023	80.31
574.234	81.31
574.445	86.31
574.656	93.31
574.867	97.31
575.078	85.31
575.289	86.31
575.501	85.31
575.712	108.31
575.923	98.31
576.134	93.31
576.345	94.31
576.556	103.31
576.767	108.31
576.978	97.31
577.188	85.31
577.399	91.31
577.61	89.31
577.821	99.31
578.032	114.31
578.243	293.31
578.454	769.31
578.665	218.31
578.875	108.31
579.086	94.31
579.297	96.31
579.508	90.31
579.718	73.31
579.929	74.31
580.14	83.31
580.35	100.31
580.561	93.31
580.772	93.31
580.982	93.31
581.193	94.31
581.403	78.31
581.614	83.31
581.825	99.31
582.035	93.31
582.246	96.31
582.456	78.31
582.667	92.31
582.877	85.31
583.087	98.31
583.298	85.31
583.508	93.31
583.719	96.31
583.929	92.31
584.139	86.31
584.35	88.31
584.56	98.31
584.77	69.31
584.981	99.31
585.191	97.31
585.401	85.31
585.611	89.31
585.821	96.31
586.032	88.31
586.242	90.31
586.452	92.31
586.662	91.31
586.872	75.31
587.082	104.31
587.292	100.31
587.502	93.31
587.713	91.31
587.923	91.31
588.133	89.31
588.343	78.31
588.553	92.31
588.762	80.31
588.972	89.31
589.182	90.31
589.392	102.31
589.602	94.31
589.812	99.31
590.022	97.31
590.232	100.31
590.441	83.31
590.651	88.31
590.861	90.31
591.071	98.31
591.281	102.31
591.49	91.31
591.7	85.31
591.91	88.31
592.119	74.31
592.329	89.31
592.539	76.31
592.748	85.31
592.958	90.31
593.167	79.31
593.377	84.31
593.587	101.31
593.796	100.31
594.006	64.31
594.215	82.31
594.424	94.31
594.634	96.31
594.843	83.31
595.053	89.31
595.262	78.31
595.472	75.31
595.681	96.31
595.89	96.31
596.1	79.31
596.309	77.31
596.518	97.31
596.727	87.31
596.937	96.31
597.146	93.31
597.355	85.31
597.564	73.31
597.774	83.31
597.983	81.31
598.192	69.31
598.401	93.31
598.61	91.31
598.819	95.31
599.028	74.31
599.237	80.31
599.446	99.31
599.655	100.31
599.864	92.31
600.073	90.31
600.282	88.31
600.491	101.31
600.7	89.31
600.909	84.31
601.118	104.31
601.327	89.31
601.536	80.31
601.745	98.31
601.953	95.31
602.162	81.31
602.371	73.31
602.58	86.31
602.789	91.31
602.997	86.31
603.206	99.31
603.415	89.31
603.623	88.31
603.832	90.31
604.041	87.31
604.249	85.31
604.458	83.31
604.666	85.31
604.875	91.31
605.084	73.31
605.292	89.31
605.501	84.31
605.709	79.31
605.918	82.31
606.126	90.31
606.334	92.31
606.543	80.31
606.751	80.31
606.96	93.31
607.168	93.31
607.376	96.31
607.585	92.31
607.793	81.31
608.001	86.31
608.21	84.31
608.418	87.31
608.626	76.31
608.834	92.31
609.043	84.31
609.251	107.31
609.459	91.31
609.667	97.31
609.875	82.31
610.083	93.31
610.291	98.31
610.499	84.31
610.707	99.31
610.916	86.31
611.124	90.31
611.332	76.31
611.54	84.31
611.748	91.31
611.955	80.31
612.163	83.31
612.371	89.31
612.579	77.31
612.787	73.31
612.995	77.31
613.203	88.31
613.411	87.31
613.618	90.31
613.826	97.31
614.034	88.31
614.242	76.31
614.449	93.31
614.657	101.31
614.865	93.31
615.072	82.31
615.28	85.31
615.488	76.31
615.695	88.31
615.903	109.31
616.111	95.31
616.318	88.31
616.526	90.31
616.733	120.31
616.941	75.31
617.148	94.31
617.356	93.31
617.563	91.31
617.771	85.31
617.978	82.31
618.185	81.31
618.393	81.31
618.6	93.31
618.807	84.31
619.015	91.31
619.222	78.31
619.429	94.31
619.637	83.31
619.844	90.31
620.051	90.31
620.258	104.31
620.466	83.31
620.673	86.31
620.88	85.31
621.087	89.31
621.294	96.31
621.501	92.31
621.708	68.31
621.915	82.31
622.122	72.31
622.329	65.31
622.536	94.31
622.743	83.31
622.95	85.31
623.157	75.31
623.364	83.31
623.571	79.31
623.778	69.31
623.985	69.31
624.192	80.31
624.399	91.31
624.606	90.31
624.812	84.31
625.019	82.31
625.226	83.31
625.433	73.31
625.639	94.31
625.846	77.31
626.053	88.31
626.259	96.31
626.466	78.31
626.673	82.31
626.879	80.31
627.086	81.31
627.293	93.31
627.499	88.31
627.706	94.31
627.912	79.31
628.119	96.31
628.325	92.31
628.532	83.31
628.738	81.31
628.945	80.31
629.151	96.31
629.357	81.31
629.564	93.31
629.77	82.31
629.976	90.31
630.183	92.31
630.389	100.31
630.595	91.31
630.802	96.31
631.008	81.31
631.214	80.31
631.42	89.31
631.627	97.31
631.833	88.31
632.039	100.31
632.245	85.31
632.451	95.31
632.657	86.31
632.863	84.31
633.069	104.31
633.275	85.31
633.481	94.31
633.688	87.31
633.893	90.31
634.099	82.31
634.305	82.31
634.511	88.31
634.717	84.31
634.923	75.31
635.129	78.31
635.335	87.31
635.541	94.31
635.747	98.31
635.952	81.31
636.158	92.31
636.364	92.31
636.57	83.31
636.775	87.31
636.981	89.31
637.187	87.31
637.392	87.31
637.598	91.31
637.804	87.31
638.009	85.31
638.215	74.31
638.421	65.31
638.626	79.31
638.832	87.31
639.037	89.31
639.243	92.31
639.448	85.31
639.654	72.31
639.859	93.31
640.065	84.31
640.27	91.31
640.475	86.31
640.681	94.31
640.886	99.31
641.091	104.31
641.297	84.31
641.502	84.31
641.707	89.31
641.913	90.31
642.118	74.31
642.323	73.31
642.528	77.31
642.733	88.31
642.939	82.31
643.144	84.31
643.349	85.31
643.554	83.31
643.759	77.31
643.964	89.31
644.169	74.31
644.374	81.31
644.579	84.31
644.784	98.31
644.989	80.31
645.194	89.31
645.399	91.31
645.604	93.31
645.809	87.31
646.014	90.31
646.219	85.31
646.423	95.31
646.628	88.31
646.833	84.31
647.038	69.31
647.243	84.31
647.447	74.31
647.652	80.31
647.857	85.31
648.062	88.31
648.266	77.31
648.471	88.31
648.676	105.31
648.88	96.31
649.085	89.31
649.289	89.31
649.494	96.31
649.698	131.31
649.903	101.31
650.107	89.31
650.312	74.31
650.516	63.31
650.721	85.31
650.925	88.31
651.13	80.31
651.334	86.31
651.539	96.31
651.743	97.31
651.947	86.31
652.152	79.31
652.356	82.31
652.56	80.31
652.764	76.31
652.969	81.31
653.173	84.31
653.377	99.31
653.581	75.31
653.785	85.31
653.99	90.31
654.194	69.31
654.398	95.31
654.602	85.31
654.806	102.31
655.01	106.31
655.214	81.31
655.418	89.31
655.622	81.31
655.826	85.31
656.03	86.31
656.234	84.31
656.438	95.31
656.642	94.31
656.846	82.31
657.049	108.31
657.253	78.31
657.457	85.31
657.661	83.31
657.865	68.31
658.068	74.31
658.272	81.31
658.476	81.31
658.68	77.31
658.883	88.31
659.087	75.31
659.291	88.31
659.494	86.31
659.698	70.31
659.901	80.31
660.105	80.31
660.309	82.31
660.512	65.31
660.716	88.31
660.919	74.31
661.123	79.31
661.326	85.31
661.53	80.31
661.733	82.31
661.936	98.31
662.14	79.31
662.343	86.31
662.546	87.31
662.75	74.31
662.953	75.31
663.156	83.31
663.36	77.31
663.563	85.31
663.766	97.31
663.969	81.31
664.173	78.31
664.376	81.31
664.579	77.31
664.782	81.31
664.985	77.31
665.188	85.31
665.391	72.31
665.594	92.31
665.797	83.31
666	69.31
666.203	81.31
666.406	80.31
666.609	65.31
666.812	91.31
667.015	88.31
667.218	79.31
667.421	81.31
667.624	85.31
667.827	78.31
668.03	96.31
668.232	81.31
668.435	88.31
668.638	80.31
668.841	86.31
669.043	89.31
669.246	68.31
669.449	85.31
669.651	82.31
669.854	82.31
670.057	88.31
670.259	83.31
670.462	75.31
670.665	84.31
670.867	90.31
671.07	93.31
671.272	91.31
671.475	90.31
671.677	85.31
671.88	80.31
672.082	89.31
672.284	86.31
672.487	92.31
672.689	75.31
672.892	83.31
