Data from Uncirc_1995_H10_HRD10591_00096.txt Node
Date: Wed Jan 03 11:35:53 EST 2024
User: Yrep
Spectrometer: HR+D1059
Trigger mode: 1
Integration Time (sec): 1.000000E-1
Scans to average: 1
Electric dark correction enabled: true
Nonlinearity correction enabled: false
Boxcar width: 0
XAxis mode: Wavelengths
Number of Pixels in Spectrum: 2048
>>>>>Begin Spectral Data<<<<<
223.165	-21.12
223.4	-21.12
223.635	-21.12
223.869	-23.12
224.104	-13.12
224.338	-21.12
224.573	-18.12
224.808	-13.12
225.042	-6.12
225.277	-4.12
225.511	-10.12
225.746	-0.12
225.98	7.88
226.215	12.88
226.449	29.88
226.683	23.88
226.918	26.88
227.152	28.88
227.387	29.88
227.621	41.88
227.856	55.88
228.09	36.88
228.324	47.88
228.559	69.88
228.793	79.88
229.027	71.88
229.262	68.88
229.496	67.88
229.73	82.88
229.964	91.88
230.199	64.88
230.433	71.88
230.667	66.88
230.901	68.88
231.136	83.88
231.37	75.88
231.604	61.88
231.838	81.88
232.072	87.88
232.306	77.88
232.541	80.88
232.775	71.88
233.009	73.88
233.243	71.88
233.477	87.88
233.711	81.88
233.945	90.88
234.179	75.88
234.413	90.88
234.647	88.88
234.881	81.88
235.115	84.88
235.349	85.88
235.583	82.88
235.817	79.88
236.051	81.88
236.285	83.88
236.519	96.88
236.753	77.88
236.987	74.88
237.221	93.88
237.455	92.88
237.689	79.88
237.922	81.88
238.156	67.88
238.39	68.88
238.624	77.88
238.858	68.88
239.091	73.88
239.325	82.88
239.559	73.88
239.793	79.88
240.027	61.88
240.26	65.88
240.494	65.88
240.728	76.88
240.961	74.88
241.195	76.88
241.429	76.88
241.662	83.88
241.896	63.88
242.13	82.88
242.363	83.88
242.597	94.88
242.83	90.88
243.064	70.88
243.298	85.88
243.531	69.88
243.765	85.88
243.998	68.88
244.232	97.88
244.465	85.88
244.699	76.88
244.932	73.88
245.166	93.88
245.399	72.88
245.633	77.88
245.866	80.88
246.099	66.88
246.333	73.88
246.566	75.88
246.8	85.88
247.033	87.88
247.266	72.88
247.5	74.88
247.733	74.88
247.966	85.88
248.2	83.88
248.433	78.88
248.666	83.88
248.899	75.88
249.133	81.88
249.366	91.88
249.599	84.88
249.832	89.88
250.066	74.88
250.299	68.88
250.532	73.88
250.765	83.88
250.998	86.88
251.231	85.88
251.465	77.88
251.698	82.88
251.931	81.88
252.164	79.88
252.397	74.88
252.63	80.88
252.863	74.88
253.096	73.88
253.329	79.88
253.562	73.88
253.795	77.88
254.028	87.88
254.261	78.88
254.494	60.88
254.727	66.88
254.96	86.88
255.193	77.88
255.426	87.88
255.659	61.88
255.892	79.88
256.124	81.88
256.357	83.88
256.59	80.88
256.823	95.88
257.056	93.88
257.289	77.88
257.521	85.88
257.754	69.88
257.987	83.88
258.22	83.88
258.452	79.88
258.685	88.88
258.918	86.88
259.151	73.88
259.383	83.88
259.616	88.88
259.849	91.88
260.081	67.88
260.314	76.88
260.547	87.88
260.779	82.88
261.012	71.88
261.244	87.88
261.477	92.88
261.71	91.88
261.942	119.88
262.175	125.88
262.407	88.88
262.64	79.88
262.872	89.88
263.105	83.88
263.337	86.88
263.57	81.88
263.802	89.88
264.035	90.88
264.267	81.88
264.499	79.88
264.732	69.88
264.964	82.88
265.197	87.88
265.429	83.88
265.661	79.88
265.894	82.88
266.126	89.88
266.358	91.88
266.591	74.88
266.823	84.88
267.055	87.88
267.287	83.88
267.52	94.88
267.752	83.88
267.984	85.88
268.216	85.88
268.448	88.88
268.681	78.88
268.913	83.88
269.145	82.88
269.377	58.88
269.609	78.88
269.841	89.88
270.073	85.88
270.306	79.88
270.538	88.88
270.77	81.88
271.002	90.88
271.234	70.88
271.466	94.88
271.698	83.88
271.93	87.88
272.162	92.88
272.394	85.88
272.626	78.88
272.858	80.88
273.09	68.88
273.322	92.88
273.553	76.88
273.785	82.88
274.017	81.88
274.249	85.88
274.481	82.88
274.713	84.88
274.945	86.88
275.176	99.88
275.408	86.88
275.64	79.88
275.872	99.88
276.104	83.88
276.335	91.88
276.567	107.88
276.799	105.88
277.031	109.88
277.262	98.88
277.494	85.88
277.726	84.88
277.957	74.88
278.189	82.88
278.421	92.88
278.652	78.88
278.884	84.88
279.115	82.88
279.347	81.88
279.579	84.88
279.81	99.88
280.042	84.88
280.273	87.88
280.505	86.88
280.736	77.88
280.968	95.88
281.199	81.88
281.431	89.88
281.662	103.88
281.894	99.88
282.125	100.88
282.356	108.88
282.588	126.88
282.819	117.88
283.051	89.88
283.282	67.88
283.513	93.88
283.745	89.88
283.976	87.88
284.207	84.88
284.439	82.88
284.67	90.88
284.901	79.88
285.132	92.88
285.364	85.88
285.595	81.88
285.826	95.88
286.057	90.88
286.288	84.88
286.52	81.88
286.751	91.88
286.982	97.88
287.213	93.88
287.444	88.88
287.675	100.88
287.906	86.88
288.138	89.88
288.369	87.88
288.6	79.88
288.831	89.88
289.062	91.88
289.293	88.88
289.524	94.88
289.755	78.88
289.986	96.88
290.217	83.88
290.448	79.88
290.679	76.88
290.91	82.88
291.141	99.88
291.371	95.88
291.602	100.88
291.833	75.88
292.064	82.88
292.295	88.88
292.526	84.88
292.757	90.88
292.987	83.88
293.218	99.88
293.449	98.88
293.68	90.88
293.91	93.88
294.141	90.88
294.372	87.88
294.603	90.88
294.833	84.88
295.064	71.88
295.295	77.88
295.525	91.88
295.756	100.88
295.987	102.88
296.217	156.88
296.448	125.88
296.679	93.88
296.909	94.88
297.14	92.88
297.37	97.88
297.601	91.88
297.831	104.88
298.062	93.88
298.292	85.88
298.523	96.88
298.753	91.88
298.984	85.88
299.214	86.88
299.445	91.88
299.675	82.88
299.905	103.88
300.136	88.88
300.366	98.88
300.597	100.88
300.827	95.88
301.057	97.88
301.288	96.88
301.518	88.88
301.748	87.88
301.979	85.88
302.209	96.88
302.439	74.88
302.669	93.88
302.9	88.88
303.13	85.88
303.36	95.88
303.59	97.88
303.82	107.88
304.051	83.88
304.281	79.88
304.511	75.88
304.741	85.88
304.971	77.88
305.201	96.88
305.431	95.88
305.661	95.88
305.891	81.88
306.121	98.88
306.352	101.88
306.582	105.88
306.812	98.88
307.042	85.88
307.272	94.88
307.502	91.88
307.731	85.88
307.961	91.88
308.191	91.88
308.421	83.88
308.651	82.88
308.881	85.88
309.111	105.88
309.341	98.88
309.571	90.88
309.8	109.88
310.03	94.88
310.26	95.88
310.49	88.88
310.72	81.88
310.949	103.88
311.179	97.88
311.409	88.88
311.639	87.88
311.868	119.88
312.098	93.88
312.328	91.88
312.557	104.88
312.787	97.88
313.017	103.88
313.246	91.88
313.476	99.88
313.706	101.88
313.935	88.88
314.165	105.88
314.394	104.88
314.624	94.88
314.853	105.88
315.083	94.88
315.312	95.88
315.542	73.88
315.771	94.88
316.001	79.88
316.23	87.88
316.46	109.88
316.689	75.88
316.919	98.88
317.148	83.88
317.377	90.88
317.607	81.88
317.836	71.88
318.065	88.88
318.295	84.88
318.524	86.88
318.753	93.88
318.983	93.88
319.212	111.88
319.441	102.88
319.67	111.88
319.9	106.88
320.129	101.88
320.358	103.88
320.587	96.88
320.816	94.88
321.046	102.88
321.275	99.88
321.504	94.88
321.733	99.88
321.962	98.88
322.191	90.88
322.42	97.88
322.649	123.88
322.878	111.88
323.108	114.88
323.337	117.88
323.566	129.88
323.795	179.88
324.024	213.88
324.253	416.88
324.482	929.88
324.71	1905.88
324.939	2544.88
325.168	948.88
325.397	275.88
325.626	168.88
325.855	139.88
326.084	133.88
326.313	125.88
326.542	159.88
326.77	243.88
326.999	491.88
327.228	1079.88
327.457	1924.88
327.686	1509.88
327.914	403.88
328.143	207.88
328.372	144.88
328.6	120.88
328.829	116.88
329.058	119.88
329.287	121.88
329.515	111.88
329.744	98.88
329.972	90.88
330.201	93.88
330.43	116.88
330.658	107.88
330.887	132.88
331.115	111.88
331.344	92.88
331.572	92.88
331.801	99.88
332.03	99.88
332.258	98.88
332.486	92.88
332.715	91.88
332.943	109.88
333.172	93.88
333.4	99.88
333.629	95.88
333.857	116.88
334.085	96.88
334.314	114.88
334.542	104.88
334.771	93.88
334.999	90.88
335.227	84.88
335.455	96.88
335.684	99.88
335.912	112.88
336.14	90.88
336.369	81.88
336.597	93.88
336.825	99.88
337.053	96.88
337.281	93.88
337.51	101.88
337.738	100.88
337.966	107.88
338.194	109.88
338.422	80.88
338.65	103.88
338.878	92.88
339.106	75.88
339.334	96.88
339.562	88.88
339.79	91.88
340.018	97.88
340.246	100.88
340.474	94.88
340.702	98.88
340.93	94.88
341.158	100.88
341.386	100.88
341.614	95.88
341.842	92.88
342.07	97.88
342.298	93.88
342.526	87.88
342.754	79.88
342.981	85.88
343.209	90.88
343.437	102.88
343.665	84.88
343.893	94.88
344.12	92.88
344.348	87.88
344.576	109.88
344.804	90.88
345.031	91.88
345.259	101.88
345.487	97.88
345.714	90.88
345.942	96.88
346.17	96.88
346.397	86.88
346.625	96.88
346.853	107.88
347.08	101.88
347.308	101.88
347.535	97.88
347.763	100.88
347.99	87.88
348.218	90.88
348.445	104.88
348.673	91.88
348.9	93.88
349.128	108.88
349.355	106.88
349.583	93.88
349.81	108.88
350.037	102.88
350.265	98.88
350.492	84.88
350.72	96.88
350.947	104.88
351.174	100.88
351.402	105.88
351.629	97.88
351.856	100.88
352.083	114.88
352.311	91.88
352.538	100.88
352.765	110.88
352.992	114.88
353.22	114.88
353.447	110.88
353.674	91.88
353.901	113.88
354.128	108.88
354.355	110.88
354.583	90.88
354.81	92.88
355.037	95.88
355.264	85.88
355.491	83.88
355.718	86.88
355.945	99.88
356.172	91.88
356.399	79.88
356.626	92.88
356.853	94.88
357.08	87.88
357.307	90.88
357.534	107.88
357.761	96.88
357.988	105.88
358.215	94.88
358.441	97.88
358.668	92.88
358.895	91.88
359.122	90.88
359.349	87.88
359.576	95.88
359.802	90.88
360.029	97.88
360.256	111.88
360.483	87.88
360.709	75.88
360.936	80.88
361.163	95.88
361.39	102.88
361.616	90.88
361.843	85.88
362.07	94.88
362.296	110.88
362.523	90.88
362.749	83.88
362.976	98.88
363.203	88.88
363.429	79.88
363.656	97.88
363.882	98.88
364.109	97.88
364.335	100.88
364.562	92.88
364.788	92.88
365.015	107.88
365.241	95.88
365.468	109.88
365.694	113.88
365.92	78.88
366.147	92.88
366.373	81.88
366.599	90.88
366.826	80.88
367.052	91.88
367.278	105.88
367.505	86.88
367.731	93.88
367.957	88.88
368.184	84.88
368.41	98.88
368.636	108.88
368.862	117.88
369.089	122.88
369.315	95.88
369.541	108.88
369.767	79.88
369.993	97.88
370.219	95.88
370.445	88.88
370.672	75.88
370.898	81.88
371.124	95.88
371.35	88.88
371.576	98.88
371.802	69.88
372.028	91.88
372.254	99.88
372.48	80.88
372.706	88.88
372.932	101.88
373.158	80.88
373.384	99.88
373.61	96.88
373.835	85.88
374.061	89.88
374.287	75.88
374.513	80.88
374.739	89.88
374.965	82.88
375.191	84.88
375.416	85.88
375.642	82.88
375.868	85.88
376.094	90.88
376.319	91.88
376.545	83.88
376.771	74.88
376.997	89.88
377.222	75.88
377.448	100.88
377.674	88.88
377.899	102.88
378.125	89.88
378.35	79.88
378.576	83.88
378.802	90.88
379.027	81.88
379.253	91.88
379.478	89.88
379.704	83.88
379.929	101.88
380.155	91.88
380.38	93.88
380.606	101.88
380.831	111.88
381.057	104.88
381.282	89.88
381.507	90.88
381.733	97.88
381.958	102.88
382.184	90.88
382.409	107.88
382.634	88.88
382.86	97.88
383.085	94.88
383.31	100.88
383.535	92.88
383.761	101.88
383.986	103.88
384.211	90.88
384.436	100.88
384.662	97.88
384.887	98.88
385.112	95.88
385.337	110.88
385.562	98.88
385.787	101.88
386.013	115.88
386.238	103.88
386.463	104.88
386.688	116.88
386.913	108.88
387.138	94.88
387.363	90.88
387.588	99.88
387.813	100.88
388.038	108.88
388.263	99.88
388.488	94.88
388.713	86.88
388.938	100.88
389.163	88.88
389.387	99.88
389.612	96.88
389.837	87.88
390.062	104.88
390.287	105.88
390.512	88.88
390.736	96.88
390.961	90.88
391.186	101.88
391.411	93.88
391.636	101.88
391.86	86.88
392.085	92.88
392.31	92.88
392.534	85.88
392.759	93.88
392.984	88.88
393.208	85.88
393.433	92.88
393.658	86.88
393.882	84.88
394.107	85.88
394.331	85.88
394.556	97.88
394.78	74.88
395.005	98.88
395.229	93.88
395.454	88.88
395.678	92.88
395.903	89.88
396.127	85.88
396.352	90.88
396.576	98.88
396.801	97.88
397.025	90.88
397.249	93.88
397.474	78.88
397.698	91.88
397.922	101.88
398.147	87.88
398.371	80.88
398.595	85.88
398.82	80.88
399.044	87.88
399.268	77.88
399.492	89.88
399.717	94.88
399.941	96.88
400.165	92.88
400.389	87.88
400.613	92.88
400.837	95.88
401.062	77.88
401.286	87.88
401.51	100.88
401.734	89.88
401.958	97.88
402.182	128.88
402.406	173.88
402.63	110.88
402.854	89.88
403.078	93.88
403.302	84.88
403.526	90.88
403.75	82.88
403.974	89.88
404.198	75.88
404.422	96.88
404.645	92.88
404.869	95.88
405.093	84.88
405.317	96.88
405.541	95.88
405.765	98.88
405.988	123.88
406.212	159.88
406.436	233.88
406.66	146.88
406.883	98.88
407.107	103.88
407.331	91.88
407.555	98.88
407.778	110.88
408.002	95.88
408.226	84.88
408.449	93.88
408.673	93.88
408.896	90.88
409.12	99.88
409.344	87.88
409.567	87.88
409.791	76.88
410.014	105.88
410.238	104.88
410.461	91.88
410.685	87.88
410.908	99.88
411.132	105.88
411.355	93.88
411.578	80.88
411.802	95.88
412.025	84.88
412.249	95.88
412.472	93.88
412.695	93.88
412.919	84.88
413.142	87.88
413.365	91.88
413.589	82.88
413.812	87.88
414.035	81.88
414.258	91.88
414.482	97.88
414.705	82.88
414.928	90.88
415.151	86.88
415.374	98.88
415.597	90.88
415.821	84.88
416.044	84.88
416.267	79.88
416.49	79.88
416.713	88.88
416.936	84.88
417.159	89.88
417.382	89.88
417.605	89.88
417.828	94.88
418.051	87.88
418.274	91.88
418.497	88.88
418.72	92.88
418.943	85.88
419.166	83.88
419.389	95.88
419.611	96.88
419.834	83.88
420.057	88.88
420.28	104.88
420.503	91.88
420.726	90.88
420.948	94.88
421.171	89.88
421.394	93.88
421.617	72.88
421.839	85.88
422.062	88.88
422.285	104.88
422.507	100.88
422.73	105.88
422.953	100.88
423.175	88.88
423.398	91.88
423.621	87.88
423.843	81.88
424.066	77.88
424.288	89.88
424.511	99.88
424.733	100.88
424.956	120.88
425.178	98.88
425.401	101.88
425.623	106.88
425.846	76.88
426.068	84.88
426.291	92.88
426.513	100.88
426.735	104.88
426.958	89.88
427.18	98.88
427.402	151.88
427.625	163.88
427.847	124.88
428.069	104.88
428.292	92.88
428.514	76.88
428.736	82.88
428.958	96.88
429.181	87.88
429.403	83.88
429.625	100.88
429.847	94.88
430.069	109.88
430.292	99.88
430.514	87.88
430.736	94.88
430.958	88.88
431.18	81.88
431.402	74.88
431.624	75.88
431.846	80.88
432.068	84.88
432.29	81.88
432.512	84.88
432.734	91.88
432.956	82.88
433.178	108.88
433.4	93.88
433.622	94.88
433.844	87.88
434.066	92.88
434.287	92.88
434.509	82.88
434.731	72.88
434.953	86.88
435.175	84.88
435.397	88.88
435.618	82.88
435.84	96.88
436.062	125.88
436.284	116.88
436.505	103.88
436.727	99.88
436.949	97.88
437.17	112.88
437.392	83.88
437.614	94.88
437.835	102.88
438.057	107.88
438.278	92.88
438.5	119.88
438.721	117.88
438.943	107.88
439.165	95.88
439.386	89.88
439.608	91.88
439.829	93.88
440.05	117.88
440.272	127.88
440.493	102.88
440.715	86.88
440.936	83.88
441.158	84.88
441.379	79.88
441.6	102.88
441.822	87.88
442.043	87.88
442.264	89.88
442.486	110.88
442.707	86.88
442.928	96.88
443.149	122.88
443.371	116.88
443.592	98.88
443.813	113.88
444.034	115.88
444.255	109.88
444.476	84.88
444.698	67.88
444.919	99.88
445.14	133.88
445.361	116.88
445.582	113.88
445.803	140.88
446.024	143.88
446.245	142.88
446.466	126.88
446.687	81.88
446.908	98.88
447.129	88.88
447.35	89.88
447.571	99.88
447.792	86.88
448.013	106.88
448.234	110.88
448.455	114.88
448.675	115.88
448.896	123.88
449.117	90.88
449.338	104.88
449.559	118.88
449.779	125.88
450	79.88
450.221	101.88
450.442	88.88
450.662	88.88
450.883	110.88
451.104	105.88
451.324	93.88
451.545	75.88
451.766	91.88
451.986	80.88
452.207	75.88
452.428	94.88
452.648	106.88
452.869	100.88
453.089	127.88
453.31	112.88
453.53	101.88
453.751	85.88
453.971	101.88
454.192	106.88
454.412	98.88
454.633	82.88
454.853	88.88
455.073	88.88
455.294	94.88
455.514	99.88
455.734	94.88
455.955	89.88
456.175	91.88
456.395	89.88
456.616	74.88
456.836	89.88
457.056	88.88
457.276	84.88
457.497	92.88
457.717	93.88
457.937	85.88
458.157	83.88
458.377	101.88
458.598	104.88
458.818	151.88
459.038	170.88
459.258	109.88
459.478	86.88
459.698	79.88
459.918	88.88
460.138	71.88
460.358	99.88
460.578	90.88
460.798	80.88
461.018	86.88
461.238	97.88
461.458	90.88
461.678	92.88
461.898	94.88
462.118	88.88
462.338	97.88
462.558	84.88
462.777	72.88
462.997	84.88
463.217	72.88
463.437	99.88
463.657	82.88
463.876	95.88
464.096	87.88
464.316	103.88
464.536	89.88
464.755	84.88
464.975	97.88
465.195	176.88
465.414	162.88
465.634	93.88
465.854	100.88
466.073	73.88
466.293	80.88
466.512	96.88
466.732	96.88
466.951	98.88
467.171	85.88
467.391	101.88
467.61	99.88
467.829	93.88
468.049	93.88
468.268	88.88
468.488	95.88
468.707	91.88
468.927	88.88
469.146	96.88
469.365	77.88
469.585	89.88
469.804	86.88
470.023	80.88
470.243	91.88
470.462	103.88
470.681	107.88
470.901	81.88
471.12	83.88
471.339	95.88
471.558	75.88
471.777	85.88
471.997	84.88
472.216	94.88
472.435	91.88
472.654	102.88
472.873	88.88
473.092	95.88
473.311	83.88
473.53	82.88
473.749	90.88
473.968	89.88
474.187	93.88
474.406	92.88
474.625	93.88
474.844	99.88
475.063	92.88
475.282	77.88
475.501	88.88
475.72	91.88
475.939	95.88
476.158	79.88
476.377	76.88
476.596	77.88
476.814	92.88
477.033	100.88
477.252	95.88
477.471	83.88
477.69	80.88
477.908	96.88
478.127	96.88
478.346	92.88
478.564	91.88
478.783	106.88
479.002	93.88
479.22	94.88
479.439	97.88
479.658	98.88
479.876	96.88
480.095	94.88
480.313	95.88
480.532	100.88
480.751	85.88
480.969	96.88
481.188	108.88
481.406	94.88
481.624	94.88
481.843	92.88
482.061	87.88
482.28	95.88
482.498	96.88
482.717	82.88
482.935	86.88
483.153	85.88
483.372	83.88
483.59	83.88
483.808	88.88
484.027	97.88
484.245	91.88
484.463	95.88
484.681	94.88
484.9	85.88
485.118	97.88
485.336	87.88
485.554	84.88
485.772	97.88
485.99	112.88
486.209	105.88
486.427	101.88
486.645	106.88
486.863	118.88
487.081	95.88
487.299	98.88
487.517	79.88
487.735	92.88
487.953	97.88
488.171	101.88
488.389	92.88
488.607	86.88
488.825	93.88
489.043	105.88
489.261	91.88
489.479	97.88
489.696	98.88
489.914	86.88
490.132	85.88
490.35	95.88
490.568	90.88
490.786	91.88
491.003	89.88
491.221	94.88
491.439	96.88
491.657	75.88
491.874	91.88
492.092	116.88
492.31	89.88
492.527	93.88
492.745	84.88
492.963	76.88
493.18	85.88
493.398	82.88
493.615	98.88
493.833	84.88
494.05	84.88
494.268	92.88
494.485	97.88
494.703	99.88
494.92	101.88
495.138	92.88
495.355	87.88
495.573	104.88
495.79	86.88
496.008	105.88
496.225	97.88
496.442	81.88
496.66	89.88
496.877	81.88
497.094	93.88
497.312	75.88
497.529	100.88
497.746	88.88
497.963	97.88
498.181	90.88
498.398	82.88
498.615	94.88
498.832	99.88
499.049	92.88
499.267	96.88
499.484	85.88
499.701	93.88
499.918	96.88
500.135	98.88
500.352	83.88
500.569	90.88
500.786	91.88
501.003	101.88
501.22	88.88
501.437	95.88
501.654	92.88
501.871	99.88
502.088	91.88
502.305	85.88
502.522	88.88
502.739	89.88
502.956	90.88
503.172	101.88
503.389	97.88
503.606	92.88
503.823	100.88
504.04	86.88
504.256	90.88
504.473	103.88
504.69	88.88
504.907	95.88
505.123	96.88
505.34	88.88
505.557	90.88
505.773	89.88
505.99	98.88
506.207	85.88
506.423	96.88
506.64	83.88
506.856	87.88
507.073	96.88
507.289	80.88
507.506	98.88
507.722	105.88
507.939	124.88
508.155	95.88
508.372	88.88
508.588	95.88
508.805	106.88
509.021	101.88
509.238	104.88
509.454	98.88
509.67	101.88
509.887	112.88
510.103	136.88
510.319	239.88
510.536	917.88
510.752	2846.88
510.968	749.88
511.184	160.88
511.401	107.88
511.617	95.88
511.833	96.88
512.049	86.88
512.265	79.88
512.481	84.88
512.698	94.88
512.914	91.88
513.13	107.88
513.346	113.88
513.562	92.88
513.778	106.88
513.994	77.88
514.21	96.88
514.426	121.88
514.642	138.88
514.858	135.88
515.074	173.88
515.29	514.88
515.506	1730.88
515.721	613.88
515.937	157.88
516.153	108.88
516.369	103.88
516.585	83.88
516.801	86.88
517.016	117.88
517.232	100.88
517.448	94.88
517.664	85.88
517.879	97.88
518.095	90.88
518.311	101.88
518.527	98.88
518.742	90.88
518.958	108.88
519.173	90.88
519.389	93.88
519.605	105.88
519.82	96.88
520.036	107.88
520.251	113.88
520.467	106.88
520.682	100.88
520.898	97.88
521.113	118.88
521.329	136.88
521.544	212.88
521.76	647.88
521.975	2821.88
522.19	1646.88
522.406	330.88
522.621	124.88
522.836	97.88
523.052	101.88
523.267	88.88
523.482	93.88
523.698	101.88
523.913	113.88
524.128	94.88
524.343	98.88
524.559	98.88
524.774	82.88
524.989	103.88
525.204	103.88
525.419	104.88
525.634	104.88
525.849	93.88
526.064	93.88
526.28	91.88
526.495	94.88
526.71	86.88
526.925	98.88
527.14	84.88
527.355	97.88
527.57	88.88
527.785	91.88
527.999	90.88
528.214	93.88
528.429	84.88
528.644	107.88
528.859	105.88
529.074	100.88
529.289	121.88
529.503	201.88
529.718	99.88
529.933	93.88
530.148	98.88
530.363	91.88
530.577	77.88
530.792	87.88
531.007	84.88
531.221	94.88
531.436	92.88
531.651	96.88
531.865	81.88
532.08	92.88
532.295	90.88
532.509	95.88
532.724	95.88
532.938	91.88
533.153	91.88
533.367	89.88
533.582	92.88
533.796	91.88
534.011	87.88
534.225	82.88
534.44	91.88
534.654	100.88
534.868	84.88
535.083	109.88
535.297	98.88
535.511	95.88
535.726	113.88
535.94	92.88
536.154	90.88
536.369	96.88
536.583	108.88
536.797	95.88
537.011	97.88
537.225	106.88
537.44	114.88
537.654	84.88
537.868	112.88
538.082	84.88
538.296	83.88
538.51	91.88
538.724	94.88
538.938	95.88
539.153	98.88
539.367	106.88
539.581	99.88
539.795	93.88
540.009	92.88
540.222	80.88
540.436	91.88
540.65	83.88
540.864	95.88
541.078	99.88
541.292	95.88
541.506	100.88
541.72	99.88
541.934	80.88
542.147	89.88
542.361	90.88
542.575	84.88
542.789	71.88
543.002	94.88
543.216	106.88
543.43	103.88
543.644	110.88
543.857	90.88
544.071	83.88
544.285	103.88
544.498	93.88
544.712	87.88
544.925	93.88
545.139	85.88
545.352	96.88
545.566	86.88
545.779	84.88
545.993	96.88
546.206	87.88
546.42	81.88
546.633	77.88
546.847	88.88
547.06	90.88
547.274	85.88
547.487	100.88
547.7	92.88
547.914	82.88
548.127	74.88
548.34	87.88
548.554	89.88
548.767	91.88
548.98	84.88
549.193	91.88
549.407	84.88
549.62	90.88
549.833	85.88
550.046	88.88
550.259	87.88
550.473	86.88
550.686	105.88
550.899	97.88
551.112	105.88
551.325	81.88
551.538	81.88
551.751	89.88
551.964	98.88
552.177	92.88
552.39	105.88
552.603	94.88
552.816	91.88
553.029	94.88
553.242	93.88
553.455	99.88
553.667	97.88
553.88	93.88
554.093	101.88
554.306	95.88
554.519	86.88
554.732	92.88
554.944	105.88
555.157	75.88
555.37	106.88
555.583	93.88
555.795	95.88
556.008	95.88
556.221	105.88
556.433	90.88
556.646	100.88
556.859	82.88
557.071	80.88
557.284	81.88
557.496	80.88
557.709	97.88
557.921	89.88
558.134	84.88
558.346	81.88
558.559	87.88
558.771	104.88
558.984	83.88
559.196	103.88
559.409	83.88
559.621	91.88
559.833	93.88
560.046	82.88
560.258	93.88
560.47	89.88
560.683	91.88
560.895	96.88
561.107	85.88
561.32	89.88
561.532	100.88
561.744	106.88
561.956	88.88
562.168	100.88
562.381	84.88
562.593	93.88
562.805	81.88
563.017	91.88
563.229	79.88
563.441	98.88
563.653	82.88
563.865	98.88
564.077	81.88
564.289	93.88
564.501	105.88
564.713	92.88
564.925	98.88
565.137	105.88
565.349	94.88
565.561	100.88
565.773	111.88
565.985	88.88
566.197	95.88
566.408	93.88
566.62	101.88
566.832	92.88
567.044	100.88
567.255	91.88
567.467	93.88
567.679	97.88
567.891	87.88
568.102	98.88
568.314	77.88
568.526	91.88
568.737	91.88
568.949	93.88
569.161	99.88
569.372	98.88
569.584	80.88
569.795	104.88
570.007	120.88
570.218	284.88
570.43	139.88
570.641	97.88
570.853	107.88
571.064	94.88
571.276	87.88
571.487	92.88
571.698	95.88
571.91	85.88
572.121	93.88
572.333	81.88
572.544	72.88
572.755	81.88
572.966	83.88
573.178	100.88
573.389	92.88
573.6	84.88
573.811	91.88
574.023	76.88
574.234	90.88
574.445	83.88
574.656	93.88
574.867	87.88
575.078	76.88
575.289	91.88
575.501	100.88
575.712	98.88
575.923	103.88
576.134	95.88
576.345	92.88
576.556	81.88
576.767	84.88
576.978	99.88
577.188	100.88
577.399	96.88
577.61	110.88
577.821	89.88
578.032	112.88
578.243	335.88
578.454	959.88
578.665	259.88
578.875	107.88
579.086	87.88
579.297	77.88
579.508	92.88
579.718	83.88
579.929	98.88
580.14	88.88
580.35	93.88
580.561	92.88
580.772	88.88
580.982	92.88
581.193	94.88
581.403	78.88
581.614	89.88
581.825	85.88
582.035	99.88
582.246	72.88
582.456	85.88
582.667	80.88
582.877	86.88
583.087	79.88
583.298	88.88
583.508	90.88
583.719	84.88
583.929	92.88
584.139	105.88
584.35	82.88
584.56	73.88
584.77	84.88
584.981	99.88
585.191	83.88
585.401	86.88
585.611	86.88
585.821	73.88
586.032	94.88
586.242	92.88
586.452	96.88
586.662	84.88
586.872	101.88
587.082	91.88
587.292	97.88
587.502	98.88
587.713	90.88
587.923	100.88
588.133	98.88
588.343	96.88
588.553	80.88
588.762	81.88
588.972	82.88
589.182	87.88
589.392	77.88
589.602	91.88
589.812	94.88
590.022	104.88
590.232	81.88
590.441	81.88
590.651	99.88
590.861	86.88
591.071	84.88
591.281	95.88
591.49	91.88
591.7	77.88
591.91	74.88
592.119	86.88
592.329	88.88
592.539	86.88
592.748	88.88
592.958	96.88
593.167	90.88
593.377	88.88
593.587	84.88
593.796	85.88
594.006	86.88
594.215	97.88
594.424	95.88
594.634	97.88
594.843	82.88
595.053	87.88
595.262	83.88
595.472	81.88
595.681	85.88
595.89	84.88
596.1	92.88
596.309	84.88
596.518	87.88
596.727	91.88
596.937	82.88
597.146	83.88
597.355	96.88
597.564	99.88
597.774	82.88
597.983	96.88
598.192	82.88
598.401	78.88
598.61	85.88
598.819	94.88
599.028	85.88
599.237	87.88
599.446	85.88
599.655	91.88
599.864	97.88
600.073	79.88
600.282	93.88
600.491	98.88
600.7	98.88
600.909	80.88
601.118	83.88
601.327	105.88
601.536	88.88
601.745	93.88
601.953	100.88
602.162	95.88
602.371	95.88
602.58	85.88
602.789	88.88
602.997	79.88
603.206	84.88
603.415	93.88
603.623	76.88
603.832	79.88
604.041	74.88
604.249	84.88
604.458	84.88
604.666	90.88
604.875	84.88
605.084	84.88
605.292	102.88
605.501	86.88
605.709	87.88
605.918	79.88
606.126	83.88
606.334	83.88
606.543	85.88
606.751	88.88
606.96	97.88
607.168	95.88
607.376	77.88
607.585	83.88
607.793	69.88
608.001	76.88
608.21	99.88
608.418	89.88
608.626	90.88
608.834	84.88
609.043	84.88
609.251	84.88
609.459	100.88
609.667	107.88
609.875	86.88
610.083	82.88
610.291	79.88
610.499	83.88
610.707	99.88
610.916	92.88
611.124	77.88
611.332	84.88
611.54	92.88
611.748	81.88
611.955	85.88
612.163	87.88
612.371	91.88
612.579	95.88
612.787	81.88
612.995	94.88
613.203	80.88
613.411	80.88
613.618	80.88
613.826	104.88
614.034	87.88
614.242	92.88
614.449	100.88
614.657	96.88
614.865	95.88
615.072	101.88
615.28	72.88
615.488	87.88
615.695	97.88
615.903	94.88
616.111	90.88
616.318	106.88
616.526	104.88
616.733	95.88
616.941	89.88
617.148	106.88
617.356	92.88
617.563	80.88
617.771	77.88
617.978	82.88
618.185	90.88
618.393	73.88
618.6	88.88
618.807	87.88
619.015	85.88
619.222	96.88
619.429	97.88
619.637	86.88
619.844	69.88
620.051	95.88
620.258	99.88
620.466	89.88
620.673	80.88
620.88	72.88
621.087	82.88
621.294	79.88
621.501	75.88
621.708	86.88
621.915	81.88
622.122	76.88
622.329	89.88
622.536	87.88
622.743	82.88
622.95	75.88
623.157	80.88
623.364	87.88
623.571	89.88
623.778	82.88
623.985	87.88
624.192	95.88
624.399	87.88
624.606	96.88
624.812	81.88
625.019	68.88
625.226	88.88
625.433	94.88
625.639	82.88
625.846	85.88
626.053	77.88
626.259	87.88
626.466	79.88
626.673	71.88
626.879	92.88
627.086	83.88
627.293	79.88
627.499	105.88
627.706	85.88
627.912	79.88
628.119	73.88
628.325	81.88
628.532	92.88
628.738	79.88
628.945	80.88
629.151	83.88
629.357	70.88
629.564	69.88
629.77	89.88
629.976	76.88
630.183	96.88
630.389	65.88
630.595	73.88
630.802	80.88
631.008	97.88
631.214	91.88
631.42	88.88
631.627	91.88
631.833	82.88
632.039	99.88
632.245	92.88
632.451	72.88
632.657	96.88
632.863	80.88
633.069	92.88
633.275	75.88
633.481	86.88
633.688	93.88
633.893	88.88
634.099	75.88
634.305	99.88
634.511	79.88
634.717	80.88
634.923	77.88
635.129	75.88
635.335	90.88
635.541	91.88
635.747	69.88
635.952	77.88
636.158	84.88
636.364	92.88
636.57	85.88
636.775	85.88
636.981	80.88
637.187	98.88
637.392	66.88
637.598	71.88
637.804	79.88
638.009	73.88
638.215	65.88
638.421	92.88
638.626	81.88
638.832	75.88
639.037	83.88
639.243	84.88
639.448	72.88
639.654	87.88
639.859	73.88
640.065	77.88
640.27	95.88
640.475	91.88
640.681	80.88
640.886	85.88
641.091	74.88
641.297	88.88
641.502	83.88
641.707	91.88
641.913	89.88
642.118	84.88
642.323	80.88
642.528	80.88
642.733	87.88
642.939	88.88
643.144	81.88
643.349	96.88
643.554	90.88
643.759	89.88
643.964	81.88
644.169	91.88
644.374	100.88
644.579	92.88
644.784	87.88
644.989	83.88
645.194	85.88
645.399	91.88
645.604	76.88
645.809	86.88
646.014	68.88
646.219	75.88
646.423	83.88
646.628	81.88
646.833	81.88
647.038	96.88
647.243	88.88
647.447	100.88
647.652	86.88
647.857	82.88
648.062	90.88
648.266	87.88
648.471	81.88
648.676	96.88
648.88	90.88
649.085	98.88
649.289	77.88
649.494	98.88
649.698	134.88
649.903	101.88
650.107	86.88
650.312	83.88
650.516	85.88
650.721	77.88
650.925	74.88
651.13	73.88
651.334	94.88
651.539	85.88
651.743	79.88
651.947	91.88
652.152	88.88
652.356	75.88
652.56	64.88
652.764	83.88
652.969	89.88
653.173	76.88
653.377	79.88
653.581	90.88
653.785	87.88
653.99	84.88
654.194	82.88
654.398	74.88
654.602	76.88
654.806	83.88
655.01	103.88
655.214	105.88
655.418	94.88
655.622	87.88
655.826	85.88
656.03	95.88
656.234	95.88
656.438	88.88
656.642	86.88
656.846	73.88
657.049	80.88
657.253	85.88
657.457	90.88
657.661	79.88
657.865	74.88
658.068	72.88
658.272	80.88
658.476	78.88
658.68	69.88
658.883	72.88
659.087	82.88
659.291	81.88
659.494	76.88
659.698	84.88
659.901	83.88
660.105	71.88
660.309	83.88
660.512	89.88
660.716	83.88
660.919	74.88
661.123	92.88
661.326	66.88
661.53	79.88
661.733	93.88
661.936	75.88
662.14	57.88
662.343	80.88
662.546	89.88
662.75	77.88
662.953	83.88
663.156	91.88
663.36	89.88
663.563	81.88
663.766	86.88
663.969	76.88
664.173	84.88
664.376	87.88
664.579	69.88
664.782	83.88
664.985	75.88
665.188	90.88
665.391	71.88
665.594	80.88
665.797	91.88
666	66.88
666.203	68.88
666.406	74.88
666.609	76.88
666.812	91.88
667.015	80.88
667.218	80.88
667.421	73.88
667.624	77.88
667.827	96.88
668.03	80.88
668.232	88.88
668.435	94.88
668.638	80.88
668.841	87.88
669.043	95.88
669.246	79.88
669.449	92.88
669.651	88.88
669.854	78.88
670.057	69.88
670.259	78.88
670.462	77.88
670.665	90.88
670.867	78.88
671.07	87.88
671.272	82.88
671.475	71.88
671.677	76.88
671.88	87.88
672.082	79.88
672.284	78.88
672.487	80.88
672.689	77.88
672.892	87.88
