Data from Uncirc_1995_H10_HRD10591_00014.txt Node
Date: Wed Jan 03 11:35:36 EST 2024
User: Yrep
Spectrometer: HR+D1059
Trigger mode: 1
Integration Time (sec): 1.000000E-1
Scans to average: 1
Electric dark correction enabled: true
Nonlinearity correction enabled: false
Boxcar width: 0
XAxis mode: Wavelengths
Number of Pixels in Spectrum: 2048
>>>>>Begin Spectral Data<<<<<
223.165	-26.5
223.4	-26.5
223.635	-26.5
223.869	-21.5
224.104	-12.5
224.338	-19.5
224.573	-29.5
224.808	-19.5
225.042	-11.5
225.277	-7.5
225.511	4.5
225.746	3.5
225.98	18.5
226.215	7.5
226.449	25.5
226.683	32.5
226.918	23.5
227.152	32.5
227.387	46.5
227.621	47.5
227.856	48.5
228.09	37.5
228.324	45.5
228.559	63.5
228.793	63.5
229.027	71.5
229.262	68.5
229.496	76.5
229.73	81.5
229.964	81.5
230.199	81.5
230.433	79.5
230.667	66.5
230.901	83.5
231.136	86.5
231.37	78.5
231.604	86.5
231.838	85.5
232.072	79.5
232.306	72.5
232.541	93.5
232.775	67.5
233.009	95.5
233.243	102.5
233.477	85.5
233.711	87.5
233.945	77.5
234.179	69.5
234.413	97.5
234.647	82.5
234.881	89.5
235.115	96.5
235.349	94.5
235.583	73.5
235.817	76.5
236.051	84.5
236.285	85.5
236.519	81.5
236.753	83.5
236.987	83.5
237.221	87.5
237.455	83.5
237.689	71.5
237.922	98.5
238.156	93.5
238.39	76.5
238.624	87.5
238.858	77.5
239.091	83.5
239.325	92.5
239.559	83.5
239.793	89.5
240.027	81.5
240.26	80.5
240.494	81.5
240.728	72.5
240.961	87.5
241.195	68.5
241.429	85.5
241.662	80.5
241.896	80.5
242.13	66.5
242.363	83.5
242.597	90.5
242.83	85.5
243.064	89.5
243.298	93.5
243.531	89.5
243.765	79.5
243.998	85.5
244.232	94.5
244.465	83.5
244.699	91.5
244.932	79.5
245.166	81.5
245.399	81.5
245.633	77.5
245.866	78.5
246.099	83.5
246.333	76.5
246.566	75.5
246.8	87.5
247.033	94.5
247.266	71.5
247.5	81.5
247.733	84.5
247.966	96.5
248.2	91.5
248.433	88.5
248.666	91.5
248.899	87.5
249.133	87.5
249.366	102.5
249.599	102.5
249.832	94.5
250.066	76.5
250.299	74.5
250.532	83.5
250.765	79.5
250.998	84.5
251.231	88.5
251.465	83.5
251.698	83.5
251.931	77.5
252.164	88.5
252.397	78.5
252.63	91.5
252.863	80.5
253.096	89.5
253.329	94.5
253.562	81.5
253.795	69.5
254.028	77.5
254.261	87.5
254.494	70.5
254.727	97.5
254.96	88.5
255.193	86.5
255.426	89.5
255.659	71.5
255.892	86.5
256.124	83.5
256.357	85.5
256.59	78.5
256.823	99.5
257.056	100.5
257.289	78.5
257.521	97.5
257.754	81.5
257.987	97.5
258.22	74.5
258.452	85.5
258.685	75.5
258.918	88.5
259.151	91.5
259.383	77.5
259.616	91.5
259.849	92.5
260.081	91.5
260.314	98.5
260.547	89.5
260.779	85.5
261.012	100.5
261.244	87.5
261.477	99.5
261.71	91.5
261.942	110.5
262.175	109.5
262.407	111.5
262.64	87.5
262.872	89.5
263.105	86.5
263.337	76.5
263.57	78.5
263.802	90.5
264.035	83.5
264.267	95.5
264.499	87.5
264.732	92.5
264.964	72.5
265.197	70.5
265.429	81.5
265.661	85.5
265.894	84.5
266.126	91.5
266.358	76.5
266.591	86.5
266.823	79.5
267.055	96.5
267.287	95.5
267.52	95.5
267.752	94.5
267.984	87.5
268.216	99.5
268.448	88.5
268.681	99.5
268.913	92.5
269.145	86.5
269.377	90.5
269.609	101.5
269.841	84.5
270.073	88.5
270.306	77.5
270.538	93.5
270.77	81.5
271.002	88.5
271.234	99.5
271.466	91.5
271.698	89.5
271.93	101.5
272.162	91.5
272.394	96.5
272.626	88.5
272.858	69.5
273.09	90.5
273.322	81.5
273.553	101.5
273.785	89.5
274.017	67.5
274.249	84.5
274.481	85.5
274.713	91.5
274.945	93.5
275.176	86.5
275.408	95.5
275.64	92.5
275.872	92.5
276.104	95.5
276.335	81.5
276.567	98.5
276.799	111.5
277.031	100.5
277.262	93.5
277.494	81.5
277.726	95.5
277.957	88.5
278.189	96.5
278.421	95.5
278.652	98.5
278.884	96.5
279.115	96.5
279.347	92.5
279.579	83.5
279.81	92.5
280.042	93.5
280.273	88.5
280.505	90.5
280.736	89.5
280.968	84.5
281.199	83.5
281.431	86.5
281.662	93.5
281.894	102.5
282.125	110.5
282.356	111.5
282.588	124.5
282.819	98.5
283.051	84.5
283.282	94.5
283.513	109.5
283.745	99.5
283.976	94.5
284.207	95.5
284.439	87.5
284.67	101.5
284.901	81.5
285.132	87.5
285.364	85.5
285.595	89.5
285.826	101.5
286.057	98.5
286.288	96.5
286.52	82.5
286.751	99.5
286.982	95.5
287.213	87.5
287.444	91.5
287.675	77.5
287.906	95.5
288.138	95.5
288.369	96.5
288.6	91.5
288.831	85.5
289.062	88.5
289.293	86.5
289.524	99.5
289.755	100.5
289.986	95.5
290.217	93.5
290.448	79.5
290.679	92.5
290.91	92.5
291.141	87.5
291.371	84.5
291.602	78.5
291.833	100.5
292.064	79.5
292.295	84.5
292.526	84.5
292.757	96.5
292.987	88.5
293.218	88.5
293.449	86.5
293.68	81.5
293.91	96.5
294.141	96.5
294.372	89.5
294.603	90.5
294.833	99.5
295.064	87.5
295.295	96.5
295.525	92.5
295.756	100.5
295.987	114.5
296.217	136.5
296.448	137.5
296.679	92.5
296.909	95.5
297.14	105.5
297.37	81.5
297.601	98.5
297.831	83.5
298.062	96.5
298.292	91.5
298.523	87.5
298.753	91.5
298.984	91.5
299.214	100.5
299.445	88.5
299.675	93.5
299.905	102.5
300.136	88.5
300.366	96.5
300.597	103.5
300.827	93.5
301.057	91.5
301.288	93.5
301.518	93.5
301.748	103.5
301.979	98.5
302.209	84.5
302.439	96.5
302.669	96.5
302.9	86.5
303.13	91.5
303.36	94.5
303.59	98.5
303.82	103.5
304.051	108.5
304.281	88.5
304.511	91.5
304.741	94.5
304.971	90.5
305.201	97.5
305.431	81.5
305.661	98.5
305.891	102.5
306.121	97.5
306.352	95.5
306.582	95.5
306.812	95.5
307.042	102.5
307.272	98.5
307.502	91.5
307.731	87.5
307.961	99.5
308.191	95.5
308.421	101.5
308.651	105.5
308.881	101.5
309.111	103.5
309.341	93.5
309.571	94.5
309.8	87.5
310.03	88.5
310.26	100.5
310.49	81.5
310.72	93.5
310.949	104.5
311.179	96.5
311.409	92.5
311.639	83.5
311.868	94.5
312.098	108.5
312.328	91.5
312.557	98.5
312.787	110.5
313.017	107.5
313.246	110.5
313.476	71.5
313.706	81.5
313.935	97.5
314.165	85.5
314.394	90.5
314.624	102.5
314.853	97.5
315.083	103.5
315.312	102.5
315.542	81.5
315.771	97.5
316.001	97.5
316.23	88.5
316.46	97.5
316.689	100.5
316.919	88.5
317.148	100.5
317.377	91.5
317.607	92.5
317.836	92.5
318.065	96.5
318.295	96.5
318.524	108.5
318.753	91.5
318.983	83.5
319.212	104.5
319.441	110.5
319.67	121.5
319.9	99.5
320.129	89.5
320.358	110.5
320.587	107.5
320.816	99.5
321.046	89.5
321.275	103.5
321.504	103.5
321.733	104.5
321.962	97.5
322.191	109.5
322.42	105.5
322.649	96.5
322.878	102.5
323.108	112.5
323.337	109.5
323.566	120.5
323.795	157.5
324.024	201.5
324.253	378.5
324.482	751.5
324.71	1569.5
324.939	2094.5
325.168	765.5
325.397	230.5
325.626	143.5
325.855	125.5
326.084	140.5
326.313	137.5
326.542	153.5
326.77	214.5
326.999	417.5
327.228	932.5
327.457	1645.5
327.686	1335.5
327.914	370.5
328.143	191.5
328.372	156.5
328.6	114.5
328.829	113.5
329.058	122.5
329.287	123.5
329.515	101.5
329.744	88.5
329.972	103.5
330.201	112.5
330.43	123.5
330.658	112.5
330.887	131.5
331.115	112.5
331.344	101.5
331.572	103.5
331.801	96.5
332.03	98.5
332.258	98.5
332.486	100.5
332.715	102.5
332.943	100.5
333.172	93.5
333.4	100.5
333.629	107.5
333.857	103.5
334.085	106.5
334.314	94.5
334.542	102.5
334.771	88.5
334.999	89.5
335.227	82.5
335.455	103.5
335.684	99.5
335.912	106.5
336.14	113.5
336.369	98.5
336.597	83.5
336.825	99.5
337.053	96.5
337.281	91.5
337.51	92.5
337.738	107.5
337.966	93.5
338.194	107.5
338.422	95.5
338.65	94.5
338.878	77.5
339.106	99.5
339.334	108.5
339.562	112.5
339.79	87.5
340.018	87.5
340.246	96.5
340.474	100.5
340.702	106.5
340.93	106.5
341.158	100.5
341.386	106.5
341.614	108.5
341.842	105.5
342.07	106.5
342.298	98.5
342.526	103.5
342.754	103.5
342.981	96.5
343.209	79.5
343.437	90.5
343.665	115.5
343.893	85.5
344.12	90.5
344.348	83.5
344.576	93.5
344.804	89.5
345.031	104.5
345.259	100.5
345.487	88.5
345.714	111.5
345.942	101.5
346.17	90.5
346.397	111.5
346.625	92.5
346.853	79.5
347.08	91.5
347.308	97.5
347.535	93.5
347.763	110.5
347.99	117.5
348.218	110.5
348.445	88.5
348.673	115.5
348.9	108.5
349.128	98.5
349.355	108.5
349.583	107.5
349.81	95.5
350.037	106.5
350.265	92.5
350.492	105.5
350.72	98.5
350.947	99.5
351.174	106.5
351.402	126.5
351.629	120.5
351.856	97.5
352.083	107.5
352.311	110.5
352.538	115.5
352.765	104.5
352.992	123.5
353.22	113.5
353.447	106.5
353.674	107.5
353.901	111.5
354.128	86.5
354.355	111.5
354.583	103.5
354.81	121.5
355.037	90.5
355.264	105.5
355.491	91.5
355.718	109.5
355.945	99.5
356.172	108.5
356.399	101.5
356.626	94.5
356.853	112.5
357.08	100.5
357.307	108.5
357.534	84.5
357.761	94.5
357.988	112.5
358.215	112.5
358.441	110.5
358.668	107.5
358.895	97.5
359.122	104.5
359.349	89.5
359.576	103.5
359.802	96.5
360.029	109.5
360.256	113.5
360.483	117.5
360.709	101.5
360.936	107.5
361.163	101.5
361.39	95.5
361.616	99.5
361.843	89.5
362.07	93.5
362.296	96.5
362.523	116.5
362.749	89.5
362.976	94.5
363.203	97.5
363.429	97.5
363.656	108.5
363.882	96.5
364.109	96.5
364.335	105.5
364.562	95.5
364.788	86.5
365.015	100.5
365.241	102.5
365.468	76.5
365.694	103.5
365.92	109.5
366.147	96.5
366.373	90.5
366.599	99.5
366.826	93.5
367.052	102.5
367.278	95.5
367.505	87.5
367.731	87.5
367.957	87.5
368.184	87.5
368.41	100.5
368.636	113.5
368.862	119.5
369.089	124.5
369.315	99.5
369.541	100.5
369.767	92.5
369.993	98.5
370.219	100.5
370.445	88.5
370.672	92.5
370.898	90.5
371.124	82.5
371.35	93.5
371.576	97.5
371.802	91.5
372.028	100.5
372.254	79.5
372.48	96.5
372.706	103.5
372.932	87.5
373.158	87.5
373.384	106.5
373.61	111.5
373.835	89.5
374.061	93.5
374.287	91.5
374.513	100.5
374.739	97.5
374.965	91.5
375.191	99.5
375.416	94.5
375.642	95.5
375.868	90.5
376.094	86.5
376.319	93.5
376.545	89.5
376.771	99.5
376.997	108.5
377.222	97.5
377.448	102.5
377.674	91.5
377.899	108.5
378.125	97.5
378.35	105.5
378.576	101.5
378.802	94.5
379.027	102.5
379.253	87.5
379.478	96.5
379.704	100.5
379.929	85.5
380.155	100.5
380.38	105.5
380.606	84.5
380.831	95.5
381.057	102.5
381.282	92.5
381.507	94.5
381.733	96.5
381.958	96.5
382.184	98.5
382.409	107.5
382.634	93.5
382.86	98.5
383.085	116.5
383.31	112.5
383.535	94.5
383.761	98.5
383.986	110.5
384.211	104.5
384.436	124.5
384.662	104.5
384.887	118.5
385.112	133.5
385.337	100.5
385.562	115.5
385.787	116.5
386.013	122.5
386.238	132.5
386.463	117.5
386.688	118.5
386.913	101.5
387.138	119.5
387.363	130.5
387.588	100.5
387.813	128.5
388.038	111.5
388.263	118.5
388.488	125.5
388.713	111.5
388.938	105.5
389.163	103.5
389.387	105.5
389.612	101.5
389.837	99.5
390.062	95.5
390.287	88.5
390.512	101.5
390.736	96.5
390.961	102.5
391.186	102.5
391.411	107.5
391.636	110.5
391.86	99.5
392.085	85.5
392.31	94.5
392.534	85.5
392.759	91.5
392.984	95.5
393.208	100.5
393.433	101.5
393.658	106.5
393.882	95.5
394.107	96.5
394.331	80.5
394.556	93.5
394.78	98.5
395.005	91.5
395.229	93.5
395.454	100.5
395.678	102.5
395.903	97.5
396.127	88.5
396.352	87.5
396.576	106.5
396.801	101.5
397.025	82.5
397.249	96.5
397.474	94.5
397.698	90.5
397.922	96.5
398.147	95.5
398.371	81.5
398.595	81.5
398.82	91.5
399.044	89.5
399.268	95.5
399.492	92.5
399.717	100.5
399.941	96.5
400.165	91.5
400.389	102.5
400.613	107.5
400.837	97.5
401.062	84.5
401.286	92.5
401.51	84.5
401.734	96.5
401.958	89.5
402.182	121.5
402.406	140.5
402.63	126.5
402.854	91.5
403.078	87.5
403.302	84.5
403.526	105.5
403.75	100.5
403.974	98.5
404.198	102.5
404.422	97.5
404.645	92.5
404.869	93.5
405.093	100.5
405.317	96.5
405.541	101.5
405.765	111.5
405.988	117.5
406.212	137.5
406.436	203.5
406.66	143.5
406.883	92.5
407.107	97.5
407.331	100.5
407.555	100.5
407.778	92.5
408.002	98.5
408.226	94.5
408.449	93.5
408.673	85.5
408.896	84.5
409.12	96.5
409.344	99.5
409.567	102.5
409.791	98.5
410.014	100.5
410.238	86.5
410.461	97.5
410.685	95.5
410.908	118.5
411.132	113.5
411.355	105.5
411.578	97.5
411.802	85.5
412.025	80.5
412.249	83.5
412.472	101.5
412.695	80.5
412.919	82.5
413.142	113.5
413.365	101.5
413.589	98.5
413.812	97.5
414.035	100.5
414.258	92.5
414.482	95.5
414.705	112.5
414.928	96.5
415.151	101.5
415.374	102.5
415.597	99.5
415.821	79.5
416.044	98.5
416.267	94.5
416.49	104.5
416.713	94.5
416.936	98.5
417.159	107.5
417.382	100.5
417.605	107.5
417.828	96.5
418.051	105.5
418.274	85.5
418.497	86.5
418.72	102.5
418.943	113.5
419.166	88.5
419.389	102.5
419.611	89.5
419.834	83.5
420.057	80.5
420.28	95.5
420.503	80.5
420.726	90.5
420.948	88.5
421.171	86.5
421.394	96.5
421.617	92.5
421.839	95.5
422.062	102.5
422.285	109.5
422.507	117.5
422.73	108.5
422.953	92.5
423.175	100.5
423.398	81.5
423.621	92.5
423.843	103.5
424.066	97.5
424.288	79.5
424.511	96.5
424.733	102.5
424.956	101.5
425.178	93.5
425.401	106.5
425.623	107.5
425.846	95.5
426.068	87.5
426.291	89.5
426.513	87.5
426.735	88.5
426.958	84.5
427.18	116.5
427.402	133.5
427.625	157.5
427.847	133.5
428.069	102.5
428.292	96.5
428.514	93.5
428.736	93.5
428.958	93.5
429.181	100.5
429.403	80.5
429.625	96.5
429.847	97.5
430.069	90.5
430.292	105.5
430.514	100.5
430.736	85.5
430.958	98.5
431.18	97.5
431.402	99.5
431.624	89.5
431.846	79.5
432.068	74.5
432.29	99.5
432.512	103.5
432.734	88.5
432.956	96.5
433.178	108.5
433.4	112.5
433.622	114.5
433.844	108.5
434.066	100.5
434.287	91.5
434.509	84.5
434.731	95.5
434.953	96.5
435.175	87.5
435.397	96.5
435.618	87.5
435.84	112.5
436.062	115.5
436.284	109.5
436.505	105.5
436.727	96.5
436.949	100.5
437.17	95.5
437.392	87.5
437.614	99.5
437.835	101.5
438.057	122.5
438.278	113.5
438.5	93.5
438.721	107.5
438.943	97.5
439.165	107.5
439.386	73.5
439.608	93.5
439.829	97.5
440.05	107.5
440.272	128.5
440.493	100.5
440.715	91.5
440.936	97.5
441.158	94.5
441.379	87.5
441.6	91.5
441.822	104.5
442.043	95.5
442.264	109.5
442.486	104.5
442.707	90.5
442.928	125.5
443.149	133.5
443.371	128.5
443.592	101.5
443.813	114.5
444.034	100.5
444.255	92.5
444.476	91.5
444.698	88.5
444.919	95.5
445.14	145.5
445.361	140.5
445.582	117.5
445.803	134.5
446.024	109.5
446.245	125.5
446.466	108.5
446.687	101.5
446.908	99.5
447.129	87.5
447.35	87.5
447.571	108.5
447.792	97.5
448.013	105.5
448.234	97.5
448.455	112.5
448.675	103.5
448.896	112.5
449.117	105.5
449.338	97.5
449.559	123.5
449.779	137.5
450	105.5
450.221	93.5
450.442	92.5
450.662	87.5
450.883	103.5
451.104	112.5
451.324	101.5
451.545	103.5
451.766	96.5
451.986	93.5
452.207	100.5
452.428	92.5
452.648	100.5
452.869	116.5
453.089	115.5
453.31	101.5
453.53	101.5
453.751	94.5
453.971	101.5
454.192	99.5
454.412	97.5
454.633	100.5
454.853	82.5
455.073	87.5
455.294	92.5
455.514	104.5
455.734	88.5
455.955	102.5
456.175	81.5
456.395	105.5
456.616	86.5
456.836	83.5
457.056	83.5
457.276	83.5
457.497	90.5
457.717	94.5
457.937	86.5
458.157	94.5
458.377	97.5
458.598	92.5
458.818	125.5
459.038	159.5
459.258	110.5
459.478	95.5
459.698	88.5
459.918	81.5
460.138	86.5
460.358	92.5
460.578	78.5
460.798	88.5
461.018	90.5
461.238	99.5
461.458	87.5
461.678	88.5
461.898	91.5
462.118	87.5
462.338	77.5
462.558	105.5
462.777	93.5
462.997	90.5
463.217	91.5
463.437	91.5
463.657	102.5
463.876	82.5
464.096	89.5
464.316	97.5
464.536	98.5
464.755	91.5
464.975	103.5
465.195	162.5
465.414	152.5
465.634	88.5
465.854	83.5
466.073	88.5
466.293	99.5
466.512	93.5
466.732	96.5
466.951	100.5
467.171	85.5
467.391	107.5
467.61	105.5
467.829	112.5
468.049	98.5
468.268	81.5
468.488	91.5
468.707	97.5
468.927	87.5
469.146	100.5
469.365	83.5
469.585	95.5
469.804	91.5
470.023	106.5
470.243	83.5
470.462	106.5
470.681	105.5
470.901	123.5
471.12	97.5
471.339	97.5
471.558	92.5
471.777	103.5
471.997	93.5
472.216	83.5
472.435	98.5
472.654	85.5
472.873	93.5
473.092	95.5
473.311	102.5
473.53	97.5
473.749	88.5
473.968	99.5
474.187	99.5
474.406	97.5
474.625	93.5
474.844	87.5
475.063	99.5
475.282	89.5
475.501	89.5
475.72	103.5
475.939	111.5
476.158	104.5
476.377	103.5
476.596	94.5
476.814	101.5
477.033	95.5
477.252	107.5
477.471	97.5
477.69	101.5
477.908	93.5
478.127	79.5
478.346	101.5
478.564	91.5
478.783	102.5
479.002	94.5
479.22	100.5
479.439	103.5
479.658	119.5
479.876	127.5
480.095	98.5
480.313	95.5
480.532	105.5
480.751	83.5
480.969	92.5
481.188	100.5
481.406	89.5
481.624	88.5
481.843	87.5
482.061	89.5
482.28	89.5
482.498	94.5
482.717	68.5
482.935	94.5
483.153	96.5
483.372	75.5
483.59	101.5
483.808	90.5
484.027	102.5
484.245	99.5
484.463	110.5
484.681	106.5
484.9	94.5
485.118	100.5
485.336	116.5
485.554	103.5
485.772	96.5
485.99	116.5
486.209	115.5
486.427	109.5
486.645	102.5
486.863	115.5
487.081	110.5
487.299	92.5
487.517	109.5
487.735	105.5
487.953	106.5
488.171	110.5
488.389	98.5
488.607	93.5
488.825	88.5
489.043	109.5
489.261	91.5
489.479	97.5
489.696	105.5
489.914	93.5
490.132	85.5
490.35	95.5
490.568	100.5
490.786	85.5
491.003	102.5
491.221	91.5
491.439	85.5
491.657	101.5
491.874	104.5
492.092	86.5
492.31	105.5
492.527	88.5
492.745	82.5
492.963	94.5
493.18	95.5
493.398	94.5
493.615	110.5
493.833	103.5
494.05	101.5
494.268	96.5
494.485	102.5
494.703	100.5
494.92	105.5
495.138	98.5
495.355	100.5
495.573	105.5
495.79	91.5
496.008	110.5
496.225	83.5
496.442	104.5
496.66	94.5
496.877	97.5
497.094	103.5
497.312	98.5
497.529	102.5
497.746	87.5
497.963	121.5
498.181	96.5
498.398	98.5
498.615	104.5
498.832	108.5
499.049	96.5
499.267	104.5
499.484	108.5
499.701	89.5
499.918	112.5
500.135	100.5
500.352	107.5
500.569	103.5
500.786	100.5
501.003	101.5
501.22	91.5
501.437	85.5
501.654	101.5
501.871	113.5
502.088	104.5
502.305	99.5
502.522	99.5
502.739	111.5
502.956	96.5
503.172	102.5
503.389	94.5
503.606	111.5
503.823	108.5
504.04	105.5
504.256	110.5
504.473	95.5
504.69	85.5
504.907	95.5
505.123	87.5
505.34	104.5
505.557	99.5
505.773	93.5
505.99	98.5
506.207	89.5
506.423	103.5
506.64	109.5
506.856	89.5
507.073	103.5
507.289	109.5
507.506	117.5
507.722	109.5
507.939	101.5
508.155	111.5
508.372	93.5
508.588	86.5
508.805	111.5
509.021	92.5
509.238	102.5
509.454	103.5
509.67	105.5
509.887	110.5
510.103	136.5
510.319	222.5
510.536	704.5
510.752	2145.5
510.968	610.5
511.184	145.5
511.401	118.5
511.617	115.5
511.833	102.5
512.049	95.5
512.265	91.5
512.481	71.5
512.698	104.5
512.914	91.5
513.13	99.5
513.346	93.5
513.562	93.5
513.778	101.5
513.994	105.5
514.21	114.5
514.426	115.5
514.642	123.5
514.858	128.5
515.074	153.5
515.29	395.5
515.506	1243.5
515.721	480.5
515.937	146.5
516.153	100.5
516.369	88.5
516.585	91.5
516.801	83.5
517.016	103.5
517.232	100.5
517.448	96.5
517.664	104.5
517.879	99.5
518.095	99.5
518.311	115.5
518.527	101.5
518.742	107.5
518.958	101.5
519.173	101.5
519.389	111.5
519.605	91.5
519.82	99.5
520.036	101.5
520.251	126.5
520.467	115.5
520.682	108.5
520.898	109.5
521.113	115.5
521.329	133.5
521.544	209.5
521.76	491.5
521.975	2064.5
522.19	1229.5
522.406	285.5
522.621	144.5
522.836	102.5
523.052	96.5
523.267	111.5
523.482	110.5
523.698	85.5
523.913	120.5
524.128	103.5
524.343	91.5
524.559	101.5
524.774	95.5
524.989	113.5
525.204	119.5
525.419	109.5
525.634	99.5
525.849	111.5
526.064	98.5
526.28	87.5
526.495	97.5
526.71	89.5
526.925	114.5
527.14	107.5
527.355	103.5
527.57	101.5
527.785	95.5
527.999	101.5
528.214	97.5
528.429	94.5
528.644	106.5
528.859	99.5
529.074	98.5
529.289	127.5
529.503	157.5
529.718	103.5
529.933	91.5
530.148	95.5
530.363	94.5
530.577	99.5
530.792	92.5
531.007	100.5
531.221	85.5
531.436	101.5
531.651	95.5
531.865	102.5
532.08	92.5
532.295	103.5
532.509	107.5
532.724	103.5
532.938	101.5
533.153	101.5
533.367	98.5
533.582	107.5
533.796	106.5
534.011	105.5
534.225	91.5
534.44	95.5
534.654	88.5
534.868	96.5
535.083	81.5
535.297	86.5
535.511	117.5
535.726	102.5
535.94	108.5
536.154	101.5
536.369	101.5
536.583	103.5
536.797	100.5
537.011	106.5
537.225	95.5
537.44	105.5
537.654	93.5
537.868	97.5
538.082	92.5
538.296	94.5
538.51	95.5
538.724	79.5
538.938	87.5
539.153	101.5
539.367	101.5
539.581	90.5
539.795	97.5
540.009	91.5
540.222	94.5
540.436	93.5
540.65	88.5
540.864	95.5
541.078	91.5
541.292	101.5
541.506	94.5
541.72	93.5
541.934	95.5
542.147	105.5
542.361	96.5
542.575	94.5
542.789	96.5
543.002	92.5
543.216	91.5
543.43	102.5
543.644	115.5
543.857	89.5
544.071	101.5
544.285	115.5
544.498	95.5
544.712	98.5
544.925	110.5
545.139	101.5
545.352	95.5
545.566	109.5
545.779	91.5
545.993	106.5
546.206	89.5
546.42	86.5
546.633	85.5
546.847	100.5
547.06	98.5
547.274	102.5
547.487	99.5
547.7	96.5
547.914	101.5
548.127	96.5
548.34	95.5
548.554	99.5
548.767	111.5
548.98	96.5
549.193	92.5
549.407	102.5
549.62	102.5
549.833	91.5
550.046	96.5
550.259	98.5
550.473	86.5
550.686	106.5
550.899	93.5
551.112	88.5
551.325	87.5
551.538	93.5
551.751	96.5
551.964	94.5
552.177	96.5
552.39	97.5
552.603	88.5
552.816	98.5
553.029	86.5
553.242	88.5
553.455	104.5
553.667	120.5
553.88	107.5
554.093	88.5
554.306	82.5
554.519	101.5
554.732	103.5
554.944	87.5
555.157	92.5
555.37	97.5
555.583	92.5
555.795	98.5
556.008	95.5
556.221	100.5
556.433	98.5
556.646	94.5
556.859	101.5
557.071	102.5
557.284	97.5
557.496	92.5
557.709	100.5
557.921	101.5
558.134	101.5
558.346	87.5
558.559	103.5
558.771	99.5
558.984	93.5
559.196	87.5
559.409	85.5
559.621	107.5
559.833	103.5
560.046	92.5
560.258	87.5
560.47	88.5
560.683	105.5
560.895	86.5
561.107	96.5
561.32	102.5
561.532	85.5
561.744	95.5
561.956	91.5
562.168	103.5
562.381	89.5
562.593	95.5
562.805	110.5
563.017	100.5
563.229	102.5
563.441	103.5
563.653	98.5
563.865	95.5
564.077	98.5
564.289	104.5
564.501	95.5
564.713	104.5
564.925	98.5
565.137	101.5
565.349	91.5
565.561	76.5
565.773	106.5
565.985	96.5
566.197	89.5
566.408	83.5
566.62	89.5
566.832	97.5
567.044	89.5
567.255	88.5
567.467	91.5
567.679	107.5
567.891	106.5
568.102	90.5
568.314	102.5
568.526	102.5
568.737	90.5
568.949	99.5
569.161	93.5
569.372	93.5
569.584	100.5
569.795	96.5
570.007	135.5
570.218	240.5
570.43	139.5
570.641	96.5
570.853	92.5
571.064	83.5
571.276	90.5
571.487	94.5
571.698	91.5
571.91	91.5
572.121	90.5
572.333	97.5
572.544	73.5
572.755	94.5
572.966	102.5
573.178	101.5
573.389	100.5
573.6	88.5
573.811	100.5
574.023	87.5
574.234	98.5
574.445	83.5
574.656	98.5
574.867	99.5
575.078	95.5
575.289	99.5
575.501	109.5
575.712	97.5
575.923	108.5
576.134	110.5
576.345	95.5
576.556	104.5
576.767	97.5
576.978	103.5
577.188	101.5
577.399	96.5
577.61	94.5
577.821	107.5
578.032	116.5
578.243	278.5
578.454	743.5
578.665	209.5
578.875	113.5
579.086	104.5
579.297	108.5
579.508	86.5
579.718	95.5
579.929	87.5
580.14	96.5
580.35	89.5
580.561	93.5
580.772	101.5
580.982	89.5
581.193	85.5
581.403	101.5
581.614	75.5
581.825	88.5
582.035	102.5
582.246	93.5
582.456	101.5
582.667	105.5
582.877	89.5
583.087	87.5
583.298	97.5
583.508	105.5
583.719	91.5
583.929	80.5
584.139	88.5
584.35	80.5
584.56	97.5
584.77	89.5
584.981	90.5
585.191	95.5
585.401	92.5
585.611	104.5
585.821	91.5
586.032	98.5
586.242	96.5
586.452	79.5
586.662	95.5
586.872	99.5
587.082	100.5
587.292	87.5
587.502	96.5
587.713	88.5
587.923	84.5
588.133	80.5
588.343	94.5
588.553	99.5
588.762	91.5
588.972	93.5
589.182	113.5
589.392	97.5
589.602	86.5
589.812	97.5
590.022	102.5
590.232	91.5
590.441	91.5
590.651	91.5
590.861	85.5
591.071	97.5
591.281	103.5
591.49	86.5
591.7	77.5
591.91	85.5
592.119	103.5
592.329	89.5
592.539	87.5
592.748	93.5
592.958	88.5
593.167	91.5
593.377	96.5
593.587	107.5
593.796	100.5
594.006	95.5
594.215	88.5
594.424	91.5
594.634	86.5
594.843	101.5
595.053	96.5
595.262	87.5
595.472	93.5
595.681	98.5
595.89	84.5
596.1	89.5
596.309	96.5
596.518	85.5
596.727	102.5
596.937	94.5
597.146	86.5
597.355	92.5
597.564	93.5
597.774	80.5
597.983	86.5
598.192	93.5
598.401	95.5
598.61	90.5
598.819	85.5
599.028	94.5
599.237	87.5
599.446	92.5
599.655	81.5
599.864	89.5
600.073	89.5
600.282	87.5
600.491	108.5
600.7	93.5
600.909	94.5
601.118	101.5
601.327	108.5
601.536	86.5
601.745	89.5
601.953	102.5
602.162	83.5
602.371	100.5
602.58	86.5
602.789	98.5
602.997	86.5
603.206	98.5
603.415	93.5
603.623	77.5
603.832	81.5
604.041	83.5
604.249	87.5
604.458	89.5
604.666	76.5
604.875	99.5
605.084	91.5
605.292	86.5
605.501	84.5
605.709	75.5
605.918	100.5
606.126	84.5
606.334	94.5
606.543	97.5
606.751	99.5
606.96	84.5
607.168	68.5
607.376	92.5
607.585	91.5
607.793	93.5
608.001	94.5
608.21	87.5
608.418	91.5
608.626	103.5
608.834	108.5
609.043	97.5
609.251	75.5
609.459	96.5
609.667	83.5
609.875	91.5
610.083	88.5
610.291	91.5
610.499	97.5
610.707	77.5
610.916	88.5
611.124	88.5
611.332	94.5
611.54	95.5
611.748	99.5
611.955	87.5
612.163	92.5
612.371	84.5
612.579	91.5
612.787	88.5
612.995	83.5
613.203	99.5
613.411	102.5
613.618	86.5
613.826	94.5
614.034	85.5
614.242	83.5
614.449	84.5
614.657	79.5
614.865	95.5
615.072	91.5
615.28	97.5
615.488	97.5
615.695	99.5
615.903	111.5
616.111	109.5
616.318	112.5
616.526	102.5
616.733	100.5
616.941	89.5
617.148	90.5
617.356	102.5
617.563	93.5
617.771	73.5
617.978	89.5
618.185	95.5
618.393	97.5
618.6	90.5
618.807	101.5
619.015	89.5
619.222	88.5
619.429	79.5
619.637	83.5
619.844	97.5
620.051	85.5
620.258	89.5
620.466	84.5
620.673	95.5
620.88	80.5
621.087	88.5
621.294	97.5
621.501	93.5
621.708	84.5
621.915	87.5
622.122	96.5
622.329	96.5
622.536	84.5
622.743	83.5
622.95	100.5
623.157	96.5
623.364	87.5
623.571	84.5
623.778	85.5
623.985	92.5
624.192	85.5
624.399	89.5
624.606	89.5
624.812	98.5
625.019	84.5
625.226	99.5
625.433	94.5
625.639	87.5
625.846	79.5
626.053	96.5
626.259	100.5
626.466	93.5
626.673	77.5
626.879	86.5
627.086	88.5
627.293	89.5
627.499	91.5
627.706	95.5
627.912	79.5
628.119	100.5
628.325	86.5
628.532	95.5
628.738	96.5
628.945	104.5
629.151	108.5
629.357	95.5
629.564	103.5
629.77	83.5
629.976	86.5
630.183	81.5
630.389	94.5
630.595	96.5
630.802	86.5
631.008	77.5
631.214	87.5
631.42	101.5
631.627	93.5
631.833	86.5
632.039	86.5
632.245	92.5
632.451	87.5
632.657	81.5
632.863	91.5
633.069	85.5
633.275	93.5
633.481	87.5
633.688	91.5
633.893	97.5
634.099	92.5
634.305	89.5
634.511	95.5
634.717	94.5
634.923	76.5
635.129	98.5
635.335	73.5
635.541	97.5
635.747	86.5
635.952	78.5
636.158	95.5
636.364	87.5
636.57	95.5
636.775	96.5
636.981	89.5
637.187	86.5
637.392	91.5
637.598	88.5
637.804	90.5
638.009	87.5
638.215	84.5
638.421	95.5
638.626	98.5
638.832	84.5
639.037	83.5
639.243	93.5
639.448	75.5
639.654	87.5
639.859	86.5
640.065	91.5
640.27	100.5
640.475	92.5
640.681	86.5
640.886	92.5
641.091	85.5
641.297	93.5
641.502	91.5
641.707	99.5
641.913	100.5
642.118	100.5
642.323	95.5
642.528	87.5
642.733	83.5
642.939	95.5
643.144	95.5
643.349	78.5
643.554	94.5
643.759	84.5
643.964	94.5
644.169	100.5
644.374	85.5
644.579	86.5
644.784	92.5
644.989	94.5
645.194	91.5
645.399	96.5
645.604	81.5
645.809	91.5
646.014	88.5
646.219	92.5
646.423	91.5
646.628	89.5
646.833	77.5
647.038	95.5
647.243	95.5
647.447	98.5
647.652	97.5
647.857	87.5
648.062	100.5
648.266	94.5
648.471	115.5
648.676	105.5
648.88	115.5
649.085	114.5
649.289	97.5
649.494	118.5
649.698	130.5
649.903	103.5
650.107	101.5
650.312	95.5
650.516	89.5
650.721	98.5
650.925	103.5
651.13	76.5
651.334	99.5
651.539	93.5
651.743	104.5
651.947	98.5
652.152	77.5
652.356	82.5
652.56	102.5
652.764	85.5
652.969	81.5
653.173	96.5
653.377	82.5
653.581	84.5
653.785	88.5
653.99	92.5
654.194	94.5
654.398	76.5
654.602	87.5
654.806	90.5
655.01	104.5
655.214	93.5
655.418	99.5
655.622	102.5
655.826	87.5
656.03	90.5
656.234	99.5
656.438	104.5
656.642	98.5
656.846	96.5
657.049	83.5
657.253	87.5
657.457	105.5
657.661	73.5
657.865	93.5
658.068	84.5
658.272	88.5
658.476	88.5
658.68	87.5
658.883	81.5
659.087	98.5
659.291	85.5
659.494	81.5
659.698	84.5
659.901	93.5
660.105	89.5
660.309	99.5
660.512	87.5
660.716	73.5
660.919	91.5
661.123	84.5
661.326	86.5
661.53	80.5
661.733	79.5
661.936	97.5
662.14	72.5
662.343	102.5
662.546	87.5
662.75	80.5
662.953	97.5
663.156	79.5
663.36	91.5
663.563	89.5
663.766	87.5
663.969	92.5
664.173	82.5
664.376	95.5
664.579	83.5
664.782	80.5
664.985	95.5
665.188	85.5
665.391	85.5
665.594	77.5
665.797	81.5
666	82.5
666.203	80.5
666.406	74.5
666.609	94.5
666.812	87.5
667.015	71.5
667.218	89.5
667.421	93.5
667.624	90.5
667.827	77.5
668.03	73.5
668.232	84.5
668.435	98.5
668.638	84.5
668.841	98.5
669.043	87.5
669.246	83.5
669.449	82.5
669.651	101.5
669.854	85.5
670.057	91.5
670.259	105.5
670.462	93.5
670.665	81.5
670.867	85.5
671.07	72.5
671.272	76.5
671.475	83.5
671.677	86.5
671.88	92.5
672.082	81.5
672.284	87.5
672.487	84.5
672.689	109.5
672.892	96.5
