Data from Super_Dry_Prop_25_2_HRD10591_00002.txt Node
Date: Wed Dec 03 14:54:47 EST 2025
User: Yrep
Spectrometer: HR+D1059
Trigger mode: 1
Integration Time (sec): 1.000000E-1
Scans to average: 1
Electric dark correction enabled: true
Nonlinearity correction enabled: false
Boxcar width: 0
XAxis mode: Wavelengths
Number of Pixels in Spectrum: 2048
>>>>>Begin Spectral Data<<<<<
223.165	-32.94
223.4	-32.94
223.635	-32.94
223.869	-23.94
224.104	-25.94
224.338	-10.94
224.573	-8.94
224.808	-17.94
225.042	0.06
225.277	-12.94
225.511	-8.94
225.746	4.06
225.98	8.06
226.215	13.06
226.449	32.06
226.683	13.06
226.918	27.06
227.152	45.06
227.387	35.06
227.621	49.06
227.856	40.06
228.09	56.06
228.324	61.06
228.559	61.06
228.793	53.06
229.027	63.06
229.262	52.06
229.496	65.06
229.73	68.06
229.964	74.06
230.199	63.06
230.433	68.06
230.667	76.06
230.901	86.06
231.136	95.06
231.37	75.06
231.604	91.06
231.838	85.06
232.072	81.06
232.306	79.06
232.541	75.06
232.775	76.06
233.009	79.06
233.243	81.06
233.477	66.06
233.711	61.06
233.945	76.06
234.179	76.06
234.413	77.06
234.647	68.06
234.881	72.06
235.115	91.06
235.349	77.06
235.583	71.06
235.817	69.06
236.051	83.06
236.285	64.06
236.519	82.06
236.753	82.06
236.987	78.06
237.221	86.06
237.455	80.06
237.689	73.06
237.922	82.06
238.156	72.06
238.39	73.06
238.624	86.06
238.858	84.06
239.091	77.06
239.325	81.06
239.559	83.06
239.793	63.06
240.027	80.06
240.26	74.06
240.494	91.06
240.728	85.06
240.961	88.06
241.195	72.06
241.429	69.06
241.662	82.06
241.896	74.06
242.13	67.06
242.363	76.06
242.597	69.06
242.83	71.06
243.064	86.06
243.298	67.06
243.531	87.06
243.765	79.06
243.998	72.06
244.232	88.06
244.465	75.06
244.699	73.06
244.932	86.06
245.166	80.06
245.399	80.06
245.633	81.06
245.866	83.06
246.099	72.06
246.333	71.06
246.566	68.06
246.8	68.06
247.033	68.06
247.266	66.06
247.5	82.06
247.733	79.06
247.966	67.06
248.2	86.06
248.433	88.06
248.666	78.06
248.899	83.06
249.133	86.06
249.366	96.06
249.599	65.06
249.832	107.06
250.066	85.06
250.299	86.06
250.532	73.06
250.765	79.06
250.998	67.06
251.231	81.06
251.465	94.06
251.698	93.06
251.931	80.06
252.164	87.06
252.397	77.06
252.63	71.06
252.863	75.06
253.096	75.06
253.329	80.06
253.562	64.06
253.795	84.06
254.028	103.06
254.261	83.06
254.494	88.06
254.727	87.06
254.96	80.06
255.193	58.06
255.426	83.06
255.659	80.06
255.892	69.06
256.124	75.06
256.357	93.06
256.59	77.06
256.823	83.06
257.056	85.06
257.289	76.06
257.521	88.06
257.754	71.06
257.987	76.06
258.22	91.06
258.452	85.06
258.685	88.06
258.918	82.06
259.151	76.06
259.383	75.06
259.616	84.06
259.849	74.06
260.081	79.06
260.314	86.06
260.547	77.06
260.779	85.06
261.012	70.06
261.244	80.06
261.477	79.06
261.71	83.06
261.942	86.06
262.175	80.06
262.407	86.06
262.64	80.06
262.872	81.06
263.105	76.06
263.337	88.06
263.57	71.06
263.802	83.06
264.035	65.06
264.267	91.06
264.499	95.06
264.732	88.06
264.964	83.06
265.197	81.06
265.429	84.06
265.661	64.06
265.894	84.06
266.126	76.06
266.358	76.06
266.591	96.06
266.823	98.06
267.055	89.06
267.287	88.06
267.52	75.06
267.752	75.06
267.984	71.06
268.216	77.06
268.448	79.06
268.681	83.06
268.913	88.06
269.145	88.06
269.377	82.06
269.609	73.06
269.841	77.06
270.073	83.06
270.306	99.06
270.538	81.06
270.77	93.06
271.002	92.06
271.234	75.06
271.466	84.06
271.698	75.06
271.93	93.06
272.162	85.06
272.394	85.06
272.626	76.06
272.858	95.06
273.09	91.06
273.322	93.06
273.553	83.06
273.785	81.06
274.017	82.06
274.249	87.06
274.481	79.06
274.713	78.06
274.945	80.06
275.176	85.06
275.408	83.06
275.64	92.06
275.872	84.06
276.104	79.06
276.335	77.06
276.567	82.06
276.799	93.06
277.031	80.06
277.262	100.06
277.494	78.06
277.726	78.06
277.957	93.06
278.189	80.06
278.421	75.06
278.652	93.06
278.884	87.06
279.115	85.06
279.347	85.06
279.579	84.06
279.81	92.06
280.042	97.06
280.273	82.06
280.505	77.06
280.736	90.06
280.968	71.06
281.199	87.06
281.431	83.06
281.662	86.06
281.894	84.06
282.125	83.06
282.356	85.06
282.588	69.06
282.819	88.06
283.051	85.06
283.282	93.06
283.513	94.06
283.745	82.06
283.976	81.06
284.207	83.06
284.439	74.06
284.67	84.06
284.901	73.06
285.132	92.06
285.364	80.06
285.595	76.06
285.826	83.06
286.057	82.06
286.288	72.06
286.52	79.06
286.751	77.06
286.982	85.06
287.213	96.06
287.444	88.06
287.675	84.06
287.906	84.06
288.138	87.06
288.369	88.06
288.6	67.06
288.831	84.06
289.062	71.06
289.293	72.06
289.524	86.06
289.755	84.06
289.986	81.06
290.217	94.06
290.448	83.06
290.679	83.06
290.91	81.06
291.141	83.06
291.371	87.06
291.602	71.06
291.833	60.06
292.064	96.06
292.295	93.06
292.526	87.06
292.757	75.06
292.987	87.06
293.218	89.06
293.449	87.06
293.68	84.06
293.91	70.06
294.141	79.06
294.372	82.06
294.603	78.06
294.833	80.06
295.064	68.06
295.295	76.06
295.525	85.06
295.756	85.06
295.987	72.06
296.217	71.06
296.448	86.06
296.679	83.06
296.909	94.06
297.14	87.06
297.37	87.06
297.601	86.06
297.831	77.06
298.062	94.06
298.292	78.06
298.523	79.06
298.753	73.06
298.984	84.06
299.214	76.06
299.445	89.06
299.675	93.06
299.905	100.06
300.136	88.06
300.366	87.06
300.597	79.06
300.827	87.06
301.057	98.06
301.288	92.06
301.518	77.06
301.748	89.06
301.979	82.06
302.209	86.06
302.439	73.06
302.669	95.06
302.9	80.06
303.13	72.06
303.36	77.06
303.59	83.06
303.82	86.06
304.051	77.06
304.281	110.06
304.511	97.06
304.741	75.06
304.971	81.06
305.201	83.06
305.431	77.06
305.661	91.06
305.891	76.06
306.121	69.06
306.352	65.06
306.582	88.06
306.812	91.06
307.042	84.06
307.272	93.06
307.502	95.06
307.731	86.06
307.961	87.06
308.191	91.06
308.421	84.06
308.651	71.06
308.881	78.06
309.111	87.06
309.341	83.06
309.571	89.06
309.8	82.06
310.03	96.06
310.26	87.06
310.49	95.06
310.72	88.06
310.949	101.06
311.179	92.06
311.409	79.06
311.639	88.06
311.868	85.06
312.098	73.06
312.328	78.06
312.557	84.06
312.787	80.06
313.017	93.06
313.246	96.06
313.476	84.06
313.706	88.06
313.935	89.06
314.165	69.06
314.394	84.06
314.624	82.06
314.853	85.06
315.083	85.06
315.312	78.06
315.542	86.06
315.771	83.06
316.001	95.06
316.23	101.06
316.46	85.06
316.689	78.06
316.919	88.06
317.148	80.06
317.377	82.06
317.607	81.06
317.836	102.06
318.065	84.06
318.295	70.06
318.524	82.06
318.753	91.06
318.983	91.06
319.212	94.06
319.441	92.06
319.67	86.06
319.9	85.06
320.129	69.06
320.358	86.06
320.587	74.06
320.816	88.06
321.046	86.06
321.275	101.06
321.504	85.06
321.733	71.06
321.962	83.06
322.191	71.06
322.42	74.06
322.649	91.06
322.878	78.06
323.108	86.06
323.337	80.06
323.566	85.06
323.795	103.06
324.024	91.06
324.253	101.06
324.482	75.06
324.71	94.06
324.939	95.06
325.168	71.06
325.397	80.06
325.626	88.06
325.855	77.06
326.084	89.06
326.313	87.06
326.542	99.06
326.77	92.06
326.999	90.06
327.228	92.06
327.457	83.06
327.686	84.06
327.914	82.06
328.143	79.06
328.372	84.06
328.6	81.06
328.829	76.06
329.058	85.06
329.287	104.06
329.515	74.06
329.744	93.06
329.972	92.06
330.201	72.06
330.43	88.06
330.658	90.06
330.887	91.06
331.115	88.06
331.344	101.06
331.572	82.06
331.801	92.06
332.03	91.06
332.258	97.06
332.486	80.06
332.715	86.06
332.943	88.06
333.172	91.06
333.4	71.06
333.629	72.06
333.857	81.06
334.085	76.06
334.314	86.06
334.542	74.06
334.771	76.06
334.999	96.06
335.227	91.06
335.455	84.06
335.684	91.06
335.912	82.06
336.14	91.06
336.369	78.06
336.597	84.06
336.825	81.06
337.053	77.06
337.281	77.06
337.51	79.06
337.738	95.06
337.966	85.06
338.194	97.06
338.422	100.06
338.65	79.06
338.878	91.06
339.106	86.06
339.334	88.06
339.562	90.06
339.79	85.06
340.018	85.06
340.246	94.06
340.474	86.06
340.702	92.06
340.93	81.06
341.158	78.06
341.386	77.06
341.614	95.06
341.842	83.06
342.07	77.06
342.298	79.06
342.526	78.06
342.754	78.06
342.981	95.06
343.209	93.06
343.437	99.06
343.665	98.06
343.893	92.06
344.12	90.06
344.348	91.06
344.576	80.06
344.804	89.06
345.031	97.06
345.259	88.06
345.487	88.06
345.714	86.06
345.942	97.06
346.17	78.06
346.397	76.06
346.625	84.06
346.853	83.06
347.08	91.06
347.308	63.06
347.535	90.06
347.763	95.06
347.99	92.06
348.218	79.06
348.445	78.06
348.673	84.06
348.9	86.06
349.128	80.06
349.355	88.06
349.583	87.06
349.81	96.06
350.037	87.06
350.265	80.06
350.492	82.06
350.72	76.06
350.947	82.06
351.174	84.06
351.402	95.06
351.629	67.06
351.856	89.06
352.083	89.06
352.311	69.06
352.538	68.06
352.765	71.06
352.992	91.06
353.22	85.06
353.447	75.06
353.674	80.06
353.901	105.06
354.128	83.06
354.355	86.06
354.583	91.06
354.81	89.06
355.037	76.06
355.264	75.06
355.491	100.06
355.718	86.06
355.945	83.06
356.172	80.06
356.399	77.06
356.626	69.06
356.853	85.06
357.08	63.06
357.307	89.06
357.534	88.06
357.761	81.06
357.988	75.06
358.215	82.06
358.441	87.06
358.668	89.06
358.895	86.06
359.122	82.06
359.349	75.06
359.576	86.06
359.802	81.06
360.029	84.06
360.256	92.06
360.483	76.06
360.709	70.06
360.936	97.06
361.163	86.06
361.39	84.06
361.616	95.06
361.843	88.06
362.07	94.06
362.296	78.06
362.523	70.06
362.749	87.06
362.976	105.06
363.203	87.06
363.429	85.06
363.656	86.06
363.882	86.06
364.109	78.06
364.335	84.06
364.562	74.06
364.788	80.06
365.015	66.06
365.241	91.06
365.468	93.06
365.694	70.06
365.92	85.06
366.147	85.06
366.373	84.06
366.599	91.06
366.826	74.06
367.052	91.06
367.278	69.06
367.505	94.06
367.731	89.06
367.957	70.06
368.184	84.06
368.41	84.06
368.636	81.06
368.862	99.06
369.089	83.06
369.315	69.06
369.541	84.06
369.767	88.06
369.993	84.06
370.219	99.06
370.445	88.06
370.672	82.06
370.898	77.06
371.124	95.06
371.35	88.06
371.576	79.06
371.802	89.06
372.028	63.06
372.254	86.06
372.48	89.06
372.706	67.06
372.932	89.06
373.158	90.06
373.384	81.06
373.61	87.06
373.835	89.06
374.061	87.06
374.287	86.06
374.513	79.06
374.739	93.06
374.965	85.06
375.191	83.06
375.416	80.06
375.642	83.06
375.868	87.06
376.094	79.06
376.319	78.06
376.545	78.06
376.771	63.06
376.997	77.06
377.222	85.06
377.448	80.06
377.674	89.06
377.899	86.06
378.125	74.06
378.35	74.06
378.576	89.06
378.802	87.06
379.027	93.06
379.253	94.06
379.478	83.06
379.704	80.06
379.929	80.06
380.155	82.06
380.38	73.06
380.606	75.06
380.831	87.06
381.057	97.06
381.282	77.06
381.507	79.06
381.733	83.06
381.958	92.06
382.184	80.06
382.409	92.06
382.634	87.06
382.86	82.06
383.085	84.06
383.31	77.06
383.535	92.06
383.761	98.06
383.986	94.06
384.211	77.06
384.436	88.06
384.662	96.06
384.887	84.06
385.112	81.06
385.337	94.06
385.562	95.06
385.787	77.06
386.013	87.06
386.238	78.06
386.463	95.06
386.688	87.06
386.913	99.06
387.138	81.06
387.363	101.06
387.588	82.06
387.813	83.06
388.038	86.06
388.263	81.06
388.488	82.06
388.713	91.06
388.938	87.06
389.163	79.06
389.387	85.06
389.612	74.06
389.837	64.06
390.062	76.06
390.287	87.06
390.512	74.06
390.736	101.06
390.961	80.06
391.186	79.06
391.411	92.06
391.636	86.06
391.86	91.06
392.085	82.06
392.31	92.06
392.534	91.06
392.759	94.06
392.984	84.06
393.208	82.06
393.433	94.06
393.658	72.06
393.882	85.06
394.107	80.06
394.331	92.06
394.556	88.06
394.78	86.06
395.005	87.06
395.229	88.06
395.454	78.06
395.678	73.06
395.903	78.06
396.127	95.06
396.352	76.06
396.576	88.06
396.801	97.06
397.025	80.06
397.249	81.06
397.474	86.06
397.698	85.06
397.922	83.06
398.147	75.06
398.371	92.06
398.595	71.06
398.82	79.06
399.044	70.06
399.268	99.06
399.492	86.06
399.717	97.06
399.941	74.06
400.165	83.06
400.389	81.06
400.613	88.06
400.837	87.06
401.062	87.06
401.286	86.06
401.51	91.06
401.734	75.06
401.958	84.06
402.182	55.06
402.406	70.06
402.63	72.06
402.854	80.06
403.078	91.06
403.302	79.06
403.526	96.06
403.75	75.06
403.974	80.06
404.198	81.06
404.422	109.06
404.645	108.06
404.869	98.06
405.093	80.06
405.317	78.06
405.541	91.06
405.765	82.06
405.988	96.06
406.212	86.06
406.436	76.06
406.66	83.06
406.883	79.06
407.107	83.06
407.331	81.06
407.555	81.06
407.778	80.06
408.002	77.06
408.226	63.06
408.449	88.06
408.673	71.06
408.896	75.06
409.12	82.06
409.344	80.06
409.567	78.06
409.791	71.06
410.014	94.06
410.238	64.06
410.461	76.06
410.685	72.06
410.908	79.06
411.132	82.06
411.355	75.06
411.578	84.06
411.802	71.06
412.025	83.06
412.249	73.06
412.472	90.06
412.695	84.06
412.919	88.06
413.142	88.06
413.365	85.06
413.589	83.06
413.812	79.06
414.035	101.06
414.258	85.06
414.482	93.06
414.705	91.06
414.928	95.06
415.151	92.06
415.374	82.06
415.597	83.06
415.821	83.06
416.044	83.06
416.267	71.06
416.49	85.06
416.713	71.06
416.936	73.06
417.159	91.06
417.382	79.06
417.605	80.06
417.828	79.06
418.051	81.06
418.274	83.06
418.497	81.06
418.72	84.06
418.943	69.06
419.166	61.06
419.389	99.06
419.611	92.06
419.834	72.06
420.057	84.06
420.28	80.06
420.503	78.06
420.726	66.06
420.948	83.06
421.171	86.06
421.394	80.06
421.617	86.06
421.839	75.06
422.062	82.06
422.285	96.06
422.507	91.06
422.73	96.06
422.953	77.06
423.175	83.06
423.398	72.06
423.621	83.06
423.843	63.06
424.066	76.06
424.288	74.06
424.511	82.06
424.733	67.06
424.956	61.06
425.178	66.06
425.401	91.06
425.623	83.06
425.846	81.06
426.068	73.06
426.291	91.06
426.513	75.06
426.735	72.06
426.958	84.06
427.18	84.06
427.402	80.06
427.625	77.06
427.847	75.06
428.069	71.06
428.292	81.06
428.514	81.06
428.736	101.06
428.958	87.06
429.181	86.06
429.403	74.06
429.625	70.06
429.847	84.06
430.069	88.06
430.292	84.06
430.514	81.06
430.736	83.06
430.958	95.06
431.18	75.06
431.402	68.06
431.624	70.06
431.846	82.06
432.068	71.06
432.29	79.06
432.512	85.06
432.734	68.06
432.956	68.06
433.178	76.06
433.4	75.06
433.622	81.06
433.844	85.06
434.066	83.06
434.287	77.06
434.509	81.06
434.731	73.06
434.953	75.06
435.175	85.06
435.397	86.06
435.618	86.06
435.84	77.06
436.062	98.06
436.284	78.06
436.505	74.06
436.727	86.06
436.949	83.06
437.17	76.06
437.392	70.06
437.614	77.06
437.835	90.06
438.057	89.06
438.278	93.06
438.5	82.06
438.721	80.06
438.943	88.06
439.165	79.06
439.386	97.06
439.608	78.06
439.829	88.06
440.05	98.06
440.272	88.06
440.493	80.06
440.715	74.06
440.936	74.06
441.158	79.06
441.379	80.06
441.6	78.06
441.822	81.06
442.043	71.06
442.264	85.06
442.486	88.06
442.707	75.06
442.928	88.06
443.149	91.06
443.371	73.06
443.592	72.06
443.813	75.06
444.034	61.06
444.255	97.06
444.476	79.06
444.698	82.06
444.919	82.06
445.14	153.06
445.361	121.06
445.582	80.06
445.803	80.06
446.024	82.06
446.245	89.06
446.466	97.06
446.687	76.06
446.908	93.06
447.129	66.06
447.35	73.06
447.571	74.06
447.792	77.06
448.013	80.06
448.234	72.06
448.455	83.06
448.675	76.06
448.896	85.06
449.117	77.06
449.338	66.06
449.559	70.06
449.779	79.06
450	75.06
450.221	71.06
450.442	68.06
450.662	79.06
450.883	79.06
451.104	75.06
451.324	74.06
451.545	95.06
451.766	78.06
451.986	70.06
452.207	64.06
452.428	94.06
452.648	82.06
452.869	87.06
453.089	79.06
453.31	81.06
453.53	83.06
453.751	70.06
453.971	82.06
454.192	81.06
454.412	91.06
454.633	73.06
454.853	83.06
455.073	82.06
455.294	77.06
455.514	79.06
455.734	80.06
455.955	85.06
456.175	75.06
456.395	81.06
456.616	65.06
456.836	91.06
457.056	88.06
457.276	84.06
457.497	77.06
457.717	77.06
457.937	71.06
458.157	84.06
458.377	82.06
458.598	84.06
458.818	58.06
459.038	71.06
459.258	83.06
459.478	78.06
459.698	79.06
459.918	93.06
460.138	67.06
460.358	87.06
460.578	86.06
460.798	78.06
461.018	93.06
461.238	83.06
461.458	89.06
461.678	88.06
461.898	81.06
462.118	88.06
462.338	77.06
462.558	78.06
462.777	80.06
462.997	81.06
463.217	80.06
463.437	85.06
463.657	81.06
463.876	92.06
464.096	70.06
464.316	79.06
464.536	87.06
464.755	79.06
464.975	87.06
465.195	77.06
465.414	85.06
465.634	85.06
465.854	75.06
466.073	82.06
466.293	65.06
466.512	71.06
466.732	63.06
466.951	83.06
467.171	68.06
467.391	86.06
467.61	68.06
467.829	72.06
468.049	80.06
468.268	84.06
468.488	98.06
468.707	85.06
468.927	83.06
469.146	95.06
469.365	66.06
469.585	61.06
469.804	86.06
470.023	88.06
470.243	68.06
470.462	97.06
470.681	75.06
470.901	76.06
471.12	86.06
471.339	95.06
471.558	79.06
471.777	85.06
471.997	79.06
472.216	75.06
472.435	87.06
472.654	84.06
472.873	85.06
473.092	86.06
473.311	73.06
473.53	79.06
473.749	75.06
473.968	100.06
474.187	73.06
474.406	84.06
474.625	76.06
474.844	91.06
475.063	82.06
475.282	71.06
475.501	69.06
475.72	94.06
475.939	88.06
476.158	79.06
476.377	92.06
476.596	83.06
476.814	83.06
477.033	83.06
477.252	83.06
477.471	92.06
477.69	88.06
477.908	92.06
478.127	85.06
478.346	93.06
478.564	71.06
478.783	85.06
479.002	88.06
479.22	85.06
479.439	91.06
479.658	91.06
479.876	69.06
480.095	77.06
480.313	97.06
480.532	83.06
480.751	72.06
480.969	82.06
481.188	91.06
481.406	82.06
481.624	87.06
481.843	88.06
482.061	72.06
482.28	79.06
482.498	82.06
482.717	68.06
482.935	94.06
483.153	77.06
483.372	86.06
483.59	81.06
483.808	75.06
484.027	72.06
484.245	84.06
484.463	83.06
484.681	86.06
484.9	82.06
485.118	72.06
485.336	78.06
485.554	75.06
485.772	73.06
485.99	81.06
486.209	84.06
486.427	71.06
486.645	84.06
486.863	89.06
487.081	92.06
487.299	68.06
487.517	86.06
487.735	93.06
487.953	67.06
488.171	77.06
488.389	79.06
488.607	79.06
488.825	87.06
489.043	81.06
489.261	89.06
489.479	83.06
489.696	88.06
489.914	86.06
490.132	88.06
490.35	99.06
490.568	79.06
490.786	84.06
491.003	84.06
491.221	86.06
491.439	93.06
491.657	70.06
491.874	72.06
492.092	83.06
492.31	87.06
492.527	97.06
492.745	99.06
492.963	89.06
493.18	81.06
493.398	83.06
493.615	78.06
493.833	63.06
494.05	75.06
494.268	75.06
494.485	99.06
494.703	91.06
494.92	84.06
495.138	81.06
495.355	71.06
495.573	70.06
495.79	82.06
496.008	80.06
496.225	86.06
496.442	89.06
496.66	91.06
496.877	97.06
497.094	88.06
497.312	78.06
497.529	81.06
497.746	87.06
497.963	101.06
498.181	75.06
498.398	86.06
498.615	78.06
498.832	83.06
499.049	79.06
499.267	88.06
499.484	72.06
499.701	90.06
499.918	85.06
500.135	70.06
500.352	111.06
500.569	83.06
500.786	92.06
501.003	81.06
501.22	73.06
501.437	81.06
501.654	76.06
501.871	87.06
502.088	93.06
502.305	81.06
502.522	86.06
502.739	83.06
502.956	88.06
503.172	83.06
503.389	72.06
503.606	86.06
503.823	75.06
504.04	93.06
504.256	96.06
504.473	76.06
504.69	96.06
504.907	82.06
505.123	80.06
505.34	77.06
505.557	80.06
505.773	85.06
505.99	92.06
506.207	73.06
506.423	91.06
506.64	84.06
506.856	94.06
507.073	84.06
507.289	80.06
507.506	78.06
507.722	91.06
507.939	84.06
508.155	83.06
508.372	94.06
508.588	97.06
508.805	79.06
509.021	77.06
509.238	97.06
509.454	84.06
509.67	94.06
509.887	88.06
510.103	79.06
510.319	80.06
510.536	82.06
510.752	88.06
510.968	84.06
511.184	86.06
511.401	84.06
511.617	78.06
511.833	95.06
512.049	108.06
512.265	89.06
512.481	76.06
512.698	83.06
512.914	65.06
513.13	77.06
513.346	91.06
513.562	87.06
513.778	84.06
513.994	93.06
514.21	86.06
514.426	83.06
514.642	87.06
514.858	72.06
515.074	78.06
515.29	76.06
515.506	77.06
515.721	87.06
515.937	83.06
516.153	78.06
516.369	83.06
516.585	70.06
516.801	85.06
517.016	91.06
517.232	84.06
517.448	72.06
517.664	80.06
517.879	90.06
518.095	83.06
518.311	87.06
518.527	92.06
518.742	87.06
518.958	87.06
519.173	86.06
519.389	81.06
519.605	71.06
519.82	87.06
520.036	84.06
520.251	94.06
520.467	87.06
520.682	85.06
520.898	92.06
521.113	84.06
521.329	92.06
521.544	80.06
521.76	88.06
521.975	89.06
522.19	76.06
522.406	76.06
522.621	80.06
522.836	86.06
523.052	82.06
523.267	82.06
523.482	76.06
523.698	76.06
523.913	96.06
524.128	73.06
524.343	87.06
524.559	82.06
524.774	103.06
524.989	95.06
525.204	84.06
525.419	75.06
525.634	86.06
525.849	86.06
526.064	76.06
526.28	89.06
526.495	87.06
526.71	80.06
526.925	73.06
527.14	79.06
527.355	84.06
527.57	76.06
527.785	103.06
527.999	91.06
528.214	90.06
528.429	78.06
528.644	84.06
528.859	80.06
529.074	100.06
529.289	89.06
529.503	82.06
529.718	86.06
529.933	68.06
530.148	87.06
530.363	81.06
530.577	93.06
530.792	80.06
531.007	73.06
531.221	81.06
531.436	86.06
531.651	79.06
531.865	85.06
532.08	93.06
532.295	105.06
532.509	96.06
532.724	79.06
532.938	100.06
533.153	88.06
533.367	72.06
533.582	87.06
533.796	68.06
534.011	78.06
534.225	84.06
534.44	83.06
534.654	93.06
534.868	95.06
535.083	93.06
535.297	98.06
535.511	86.06
535.726	86.06
535.94	91.06
536.154	102.06
536.369	92.06
536.583	88.06
536.797	104.06
537.011	91.06
537.225	70.06
537.44	94.06
537.654	85.06
537.868	82.06
538.082	97.06
538.296	87.06
538.51	99.06
538.724	92.06
538.938	92.06
539.153	80.06
539.367	83.06
539.581	93.06
539.795	79.06
540.009	75.06
540.222	95.06
540.436	87.06
540.65	96.06
540.864	93.06
541.078	92.06
541.292	78.06
541.506	85.06
541.72	87.06
541.934	85.06
542.147	82.06
542.361	76.06
542.575	81.06
542.789	88.06
543.002	88.06
543.216	90.06
543.43	89.06
543.644	98.06
543.857	81.06
544.071	87.06
544.285	80.06
544.498	85.06
544.712	87.06
544.925	89.06
545.139	86.06
545.352	82.06
545.566	88.06
545.779	84.06
545.993	95.06
546.206	83.06
546.42	89.06
546.633	89.06
546.847	98.06
547.06	84.06
547.274	82.06
547.487	95.06
547.7	83.06
547.914	81.06
548.127	88.06
548.34	71.06
548.554	95.06
548.767	97.06
548.98	91.06
549.193	91.06
549.407	91.06
549.62	89.06
549.833	80.06
550.046	92.06
550.259	84.06
550.473	90.06
550.686	83.06
550.899	89.06
551.112	96.06
551.325	86.06
551.538	84.06
551.751	86.06
551.964	79.06
552.177	80.06
552.39	73.06
552.603	72.06
552.816	80.06
553.029	91.06
553.242	85.06
553.455	93.06
553.667	100.06
553.88	98.06
554.093	75.06
554.306	95.06
554.519	82.06
554.732	93.06
554.944	86.06
555.157	87.06
555.37	84.06
555.583	85.06
555.795	89.06
556.008	89.06
556.221	98.06
556.433	82.06
556.646	91.06
556.859	83.06
557.071	97.06
557.284	78.06
557.496	75.06
557.709	77.06
557.921	84.06
558.134	98.06
558.346	95.06
558.559	84.06
558.771	95.06
558.984	93.06
559.196	93.06
559.409	96.06
559.621	84.06
559.833	93.06
560.046	93.06
560.258	91.06
560.47	85.06
560.683	84.06
560.895	93.06
561.107	82.06
561.32	91.06
561.532	91.06
561.744	68.06
561.956	91.06
562.168	85.06
562.381	82.06
562.593	92.06
562.805	79.06
563.017	86.06
563.229	96.06
563.441	86.06
563.653	79.06
563.865	82.06
564.077	76.06
564.289	89.06
564.501	93.06
564.713	87.06
564.925	85.06
565.137	73.06
565.349	80.06
565.561	90.06
565.773	106.06
565.985	86.06
566.197	77.06
566.408	79.06
566.62	107.06
566.832	85.06
567.044	88.06
567.255	85.06
567.467	83.06
567.679	88.06
567.891	83.06
568.102	71.06
568.314	72.06
568.526	91.06
568.737	99.06
568.949	85.06
569.161	96.06
569.372	97.06
569.584	96.06
569.795	91.06
570.007	85.06
570.218	79.06
570.43	79.06
570.641	90.06
570.853	100.06
571.064	98.06
571.276	79.06
571.487	80.06
571.698	94.06
571.91	84.06
572.121	88.06
572.333	91.06
572.544	91.06
572.755	89.06
572.966	93.06
573.178	86.06
573.389	93.06
573.6	76.06
573.811	84.06
574.023	83.06
574.234	85.06
574.445	82.06
574.656	67.06
574.867	91.06
575.078	95.06
575.289	84.06
575.501	83.06
575.712	80.06
575.923	91.06
576.134	88.06
576.345	88.06
576.556	93.06
576.767	89.06
576.978	72.06
577.188	81.06
577.399	75.06
577.61	76.06
577.821	101.06
578.032	91.06
578.243	104.06
578.454	105.06
578.665	103.06
578.875	86.06
579.086	80.06
579.297	91.06
579.508	84.06
579.718	86.06
579.929	81.06
580.14	87.06
580.35	99.06
580.561	124.06
580.772	98.06
580.982	103.06
581.193	97.06
581.403	92.06
581.614	77.06
581.825	101.06
582.035	88.06
582.246	101.06
582.456	81.06
582.667	85.06
582.877	94.06
583.087	86.06
583.298	87.06
583.508	87.06
583.719	89.06
583.929	93.06
584.139	106.06
584.35	93.06
584.56	81.06
584.77	80.06
584.981	95.06
585.191	95.06
585.401	82.06
585.611	91.06
585.821	83.06
586.032	87.06
586.242	87.06
586.452	95.06
586.662	79.06
586.872	95.06
587.082	85.06
587.292	94.06
587.502	76.06
587.713	97.06
587.923	99.06
588.133	100.06
588.343	81.06
588.553	95.06
588.762	142.06
588.972	209.06
589.182	309.06
589.392	229.06
589.602	203.06
589.812	267.06
590.022	167.06
590.232	107.06
590.441	96.06
590.651	80.06
590.861	83.06
591.071	101.06
591.281	92.06
591.49	69.06
591.7	77.06
591.91	101.06
592.119	93.06
592.329	92.06
592.539	94.06
592.748	91.06
592.958	87.06
593.167	75.06
593.377	81.06
593.587	85.06
593.796	96.06
594.006	87.06
594.215	85.06
594.424	84.06
594.634	73.06
594.843	87.06
595.053	89.06
595.262	99.06
595.472	102.06
595.681	100.06
595.89	92.06
596.1	103.06
596.309	99.06
596.518	101.06
596.727	95.06
596.937	101.06
597.146	80.06
597.355	83.06
597.564	77.06
597.774	93.06
597.983	97.06
598.192	91.06
598.401	84.06
598.61	97.06
598.819	102.06
599.028	80.06
599.237	77.06
599.446	89.06
599.655	103.06
599.864	76.06
600.073	78.06
600.282	97.06
600.491	87.06
600.7	75.06
600.909	88.06
601.118	95.06
601.327	86.06
601.536	94.06
601.745	84.06
601.953	91.06
602.162	89.06
602.371	77.06
602.58	75.06
602.789	93.06
602.997	84.06
603.206	103.06
603.415	83.06
603.623	87.06
603.832	86.06
604.041	96.06
604.249	91.06
604.458	73.06
604.666	84.06
604.875	83.06
605.084	84.06
605.292	76.06
605.501	91.06
605.709	79.06
605.918	72.06
606.126	71.06
606.334	94.06
606.543	91.06
606.751	89.06
606.96	76.06
607.168	78.06
607.376	87.06
607.585	95.06
607.793	81.06
608.001	92.06
608.21	83.06
608.418	93.06
608.626	89.06
608.834	87.06
609.043	95.06
609.251	93.06
609.459	97.06
609.667	85.06
609.875	91.06
610.083	88.06
610.291	93.06
610.499	89.06
610.707	93.06
610.916	81.06
611.124	84.06
611.332	86.06
611.54	81.06
611.748	99.06
611.955	67.06
612.163	101.06
612.371	86.06
612.579	74.06
612.787	78.06
612.995	88.06
613.203	82.06
613.411	85.06
613.618	89.06
613.826	80.06
614.034	87.06
614.242	64.06
614.449	64.06
614.657	86.06
614.865	82.06
615.072	108.06
615.28	97.06
615.488	82.06
615.695	84.06
615.903	88.06
616.111	83.06
616.318	102.06
616.526	91.06
616.733	90.06
616.941	86.06
617.148	89.06
617.356	80.06
617.563	87.06
617.771	96.06
617.978	87.06
618.185	84.06
618.393	78.06
618.6	94.06
618.807	83.06
619.015	87.06
619.222	80.06
619.429	78.06
619.637	76.06
619.844	95.06
620.051	84.06
620.258	79.06
620.466	95.06
620.673	92.06
620.88	92.06
621.087	88.06
621.294	78.06
621.501	80.06
621.708	94.06
621.915	87.06
622.122	79.06
622.329	80.06
622.536	86.06
622.743	92.06
622.95	85.06
623.157	94.06
623.364	87.06
623.571	85.06
623.778	97.06
623.985	108.06
624.192	91.06
624.399	83.06
624.606	87.06
624.812	80.06
625.019	92.06
625.226	88.06
625.433	84.06
625.639	79.06
625.846	83.06
626.053	84.06
626.259	83.06
626.466	82.06
626.673	86.06
626.879	82.06
627.086	82.06
627.293	87.06
627.499	91.06
627.706	78.06
627.912	87.06
628.119	88.06
628.325	84.06
628.532	72.06
628.738	80.06
628.945	99.06
629.151	103.06
629.357	94.06
629.564	85.06
629.77	77.06
629.976	79.06
630.183	77.06
630.389	72.06
630.595	83.06
630.802	91.06
631.008	103.06
631.214	95.06
631.42	80.06
631.627	97.06
631.833	93.06
632.039	76.06
632.245	88.06
632.451	94.06
632.657	84.06
632.863	75.06
633.069	89.06
633.275	88.06
633.481	78.06
633.688	90.06
633.893	94.06
634.099	81.06
634.305	88.06
634.511	81.06
634.717	81.06
634.923	72.06
635.129	75.06
635.335	86.06
635.541	77.06
635.747	58.06
635.952	89.06
636.158	83.06
636.364	80.06
636.57	73.06
636.775	82.06
636.981	74.06
637.187	83.06
637.392	95.06
637.598	80.06
637.804	78.06
638.009	75.06
638.215	93.06
638.421	78.06
638.626	91.06
638.832	79.06
639.037	82.06
639.243	73.06
639.448	92.06
639.654	80.06
639.859	97.06
640.065	84.06
640.27	80.06
640.475	85.06
640.681	72.06
640.886	95.06
641.091	92.06
641.297	90.06
641.502	93.06
641.707	102.06
641.913	94.06
642.118	85.06
642.323	87.06
642.528	86.06
642.733	96.06
642.939	79.06
643.144	85.06
643.349	84.06
643.554	92.06
643.759	82.06
643.964	85.06
644.169	104.06
644.374	100.06
644.579	93.06
644.784	91.06
644.989	70.06
645.194	87.06
645.399	94.06
645.604	71.06
645.809	85.06
646.014	87.06
646.219	77.06
646.423	86.06
646.628	74.06
646.833	78.06
647.038	82.06
647.243	84.06
647.447	80.06
647.652	87.06
647.857	71.06
648.062	85.06
648.266	94.06
648.471	85.06
648.676	93.06
648.88	71.06
649.085	84.06
649.289	83.06
649.494	76.06
649.698	96.06
649.903	86.06
650.107	80.06
650.312	80.06
650.516	97.06
650.721	87.06
650.925	84.06
651.13	87.06
651.334	83.06
651.539	85.06
651.743	84.06
651.947	76.06
652.152	76.06
652.356	76.06
652.56	85.06
652.764	87.06
652.969	78.06
653.173	84.06
653.377	88.06
653.581	88.06
653.785	85.06
653.99	81.06
654.194	80.06
654.398	81.06
654.602	87.06
654.806	93.06
655.01	88.06
655.214	74.06
655.418	85.06
655.622	70.06
655.826	92.06
656.03	84.06
656.234	84.06
656.438	84.06
656.642	99.06
656.846	87.06
657.049	77.06
657.253	95.06
657.457	77.06
657.661	92.06
657.865	97.06
658.068	78.06
658.272	75.06
658.476	99.06
658.68	88.06
658.883	91.06
659.087	81.06
659.291	81.06
659.494	87.06
659.698	82.06
659.901	76.06
660.105	82.06
660.309	77.06
660.512	92.06
660.716	87.06
660.919	71.06
661.123	97.06
661.326	76.06
661.53	97.06
661.733	105.06
661.936	82.06
662.14	83.06
662.343	94.06
662.546	77.06
662.75	77.06
662.953	86.06
663.156	76.06
663.36	75.06
663.563	77.06
663.766	88.06
663.969	87.06
664.173	86.06
664.376	79.06
664.579	87.06
664.782	84.06
664.985	75.06
665.188	85.06
665.391	89.06
665.594	69.06
665.797	77.06
666	85.06
666.203	80.06
666.406	95.06
666.609	80.06
666.812	83.06
667.015	75.06
667.218	78.06
667.421	76.06
667.624	85.06
667.827	84.06
668.03	79.06
668.232	71.06
668.435	75.06
668.638	80.06
668.841	65.06
669.043	79.06
669.246	96.06
669.449	78.06
669.651	71.06
669.854	70.06
670.057	79.06
670.259	69.06
670.462	80.06
670.665	85.06
670.867	91.06
671.07	79.06
671.272	80.06
671.475	95.06
671.677	63.06
671.88	94.06
672.082	84.06
672.284	83.06
672.487	91.06
672.689	83.06
672.892	77.06
