Data from Super_Dry_Prop_25_2_HRD10591_00008.txt Node
Date: Wed Dec 03 14:54:50 EST 2025
User: Yrep
Spectrometer: HR+D1059
Trigger mode: 1
Integration Time (sec): 1.000000E-1
Scans to average: 1
Electric dark correction enabled: true
Nonlinearity correction enabled: false
Boxcar width: 0
XAxis mode: Wavelengths
Number of Pixels in Spectrum: 2048
>>>>>Begin Spectral Data<<<<<
223.165	-9.38
223.4	-9.38
223.635	-9.38
223.869	-0.38
224.104	-21.38
224.338	-22.38
224.573	-24.38
224.808	-7.38
225.042	-5.38
225.277	-17.38
225.511	-13.38
225.746	-6.38
225.98	7.62
226.215	16.62
226.449	9.62
226.683	35.62
226.918	21.62
227.152	36.62
227.387	34.62
227.621	51.62
227.856	55.62
228.09	49.62
228.324	57.62
228.559	48.62
228.793	52.62
229.027	65.62
229.262	71.62
229.496	64.62
229.73	78.62
229.964	68.62
230.199	94.62
230.433	86.62
230.667	70.62
230.901	81.62
231.136	71.62
231.37	88.62
231.604	82.62
231.838	69.62
232.072	78.62
232.306	85.62
232.541	79.62
232.775	90.62
233.009	83.62
233.243	73.62
233.477	74.62
233.711	78.62
233.945	93.62
234.179	90.62
234.413	86.62
234.647	75.62
234.881	90.62
235.115	85.62
235.349	90.62
235.583	76.62
235.817	83.62
236.051	78.62
236.285	89.62
236.519	79.62
236.753	89.62
236.987	77.62
237.221	74.62
237.455	76.62
237.689	79.62
237.922	78.62
238.156	67.62
238.39	71.62
238.624	77.62
238.858	85.62
239.091	89.62
239.325	79.62
239.559	79.62
239.793	81.62
240.027	71.62
240.26	83.62
240.494	83.62
240.728	78.62
240.961	72.62
241.195	66.62
241.429	74.62
241.662	79.62
241.896	76.62
242.13	76.62
242.363	89.62
242.597	78.62
242.83	70.62
243.064	81.62
243.298	86.62
243.531	80.62
243.765	74.62
243.998	82.62
244.232	78.62
244.465	75.62
244.699	72.62
244.932	79.62
245.166	75.62
245.399	76.62
245.633	80.62
245.866	80.62
246.099	82.62
246.333	78.62
246.566	81.62
246.8	81.62
247.033	74.62
247.266	83.62
247.5	85.62
247.733	69.62
247.966	80.62
248.2	84.62
248.433	89.62
248.666	69.62
248.899	78.62
249.133	92.62
249.366	78.62
249.599	86.62
249.832	69.62
250.066	75.62
250.299	78.62
250.532	89.62
250.765	83.62
250.998	89.62
251.231	87.62
251.465	84.62
251.698	66.62
251.931	87.62
252.164	84.62
252.397	85.62
252.63	71.62
252.863	75.62
253.096	95.62
253.329	91.62
253.562	93.62
253.795	80.62
254.028	74.62
254.261	72.62
254.494	86.62
254.727	94.62
254.96	85.62
255.193	84.62
255.426	83.62
255.659	68.62
255.892	86.62
256.124	87.62
256.357	86.62
256.59	87.62
256.823	83.62
257.056	80.62
257.289	71.62
257.521	75.62
257.754	78.62
257.987	78.62
258.22	86.62
258.452	99.62
258.685	91.62
258.918	102.62
259.151	80.62
259.383	93.62
259.616	78.62
259.849	75.62
260.081	81.62
260.314	79.62
260.547	74.62
260.779	93.62
261.012	80.62
261.244	82.62
261.477	89.62
261.71	78.62
261.942	76.62
262.175	85.62
262.407	73.62
262.64	72.62
262.872	96.62
263.105	86.62
263.337	83.62
263.57	78.62
263.802	77.62
264.035	79.62
264.267	81.62
264.499	76.62
264.732	87.62
264.964	84.62
265.197	80.62
265.429	80.62
265.661	89.62
265.894	94.62
266.126	89.62
266.358	91.62
266.591	74.62
266.823	77.62
267.055	84.62
267.287	86.62
267.52	89.62
267.752	88.62
267.984	78.62
268.216	82.62
268.448	89.62
268.681	76.62
268.913	82.62
269.145	79.62
269.377	82.62
269.609	83.62
269.841	88.62
270.073	78.62
270.306	73.62
270.538	97.62
270.77	85.62
271.002	81.62
271.234	90.62
271.466	80.62
271.698	87.62
271.93	94.62
272.162	79.62
272.394	83.62
272.626	84.62
272.858	78.62
273.09	85.62
273.322	94.62
273.553	84.62
273.785	77.62
274.017	82.62
274.249	90.62
274.481	77.62
274.713	85.62
274.945	79.62
275.176	76.62
275.408	88.62
275.64	88.62
275.872	89.62
276.104	76.62
276.335	72.62
276.567	77.62
276.799	82.62
277.031	77.62
277.262	87.62
277.494	88.62
277.726	75.62
277.957	83.62
278.189	86.62
278.421	95.62
278.652	85.62
278.884	85.62
279.115	99.62
279.347	78.62
279.579	93.62
279.81	77.62
280.042	87.62
280.273	75.62
280.505	83.62
280.736	85.62
280.968	82.62
281.199	93.62
281.431	80.62
281.662	80.62
281.894	75.62
282.125	77.62
282.356	73.62
282.588	91.62
282.819	93.62
283.051	80.62
283.282	82.62
283.513	96.62
283.745	78.62
283.976	85.62
284.207	92.62
284.439	103.62
284.67	84.62
284.901	90.62
285.132	94.62
285.364	80.62
285.595	87.62
285.826	79.62
286.057	98.62
286.288	82.62
286.52	83.62
286.751	97.62
286.982	87.62
287.213	95.62
287.444	77.62
287.675	83.62
287.906	81.62
288.138	90.62
288.369	83.62
288.6	90.62
288.831	93.62
289.062	86.62
289.293	77.62
289.524	77.62
289.755	78.62
289.986	94.62
290.217	90.62
290.448	83.62
290.679	79.62
290.91	79.62
291.141	86.62
291.371	84.62
291.602	77.62
291.833	89.62
292.064	86.62
292.295	83.62
292.526	99.62
292.757	89.62
292.987	84.62
293.218	95.62
293.449	69.62
293.68	75.62
293.91	82.62
294.141	98.62
294.372	88.62
294.603	70.62
294.833	79.62
295.064	89.62
295.295	73.62
295.525	88.62
295.756	73.62
295.987	105.62
296.217	93.62
296.448	82.62
296.679	97.62
296.909	79.62
297.14	90.62
297.37	96.62
297.601	79.62
297.831	75.62
298.062	75.62
298.292	85.62
298.523	85.62
298.753	76.62
298.984	86.62
299.214	83.62
299.445	72.62
299.675	83.62
299.905	89.62
300.136	75.62
300.366	84.62
300.597	82.62
300.827	96.62
301.057	94.62
301.288	79.62
301.518	76.62
301.748	87.62
301.979	101.62
302.209	83.62
302.439	97.62
302.669	82.62
302.9	81.62
303.13	84.62
303.36	86.62
303.59	81.62
303.82	93.62
304.051	90.62
304.281	86.62
304.511	93.62
304.741	91.62
304.971	89.62
305.201	74.62
305.431	83.62
305.661	65.62
305.891	83.62
306.121	88.62
306.352	77.62
306.582	89.62
306.812	91.62
307.042	90.62
307.272	77.62
307.502	97.62
307.731	88.62
307.961	84.62
308.191	101.62
308.421	78.62
308.651	95.62
308.881	96.62
309.111	96.62
309.341	102.62
309.571	98.62
309.8	71.62
310.03	64.62
310.26	78.62
310.49	81.62
310.72	100.62
310.949	78.62
311.179	91.62
311.409	93.62
311.639	90.62
311.868	85.62
312.098	99.62
312.328	96.62
312.557	88.62
312.787	86.62
313.017	89.62
313.246	102.62
313.476	80.62
313.706	87.62
313.935	80.62
314.165	78.62
314.394	79.62
314.624	85.62
314.853	89.62
315.083	92.62
315.312	87.62
315.542	95.62
315.771	75.62
316.001	88.62
316.23	102.62
316.46	86.62
316.689	96.62
316.919	78.62
317.148	90.62
317.377	93.62
317.607	69.62
317.836	108.62
318.065	81.62
318.295	91.62
318.524	84.62
318.753	83.62
318.983	85.62
319.212	85.62
319.441	99.62
319.67	107.62
319.9	80.62
320.129	90.62
320.358	94.62
320.587	89.62
320.816	101.62
321.046	87.62
321.275	95.62
321.504	93.62
321.733	82.62
321.962	74.62
322.191	81.62
322.42	79.62
322.649	82.62
322.878	101.62
323.108	88.62
323.337	90.62
323.566	78.62
323.795	85.62
324.024	98.62
324.253	95.62
324.482	82.62
324.71	83.62
324.939	80.62
325.168	91.62
325.397	79.62
325.626	93.62
325.855	84.62
326.084	77.62
326.313	87.62
326.542	77.62
326.77	88.62
326.999	67.62
327.228	86.62
327.457	84.62
327.686	91.62
327.914	80.62
328.143	94.62
328.372	85.62
328.6	93.62
328.829	94.62
329.058	85.62
329.287	81.62
329.515	74.62
329.744	69.62
329.972	103.62
330.201	78.62
330.43	90.62
330.658	101.62
330.887	84.62
331.115	83.62
331.344	82.62
331.572	77.62
331.801	80.62
332.03	81.62
332.258	94.62
332.486	87.62
332.715	93.62
332.943	93.62
333.172	89.62
333.4	89.62
333.629	100.62
333.857	101.62
334.085	87.62
334.314	85.62
334.542	86.62
334.771	95.62
334.999	99.62
335.227	76.62
335.455	78.62
335.684	103.62
335.912	85.62
336.14	84.62
336.369	87.62
336.597	80.62
336.825	86.62
337.053	89.62
337.281	86.62
337.51	97.62
337.738	87.62
337.966	100.62
338.194	97.62
338.422	81.62
338.65	75.62
338.878	78.62
339.106	88.62
339.334	99.62
339.562	77.62
339.79	94.62
340.018	95.62
340.246	86.62
340.474	77.62
340.702	76.62
340.93	88.62
341.158	91.62
341.386	95.62
341.614	81.62
341.842	88.62
342.07	90.62
342.298	85.62
342.526	82.62
342.754	89.62
342.981	78.62
343.209	94.62
343.437	81.62
343.665	101.62
343.893	82.62
344.12	91.62
344.348	109.62
344.576	81.62
344.804	79.62
345.031	89.62
345.259	92.62
345.487	89.62
345.714	95.62
345.942	107.62
346.17	96.62
346.397	91.62
346.625	72.62
346.853	99.62
347.08	83.62
347.308	95.62
347.535	85.62
347.763	77.62
347.99	95.62
348.218	84.62
348.445	75.62
348.673	86.62
348.9	74.62
349.128	88.62
349.355	85.62
349.583	94.62
349.81	86.62
350.037	71.62
350.265	101.62
350.492	88.62
350.72	85.62
350.947	83.62
351.174	80.62
351.402	70.62
351.629	82.62
351.856	89.62
352.083	86.62
352.311	90.62
352.538	95.62
352.765	96.62
352.992	89.62
353.22	102.62
353.447	101.62
353.674	100.62
353.901	83.62
354.128	86.62
354.355	89.62
354.583	83.62
354.81	97.62
355.037	97.62
355.264	90.62
355.491	88.62
355.718	86.62
355.945	79.62
356.172	90.62
356.399	87.62
356.626	78.62
356.853	86.62
357.08	86.62
357.307	83.62
357.534	83.62
357.761	87.62
357.988	78.62
358.215	87.62
358.441	81.62
358.668	83.62
358.895	82.62
359.122	75.62
359.349	96.62
359.576	85.62
359.802	89.62
360.029	87.62
360.256	89.62
360.483	85.62
360.709	86.62
360.936	93.62
361.163	93.62
361.39	84.62
361.616	101.62
361.843	74.62
362.07	102.62
362.296	70.62
362.523	87.62
362.749	88.62
362.976	84.62
363.203	89.62
363.429	90.62
363.656	87.62
363.882	77.62
364.109	85.62
364.335	84.62
364.562	86.62
364.788	87.62
365.015	77.62
365.241	93.62
365.468	79.62
365.694	72.62
365.92	89.62
366.147	82.62
366.373	94.62
366.599	96.62
366.826	87.62
367.052	98.62
367.278	94.62
367.505	86.62
367.731	89.62
367.957	94.62
368.184	86.62
368.41	87.62
368.636	84.62
368.862	85.62
369.089	82.62
369.315	85.62
369.541	83.62
369.767	81.62
369.993	97.62
370.219	86.62
370.445	87.62
370.672	81.62
370.898	78.62
371.124	96.62
371.35	91.62
371.576	81.62
371.802	95.62
372.028	95.62
372.254	90.62
372.48	89.62
372.706	98.62
372.932	86.62
373.158	97.62
373.384	97.62
373.61	107.62
373.835	98.62
374.061	89.62
374.287	92.62
374.513	84.62
374.739	82.62
374.965	83.62
375.191	88.62
375.416	83.62
375.642	98.62
375.868	94.62
376.094	86.62
376.319	101.62
376.545	74.62
376.771	89.62
376.997	93.62
377.222	87.62
377.448	93.62
377.674	97.62
377.899	77.62
378.125	86.62
378.35	77.62
378.576	87.62
378.802	90.62
379.027	78.62
379.253	82.62
379.478	70.62
379.704	88.62
379.929	88.62
380.155	87.62
380.38	83.62
380.606	84.62
380.831	78.62
381.057	90.62
381.282	81.62
381.507	90.62
381.733	101.62
381.958	93.62
382.184	89.62
382.409	78.62
382.634	90.62
382.86	91.62
383.085	77.62
383.31	83.62
383.535	84.62
383.761	84.62
383.986	85.62
384.211	90.62
384.436	80.62
384.662	94.62
384.887	87.62
385.112	81.62
385.337	93.62
385.562	85.62
385.787	75.62
386.013	75.62
386.238	82.62
386.463	81.62
386.688	87.62
386.913	83.62
387.138	86.62
387.363	79.62
387.588	77.62
387.813	76.62
388.038	81.62
388.263	95.62
388.488	75.62
388.713	93.62
388.938	88.62
389.163	89.62
389.387	80.62
389.612	90.62
389.837	72.62
390.062	99.62
390.287	71.62
390.512	89.62
390.736	82.62
390.961	81.62
391.186	78.62
391.411	88.62
391.636	88.62
391.86	97.62
392.085	87.62
392.31	81.62
392.534	86.62
392.759	81.62
392.984	97.62
393.208	87.62
393.433	85.62
393.658	105.62
393.882	77.62
394.107	77.62
394.331	90.62
394.556	96.62
394.78	79.62
395.005	87.62
395.229	93.62
395.454	87.62
395.678	71.62
395.903	89.62
396.127	88.62
396.352	99.62
396.576	95.62
396.801	94.62
397.025	85.62
397.249	73.62
397.474	78.62
397.698	81.62
397.922	79.62
398.147	99.62
398.371	69.62
398.595	89.62
398.82	85.62
399.044	79.62
399.268	78.62
399.492	85.62
399.717	64.62
399.941	87.62
400.165	72.62
400.389	90.62
400.613	86.62
400.837	97.62
401.062	82.62
401.286	80.62
401.51	79.62
401.734	81.62
401.958	80.62
402.182	81.62
402.406	85.62
402.63	76.62
402.854	86.62
403.078	81.62
403.302	85.62
403.526	83.62
403.75	77.62
403.974	93.62
404.198	100.62
404.422	134.62
404.645	159.62
404.869	115.62
405.093	99.62
405.317	78.62
405.541	87.62
405.765	85.62
405.988	72.62
406.212	81.62
406.436	81.62
406.66	95.62
406.883	80.62
407.107	77.62
407.331	76.62
407.555	90.62
407.778	91.62
408.002	81.62
408.226	81.62
408.449	97.62
408.673	99.62
408.896	86.62
409.12	85.62
409.344	82.62
409.567	81.62
409.791	85.62
410.014	78.62
410.238	78.62
410.461	80.62
410.685	85.62
410.908	79.62
411.132	92.62
411.355	87.62
411.578	94.62
411.802	81.62
412.025	80.62
412.249	95.62
412.472	81.62
412.695	81.62
412.919	92.62
413.142	97.62
413.365	87.62
413.589	82.62
413.812	93.62
414.035	85.62
414.258	89.62
414.482	81.62
414.705	70.62
414.928	83.62
415.151	88.62
415.374	76.62
415.597	82.62
415.821	92.62
416.044	75.62
416.267	79.62
416.49	81.62
416.713	75.62
416.936	79.62
417.159	81.62
417.382	84.62
417.605	82.62
417.828	77.62
418.051	84.62
418.274	87.62
418.497	92.62
418.72	75.62
418.943	82.62
419.166	78.62
419.389	89.62
419.611	75.62
419.834	82.62
420.057	78.62
420.28	88.62
420.503	97.62
420.726	89.62
420.948	85.62
421.171	85.62
421.394	82.62
421.617	84.62
421.839	78.62
422.062	76.62
422.285	90.62
422.507	99.62
422.73	95.62
422.953	86.62
423.175	76.62
423.398	73.62
423.621	81.62
423.843	74.62
424.066	74.62
424.288	94.62
424.511	81.62
424.733	81.62
424.956	100.62
425.178	87.62
425.401	90.62
425.623	76.62
425.846	72.62
426.068	72.62
426.291	75.62
426.513	97.62
426.735	87.62
426.958	70.62
427.18	89.62
427.402	80.62
427.625	85.62
427.847	83.62
428.069	99.62
428.292	88.62
428.514	82.62
428.736	91.62
428.958	77.62
429.181	79.62
429.403	79.62
429.625	85.62
429.847	76.62
430.069	77.62
430.292	92.62
430.514	95.62
430.736	89.62
430.958	82.62
431.18	89.62
431.402	82.62
431.624	67.62
431.846	80.62
432.068	78.62
432.29	79.62
432.512	85.62
432.734	83.62
432.956	79.62
433.178	90.62
433.4	85.62
433.622	85.62
433.844	89.62
434.066	86.62
434.287	80.62
434.509	81.62
434.731	96.62
434.953	91.62
435.175	88.62
435.397	74.62
435.618	75.62
435.84	95.62
436.062	92.62
436.284	87.62
436.505	75.62
436.727	80.62
436.949	74.62
437.17	87.62
437.392	73.62
437.614	82.62
437.835	91.62
438.057	88.62
438.278	87.62
438.5	94.62
438.721	83.62
438.943	99.62
439.165	96.62
439.386	80.62
439.608	86.62
439.829	82.62
440.05	80.62
440.272	77.62
440.493	93.62
440.715	101.62
440.936	88.62
441.158	79.62
441.379	81.62
441.6	91.62
441.822	87.62
442.043	93.62
442.264	87.62
442.486	77.62
442.707	84.62
442.928	86.62
443.149	80.62
443.371	82.62
443.592	88.62
443.813	69.62
444.034	81.62
444.255	101.62
444.476	80.62
444.698	95.62
444.919	81.62
445.14	154.62
445.361	106.62
445.582	90.62
445.803	88.62
446.024	85.62
446.245	86.62
446.466	94.62
446.687	94.62
446.908	80.62
447.129	76.62
447.35	87.62
447.571	99.62
447.792	82.62
448.013	90.62
448.234	77.62
448.455	94.62
448.675	89.62
448.896	73.62
449.117	88.62
449.338	73.62
449.559	64.62
449.779	82.62
450	89.62
450.221	85.62
450.442	99.62
450.662	85.62
450.883	69.62
451.104	91.62
451.324	79.62
451.545	79.62
451.766	75.62
451.986	102.62
452.207	86.62
452.428	88.62
452.648	86.62
452.869	103.62
453.089	87.62
453.31	85.62
453.53	86.62
453.751	88.62
453.971	89.62
454.192	77.62
454.412	78.62
454.633	88.62
454.853	78.62
455.073	96.62
455.294	87.62
455.514	95.62
455.734	85.62
455.955	83.62
456.175	94.62
456.395	81.62
456.616	95.62
456.836	85.62
457.056	71.62
457.276	86.62
457.497	84.62
457.717	80.62
457.937	82.62
458.157	71.62
458.377	84.62
458.598	81.62
458.818	85.62
459.038	80.62
459.258	78.62
459.478	80.62
459.698	81.62
459.918	80.62
460.138	74.62
460.358	69.62
460.578	80.62
460.798	84.62
461.018	90.62
461.238	74.62
461.458	94.62
461.678	82.62
461.898	72.62
462.118	80.62
462.338	76.62
462.558	95.62
462.777	88.62
462.997	85.62
463.217	86.62
463.437	91.62
463.657	91.62
463.876	78.62
464.096	88.62
464.316	71.62
464.536	85.62
464.755	74.62
464.975	82.62
465.195	80.62
465.414	84.62
465.634	80.62
465.854	93.62
466.073	99.62
466.293	77.62
466.512	85.62
466.732	80.62
466.951	86.62
467.171	96.62
467.391	97.62
467.61	96.62
467.829	86.62
468.049	75.62
468.268	81.62
468.488	91.62
468.707	82.62
468.927	98.62
469.146	87.62
469.365	86.62
469.585	79.62
469.804	76.62
470.023	80.62
470.243	80.62
470.462	87.62
470.681	76.62
470.901	79.62
471.12	71.62
471.339	85.62
471.558	82.62
471.777	86.62
471.997	74.62
472.216	83.62
472.435	100.62
472.654	84.62
472.873	91.62
473.092	83.62
473.311	91.62
473.53	85.62
473.749	85.62
473.968	81.62
474.187	99.62
474.406	82.62
474.625	90.62
474.844	82.62
475.063	86.62
475.282	93.62
475.501	81.62
475.72	74.62
475.939	78.62
476.158	93.62
476.377	87.62
476.596	81.62
476.814	77.62
477.033	85.62
477.252	87.62
477.471	85.62
477.69	84.62
477.908	97.62
478.127	86.62
478.346	81.62
478.564	85.62
478.783	88.62
479.002	87.62
479.22	98.62
479.439	87.62
479.658	86.62
479.876	83.62
480.095	95.62
480.313	85.62
480.532	93.62
480.751	86.62
480.969	83.62
481.188	89.62
481.406	81.62
481.624	76.62
481.843	77.62
482.061	77.62
482.28	80.62
482.498	90.62
482.717	87.62
482.935	70.62
483.153	77.62
483.372	91.62
483.59	83.62
483.808	94.62
484.027	85.62
484.245	86.62
484.463	82.62
484.681	94.62
484.9	93.62
485.118	89.62
485.336	74.62
485.554	81.62
485.772	87.62
485.99	89.62
486.209	94.62
486.427	75.62
486.645	83.62
486.863	82.62
487.081	86.62
487.299	67.62
487.517	82.62
487.735	91.62
487.953	81.62
488.171	85.62
488.389	92.62
488.607	95.62
488.825	74.62
489.043	87.62
489.261	104.62
489.479	89.62
489.696	81.62
489.914	81.62
490.132	78.62
490.35	80.62
490.568	95.62
490.786	85.62
491.003	82.62
491.221	90.62
491.439	95.62
491.657	82.62
491.874	98.62
492.092	87.62
492.31	101.62
492.527	84.62
492.745	91.62
492.963	89.62
493.18	98.62
493.398	94.62
493.615	104.62
493.833	85.62
494.05	85.62
494.268	83.62
494.485	79.62
494.703	86.62
494.92	84.62
495.138	97.62
495.355	93.62
495.573	86.62
495.79	90.62
496.008	97.62
496.225	89.62
496.442	87.62
496.66	94.62
496.877	96.62
497.094	97.62
497.312	81.62
497.529	82.62
497.746	86.62
497.963	92.62
498.181	78.62
498.398	95.62
498.615	88.62
498.832	93.62
499.049	97.62
499.267	88.62
499.484	85.62
499.701	79.62
499.918	77.62
500.135	87.62
500.352	90.62
500.569	86.62
500.786	90.62
501.003	103.62
501.22	88.62
501.437	94.62
501.654	79.62
501.871	89.62
502.088	88.62
502.305	97.62
502.522	80.62
502.739	83.62
502.956	88.62
503.172	98.62
503.389	88.62
503.606	91.62
503.823	77.62
504.04	100.62
504.256	107.62
504.473	82.62
504.69	91.62
504.907	101.62
505.123	77.62
505.34	95.62
505.557	95.62
505.773	99.62
505.99	92.62
506.207	93.62
506.423	86.62
506.64	89.62
506.856	78.62
507.073	81.62
507.289	87.62
507.506	83.62
507.722	86.62
507.939	91.62
508.155	86.62
508.372	89.62
508.588	82.62
508.805	98.62
509.021	95.62
509.238	99.62
509.454	72.62
509.67	91.62
509.887	88.62
510.103	87.62
510.319	95.62
510.536	104.62
510.752	85.62
510.968	88.62
511.184	90.62
511.401	88.62
511.617	93.62
511.833	77.62
512.049	91.62
512.265	82.62
512.481	77.62
512.698	88.62
512.914	79.62
513.13	93.62
513.346	94.62
513.562	94.62
513.778	93.62
513.994	100.62
514.21	80.62
514.426	90.62
514.642	82.62
514.858	88.62
515.074	86.62
515.29	99.62
515.506	107.62
515.721	100.62
515.937	78.62
516.153	76.62
516.369	88.62
516.585	86.62
516.801	90.62
517.016	97.62
517.232	76.62
517.448	89.62
517.664	87.62
517.879	93.62
518.095	74.62
518.311	78.62
518.527	100.62
518.742	91.62
518.958	89.62
519.173	82.62
519.389	85.62
519.605	91.62
519.82	81.62
520.036	89.62
520.251	80.62
520.467	88.62
520.682	81.62
520.898	85.62
521.113	80.62
521.329	88.62
521.544	80.62
521.76	89.62
521.975	89.62
522.19	90.62
522.406	102.62
522.621	99.62
522.836	81.62
523.052	84.62
523.267	90.62
523.482	91.62
523.698	86.62
523.913	95.62
524.128	86.62
524.343	102.62
524.559	97.62
524.774	93.62
524.989	76.62
525.204	84.62
525.419	90.62
525.634	99.62
525.849	89.62
526.064	88.62
526.28	73.62
526.495	102.62
526.71	89.62
526.925	80.62
527.14	90.62
527.355	91.62
527.57	79.62
527.785	79.62
527.999	91.62
528.214	88.62
528.429	91.62
528.644	90.62
528.859	87.62
529.074	83.62
529.289	85.62
529.503	92.62
529.718	90.62
529.933	97.62
530.148	95.62
530.363	81.62
530.577	89.62
530.792	92.62
531.007	95.62
531.221	93.62
531.436	88.62
531.651	93.62
531.865	84.62
532.08	99.62
532.295	98.62
532.509	81.62
532.724	99.62
532.938	88.62
533.153	82.62
533.367	94.62
533.582	98.62
533.796	74.62
534.011	87.62
534.225	102.62
534.44	95.62
534.654	116.62
534.868	93.62
535.083	94.62
535.297	97.62
535.511	85.62
535.726	93.62
535.94	87.62
536.154	94.62
536.369	106.62
536.583	83.62
536.797	95.62
537.011	91.62
537.225	91.62
537.44	90.62
537.654	95.62
537.868	75.62
538.082	79.62
538.296	86.62
538.51	78.62
538.724	83.62
538.938	98.62
539.153	88.62
539.367	97.62
539.581	82.62
539.795	100.62
540.009	87.62
540.222	95.62
540.436	95.62
540.65	85.62
540.864	74.62
541.078	89.62
541.292	94.62
541.506	79.62
541.72	84.62
541.934	109.62
542.147	95.62
542.361	80.62
542.575	89.62
542.789	79.62
543.002	86.62
543.216	85.62
543.43	88.62
543.644	83.62
543.857	71.62
544.071	88.62
544.285	100.62
544.498	69.62
544.712	90.62
544.925	75.62
545.139	80.62
545.352	97.62
545.566	99.62
545.779	107.62
545.993	93.62
546.206	80.62
546.42	80.62
546.633	96.62
546.847	79.62
547.06	95.62
547.274	101.62
547.487	89.62
547.7	82.62
547.914	87.62
548.127	84.62
548.34	103.62
548.554	78.62
548.767	85.62
548.98	92.62
549.193	93.62
549.407	80.62
549.62	93.62
549.833	91.62
550.046	78.62
550.259	75.62
550.473	86.62
550.686	89.62
550.899	90.62
551.112	94.62
551.325	85.62
551.538	93.62
551.751	82.62
551.964	85.62
552.177	99.62
552.39	84.62
552.603	101.62
552.816	90.62
553.029	84.62
553.242	102.62
553.455	107.62
553.667	85.62
553.88	83.62
554.093	90.62
554.306	84.62
554.519	93.62
554.732	96.62
554.944	98.62
555.157	102.62
555.37	94.62
555.583	78.62
555.795	103.62
556.008	99.62
556.221	85.62
556.433	97.62
556.646	83.62
556.859	99.62
557.071	104.62
557.284	93.62
557.496	87.62
557.709	90.62
557.921	89.62
558.134	95.62
558.346	82.62
558.559	87.62
558.771	87.62
558.984	99.62
559.196	103.62
559.409	82.62
559.621	89.62
559.833	94.62
560.046	77.62
560.258	109.62
560.47	91.62
560.683	92.62
560.895	83.62
561.107	93.62
561.32	71.62
561.532	95.62
561.744	79.62
561.956	74.62
562.168	98.62
562.381	85.62
562.593	70.62
562.805	84.62
563.017	94.62
563.229	97.62
563.441	91.62
563.653	101.62
563.865	85.62
564.077	97.62
564.289	95.62
564.501	68.62
564.713	73.62
564.925	77.62
565.137	96.62
565.349	100.62
565.561	76.62
565.773	99.62
565.985	89.62
566.197	103.62
566.408	82.62
566.62	82.62
566.832	85.62
567.044	90.62
567.255	85.62
567.467	103.62
567.679	88.62
567.891	99.62
568.102	103.62
568.314	88.62
568.526	105.62
568.737	101.62
568.949	69.62
569.161	87.62
569.372	86.62
569.584	86.62
569.795	89.62
570.007	93.62
570.218	96.62
570.43	90.62
570.641	81.62
570.853	75.62
571.064	77.62
571.276	94.62
571.487	90.62
571.698	79.62
571.91	82.62
572.121	97.62
572.333	83.62
572.544	85.62
572.755	95.62
572.966	85.62
573.178	81.62
573.389	96.62
573.6	93.62
573.811	100.62
574.023	100.62
574.234	87.62
574.445	91.62
574.656	77.62
574.867	90.62
575.078	85.62
575.289	93.62
575.501	103.62
575.712	75.62
575.923	84.62
576.134	87.62
576.345	87.62
576.556	97.62
576.767	92.62
576.978	86.62
577.188	70.62
577.399	87.62
577.61	74.62
577.821	89.62
578.032	78.62
578.243	78.62
578.454	109.62
578.665	105.62
578.875	109.62
579.086	98.62
579.297	97.62
579.508	106.62
579.718	84.62
579.929	88.62
580.14	96.62
580.35	111.62
580.561	111.62
580.772	110.62
580.982	106.62
581.193	91.62
581.403	89.62
581.614	88.62
581.825	88.62
582.035	105.62
582.246	84.62
582.456	95.62
582.667	87.62
582.877	97.62
583.087	88.62
583.298	106.62
583.508	108.62
583.719	101.62
583.929	101.62
584.139	106.62
584.35	70.62
584.56	98.62
584.77	83.62
584.981	91.62
585.191	94.62
585.401	86.62
585.611	93.62
585.821	90.62
586.032	84.62
586.242	95.62
586.452	93.62
586.662	101.62
586.872	80.62
587.082	93.62
587.292	80.62
587.502	86.62
587.713	97.62
587.923	86.62
588.133	97.62
588.343	112.62
588.553	111.62
588.762	141.62
588.972	226.62
589.182	373.62
589.392	248.62
589.602	225.62
589.812	319.62
590.022	194.62
590.232	117.62
590.441	103.62
590.651	87.62
590.861	95.62
591.071	91.62
591.281	94.62
591.49	84.62
591.7	103.62
591.91	90.62
592.119	81.62
592.329	93.62
592.539	80.62
592.748	106.62
592.958	87.62
593.167	76.62
593.377	79.62
593.587	84.62
593.796	89.62
594.006	99.62
594.215	88.62
594.424	95.62
594.634	89.62
594.843	79.62
595.053	94.62
595.262	81.62
595.472	99.62
595.681	82.62
595.89	86.62
596.1	95.62
596.309	76.62
596.518	95.62
596.727	85.62
596.937	83.62
597.146	97.62
597.355	104.62
597.564	101.62
597.774	95.62
597.983	93.62
598.192	75.62
598.401	87.62
598.61	88.62
598.819	85.62
599.028	100.62
599.237	88.62
599.446	81.62
599.655	98.62
599.864	95.62
600.073	83.62
600.282	101.62
600.491	87.62
600.7	85.62
600.909	90.62
601.118	86.62
601.327	94.62
601.536	84.62
601.745	88.62
601.953	105.62
602.162	88.62
602.371	106.62
602.58	91.62
602.789	84.62
602.997	88.62
603.206	86.62
603.415	77.62
603.623	89.62
603.832	81.62
604.041	83.62
604.249	88.62
604.458	90.62
604.666	86.62
604.875	85.62
605.084	80.62
605.292	87.62
605.501	81.62
605.709	82.62
605.918	81.62
606.126	101.62
606.334	79.62
606.543	86.62
606.751	85.62
606.96	96.62
607.168	78.62
607.376	79.62
607.585	97.62
607.793	65.62
608.001	79.62
608.21	93.62
608.418	82.62
608.626	98.62
608.834	86.62
609.043	81.62
609.251	95.62
609.459	77.62
609.667	95.62
609.875	94.62
610.083	90.62
610.291	85.62
610.499	84.62
610.707	95.62
610.916	94.62
611.124	86.62
611.332	99.62
611.54	85.62
611.748	76.62
611.955	95.62
612.163	74.62
612.371	90.62
612.579	90.62
612.787	107.62
612.995	83.62
613.203	86.62
613.411	99.62
613.618	80.62
613.826	82.62
614.034	89.62
614.242	85.62
614.449	83.62
614.657	81.62
614.865	81.62
615.072	69.62
615.28	95.62
615.488	83.62
615.695	99.62
615.903	83.62
616.111	84.62
616.318	89.62
616.526	73.62
616.733	83.62
616.941	87.62
617.148	78.62
617.356	91.62
617.563	81.62
617.771	78.62
617.978	91.62
618.185	87.62
618.393	77.62
618.6	95.62
618.807	91.62
619.015	99.62
619.222	87.62
619.429	97.62
619.637	87.62
619.844	93.62
620.051	86.62
620.258	83.62
620.466	81.62
620.673	86.62
620.88	101.62
621.087	96.62
621.294	87.62
621.501	86.62
621.708	81.62
621.915	96.62
622.122	84.62
622.329	93.62
622.536	80.62
622.743	73.62
622.95	86.62
623.157	80.62
623.364	99.62
623.571	87.62
623.778	95.62
623.985	98.62
624.192	94.62
624.399	90.62
624.606	84.62
624.812	97.62
625.019	94.62
625.226	85.62
625.433	84.62
625.639	92.62
625.846	78.62
626.053	85.62
626.259	103.62
626.466	84.62
626.673	86.62
626.879	89.62
627.086	96.62
627.293	83.62
627.499	101.62
627.706	97.62
627.912	96.62
628.119	80.62
628.325	85.62
628.532	101.62
628.738	79.62
628.945	90.62
629.151	95.62
629.357	84.62
629.564	85.62
629.77	64.62
629.976	91.62
630.183	90.62
630.389	84.62
630.595	101.62
630.802	89.62
631.008	91.62
631.214	89.62
631.42	82.62
631.627	95.62
631.833	95.62
632.039	90.62
632.245	83.62
632.451	97.62
632.657	94.62
632.863	79.62
633.069	86.62
633.275	86.62
633.481	95.62
633.688	82.62
633.893	80.62
634.099	78.62
634.305	75.62
634.511	83.62
634.717	82.62
634.923	73.62
635.129	79.62
635.335	89.62
635.541	89.62
635.747	102.62
635.952	93.62
636.158	84.62
636.364	82.62
636.57	91.62
636.775	90.62
636.981	94.62
637.187	80.62
637.392	88.62
637.598	97.62
637.804	101.62
638.009	91.62
638.215	97.62
638.421	86.62
638.626	74.62
638.832	95.62
639.037	81.62
639.243	85.62
639.448	94.62
639.654	90.62
639.859	95.62
640.065	95.62
640.27	98.62
640.475	80.62
640.681	84.62
640.886	81.62
641.091	94.62
641.297	97.62
641.502	87.62
641.707	79.62
641.913	82.62
642.118	100.62
642.323	81.62
642.528	90.62
642.733	96.62
642.939	88.62
643.144	77.62
643.349	93.62
643.554	96.62
643.759	103.62
643.964	99.62
644.169	84.62
644.374	93.62
644.579	96.62
644.784	94.62
644.989	91.62
645.194	90.62
645.399	83.62
645.604	90.62
645.809	101.62
646.014	74.62
646.219	81.62
646.423	84.62
646.628	84.62
646.833	93.62
647.038	88.62
647.243	91.62
647.447	95.62
647.652	81.62
647.857	85.62
648.062	94.62
648.266	80.62
648.471	89.62
648.676	85.62
648.88	83.62
649.085	88.62
649.289	66.62
649.494	85.62
649.698	75.62
649.903	82.62
650.107	84.62
650.312	85.62
650.516	75.62
650.721	83.62
650.925	88.62
651.13	95.62
651.334	93.62
651.539	75.62
651.743	82.62
651.947	73.62
652.152	79.62
652.356	80.62
652.56	101.62
652.764	77.62
652.969	87.62
653.173	91.62
653.377	87.62
653.581	77.62
653.785	80.62
653.99	86.62
654.194	88.62
654.398	80.62
654.602	79.62
654.806	82.62
655.01	91.62
655.214	87.62
655.418	97.62
655.622	86.62
655.826	85.62
656.03	94.62
656.234	71.62
656.438	81.62
656.642	82.62
656.846	97.62
657.049	81.62
657.253	97.62
657.457	73.62
657.661	84.62
657.865	82.62
658.068	85.62
658.272	81.62
658.476	88.62
658.68	85.62
658.883	94.62
659.087	85.62
659.291	97.62
659.494	72.62
659.698	95.62
659.901	79.62
660.105	80.62
660.309	72.62
660.512	96.62
660.716	77.62
660.919	90.62
661.123	89.62
661.326	95.62
661.53	85.62
661.733	87.62
661.936	87.62
662.14	89.62
662.343	94.62
662.546	89.62
662.75	89.62
662.953	79.62
663.156	81.62
663.36	83.62
663.563	89.62
663.766	87.62
663.969	94.62
664.173	81.62
664.376	98.62
664.579	82.62
664.782	72.62
664.985	85.62
665.188	79.62
665.391	81.62
665.594	83.62
665.797	96.62
666	94.62
666.203	83.62
666.406	79.62
666.609	61.62
666.812	92.62
667.015	69.62
667.218	87.62
667.421	98.62
667.624	73.62
667.827	83.62
668.03	85.62
668.232	70.62
668.435	75.62
668.638	77.62
668.841	74.62
669.043	86.62
669.246	85.62
669.449	79.62
669.651	85.62
669.854	80.62
670.057	85.62
670.259	83.62
670.462	85.62
670.665	67.62
670.867	75.62
671.07	83.62
671.272	93.62
671.475	81.62
671.677	85.62
671.88	73.62
672.082	86.62
672.284	98.62
672.487	102.62
672.689	88.62
672.892	89.62
