Data from Super_Dry_Prop_25_2_HRD10591_00016.txt Node
Date: Wed Dec 03 14:54:54 EST 2025
User: Yrep
Spectrometer: HR+D1059
Trigger mode: 1
Integration Time (sec): 1.000000E-1
Scans to average: 1
Electric dark correction enabled: true
Nonlinearity correction enabled: false
Boxcar width: 0
XAxis mode: Wavelengths
Number of Pixels in Spectrum: 2048
>>>>>Begin Spectral Data<<<<<
223.165	-14.5
223.4	-14.5
223.635	-14.5
223.869	-22.5
224.104	-26.5
224.338	-0.5
224.573	-14.5
224.808	-9.5
225.042	-10.5
225.277	-17.5
225.511	-13.5
225.746	11.5
225.98	1.5
226.215	24.5
226.449	12.5
226.683	20.5
226.918	40.5
227.152	18.5
227.387	39.5
227.621	25.5
227.856	47.5
228.09	39.5
228.324	40.5
228.559	50.5
228.793	46.5
229.027	63.5
229.262	65.5
229.496	67.5
229.73	71.5
229.964	57.5
230.199	68.5
230.433	69.5
230.667	63.5
230.901	65.5
231.136	68.5
231.37	88.5
231.604	83.5
231.838	93.5
232.072	80.5
232.306	86.5
232.541	75.5
232.775	64.5
233.009	81.5
233.243	92.5
233.477	80.5
233.711	69.5
233.945	83.5
234.179	91.5
234.413	76.5
234.647	65.5
234.881	84.5
235.115	79.5
235.349	88.5
235.583	83.5
235.817	95.5
236.051	76.5
236.285	73.5
236.519	70.5
236.753	61.5
236.987	82.5
237.221	88.5
237.455	69.5
237.689	66.5
237.922	83.5
238.156	83.5
238.39	75.5
238.624	62.5
238.858	58.5
239.091	79.5
239.325	63.5
239.559	77.5
239.793	95.5
240.027	83.5
240.26	75.5
240.494	76.5
240.728	70.5
240.961	75.5
241.195	72.5
241.429	78.5
241.662	69.5
241.896	77.5
242.13	70.5
242.363	79.5
242.597	87.5
242.83	77.5
243.064	84.5
243.298	87.5
243.531	80.5
243.765	86.5
243.998	82.5
244.232	67.5
244.465	73.5
244.699	82.5
244.932	83.5
245.166	79.5
245.399	95.5
245.633	67.5
245.866	61.5
246.099	68.5
246.333	68.5
246.566	68.5
246.8	83.5
247.033	73.5
247.266	83.5
247.5	78.5
247.733	78.5
247.966	89.5
248.2	80.5
248.433	80.5
248.666	82.5
248.899	76.5
249.133	78.5
249.366	65.5
249.599	85.5
249.832	73.5
250.066	76.5
250.299	85.5
250.532	89.5
250.765	76.5
250.998	87.5
251.231	64.5
251.465	72.5
251.698	85.5
251.931	82.5
252.164	85.5
252.397	88.5
252.63	87.5
252.863	89.5
253.096	83.5
253.329	76.5
253.562	81.5
253.795	76.5
254.028	60.5
254.261	80.5
254.494	92.5
254.727	68.5
254.96	69.5
255.193	78.5
255.426	81.5
255.659	81.5
255.892	92.5
256.124	70.5
256.357	79.5
256.59	83.5
256.823	83.5
257.056	77.5
257.289	75.5
257.521	78.5
257.754	70.5
257.987	78.5
258.22	79.5
258.452	86.5
258.685	80.5
258.918	75.5
259.151	71.5
259.383	67.5
259.616	61.5
259.849	67.5
260.081	69.5
260.314	75.5
260.547	79.5
260.779	71.5
261.012	85.5
261.244	83.5
261.477	90.5
261.71	83.5
261.942	86.5
262.175	84.5
262.407	87.5
262.64	70.5
262.872	77.5
263.105	84.5
263.337	83.5
263.57	61.5
263.802	72.5
264.035	102.5
264.267	67.5
264.499	80.5
264.732	81.5
264.964	78.5
265.197	77.5
265.429	95.5
265.661	89.5
265.894	81.5
266.126	76.5
266.358	86.5
266.591	98.5
266.823	91.5
267.055	95.5
267.287	71.5
267.52	71.5
267.752	72.5
267.984	71.5
268.216	74.5
268.448	80.5
268.681	79.5
268.913	78.5
269.145	66.5
269.377	74.5
269.609	69.5
269.841	68.5
270.073	79.5
270.306	93.5
270.538	93.5
270.77	91.5
271.002	82.5
271.234	83.5
271.466	72.5
271.698	84.5
271.93	85.5
272.162	72.5
272.394	86.5
272.626	84.5
272.858	80.5
273.09	88.5
273.322	81.5
273.553	82.5
273.785	93.5
274.017	70.5
274.249	86.5
274.481	74.5
274.713	76.5
274.945	73.5
275.176	92.5
275.408	84.5
275.64	81.5
275.872	80.5
276.104	80.5
276.335	79.5
276.567	85.5
276.799	72.5
277.031	87.5
277.262	96.5
277.494	92.5
277.726	76.5
277.957	86.5
278.189	79.5
278.421	76.5
278.652	87.5
278.884	80.5
279.115	92.5
279.347	84.5
279.579	83.5
279.81	86.5
280.042	80.5
280.273	83.5
280.505	93.5
280.736	77.5
280.968	86.5
281.199	97.5
281.431	81.5
281.662	79.5
281.894	71.5
282.125	83.5
282.356	75.5
282.588	76.5
282.819	86.5
283.051	80.5
283.282	83.5
283.513	83.5
283.745	74.5
283.976	80.5
284.207	85.5
284.439	78.5
284.67	72.5
284.901	101.5
285.132	85.5
285.364	66.5
285.595	77.5
285.826	72.5
286.057	85.5
286.288	95.5
286.52	89.5
286.751	69.5
286.982	94.5
287.213	85.5
287.444	83.5
287.675	83.5
287.906	92.5
288.138	75.5
288.369	85.5
288.6	105.5
288.831	79.5
289.062	99.5
289.293	73.5
289.524	95.5
289.755	95.5
289.986	77.5
290.217	73.5
290.448	75.5
290.679	77.5
290.91	84.5
291.141	93.5
291.371	89.5
291.602	84.5
291.833	83.5
292.064	88.5
292.295	65.5
292.526	84.5
292.757	84.5
292.987	88.5
293.218	81.5
293.449	87.5
293.68	82.5
293.91	81.5
294.141	84.5
294.372	86.5
294.603	79.5
294.833	84.5
295.064	89.5
295.295	84.5
295.525	78.5
295.756	91.5
295.987	87.5
296.217	79.5
296.448	83.5
296.679	70.5
296.909	76.5
297.14	95.5
297.37	80.5
297.601	87.5
297.831	76.5
298.062	86.5
298.292	92.5
298.523	77.5
298.753	93.5
298.984	96.5
299.214	101.5
299.445	85.5
299.675	93.5
299.905	70.5
300.136	68.5
300.366	74.5
300.597	83.5
300.827	84.5
301.057	84.5
301.288	93.5
301.518	87.5
301.748	86.5
301.979	82.5
302.209	88.5
302.439	87.5
302.669	73.5
302.9	85.5
303.13	77.5
303.36	76.5
303.59	83.5
303.82	96.5
304.051	77.5
304.281	92.5
304.511	79.5
304.741	80.5
304.971	79.5
305.201	78.5
305.431	85.5
305.661	77.5
305.891	91.5
306.121	85.5
306.352	87.5
306.582	80.5
306.812	89.5
307.042	79.5
307.272	77.5
307.502	88.5
307.731	87.5
307.961	83.5
308.191	86.5
308.421	77.5
308.651	83.5
308.881	78.5
309.111	68.5
309.341	79.5
309.571	73.5
309.8	73.5
310.03	86.5
310.26	88.5
310.49	78.5
310.72	86.5
310.949	69.5
311.179	86.5
311.409	84.5
311.639	77.5
311.868	87.5
312.098	97.5
312.328	79.5
312.557	60.5
312.787	67.5
313.017	83.5
313.246	86.5
313.476	88.5
313.706	93.5
313.935	77.5
314.165	82.5
314.394	82.5
314.624	91.5
314.853	87.5
315.083	90.5
315.312	84.5
315.542	84.5
315.771	88.5
316.001	84.5
316.23	96.5
316.46	79.5
316.689	95.5
316.919	88.5
317.148	95.5
317.377	79.5
317.607	104.5
317.836	86.5
318.065	87.5
318.295	89.5
318.524	89.5
318.753	88.5
318.983	71.5
319.212	91.5
319.441	72.5
319.67	81.5
319.9	96.5
320.129	84.5
320.358	84.5
320.587	85.5
320.816	85.5
321.046	81.5
321.275	86.5
321.504	83.5
321.733	92.5
321.962	84.5
322.191	72.5
322.42	84.5
322.649	88.5
322.878	80.5
323.108	72.5
323.337	102.5
323.566	87.5
323.795	91.5
324.024	85.5
324.253	79.5
324.482	92.5
324.71	80.5
324.939	84.5
325.168	75.5
325.397	78.5
325.626	88.5
325.855	74.5
326.084	102.5
326.313	91.5
326.542	77.5
326.77	79.5
326.999	74.5
327.228	79.5
327.457	84.5
327.686	84.5
327.914	92.5
328.143	103.5
328.372	78.5
328.6	83.5
328.829	87.5
329.058	88.5
329.287	75.5
329.515	83.5
329.744	88.5
329.972	89.5
330.201	84.5
330.43	79.5
330.658	86.5
330.887	75.5
331.115	77.5
331.344	77.5
331.572	78.5
331.801	84.5
332.03	79.5
332.258	89.5
332.486	81.5
332.715	86.5
332.943	91.5
333.172	94.5
333.4	74.5
333.629	83.5
333.857	75.5
334.085	92.5
334.314	85.5
334.542	78.5
334.771	83.5
334.999	85.5
335.227	78.5
335.455	93.5
335.684	101.5
335.912	91.5
336.14	76.5
336.369	86.5
336.597	94.5
336.825	82.5
337.053	81.5
337.281	75.5
337.51	86.5
337.738	92.5
337.966	84.5
338.194	75.5
338.422	91.5
338.65	87.5
338.878	68.5
339.106	70.5
339.334	79.5
339.562	89.5
339.79	90.5
340.018	85.5
340.246	87.5
340.474	86.5
340.702	75.5
340.93	87.5
341.158	83.5
341.386	71.5
341.614	99.5
341.842	83.5
342.07	95.5
342.298	88.5
342.526	71.5
342.754	86.5
342.981	75.5
343.209	75.5
343.437	86.5
343.665	95.5
343.893	87.5
344.12	93.5
344.348	89.5
344.576	97.5
344.804	101.5
345.031	67.5
345.259	80.5
345.487	95.5
345.714	85.5
345.942	88.5
346.17	82.5
346.397	97.5
346.625	88.5
346.853	80.5
347.08	82.5
347.308	88.5
347.535	78.5
347.763	84.5
347.99	91.5
348.218	81.5
348.445	83.5
348.673	75.5
348.9	85.5
349.128	88.5
349.355	92.5
349.583	92.5
349.81	97.5
350.037	80.5
350.265	87.5
350.492	77.5
350.72	77.5
350.947	75.5
351.174	83.5
351.402	78.5
351.629	93.5
351.856	103.5
352.083	84.5
352.311	75.5
352.538	74.5
352.765	65.5
352.992	75.5
353.22	79.5
353.447	94.5
353.674	88.5
353.901	83.5
354.128	88.5
354.355	102.5
354.583	79.5
354.81	86.5
355.037	87.5
355.264	89.5
355.491	88.5
355.718	87.5
355.945	91.5
356.172	95.5
356.399	87.5
356.626	75.5
356.853	92.5
357.08	91.5
357.307	81.5
357.534	84.5
357.761	72.5
357.988	86.5
358.215	79.5
358.441	87.5
358.668	97.5
358.895	89.5
359.122	81.5
359.349	86.5
359.576	91.5
359.802	80.5
360.029	100.5
360.256	86.5
360.483	84.5
360.709	95.5
360.936	95.5
361.163	95.5
361.39	85.5
361.616	71.5
361.843	93.5
362.07	84.5
362.296	98.5
362.523	84.5
362.749	81.5
362.976	88.5
363.203	93.5
363.429	89.5
363.656	83.5
363.882	68.5
364.109	83.5
364.335	80.5
364.562	80.5
364.788	74.5
365.015	91.5
365.241	71.5
365.468	70.5
365.694	84.5
365.92	79.5
366.147	94.5
366.373	81.5
366.599	70.5
366.826	81.5
367.052	72.5
367.278	96.5
367.505	79.5
367.731	92.5
367.957	81.5
368.184	83.5
368.41	86.5
368.636	88.5
368.862	89.5
369.089	85.5
369.315	77.5
369.541	83.5
369.767	97.5
369.993	95.5
370.219	95.5
370.445	70.5
370.672	70.5
370.898	89.5
371.124	86.5
371.35	83.5
371.576	94.5
371.802	78.5
372.028	80.5
372.254	78.5
372.48	96.5
372.706	67.5
372.932	70.5
373.158	79.5
373.384	84.5
373.61	72.5
373.835	83.5
374.061	73.5
374.287	90.5
374.513	88.5
374.739	81.5
374.965	81.5
375.191	85.5
375.416	80.5
375.642	81.5
375.868	89.5
376.094	73.5
376.319	75.5
376.545	68.5
376.771	83.5
376.997	84.5
377.222	87.5
377.448	76.5
377.674	93.5
377.899	89.5
378.125	97.5
378.35	89.5
378.576	90.5
378.802	71.5
379.027	85.5
379.253	87.5
379.478	90.5
379.704	81.5
379.929	85.5
380.155	75.5
380.38	87.5
380.606	73.5
380.831	93.5
381.057	81.5
381.282	73.5
381.507	91.5
381.733	74.5
381.958	88.5
382.184	84.5
382.409	78.5
382.634	82.5
382.86	70.5
383.085	70.5
383.31	82.5
383.535	88.5
383.761	81.5
383.986	83.5
384.211	80.5
384.436	80.5
384.662	86.5
384.887	80.5
385.112	82.5
385.337	87.5
385.562	79.5
385.787	95.5
386.013	77.5
386.238	81.5
386.463	98.5
386.688	83.5
386.913	93.5
387.138	77.5
387.363	83.5
387.588	82.5
387.813	73.5
388.038	84.5
388.263	84.5
388.488	76.5
388.713	88.5
388.938	84.5
389.163	89.5
389.387	91.5
389.612	83.5
389.837	89.5
390.062	82.5
390.287	98.5
390.512	77.5
390.736	84.5
390.961	73.5
391.186	78.5
391.411	96.5
391.636	87.5
391.86	80.5
392.085	91.5
392.31	81.5
392.534	103.5
392.759	91.5
392.984	78.5
393.208	85.5
393.433	77.5
393.658	80.5
393.882	74.5
394.107	81.5
394.331	89.5
394.556	79.5
394.78	85.5
395.005	71.5
395.229	81.5
395.454	93.5
395.678	92.5
395.903	77.5
396.127	83.5
396.352	97.5
396.576	77.5
396.801	93.5
397.025	70.5
397.249	85.5
397.474	80.5
397.698	82.5
397.922	93.5
398.147	99.5
398.371	84.5
398.595	91.5
398.82	80.5
399.044	84.5
399.268	72.5
399.492	83.5
399.717	81.5
399.941	73.5
400.165	73.5
400.389	83.5
400.613	82.5
400.837	85.5
401.062	95.5
401.286	71.5
401.51	79.5
401.734	81.5
401.958	85.5
402.182	72.5
402.406	83.5
402.63	79.5
402.854	81.5
403.078	82.5
403.302	77.5
403.526	69.5
403.75	87.5
403.974	80.5
404.198	101.5
404.422	123.5
404.645	136.5
404.869	127.5
405.093	101.5
405.317	88.5
405.541	83.5
405.765	85.5
405.988	91.5
406.212	81.5
406.436	87.5
406.66	85.5
406.883	89.5
407.107	84.5
407.331	79.5
407.555	67.5
407.778	92.5
408.002	83.5
408.226	91.5
408.449	83.5
408.673	79.5
408.896	80.5
409.12	100.5
409.344	92.5
409.567	93.5
409.791	85.5
410.014	87.5
410.238	77.5
410.461	80.5
410.685	95.5
410.908	80.5
411.132	91.5
411.355	82.5
411.578	86.5
411.802	85.5
412.025	75.5
412.249	78.5
412.472	87.5
412.695	89.5
412.919	83.5
413.142	97.5
413.365	88.5
413.589	83.5
413.812	100.5
414.035	83.5
414.258	75.5
414.482	75.5
414.705	65.5
414.928	75.5
415.151	84.5
415.374	68.5
415.597	64.5
415.821	87.5
416.044	82.5
416.267	76.5
416.49	83.5
416.713	78.5
416.936	85.5
417.159	73.5
417.382	85.5
417.605	84.5
417.828	77.5
418.051	78.5
418.274	64.5
418.497	84.5
418.72	84.5
418.943	88.5
419.166	96.5
419.389	96.5
419.611	79.5
419.834	82.5
420.057	92.5
420.28	72.5
420.503	75.5
420.726	83.5
420.948	78.5
421.171	79.5
421.394	87.5
421.617	76.5
421.839	87.5
422.062	89.5
422.285	82.5
422.507	91.5
422.73	84.5
422.953	81.5
423.175	85.5
423.398	105.5
423.621	79.5
423.843	72.5
424.066	74.5
424.288	92.5
424.511	76.5
424.733	80.5
424.956	83.5
425.178	85.5
425.401	86.5
425.623	93.5
425.846	86.5
426.068	91.5
426.291	77.5
426.513	84.5
426.735	86.5
426.958	96.5
427.18	87.5
427.402	83.5
427.625	66.5
427.847	72.5
428.069	94.5
428.292	86.5
428.514	101.5
428.736	75.5
428.958	77.5
429.181	80.5
429.403	87.5
429.625	83.5
429.847	89.5
430.069	84.5
430.292	66.5
430.514	82.5
430.736	89.5
430.958	93.5
431.18	90.5
431.402	90.5
431.624	86.5
431.846	80.5
432.068	86.5
432.29	81.5
432.512	97.5
432.734	93.5
432.956	90.5
433.178	88.5
433.4	79.5
433.622	90.5
433.844	89.5
434.066	88.5
434.287	86.5
434.509	69.5
434.731	75.5
434.953	90.5
435.175	69.5
435.397	94.5
435.618	73.5
435.84	70.5
436.062	77.5
436.284	80.5
436.505	86.5
436.727	86.5
436.949	87.5
437.17	88.5
437.392	97.5
437.614	95.5
437.835	85.5
438.057	83.5
438.278	81.5
438.5	79.5
438.721	81.5
438.943	79.5
439.165	95.5
439.386	84.5
439.608	73.5
439.829	70.5
440.05	89.5
440.272	88.5
440.493	81.5
440.715	88.5
440.936	80.5
441.158	69.5
441.379	69.5
441.6	85.5
441.822	84.5
442.043	75.5
442.264	78.5
442.486	97.5
442.707	83.5
442.928	89.5
443.149	69.5
443.371	89.5
443.592	65.5
443.813	89.5
444.034	78.5
444.255	85.5
444.476	66.5
444.698	80.5
444.919	78.5
445.14	165.5
445.361	120.5
445.582	83.5
445.803	65.5
446.024	91.5
446.245	81.5
446.466	80.5
446.687	76.5
446.908	81.5
447.129	74.5
447.35	78.5
447.571	75.5
447.792	82.5
448.013	87.5
448.234	73.5
448.455	80.5
448.675	66.5
448.896	57.5
449.117	70.5
449.338	93.5
449.559	78.5
449.779	91.5
450	94.5
450.221	88.5
450.442	85.5
450.662	71.5
450.883	83.5
451.104	86.5
451.324	67.5
451.545	88.5
451.766	78.5
451.986	91.5
452.207	87.5
452.428	84.5
452.648	78.5
452.869	79.5
453.089	80.5
453.31	71.5
453.53	79.5
453.751	93.5
453.971	66.5
454.192	71.5
454.412	85.5
454.633	78.5
454.853	96.5
455.073	88.5
455.294	88.5
455.514	84.5
455.734	84.5
455.955	69.5
456.175	89.5
456.395	64.5
456.616	89.5
456.836	95.5
457.056	72.5
457.276	63.5
457.497	80.5
457.717	78.5
457.937	85.5
458.157	87.5
458.377	95.5
458.598	93.5
458.818	71.5
459.038	67.5
459.258	71.5
459.478	91.5
459.698	95.5
459.918	80.5
460.138	70.5
460.358	86.5
460.578	81.5
460.798	83.5
461.018	95.5
461.238	82.5
461.458	89.5
461.678	89.5
461.898	89.5
462.118	88.5
462.338	93.5
462.558	81.5
462.777	78.5
462.997	69.5
463.217	72.5
463.437	78.5
463.657	75.5
463.876	94.5
464.096	80.5
464.316	88.5
464.536	88.5
464.755	77.5
464.975	84.5
465.195	86.5
465.414	77.5
465.634	82.5
465.854	72.5
466.073	82.5
466.293	78.5
466.512	78.5
466.732	89.5
466.951	87.5
467.171	86.5
467.391	93.5
467.61	94.5
467.829	83.5
468.049	70.5
468.268	87.5
468.488	84.5
468.707	89.5
468.927	76.5
469.146	103.5
469.365	95.5
469.585	92.5
469.804	81.5
470.023	87.5
470.243	85.5
470.462	92.5
470.681	88.5
470.901	84.5
471.12	87.5
471.339	93.5
471.558	82.5
471.777	87.5
471.997	75.5
472.216	83.5
472.435	93.5
472.654	87.5
472.873	88.5
473.092	92.5
473.311	78.5
473.53	81.5
473.749	95.5
473.968	98.5
474.187	76.5
474.406	87.5
474.625	83.5
474.844	88.5
475.063	83.5
475.282	84.5
475.501	76.5
475.72	99.5
475.939	93.5
476.158	88.5
476.377	83.5
476.596	77.5
476.814	81.5
477.033	89.5
477.252	92.5
477.471	85.5
477.69	93.5
477.908	77.5
478.127	72.5
478.346	80.5
478.564	69.5
478.783	84.5
479.002	81.5
479.22	84.5
479.439	92.5
479.658	72.5
479.876	88.5
480.095	89.5
480.313	91.5
480.532	67.5
480.751	87.5
480.969	75.5
481.188	62.5
481.406	89.5
481.624	69.5
481.843	73.5
482.061	92.5
482.28	91.5
482.498	92.5
482.717	79.5
482.935	91.5
483.153	76.5
483.372	86.5
483.59	82.5
483.808	88.5
484.027	82.5
484.245	95.5
484.463	70.5
484.681	100.5
484.9	84.5
485.118	85.5
485.336	76.5
485.554	101.5
485.772	88.5
485.99	91.5
486.209	91.5
486.427	93.5
486.645	79.5
486.863	79.5
487.081	64.5
487.299	72.5
487.517	91.5
487.735	98.5
487.953	74.5
488.171	83.5
488.389	76.5
488.607	81.5
488.825	75.5
489.043	84.5
489.261	91.5
489.479	91.5
489.696	77.5
489.914	95.5
490.132	91.5
490.35	87.5
490.568	87.5
490.786	81.5
491.003	94.5
491.221	95.5
491.439	86.5
491.657	103.5
491.874	78.5
492.092	91.5
492.31	84.5
492.527	84.5
492.745	88.5
492.963	84.5
493.18	87.5
493.398	92.5
493.615	79.5
493.833	63.5
494.05	85.5
494.268	85.5
494.485	96.5
494.703	88.5
494.92	83.5
495.138	97.5
495.355	83.5
495.573	89.5
495.79	81.5
496.008	89.5
496.225	83.5
496.442	84.5
496.66	78.5
496.877	83.5
497.094	87.5
497.312	89.5
497.529	73.5
497.746	93.5
497.963	94.5
498.181	103.5
498.398	86.5
498.615	99.5
498.832	78.5
499.049	91.5
499.267	85.5
499.484	94.5
499.701	102.5
499.918	82.5
500.135	78.5
500.352	88.5
500.569	84.5
500.786	93.5
501.003	75.5
501.22	85.5
501.437	92.5
501.654	77.5
501.871	97.5
502.088	85.5
502.305	81.5
502.522	77.5
502.739	96.5
502.956	98.5
503.172	87.5
503.389	82.5
503.606	89.5
503.823	88.5
504.04	77.5
504.256	68.5
504.473	84.5
504.69	78.5
504.907	101.5
505.123	91.5
505.34	81.5
505.557	83.5
505.773	81.5
505.99	70.5
506.207	84.5
506.423	76.5
506.64	75.5
506.856	94.5
507.073	78.5
507.289	89.5
507.506	82.5
507.722	77.5
507.939	75.5
508.155	95.5
508.372	85.5
508.588	92.5
508.805	101.5
509.021	88.5
509.238	86.5
509.454	88.5
509.67	80.5
509.887	99.5
510.103	91.5
510.319	91.5
510.536	92.5
510.752	91.5
510.968	80.5
511.184	83.5
511.401	82.5
511.617	89.5
511.833	95.5
512.049	70.5
512.265	80.5
512.481	86.5
512.698	84.5
512.914	79.5
513.13	88.5
513.346	74.5
513.562	80.5
513.778	73.5
513.994	85.5
514.21	87.5
514.426	103.5
514.642	105.5
514.858	81.5
515.074	82.5
515.29	91.5
515.506	72.5
515.721	85.5
515.937	89.5
516.153	96.5
516.369	77.5
516.585	78.5
516.801	76.5
517.016	90.5
517.232	79.5
517.448	68.5
517.664	84.5
517.879	87.5
518.095	91.5
518.311	82.5
518.527	72.5
518.742	76.5
518.958	81.5
519.173	79.5
519.389	79.5
519.605	88.5
519.82	94.5
520.036	86.5
520.251	69.5
520.467	93.5
520.682	76.5
520.898	87.5
521.113	86.5
521.329	83.5
521.544	102.5
521.76	94.5
521.975	92.5
522.19	93.5
522.406	95.5
522.621	100.5
522.836	80.5
523.052	88.5
523.267	97.5
523.482	87.5
523.698	88.5
523.913	87.5
524.128	84.5
524.343	80.5
524.559	91.5
524.774	86.5
524.989	78.5
525.204	96.5
525.419	98.5
525.634	88.5
525.849	80.5
526.064	74.5
526.28	88.5
526.495	86.5
526.71	99.5
526.925	87.5
527.14	96.5
527.355	103.5
527.57	95.5
527.785	78.5
527.999	84.5
528.214	89.5
528.429	89.5
528.644	75.5
528.859	73.5
529.074	91.5
529.289	95.5
529.503	81.5
529.718	90.5
529.933	84.5
530.148	94.5
530.363	82.5
530.577	97.5
530.792	98.5
531.007	98.5
531.221	84.5
531.436	84.5
531.651	99.5
531.865	92.5
532.08	87.5
532.295	87.5
532.509	79.5
532.724	85.5
532.938	93.5
533.153	88.5
533.367	95.5
533.582	86.5
533.796	88.5
534.011	96.5
534.225	91.5
534.44	101.5
534.654	96.5
534.868	87.5
535.083	87.5
535.297	79.5
535.511	99.5
535.726	89.5
535.94	99.5
536.154	105.5
536.369	109.5
536.583	77.5
536.797	92.5
537.011	91.5
537.225	93.5
537.44	95.5
537.654	84.5
537.868	69.5
538.082	89.5
538.296	88.5
538.51	95.5
538.724	87.5
538.938	89.5
539.153	97.5
539.367	78.5
539.581	93.5
539.795	86.5
540.009	85.5
540.222	90.5
540.436	74.5
540.65	91.5
540.864	81.5
541.078	73.5
541.292	86.5
541.506	84.5
541.72	96.5
541.934	84.5
542.147	83.5
542.361	85.5
542.575	93.5
542.789	82.5
543.002	83.5
543.216	89.5
543.43	85.5
543.644	87.5
543.857	79.5
544.071	88.5
544.285	75.5
544.498	85.5
544.712	82.5
544.925	84.5
545.139	98.5
545.352	80.5
545.566	73.5
545.779	80.5
545.993	76.5
546.206	93.5
546.42	95.5
546.633	88.5
546.847	97.5
547.06	80.5
547.274	80.5
547.487	91.5
547.7	82.5
547.914	83.5
548.127	78.5
548.34	81.5
548.554	92.5
548.767	82.5
548.98	84.5
549.193	86.5
549.407	81.5
549.62	75.5
549.833	75.5
550.046	95.5
550.259	84.5
550.473	66.5
550.686	81.5
550.899	95.5
551.112	86.5
551.325	86.5
551.538	82.5
551.751	88.5
551.964	95.5
552.177	103.5
552.39	93.5
552.603	87.5
552.816	99.5
553.029	86.5
553.242	92.5
553.455	85.5
553.667	87.5
553.88	84.5
554.093	101.5
554.306	93.5
554.519	86.5
554.732	85.5
554.944	87.5
555.157	86.5
555.37	90.5
555.583	88.5
555.795	76.5
556.008	84.5
556.221	87.5
556.433	82.5
556.646	85.5
556.859	72.5
557.071	69.5
557.284	83.5
557.496	66.5
557.709	83.5
557.921	95.5
558.134	88.5
558.346	87.5
558.559	96.5
558.771	87.5
558.984	91.5
559.196	90.5
559.409	93.5
559.621	93.5
559.833	99.5
560.046	85.5
560.258	93.5
560.47	80.5
560.683	80.5
560.895	75.5
561.107	83.5
561.32	96.5
561.532	91.5
561.744	87.5
561.956	80.5
562.168	79.5
562.381	89.5
562.593	71.5
562.805	84.5
563.017	93.5
563.229	87.5
563.441	89.5
563.653	84.5
563.865	89.5
564.077	78.5
564.289	94.5
564.501	86.5
564.713	89.5
564.925	91.5
565.137	93.5
565.349	94.5
565.561	80.5
565.773	89.5
565.985	89.5
566.197	97.5
566.408	91.5
566.62	81.5
566.832	89.5
567.044	94.5
567.255	76.5
567.467	84.5
567.679	87.5
567.891	97.5
568.102	77.5
568.314	82.5
568.526	86.5
568.737	88.5
568.949	91.5
569.161	95.5
569.372	86.5
569.584	93.5
569.795	87.5
570.007	83.5
570.218	103.5
570.43	97.5
570.641	88.5
570.853	93.5
571.064	91.5
571.276	85.5
571.487	77.5
571.698	95.5
571.91	93.5
572.121	88.5
572.333	86.5
572.544	74.5
572.755	88.5
572.966	97.5
573.178	88.5
573.389	85.5
573.6	85.5
573.811	77.5
574.023	93.5
574.234	87.5
574.445	89.5
574.656	89.5
574.867	95.5
575.078	85.5
575.289	77.5
575.501	93.5
575.712	78.5
575.923	93.5
576.134	80.5
576.345	87.5
576.556	79.5
576.767	83.5
576.978	98.5
577.188	82.5
577.399	85.5
577.61	84.5
577.821	76.5
578.032	99.5
578.243	89.5
578.454	104.5
578.665	105.5
578.875	87.5
579.086	75.5
579.297	74.5
579.508	79.5
579.718	81.5
579.929	97.5
580.14	98.5
580.35	101.5
580.561	122.5
580.772	101.5
580.982	104.5
581.193	92.5
581.403	85.5
581.614	106.5
581.825	110.5
582.035	80.5
582.246	89.5
582.456	80.5
582.667	76.5
582.877	83.5
583.087	83.5
583.298	97.5
583.508	83.5
583.719	96.5
583.929	86.5
584.139	93.5
584.35	69.5
584.56	85.5
584.77	98.5
584.981	81.5
585.191	86.5
585.401	95.5
585.611	92.5
585.821	82.5
586.032	89.5
586.242	101.5
586.452	84.5
586.662	88.5
586.872	76.5
587.082	77.5
587.292	83.5
587.502	95.5
587.713	88.5
587.923	82.5
588.133	72.5
588.343	76.5
588.553	102.5
588.762	127.5
588.972	209.5
589.182	331.5
589.392	243.5
589.602	210.5
589.812	299.5
590.022	182.5
590.232	101.5
590.441	101.5
590.651	99.5
590.861	95.5
591.071	82.5
591.281	91.5
591.49	72.5
591.7	81.5
591.91	92.5
592.119	91.5
592.329	85.5
592.539	94.5
592.748	79.5
592.958	89.5
593.167	92.5
593.377	95.5
593.587	88.5
593.796	95.5
594.006	73.5
594.215	90.5
594.424	95.5
594.634	77.5
594.843	77.5
595.053	72.5
595.262	89.5
595.472	88.5
595.681	89.5
595.89	77.5
596.1	73.5
596.309	95.5
596.518	92.5
596.727	75.5
596.937	84.5
597.146	89.5
597.355	74.5
597.564	87.5
597.774	79.5
597.983	58.5
598.192	70.5
598.401	83.5
598.61	84.5
598.819	82.5
599.028	82.5
599.237	77.5
599.446	95.5
599.655	81.5
599.864	80.5
600.073	92.5
600.282	92.5
600.491	81.5
600.7	89.5
600.909	83.5
601.118	91.5
601.327	84.5
601.536	88.5
601.745	77.5
601.953	85.5
602.162	88.5
602.371	105.5
602.58	82.5
602.789	84.5
602.997	80.5
603.206	83.5
603.415	79.5
603.623	78.5
603.832	84.5
604.041	98.5
604.249	84.5
604.458	95.5
604.666	77.5
604.875	90.5
605.084	91.5
605.292	82.5
605.501	81.5
605.709	89.5
605.918	99.5
606.126	70.5
606.334	82.5
606.543	94.5
606.751	87.5
606.96	85.5
607.168	81.5
607.376	75.5
607.585	86.5
607.793	85.5
608.001	78.5
608.21	79.5
608.418	86.5
608.626	72.5
608.834	82.5
609.043	84.5
609.251	93.5
609.459	83.5
609.667	91.5
609.875	83.5
610.083	81.5
610.291	88.5
610.499	76.5
610.707	95.5
610.916	81.5
611.124	79.5
611.332	92.5
611.54	88.5
611.748	88.5
611.955	91.5
612.163	71.5
612.371	87.5
612.579	78.5
612.787	84.5
612.995	80.5
613.203	84.5
613.411	97.5
613.618	91.5
613.826	82.5
614.034	80.5
614.242	86.5
614.449	84.5
614.657	94.5
614.865	79.5
615.072	81.5
615.28	75.5
615.488	86.5
615.695	74.5
615.903	95.5
616.111	87.5
616.318	76.5
616.526	101.5
616.733	98.5
616.941	69.5
617.148	81.5
617.356	91.5
617.563	78.5
617.771	86.5
617.978	85.5
618.185	91.5
618.393	78.5
618.6	74.5
618.807	87.5
619.015	87.5
619.222	82.5
619.429	76.5
619.637	78.5
619.844	69.5
620.051	82.5
620.258	89.5
620.466	72.5
620.673	72.5
620.88	91.5
621.087	79.5
621.294	78.5
621.501	80.5
621.708	86.5
621.915	81.5
622.122	72.5
622.329	74.5
622.536	69.5
622.743	82.5
622.95	79.5
623.157	89.5
623.364	84.5
623.571	89.5
623.778	76.5
623.985	85.5
624.192	82.5
624.399	97.5
624.606	94.5
624.812	74.5
625.019	87.5
625.226	83.5
625.433	93.5
625.639	97.5
625.846	97.5
626.053	90.5
626.259	79.5
626.466	83.5
626.673	89.5
626.879	74.5
627.086	86.5
627.293	82.5
627.499	71.5
627.706	80.5
627.912	88.5
628.119	73.5
628.325	94.5
628.532	85.5
628.738	93.5
628.945	74.5
629.151	83.5
629.357	88.5
629.564	94.5
629.77	108.5
629.976	86.5
630.183	92.5
630.389	85.5
630.595	69.5
630.802	93.5
631.008	83.5
631.214	74.5
631.42	72.5
631.627	73.5
631.833	94.5
632.039	79.5
632.245	83.5
632.451	77.5
632.657	89.5
632.863	89.5
633.069	86.5
633.275	75.5
633.481	95.5
633.688	72.5
633.893	91.5
634.099	81.5
634.305	96.5
634.511	80.5
634.717	91.5
634.923	84.5
635.129	70.5
635.335	86.5
635.541	84.5
635.747	76.5
635.952	79.5
636.158	96.5
636.364	89.5
636.57	93.5
636.775	77.5
636.981	72.5
637.187	89.5
637.392	94.5
637.598	81.5
637.804	97.5
638.009	77.5
638.215	85.5
638.421	82.5
638.626	85.5
638.832	97.5
639.037	84.5
639.243	71.5
639.448	78.5
639.654	84.5
639.859	66.5
640.065	69.5
640.27	84.5
640.475	92.5
640.681	79.5
640.886	78.5
641.091	96.5
641.297	87.5
641.502	95.5
641.707	89.5
641.913	79.5
642.118	88.5
642.323	82.5
642.528	95.5
642.733	84.5
642.939	83.5
643.144	82.5
643.349	82.5
643.554	75.5
643.759	83.5
643.964	94.5
644.169	97.5
644.374	93.5
644.579	77.5
644.784	79.5
644.989	77.5
645.194	83.5
645.399	82.5
645.604	79.5
645.809	72.5
646.014	83.5
646.219	86.5
646.423	82.5
646.628	85.5
646.833	82.5
647.038	82.5
647.243	89.5
647.447	84.5
647.652	94.5
647.857	95.5
648.062	89.5
648.266	91.5
648.471	75.5
648.676	80.5
648.88	94.5
649.085	80.5
649.289	89.5
649.494	91.5
649.698	84.5
649.903	77.5
650.107	84.5
650.312	88.5
650.516	94.5
650.721	86.5
650.925	85.5
651.13	88.5
651.334	82.5
651.539	82.5
651.743	87.5
651.947	73.5
652.152	87.5
652.356	80.5
652.56	74.5
652.764	84.5
652.969	82.5
653.173	72.5
653.377	86.5
653.581	87.5
653.785	68.5
653.99	98.5
654.194	71.5
654.398	85.5
654.602	94.5
654.806	86.5
655.01	100.5
655.214	71.5
655.418	93.5
655.622	73.5
655.826	81.5
656.03	81.5
656.234	99.5
656.438	84.5
656.642	81.5
656.846	72.5
657.049	79.5
657.253	68.5
657.457	71.5
657.661	75.5
657.865	99.5
658.068	82.5
658.272	79.5
658.476	65.5
658.68	82.5
658.883	75.5
659.087	88.5
659.291	55.5
659.494	73.5
659.698	72.5
659.901	86.5
660.105	79.5
660.309	86.5
660.512	74.5
660.716	82.5
660.919	92.5
661.123	89.5
661.326	69.5
661.53	93.5
661.733	84.5
661.936	67.5
662.14	89.5
662.343	93.5
662.546	85.5
662.75	75.5
662.953	71.5
663.156	80.5
663.36	71.5
663.563	84.5
663.766	79.5
663.969	82.5
664.173	69.5
664.376	83.5
664.579	81.5
664.782	71.5
664.985	79.5
665.188	72.5
665.391	87.5
665.594	95.5
665.797	75.5
666	99.5
666.203	64.5
666.406	73.5
666.609	78.5
666.812	95.5
667.015	69.5
667.218	77.5
667.421	90.5
667.624	88.5
667.827	80.5
668.03	68.5
668.232	87.5
668.435	76.5
668.638	76.5
668.841	86.5
669.043	85.5
669.246	84.5
669.449	85.5
669.651	80.5
669.854	81.5
670.057	77.5
670.259	78.5
670.462	100.5
670.665	83.5
670.867	86.5
671.07	86.5
671.272	85.5
671.475	83.5
671.677	77.5
671.88	69.5
672.082	62.5
672.284	82.5
672.487	84.5
672.689	75.5
672.892	69.5
