Data from Propagules_25_1_HRD10591_00018.txt Node
Date: Thu Feb 19 11:05:00 EST 2026
User: Yrep
Spectrometer: HR+D1059
Trigger mode: 1
Integration Time (sec): 1.000000E-1
Scans to average: 1
Electric dark correction enabled: true
Nonlinearity correction enabled: false
Boxcar width: 0
XAxis mode: Wavelengths
Number of Pixels in Spectrum: 2048
>>>>>Begin Spectral Data<<<<<
223.165	-12.62
223.4	-12.62
223.635	-12.62
223.869	-28.62
224.104	-18.62
224.338	-1.62
224.573	-13.62
224.808	-22.62
225.042	-1.62
225.277	-9.62
225.511	-1.62
225.746	4.38
225.98	15.38
226.215	7.38
226.449	13.38
226.683	24.38
226.918	32.38
227.152	13.38
227.387	40.38
227.621	51.38
227.856	39.38
228.09	39.38
228.324	54.38
228.559	48.38
228.793	55.38
229.027	55.38
229.262	64.38
229.496	67.38
229.73	53.38
229.964	69.38
230.199	66.38
230.433	82.38
230.667	84.38
230.901	81.38
231.136	75.38
231.37	81.38
231.604	76.38
231.838	71.38
232.072	86.38
232.306	79.38
232.541	82.38
232.775	80.38
233.009	79.38
233.243	75.38
233.477	75.38
233.711	79.38
233.945	55.38
234.179	86.38
234.413	69.38
234.647	75.38
234.881	80.38
235.115	86.38
235.349	77.38
235.583	80.38
235.817	69.38
236.051	82.38
236.285	75.38
236.519	79.38
236.753	79.38
236.987	82.38
237.221	82.38
237.455	90.38
237.689	73.38
237.922	82.38
238.156	79.38
238.39	74.38
238.624	76.38
238.858	87.38
239.091	72.38
239.325	79.38
239.559	86.38
239.793	64.38
240.027	82.38
240.26	78.38
240.494	73.38
240.728	69.38
240.961	79.38
241.195	85.38
241.429	74.38
241.662	64.38
241.896	66.38
242.13	68.38
242.363	63.38
242.597	70.38
242.83	81.38
243.064	86.38
243.298	70.38
243.531	76.38
243.765	81.38
243.998	76.38
244.232	81.38
244.465	82.38
244.699	67.38
244.932	78.38
245.166	74.38
245.399	83.38
245.633	77.38
245.866	75.38
246.099	75.38
246.333	77.38
246.566	74.38
246.8	80.38
247.033	75.38
247.266	83.38
247.5	75.38
247.733	80.38
247.966	81.38
248.2	72.38
248.433	75.38
248.666	70.38
248.899	71.38
249.133	74.38
249.366	91.38
249.599	68.38
249.832	72.38
250.066	78.38
250.299	79.38
250.532	89.38
250.765	78.38
250.998	66.38
251.231	76.38
251.465	56.38
251.698	82.38
251.931	78.38
252.164	65.38
252.397	86.38
252.63	77.38
252.863	102.38
253.096	77.38
253.329	78.38
253.562	72.38
253.795	74.38
254.028	80.38
254.261	71.38
254.494	82.38
254.727	79.38
254.96	78.38
255.193	76.38
255.426	72.38
255.659	78.38
255.892	74.38
256.124	70.38
256.357	76.38
256.59	72.38
256.823	85.38
257.056	78.38
257.289	88.38
257.521	88.38
257.754	74.38
257.987	72.38
258.22	90.38
258.452	82.38
258.685	74.38
258.918	86.38
259.151	76.38
259.383	80.38
259.616	80.38
259.849	73.38
260.081	86.38
260.314	77.38
260.547	84.38
260.779	71.38
261.012	94.38
261.244	68.38
261.477	76.38
261.71	73.38
261.942	81.38
262.175	74.38
262.407	87.38
262.64	82.38
262.872	87.38
263.105	74.38
263.337	81.38
263.57	77.38
263.802	76.38
264.035	67.38
264.267	86.38
264.499	78.38
264.732	73.38
264.964	76.38
265.197	89.38
265.429	75.38
265.661	68.38
265.894	98.38
266.126	78.38
266.358	82.38
266.591	70.38
266.823	74.38
267.055	78.38
267.287	86.38
267.52	70.38
267.752	88.38
267.984	72.38
268.216	75.38
268.448	87.38
268.681	83.38
268.913	87.38
269.145	86.38
269.377	89.38
269.609	81.38
269.841	80.38
270.073	78.38
270.306	70.38
270.538	69.38
270.77	76.38
271.002	91.38
271.234	78.38
271.466	83.38
271.698	80.38
271.93	83.38
272.162	78.38
272.394	81.38
272.626	80.38
272.858	72.38
273.09	79.38
273.322	95.38
273.553	87.38
273.785	89.38
274.017	74.38
274.249	76.38
274.481	75.38
274.713	78.38
274.945	84.38
275.176	84.38
275.408	90.38
275.64	81.38
275.872	73.38
276.104	80.38
276.335	96.38
276.567	92.38
276.799	91.38
277.031	76.38
277.262	69.38
277.494	86.38
277.726	90.38
277.957	81.38
278.189	85.38
278.421	65.38
278.652	68.38
278.884	97.38
279.115	69.38
279.347	84.38
279.579	80.38
279.81	93.38
280.042	80.38
280.273	78.38
280.505	78.38
280.736	72.38
280.968	83.38
281.199	78.38
281.431	86.38
281.662	81.38
281.894	95.38
282.125	83.38
282.356	73.38
282.588	75.38
282.819	91.38
283.051	74.38
283.282	83.38
283.513	99.38
283.745	76.38
283.976	82.38
284.207	87.38
284.439	92.38
284.67	96.38
284.901	80.38
285.132	90.38
285.364	88.38
285.595	85.38
285.826	84.38
286.057	83.38
286.288	94.38
286.52	80.38
286.751	89.38
286.982	89.38
287.213	82.38
287.444	79.38
287.675	83.38
287.906	85.38
288.138	82.38
288.369	80.38
288.6	92.38
288.831	81.38
289.062	86.38
289.293	75.38
289.524	76.38
289.755	89.38
289.986	92.38
290.217	95.38
290.448	80.38
290.679	71.38
290.91	94.38
291.141	89.38
291.371	68.38
291.602	79.38
291.833	88.38
292.064	76.38
292.295	84.38
292.526	72.38
292.757	83.38
292.987	71.38
293.218	86.38
293.449	85.38
293.68	91.38
293.91	74.38
294.141	77.38
294.372	91.38
294.603	78.38
294.833	70.38
295.064	82.38
295.295	86.38
295.525	79.38
295.756	88.38
295.987	78.38
296.217	86.38
296.448	92.38
296.679	85.38
296.909	92.38
297.14	79.38
297.37	85.38
297.601	75.38
297.831	75.38
298.062	89.38
298.292	83.38
298.523	86.38
298.753	80.38
298.984	78.38
299.214	83.38
299.445	78.38
299.675	80.38
299.905	92.38
300.136	85.38
300.366	90.38
300.597	78.38
300.827	82.38
301.057	86.38
301.288	84.38
301.518	77.38
301.748	82.38
301.979	96.38
302.209	90.38
302.439	91.38
302.669	92.38
302.9	75.38
303.13	81.38
303.36	79.38
303.59	93.38
303.82	82.38
304.051	88.38
304.281	80.38
304.511	74.38
304.741	79.38
304.971	83.38
305.201	92.38
305.431	97.38
305.661	67.38
305.891	79.38
306.121	87.38
306.352	79.38
306.582	80.38
306.812	79.38
307.042	81.38
307.272	80.38
307.502	79.38
307.731	73.38
307.961	80.38
308.191	73.38
308.421	88.38
308.651	87.38
308.881	94.38
309.111	68.38
309.341	73.38
309.571	80.38
309.8	80.38
310.03	77.38
310.26	79.38
310.49	91.38
310.72	65.38
310.949	83.38
311.179	87.38
311.409	75.38
311.639	92.38
311.868	80.38
312.098	84.38
312.328	84.38
312.557	82.38
312.787	67.38
313.017	80.38
313.246	69.38
313.476	86.38
313.706	79.38
313.935	89.38
314.165	86.38
314.394	84.38
314.624	80.38
314.853	81.38
315.083	84.38
315.312	95.38
315.542	70.38
315.771	71.38
316.001	82.38
316.23	76.38
316.46	94.38
316.689	76.38
316.919	86.38
317.148	83.38
317.377	67.38
317.607	79.38
317.836	94.38
318.065	74.38
318.295	91.38
318.524	80.38
318.753	95.38
318.983	84.38
319.212	76.38
319.441	83.38
319.67	78.38
319.9	83.38
320.129	77.38
320.358	73.38
320.587	76.38
320.816	71.38
321.046	90.38
321.275	84.38
321.504	85.38
321.733	86.38
321.962	88.38
322.191	86.38
322.42	88.38
322.649	85.38
322.878	88.38
323.108	94.38
323.337	74.38
323.566	80.38
323.795	81.38
324.024	88.38
324.253	84.38
324.482	79.38
324.71	93.38
324.939	93.38
325.168	78.38
325.397	86.38
325.626	72.38
325.855	69.38
326.084	86.38
326.313	88.38
326.542	80.38
326.77	87.38
326.999	96.38
327.228	103.38
327.457	71.38
327.686	83.38
327.914	100.38
328.143	83.38
328.372	79.38
328.6	75.38
328.829	84.38
329.058	91.38
329.287	79.38
329.515	87.38
329.744	84.38
329.972	78.38
330.201	80.38
330.43	77.38
330.658	74.38
330.887	78.38
331.115	99.38
331.344	97.38
331.572	81.38
331.801	81.38
332.03	82.38
332.258	66.38
332.486	80.38
332.715	82.38
332.943	82.38
333.172	91.38
333.4	79.38
333.629	84.38
333.857	81.38
334.085	74.38
334.314	82.38
334.542	78.38
334.771	78.38
334.999	89.38
335.227	79.38
335.455	82.38
335.684	83.38
335.912	80.38
336.14	83.38
336.369	79.38
336.597	79.38
336.825	75.38
337.053	92.38
337.281	83.38
337.51	81.38
337.738	101.38
337.966	79.38
338.194	90.38
338.422	71.38
338.65	71.38
338.878	87.38
339.106	100.38
339.334	70.38
339.562	85.38
339.79	82.38
340.018	93.38
340.246	76.38
340.474	78.38
340.702	79.38
340.93	86.38
341.158	83.38
341.386	82.38
341.614	73.38
341.842	88.38
342.07	94.38
342.298	84.38
342.526	66.38
342.754	96.38
342.981	86.38
343.209	80.38
343.437	101.38
343.665	99.38
343.893	81.38
344.12	86.38
344.348	79.38
344.576	84.38
344.804	91.38
345.031	88.38
345.259	82.38
345.487	84.38
345.714	79.38
345.942	76.38
346.17	80.38
346.397	79.38
346.625	78.38
346.853	81.38
347.08	75.38
347.308	85.38
347.535	88.38
347.763	98.38
347.99	82.38
348.218	82.38
348.445	89.38
348.673	80.38
348.9	80.38
349.128	66.38
349.355	74.38
349.583	70.38
349.81	74.38
350.037	72.38
350.265	90.38
350.492	74.38
350.72	74.38
350.947	82.38
351.174	94.38
351.402	76.38
351.629	93.38
351.856	78.38
352.083	80.38
352.311	85.38
352.538	72.38
352.765	87.38
352.992	81.38
353.22	83.38
353.447	72.38
353.674	82.38
353.901	88.38
354.128	99.38
354.355	80.38
354.583	79.38
354.81	85.38
355.037	80.38
355.264	79.38
355.491	98.38
355.718	78.38
355.945	73.38
356.172	106.38
356.399	82.38
356.626	89.38
356.853	78.38
357.08	80.38
357.307	87.38
357.534	76.38
357.761	78.38
357.988	83.38
358.215	90.38
358.441	98.38
358.668	97.38
358.895	84.38
359.122	87.38
359.349	80.38
359.576	93.38
359.802	82.38
360.029	76.38
360.256	83.38
360.483	90.38
360.709	88.38
360.936	77.38
361.163	72.38
361.39	75.38
361.616	98.38
361.843	72.38
362.07	94.38
362.296	80.38
362.523	87.38
362.749	83.38
362.976	84.38
363.203	88.38
363.429	81.38
363.656	86.38
363.882	79.38
364.109	75.38
364.335	82.38
364.562	84.38
364.788	80.38
365.015	74.38
365.241	88.38
365.468	71.38
365.694	70.38
365.92	75.38
366.147	77.38
366.373	84.38
366.599	77.38
366.826	95.38
367.052	79.38
367.278	78.38
367.505	66.38
367.731	73.38
367.957	64.38
368.184	78.38
368.41	76.38
368.636	81.38
368.862	87.38
369.089	84.38
369.315	85.38
369.541	71.38
369.767	77.38
369.993	76.38
370.219	73.38
370.445	81.38
370.672	68.38
370.898	93.38
371.124	80.38
371.35	76.38
371.576	96.38
371.802	76.38
372.028	82.38
372.254	96.38
372.48	90.38
372.706	62.38
372.932	76.38
373.158	74.38
373.384	71.38
373.61	82.38
373.835	88.38
374.061	71.38
374.287	70.38
374.513	84.38
374.739	105.38
374.965	92.38
375.191	77.38
375.416	98.38
375.642	95.38
375.868	89.38
376.094	83.38
376.319	89.38
376.545	81.38
376.771	75.38
376.997	93.38
377.222	86.38
377.448	72.38
377.674	90.38
377.899	89.38
378.125	84.38
378.35	81.38
378.576	87.38
378.802	83.38
379.027	84.38
379.253	94.38
379.478	80.38
379.704	86.38
379.929	89.38
380.155	84.38
380.38	85.38
380.606	78.38
380.831	92.38
381.057	85.38
381.282	78.38
381.507	65.38
381.733	80.38
381.958	66.38
382.184	61.38
382.409	77.38
382.634	78.38
382.86	85.38
383.085	84.38
383.31	91.38
383.535	81.38
383.761	96.38
383.986	82.38
384.211	81.38
384.436	82.38
384.662	83.38
384.887	80.38
385.112	72.38
385.337	81.38
385.562	82.38
385.787	86.38
386.013	91.38
386.238	77.38
386.463	81.38
386.688	87.38
386.913	81.38
387.138	83.38
387.363	80.38
387.588	83.38
387.813	76.38
388.038	72.38
388.263	74.38
388.488	100.38
388.713	82.38
388.938	66.38
389.163	75.38
389.387	71.38
389.612	82.38
389.837	82.38
390.062	88.38
390.287	75.38
390.512	86.38
390.736	82.38
390.961	86.38
391.186	78.38
391.411	88.38
391.636	79.38
391.86	78.38
392.085	83.38
392.31	89.38
392.534	66.38
392.759	81.38
392.984	83.38
393.208	75.38
393.433	84.38
393.658	81.38
393.882	71.38
394.107	85.38
394.331	78.38
394.556	81.38
394.78	79.38
395.005	85.38
395.229	64.38
395.454	80.38
395.678	87.38
395.903	80.38
396.127	79.38
396.352	83.38
396.576	96.38
396.801	72.38
397.025	81.38
397.249	84.38
397.474	80.38
397.698	70.38
397.922	67.38
398.147	83.38
398.371	86.38
398.595	76.38
398.82	87.38
399.044	88.38
399.268	82.38
399.492	86.38
399.717	74.38
399.941	74.38
400.165	84.38
400.389	75.38
400.613	81.38
400.837	96.38
401.062	78.38
401.286	56.38
401.51	78.38
401.734	61.38
401.958	67.38
402.182	78.38
402.406	75.38
402.63	86.38
402.854	73.38
403.078	78.38
403.302	74.38
403.526	78.38
403.75	82.38
403.974	83.38
404.198	88.38
404.422	86.38
404.645	94.38
404.869	94.38
405.093	84.38
405.317	56.38
405.541	71.38
405.765	83.38
405.988	76.38
406.212	71.38
406.436	70.38
406.66	78.38
406.883	82.38
407.107	86.38
407.331	84.38
407.555	87.38
407.778	70.38
408.002	75.38
408.226	72.38
408.449	80.38
408.673	69.38
408.896	93.38
409.12	72.38
409.344	84.38
409.567	79.38
409.791	61.38
410.014	79.38
410.238	76.38
410.461	76.38
410.685	66.38
410.908	91.38
411.132	77.38
411.355	70.38
411.578	76.38
411.802	86.38
412.025	76.38
412.249	74.38
412.472	92.38
412.695	81.38
412.919	74.38
413.142	81.38
413.365	70.38
413.589	74.38
413.812	84.38
414.035	73.38
414.258	85.38
414.482	89.38
414.705	88.38
414.928	77.38
415.151	84.38
415.374	92.38
415.597	72.38
415.821	75.38
416.044	70.38
416.267	72.38
416.49	79.38
416.713	77.38
416.936	75.38
417.159	72.38
417.382	78.38
417.605	80.38
417.828	84.38
418.051	83.38
418.274	88.38
418.497	80.38
418.72	94.38
418.943	73.38
419.166	86.38
419.389	78.38
419.611	84.38
419.834	82.38
420.057	83.38
420.28	72.38
420.503	76.38
420.726	84.38
420.948	80.38
421.171	69.38
421.394	85.38
421.617	74.38
421.839	80.38
422.062	80.38
422.285	77.38
422.507	97.38
422.73	78.38
422.953	70.38
423.175	85.38
423.398	77.38
423.621	71.38
423.843	80.38
424.066	68.38
424.288	90.38
424.511	83.38
424.733	82.38
424.956	85.38
425.178	74.38
425.401	79.38
425.623	64.38
425.846	80.38
426.068	86.38
426.291	74.38
426.513	72.38
426.735	76.38
426.958	86.38
427.18	88.38
427.402	81.38
427.625	76.38
427.847	71.38
428.069	88.38
428.292	63.38
428.514	91.38
428.736	80.38
428.958	94.38
429.181	70.38
429.403	76.38
429.625	78.38
429.847	81.38
430.069	89.38
430.292	76.38
430.514	85.38
430.736	66.38
430.958	76.38
431.18	103.38
431.402	88.38
431.624	80.38
431.846	80.38
432.068	79.38
432.29	94.38
432.512	89.38
432.734	80.38
432.956	76.38
433.178	107.38
433.4	91.38
433.622	90.38
433.844	76.38
434.066	82.38
434.287	76.38
434.509	78.38
434.731	75.38
434.953	79.38
435.175	83.38
435.397	80.38
435.618	83.38
435.84	75.38
436.062	80.38
436.284	83.38
436.505	96.38
436.727	74.38
436.949	82.38
437.17	85.38
437.392	94.38
437.614	86.38
437.835	85.38
438.057	67.38
438.278	94.38
438.5	82.38
438.721	77.38
438.943	87.38
439.165	95.38
439.386	72.38
439.608	79.38
439.829	86.38
440.05	84.38
440.272	94.38
440.493	71.38
440.715	85.38
440.936	83.38
441.158	88.38
441.379	94.38
441.6	81.38
441.822	94.38
442.043	84.38
442.264	73.38
442.486	78.38
442.707	66.38
442.928	82.38
443.149	85.38
443.371	80.38
443.592	84.38
443.813	96.38
444.034	89.38
444.255	81.38
444.476	86.38
444.698	90.38
444.919	75.38
445.14	140.38
445.361	116.38
445.582	100.38
445.803	84.38
446.024	92.38
446.245	83.38
446.466	62.38
446.687	72.38
446.908	85.38
447.129	80.38
447.35	70.38
447.571	74.38
447.792	88.38
448.013	88.38
448.234	98.38
448.455	81.38
448.675	79.38
448.896	75.38
449.117	83.38
449.338	80.38
449.559	80.38
449.779	83.38
450	72.38
450.221	74.38
450.442	77.38
450.662	68.38
450.883	80.38
451.104	85.38
451.324	72.38
451.545	71.38
451.766	82.38
451.986	77.38
452.207	84.38
452.428	70.38
452.648	71.38
452.869	72.38
453.089	82.38
453.31	74.38
453.53	89.38
453.751	74.38
453.971	85.38
454.192	86.38
454.412	77.38
454.633	73.38
454.853	78.38
455.073	77.38
455.294	76.38
455.514	80.38
455.734	78.38
455.955	70.38
456.175	85.38
456.395	89.38
456.616	83.38
456.836	79.38
457.056	77.38
457.276	83.38
457.497	79.38
457.717	78.38
457.937	79.38
458.157	88.38
458.377	64.38
458.598	62.38
458.818	76.38
459.038	65.38
459.258	96.38
459.478	87.38
459.698	94.38
459.918	79.38
460.138	78.38
460.358	91.38
460.578	71.38
460.798	78.38
461.018	90.38
461.238	82.38
461.458	87.38
461.678	82.38
461.898	84.38
462.118	85.38
462.338	82.38
462.558	91.38
462.777	70.38
462.997	67.38
463.217	79.38
463.437	73.38
463.657	87.38
463.876	93.38
464.096	86.38
464.316	78.38
464.536	76.38
464.755	82.38
464.975	68.38
465.195	72.38
465.414	74.38
465.634	71.38
465.854	86.38
466.073	100.38
466.293	77.38
466.512	88.38
466.732	72.38
466.951	87.38
467.171	83.38
467.391	78.38
467.61	76.38
467.829	79.38
468.049	89.38
468.268	74.38
468.488	78.38
468.707	69.38
468.927	81.38
469.146	85.38
469.365	78.38
469.585	84.38
469.804	96.38
470.023	74.38
470.243	86.38
470.462	74.38
470.681	82.38
470.901	77.38
471.12	66.38
471.339	73.38
471.558	77.38
471.777	75.38
471.997	97.38
472.216	71.38
472.435	85.38
472.654	80.38
472.873	86.38
473.092	76.38
473.311	82.38
473.53	73.38
473.749	101.38
473.968	82.38
474.187	94.38
474.406	84.38
474.625	72.38
474.844	93.38
475.063	69.38
475.282	82.38
475.501	85.38
475.72	84.38
475.939	78.38
476.158	81.38
476.377	76.38
476.596	85.38
476.814	88.38
477.033	85.38
477.252	76.38
477.471	83.38
477.69	89.38
477.908	74.38
478.127	77.38
478.346	87.38
478.564	72.38
478.783	78.38
479.002	80.38
479.22	73.38
479.439	87.38
479.658	89.38
479.876	84.38
480.095	68.38
480.313	82.38
480.532	92.38
480.751	84.38
480.969	80.38
481.188	81.38
481.406	69.38
481.624	85.38
481.843	77.38
482.061	66.38
482.28	80.38
482.498	75.38
482.717	74.38
482.935	74.38
483.153	86.38
483.372	75.38
483.59	86.38
483.808	76.38
484.027	93.38
484.245	94.38
484.463	82.38
484.681	87.38
484.9	85.38
485.118	84.38
485.336	77.38
485.554	71.38
485.772	86.38
485.99	72.38
486.209	84.38
486.427	75.38
486.645	96.38
486.863	67.38
487.081	69.38
487.299	82.38
487.517	70.38
487.735	73.38
487.953	84.38
488.171	77.38
488.389	78.38
488.607	71.38
488.825	75.38
489.043	89.38
489.261	88.38
489.479	89.38
489.696	93.38
489.914	85.38
490.132	79.38
490.35	83.38
490.568	80.38
490.786	92.38
491.003	71.38
491.221	70.38
491.439	70.38
491.657	79.38
491.874	76.38
492.092	71.38
492.31	78.38
492.527	84.38
492.745	91.38
492.963	86.38
493.18	87.38
493.398	85.38
493.615	85.38
493.833	99.38
494.05	76.38
494.268	77.38
494.485	62.38
494.703	86.38
494.92	74.38
495.138	88.38
495.355	76.38
495.573	85.38
495.79	88.38
496.008	70.38
496.225	79.38
496.442	87.38
496.66	89.38
496.877	70.38
497.094	97.38
497.312	82.38
497.529	82.38
497.746	71.38
497.963	87.38
498.181	79.38
498.398	79.38
498.615	86.38
498.832	76.38
499.049	88.38
499.267	78.38
499.484	93.38
499.701	83.38
499.918	80.38
500.135	74.38
500.352	87.38
500.569	84.38
500.786	86.38
501.003	77.38
501.22	72.38
501.437	91.38
501.654	95.38
501.871	83.38
502.088	92.38
502.305	74.38
502.522	95.38
502.739	92.38
502.956	72.38
503.172	75.38
503.389	83.38
503.606	84.38
503.823	92.38
504.04	87.38
504.256	77.38
504.473	87.38
504.69	74.38
504.907	90.38
505.123	74.38
505.34	88.38
505.557	74.38
505.773	99.38
505.99	74.38
506.207	92.38
506.423	78.38
506.64	84.38
506.856	76.38
507.073	87.38
507.289	89.38
507.506	82.38
507.722	71.38
507.939	83.38
508.155	83.38
508.372	91.38
508.588	68.38
508.805	85.38
509.021	89.38
509.238	95.38
509.454	75.38
509.67	81.38
509.887	83.38
510.103	76.38
510.319	87.38
510.536	82.38
510.752	84.38
510.968	77.38
511.184	81.38
511.401	91.38
511.617	97.38
511.833	78.38
512.049	89.38
512.265	86.38
512.481	74.38
512.698	82.38
512.914	78.38
513.13	80.38
513.346	75.38
513.562	73.38
513.778	78.38
513.994	77.38
514.21	83.38
514.426	97.38
514.642	72.38
514.858	88.38
515.074	87.38
515.29	83.38
515.506	76.38
515.721	78.38
515.937	99.38
516.153	93.38
516.369	80.38
516.585	74.38
516.801	88.38
517.016	75.38
517.232	93.38
517.448	97.38
517.664	86.38
517.879	82.38
518.095	90.38
518.311	67.38
518.527	86.38
518.742	79.38
518.958	86.38
519.173	79.38
519.389	80.38
519.605	71.38
519.82	77.38
520.036	82.38
520.251	94.38
520.467	87.38
520.682	87.38
520.898	78.38
521.113	79.38
521.329	92.38
521.544	83.38
521.76	69.38
521.975	84.38
522.19	84.38
522.406	89.38
522.621	90.38
522.836	91.38
523.052	83.38
523.267	82.38
523.482	67.38
523.698	83.38
523.913	92.38
524.128	83.38
524.343	102.38
524.559	90.38
524.774	80.38
524.989	83.38
525.204	83.38
525.419	87.38
525.634	82.38
525.849	92.38
526.064	73.38
526.28	95.38
526.495	74.38
526.71	81.38
526.925	84.38
527.14	98.38
527.355	75.38
527.57	86.38
527.785	83.38
527.999	81.38
528.214	81.38
528.429	91.38
528.644	85.38
528.859	82.38
529.074	80.38
529.289	81.38
529.503	75.38
529.718	84.38
529.933	82.38
530.148	79.38
530.363	83.38
530.577	86.38
530.792	74.38
531.007	91.38
531.221	84.38
531.436	88.38
531.651	88.38
531.865	77.38
532.08	79.38
532.295	82.38
532.509	74.38
532.724	93.38
532.938	86.38
533.153	94.38
533.367	92.38
533.582	84.38
533.796	74.38
534.011	87.38
534.225	81.38
534.44	79.38
534.654	89.38
534.868	81.38
535.083	76.38
535.297	77.38
535.511	82.38
535.726	72.38
535.94	81.38
536.154	87.38
536.369	84.38
536.583	82.38
536.797	84.38
537.011	83.38
537.225	71.38
537.44	78.38
537.654	90.38
537.868	86.38
538.082	69.38
538.296	77.38
538.51	70.38
538.724	88.38
538.938	87.38
539.153	86.38
539.367	83.38
539.581	94.38
539.795	78.38
540.009	88.38
540.222	96.38
540.436	96.38
540.65	71.38
540.864	82.38
541.078	80.38
541.292	92.38
541.506	75.38
541.72	87.38
541.934	90.38
542.147	92.38
542.361	98.38
542.575	86.38
542.789	85.38
543.002	77.38
543.216	73.38
543.43	75.38
543.644	82.38
543.857	74.38
544.071	72.38
544.285	74.38
544.498	90.38
544.712	98.38
544.925	78.38
545.139	80.38
545.352	85.38
545.566	79.38
545.779	94.38
545.993	82.38
546.206	80.38
546.42	85.38
546.633	91.38
546.847	89.38
547.06	70.38
547.274	90.38
547.487	93.38
547.7	72.38
547.914	96.38
548.127	82.38
548.34	87.38
548.554	96.38
548.767	86.38
548.98	93.38
549.193	86.38
549.407	69.38
549.62	83.38
549.833	90.38
550.046	84.38
550.259	97.38
550.473	76.38
550.686	79.38
550.899	86.38
551.112	86.38
551.325	73.38
551.538	84.38
551.751	82.38
551.964	81.38
552.177	88.38
552.39	88.38
552.603	79.38
552.816	82.38
553.029	95.38
553.242	98.38
553.455	86.38
553.667	83.38
553.88	92.38
554.093	96.38
554.306	100.38
554.519	78.38
554.732	78.38
554.944	81.38
555.157	81.38
555.37	81.38
555.583	86.38
555.795	80.38
556.008	93.38
556.221	95.38
556.433	70.38
556.646	75.38
556.859	84.38
557.071	84.38
557.284	88.38
557.496	82.38
557.709	83.38
557.921	87.38
558.134	87.38
558.346	82.38
558.559	88.38
558.771	87.38
558.984	74.38
559.196	88.38
559.409	87.38
559.621	79.38
559.833	90.38
560.046	83.38
560.258	92.38
560.47	101.38
560.683	88.38
560.895	90.38
561.107	88.38
561.32	92.38
561.532	84.38
561.744	74.38
561.956	86.38
562.168	88.38
562.381	85.38
562.593	72.38
562.805	66.38
563.017	78.38
563.229	82.38
563.441	68.38
563.653	71.38
563.865	75.38
564.077	82.38
564.289	88.38
564.501	93.38
564.713	72.38
564.925	87.38
565.137	79.38
565.349	72.38
565.561	87.38
565.773	94.38
565.985	73.38
566.197	81.38
566.408	82.38
566.62	71.38
566.832	85.38
567.044	89.38
567.255	86.38
567.467	84.38
567.679	85.38
567.891	78.38
568.102	71.38
568.314	82.38
568.526	90.38
568.737	86.38
568.949	100.38
569.161	101.38
569.372	80.38
569.584	94.38
569.795	85.38
570.007	85.38
570.218	92.38
570.43	89.38
570.641	91.38
570.853	69.38
571.064	67.38
571.276	94.38
571.487	84.38
571.698	76.38
571.91	89.38
572.121	84.38
572.333	81.38
572.544	79.38
572.755	81.38
572.966	86.38
573.178	85.38
573.389	83.38
573.6	80.38
573.811	76.38
574.023	77.38
574.234	97.38
574.445	79.38
574.656	72.38
574.867	92.38
575.078	91.38
575.289	84.38
575.501	83.38
575.712	86.38
575.923	92.38
576.134	88.38
576.345	83.38
576.556	83.38
576.767	87.38
576.978	84.38
577.188	98.38
577.399	98.38
577.61	83.38
577.821	86.38
578.032	96.38
578.243	86.38
578.454	89.38
578.665	98.38
578.875	71.38
579.086	71.38
579.297	74.38
579.508	95.38
579.718	79.38
579.929	89.38
580.14	74.38
580.35	88.38
580.561	76.38
580.772	92.38
580.982	79.38
581.193	88.38
581.403	79.38
581.614	77.38
581.825	89.38
582.035	74.38
582.246	86.38
582.456	87.38
582.667	79.38
582.877	81.38
583.087	76.38
583.298	81.38
583.508	86.38
583.719	100.38
583.929	84.38
584.139	81.38
584.35	80.38
584.56	74.38
584.77	82.38
584.981	87.38
585.191	92.38
585.401	83.38
585.611	88.38
585.821	93.38
586.032	89.38
586.242	87.38
586.452	86.38
586.662	80.38
586.872	82.38
587.082	91.38
587.292	79.38
587.502	85.38
587.713	91.38
587.923	83.38
588.133	96.38
588.343	86.38
588.553	88.38
588.762	118.38
588.972	146.38
589.182	248.38
589.392	179.38
589.602	141.38
589.812	218.38
590.022	131.38
590.232	105.38
590.441	89.38
590.651	98.38
590.861	82.38
591.071	84.38
591.281	84.38
591.49	83.38
591.7	91.38
591.91	94.38
592.119	94.38
592.329	91.38
592.539	73.38
592.748	92.38
592.958	82.38
593.167	89.38
593.377	81.38
593.587	84.38
593.796	98.38
594.006	72.38
594.215	77.38
594.424	72.38
594.634	89.38
594.843	80.38
595.053	88.38
595.262	84.38
595.472	93.38
595.681	84.38
595.89	83.38
596.1	86.38
596.309	78.38
596.518	92.38
596.727	94.38
596.937	79.38
597.146	79.38
597.355	82.38
597.564	80.38
597.774	78.38
597.983	84.38
598.192	78.38
598.401	81.38
598.61	74.38
598.819	88.38
599.028	94.38
599.237	81.38
599.446	85.38
599.655	80.38
599.864	99.38
600.073	79.38
600.282	89.38
600.491	86.38
600.7	74.38
600.909	65.38
601.118	82.38
601.327	82.38
601.536	94.38
601.745	83.38
601.953	85.38
602.162	87.38
602.371	85.38
602.58	87.38
602.789	82.38
602.997	77.38
603.206	76.38
603.415	86.38
603.623	90.38
603.832	75.38
604.041	87.38
604.249	81.38
604.458	93.38
604.666	85.38
604.875	78.38
605.084	83.38
605.292	76.38
605.501	71.38
605.709	82.38
605.918	84.38
606.126	92.38
606.334	89.38
606.543	93.38
606.751	78.38
606.96	92.38
607.168	95.38
607.376	95.38
607.585	79.38
607.793	78.38
608.001	64.38
608.21	70.38
608.418	81.38
608.626	90.38
608.834	80.38
609.043	75.38
609.251	75.38
609.459	82.38
609.667	86.38
609.875	82.38
610.083	85.38
610.291	78.38
610.499	87.38
610.707	70.38
610.916	74.38
611.124	90.38
611.332	79.38
611.54	81.38
611.748	88.38
611.955	80.38
612.163	80.38
612.371	87.38
612.579	82.38
612.787	91.38
612.995	83.38
613.203	87.38
613.411	88.38
613.618	83.38
613.826	84.38
614.034	72.38
614.242	77.38
614.449	92.38
614.657	84.38
614.865	78.38
615.072	85.38
615.28	82.38
615.488	79.38
615.695	75.38
615.903	84.38
616.111	93.38
616.318	100.38
616.526	84.38
616.733	88.38
616.941	83.38
617.148	83.38
617.356	64.38
617.563	78.38
617.771	82.38
617.978	72.38
618.185	86.38
618.393	87.38
618.6	84.38
618.807	99.38
619.015	95.38
619.222	78.38
619.429	74.38
619.637	86.38
619.844	95.38
620.051	93.38
620.258	77.38
620.466	84.38
620.673	81.38
620.88	87.38
621.087	83.38
621.294	88.38
621.501	81.38
621.708	87.38
621.915	89.38
622.122	85.38
622.329	79.38
622.536	77.38
622.743	77.38
622.95	89.38
623.157	83.38
623.364	79.38
623.571	80.38
623.778	81.38
623.985	82.38
624.192	82.38
624.399	88.38
624.606	87.38
624.812	71.38
625.019	91.38
625.226	78.38
625.433	78.38
625.639	81.38
625.846	92.38
626.053	73.38
626.259	78.38
626.466	89.38
626.673	68.38
626.879	76.38
627.086	77.38
627.293	85.38
627.499	86.38
627.706	81.38
627.912	77.38
628.119	68.38
628.325	90.38
628.532	70.38
628.738	92.38
628.945	76.38
629.151	69.38
629.357	72.38
629.564	74.38
629.77	93.38
629.976	84.38
630.183	89.38
630.389	69.38
630.595	80.38
630.802	90.38
631.008	80.38
631.214	70.38
631.42	71.38
631.627	89.38
631.833	80.38
632.039	74.38
632.245	82.38
632.451	85.38
632.657	68.38
632.863	92.38
633.069	84.38
633.275	92.38
633.481	87.38
633.688	95.38
633.893	90.38
634.099	86.38
634.305	82.38
634.511	76.38
634.717	70.38
634.923	82.38
635.129	75.38
635.335	77.38
635.541	77.38
635.747	71.38
635.952	84.38
636.158	86.38
636.364	83.38
636.57	102.38
636.775	91.38
636.981	89.38
637.187	78.38
637.392	82.38
637.598	95.38
637.804	80.38
638.009	81.38
638.215	93.38
638.421	82.38
638.626	70.38
638.832	72.38
639.037	74.38
639.243	86.38
639.448	90.38
639.654	82.38
639.859	82.38
640.065	91.38
640.27	80.38
640.475	76.38
640.681	90.38
640.886	84.38
641.091	90.38
641.297	87.38
641.502	94.38
641.707	82.38
641.913	87.38
642.118	83.38
642.323	74.38
642.528	95.38
642.733	79.38
642.939	74.38
643.144	80.38
643.349	78.38
643.554	80.38
643.759	99.38
643.964	76.38
644.169	68.38
644.374	79.38
644.579	78.38
644.784	76.38
644.989	84.38
645.194	78.38
645.399	88.38
645.604	87.38
645.809	90.38
646.014	92.38
646.219	84.38
646.423	76.38
646.628	75.38
646.833	81.38
647.038	82.38
647.243	88.38
647.447	73.38
647.652	76.38
647.857	77.38
648.062	77.38
648.266	90.38
648.471	87.38
648.676	80.38
648.88	80.38
649.085	82.38
649.289	84.38
649.494	86.38
649.698	92.38
649.903	78.38
650.107	78.38
650.312	76.38
650.516	80.38
650.721	89.38
650.925	98.38
651.13	80.38
651.334	73.38
651.539	84.38
651.743	94.38
651.947	90.38
652.152	78.38
652.356	87.38
652.56	87.38
652.764	71.38
652.969	87.38
653.173	77.38
653.377	76.38
653.581	76.38
653.785	67.38
653.99	77.38
654.194	79.38
654.398	74.38
654.602	85.38
654.806	81.38
655.01	76.38
655.214	80.38
655.418	82.38
655.622	95.38
655.826	76.38
656.03	79.38
656.234	86.38
656.438	83.38
656.642	74.38
656.846	94.38
657.049	95.38
657.253	92.38
657.457	88.38
657.661	81.38
657.865	78.38
658.068	84.38
658.272	75.38
658.476	88.38
658.68	80.38
658.883	84.38
659.087	84.38
659.291	93.38
659.494	70.38
659.698	82.38
659.901	85.38
660.105	82.38
660.309	74.38
660.512	77.38
660.716	81.38
660.919	92.38
661.123	84.38
661.326	92.38
661.53	85.38
661.733	80.38
661.936	77.38
662.14	92.38
662.343	75.38
662.546	72.38
662.75	95.38
662.953	72.38
663.156	85.38
663.36	71.38
663.563	79.38
663.766	84.38
663.969	72.38
664.173	82.38
664.376	82.38
664.579	80.38
664.782	67.38
664.985	80.38
665.188	75.38
665.391	80.38
665.594	83.38
665.797	85.38
666	74.38
666.203	83.38
666.406	74.38
666.609	82.38
666.812	75.38
667.015	73.38
667.218	89.38
667.421	72.38
667.624	86.38
667.827	87.38
668.03	84.38
668.232	88.38
668.435	71.38
668.638	72.38
668.841	78.38
669.043	82.38
669.246	75.38
669.449	85.38
669.651	84.38
669.854	85.38
670.057	83.38
670.259	83.38
670.462	79.38
670.665	82.38
670.867	73.38
671.07	72.38
671.272	83.38
671.475	72.38
671.677	71.38
671.88	64.38
672.082	84.38
672.284	88.38
672.487	82.38
672.689	72.38
672.892	78.38
