Data from Propagules_25_1_HRD10591_00019.txt Node
Date: Thu Feb 19 11:05:00 EST 2026
User: Yrep
Spectrometer: HR+D1059
Trigger mode: 1
Integration Time (sec): 1.000000E-1
Scans to average: 1
Electric dark correction enabled: true
Nonlinearity correction enabled: false
Boxcar width: 0
XAxis mode: Wavelengths
Number of Pixels in Spectrum: 2048
>>>>>Begin Spectral Data<<<<<
223.165	-9.12
223.4	-9.12
223.635	-9.12
223.869	-23.12
224.104	-13.12
224.338	-24.12
224.573	-18.12
224.808	-8.12
225.042	-15.12
225.277	-13.12
225.511	8.88
225.746	-0.12
225.98	8.88
226.215	8.88
226.449	17.88
226.683	23.88
226.918	17.88
227.152	37.88
227.387	33.88
227.621	27.88
227.856	27.88
228.09	38.88
228.324	39.88
228.559	57.88
228.793	58.88
229.027	58.88
229.262	55.88
229.496	74.88
229.73	73.88
229.964	70.88
230.199	77.88
230.433	63.88
230.667	64.88
230.901	80.88
231.136	73.88
231.37	63.88
231.604	65.88
231.838	81.88
232.072	89.88
232.306	80.88
232.541	69.88
232.775	78.88
233.009	81.88
233.243	75.88
233.477	88.88
233.711	89.88
233.945	63.88
234.179	69.88
234.413	85.88
234.647	61.88
234.881	80.88
235.115	89.88
235.349	71.88
235.583	80.88
235.817	78.88
236.051	64.88
236.285	71.88
236.519	73.88
236.753	70.88
236.987	58.88
237.221	89.88
237.455	83.88
237.689	66.88
237.922	73.88
238.156	63.88
238.39	68.88
238.624	79.88
238.858	71.88
239.091	63.88
239.325	80.88
239.559	83.88
239.793	80.88
240.027	66.88
240.26	68.88
240.494	65.88
240.728	69.88
240.961	67.88
241.195	71.88
241.429	81.88
241.662	80.88
241.896	76.88
242.13	75.88
242.363	71.88
242.597	76.88
242.83	84.88
243.064	69.88
243.298	71.88
243.531	78.88
243.765	73.88
243.998	77.88
244.232	77.88
244.465	88.88
244.699	77.88
244.932	69.88
245.166	55.88
245.399	69.88
245.633	84.88
245.866	68.88
246.099	63.88
246.333	65.88
246.566	73.88
246.8	74.88
247.033	75.88
247.266	70.88
247.5	81.88
247.733	82.88
247.966	77.88
248.2	76.88
248.433	81.88
248.666	82.88
248.899	76.88
249.133	71.88
249.366	79.88
249.599	84.88
249.832	66.88
250.066	76.88
250.299	78.88
250.532	74.88
250.765	78.88
250.998	81.88
251.231	77.88
251.465	90.88
251.698	81.88
251.931	75.88
252.164	73.88
252.397	81.88
252.63	78.88
252.863	77.88
253.096	71.88
253.329	77.88
253.562	75.88
253.795	66.88
254.028	75.88
254.261	83.88
254.494	73.88
254.727	71.88
254.96	87.88
255.193	63.88
255.426	80.88
255.659	73.88
255.892	90.88
256.124	77.88
256.357	87.88
256.59	74.88
256.823	73.88
257.056	77.88
257.289	82.88
257.521	89.88
257.754	66.88
257.987	71.88
258.22	88.88
258.452	65.88
258.685	84.88
258.918	64.88
259.151	68.88
259.383	78.88
259.616	76.88
259.849	80.88
260.081	82.88
260.314	79.88
260.547	82.88
260.779	78.88
261.012	77.88
261.244	74.88
261.477	82.88
261.71	84.88
261.942	76.88
262.175	89.88
262.407	88.88
262.64	84.88
262.872	77.88
263.105	69.88
263.337	84.88
263.57	85.88
263.802	73.88
264.035	94.88
264.267	72.88
264.499	83.88
264.732	79.88
264.964	71.88
265.197	51.88
265.429	75.88
265.661	73.88
265.894	83.88
266.126	78.88
266.358	72.88
266.591	71.88
266.823	73.88
267.055	69.88
267.287	74.88
267.52	81.88
267.752	87.88
267.984	87.88
268.216	83.88
268.448	81.88
268.681	82.88
268.913	81.88
269.145	70.88
269.377	93.88
269.609	82.88
269.841	95.88
270.073	83.88
270.306	77.88
270.538	70.88
270.77	63.88
271.002	73.88
271.234	75.88
271.466	84.88
271.698	77.88
271.93	69.88
272.162	83.88
272.394	72.88
272.626	71.88
272.858	74.88
273.09	68.88
273.322	76.88
273.553	89.88
273.785	75.88
274.017	80.88
274.249	65.88
274.481	75.88
274.713	73.88
274.945	81.88
275.176	74.88
275.408	91.88
275.64	81.88
275.872	72.88
276.104	72.88
276.335	87.88
276.567	64.88
276.799	83.88
277.031	74.88
277.262	80.88
277.494	94.88
277.726	83.88
277.957	91.88
278.189	91.88
278.421	74.88
278.652	79.88
278.884	88.88
279.115	82.88
279.347	77.88
279.579	75.88
279.81	74.88
280.042	89.88
280.273	73.88
280.505	79.88
280.736	97.88
280.968	71.88
281.199	74.88
281.431	75.88
281.662	77.88
281.894	83.88
282.125	79.88
282.356	82.88
282.588	84.88
282.819	79.88
283.051	77.88
283.282	85.88
283.513	75.88
283.745	74.88
283.976	93.88
284.207	85.88
284.439	95.88
284.67	84.88
284.901	67.88
285.132	82.88
285.364	75.88
285.595	73.88
285.826	81.88
286.057	79.88
286.288	82.88
286.52	73.88
286.751	78.88
286.982	83.88
287.213	82.88
287.444	86.88
287.675	65.88
287.906	89.88
288.138	77.88
288.369	80.88
288.6	76.88
288.831	56.88
289.062	70.88
289.293	93.88
289.524	84.88
289.755	86.88
289.986	81.88
290.217	73.88
290.448	83.88
290.679	78.88
290.91	75.88
291.141	96.88
291.371	79.88
291.602	68.88
291.833	67.88
292.064	80.88
292.295	75.88
292.526	86.88
292.757	71.88
292.987	75.88
293.218	77.88
293.449	65.88
293.68	82.88
293.91	80.88
294.141	86.88
294.372	65.88
294.603	71.88
294.833	70.88
295.064	65.88
295.295	71.88
295.525	81.88
295.756	83.88
295.987	68.88
296.217	80.88
296.448	79.88
296.679	77.88
296.909	81.88
297.14	73.88
297.37	75.88
297.601	73.88
297.831	80.88
298.062	69.88
298.292	81.88
298.523	90.88
298.753	84.88
298.984	86.88
299.214	87.88
299.445	81.88
299.675	77.88
299.905	75.88
300.136	89.88
300.366	76.88
300.597	77.88
300.827	96.88
301.057	71.88
301.288	84.88
301.518	85.88
301.748	79.88
301.979	103.88
302.209	87.88
302.439	84.88
302.669	73.88
302.9	76.88
303.13	73.88
303.36	65.88
303.59	81.88
303.82	80.88
304.051	84.88
304.281	75.88
304.511	81.88
304.741	84.88
304.971	83.88
305.201	95.88
305.431	90.88
305.661	87.88
305.891	90.88
306.121	77.88
306.352	71.88
306.582	75.88
306.812	81.88
307.042	85.88
307.272	78.88
307.502	84.88
307.731	71.88
307.961	89.88
308.191	76.88
308.421	84.88
308.651	84.88
308.881	80.88
309.111	89.88
309.341	83.88
309.571	71.88
309.8	90.88
310.03	77.88
310.26	94.88
310.49	89.88
310.72	72.88
310.949	87.88
311.179	81.88
311.409	86.88
311.639	76.88
311.868	91.88
312.098	75.88
312.328	82.88
312.557	77.88
312.787	94.88
313.017	71.88
313.246	81.88
313.476	87.88
313.706	65.88
313.935	90.88
314.165	99.88
314.394	80.88
314.624	95.88
314.853	84.88
315.083	74.88
315.312	84.88
315.542	79.88
315.771	86.88
316.001	75.88
316.23	81.88
316.46	77.88
316.689	71.88
316.919	71.88
317.148	85.88
317.377	91.88
317.607	78.88
317.836	77.88
318.065	81.88
318.295	83.88
318.524	82.88
318.753	71.88
318.983	65.88
319.212	88.88
319.441	79.88
319.67	84.88
319.9	66.88
320.129	82.88
320.358	73.88
320.587	73.88
320.816	82.88
321.046	89.88
321.275	84.88
321.504	86.88
321.733	88.88
321.962	76.88
322.191	74.88
322.42	79.88
322.649	73.88
322.878	85.88
323.108	73.88
323.337	93.88
323.566	81.88
323.795	77.88
324.024	78.88
324.253	89.88
324.482	88.88
324.71	83.88
324.939	87.88
325.168	82.88
325.397	81.88
325.626	83.88
325.855	67.88
326.084	87.88
326.313	62.88
326.542	85.88
326.77	78.88
326.999	81.88
327.228	82.88
327.457	73.88
327.686	86.88
327.914	87.88
328.143	102.88
328.372	83.88
328.6	81.88
328.829	79.88
329.058	70.88
329.287	71.88
329.515	82.88
329.744	87.88
329.972	69.88
330.201	78.88
330.43	77.88
330.658	87.88
330.887	94.88
331.115	72.88
331.344	79.88
331.572	84.88
331.801	79.88
332.03	91.88
332.258	79.88
332.486	75.88
332.715	80.88
332.943	75.88
333.172	73.88
333.4	70.88
333.629	88.88
333.857	83.88
334.085	95.88
334.314	70.88
334.542	85.88
334.771	79.88
334.999	89.88
335.227	83.88
335.455	77.88
335.684	94.88
335.912	85.88
336.14	83.88
336.369	70.88
336.597	82.88
336.825	77.88
337.053	69.88
337.281	76.88
337.51	82.88
337.738	79.88
337.966	61.88
338.194	78.88
338.422	83.88
338.65	83.88
338.878	68.88
339.106	63.88
339.334	71.88
339.562	73.88
339.79	80.88
340.018	75.88
340.246	69.88
340.474	81.88
340.702	61.88
340.93	57.88
341.158	78.88
341.386	77.88
341.614	76.88
341.842	75.88
342.07	89.88
342.298	73.88
342.526	90.88
342.754	82.88
342.981	82.88
343.209	72.88
343.437	83.88
343.665	94.88
343.893	61.88
344.12	74.88
344.348	80.88
344.576	84.88
344.804	67.88
345.031	81.88
345.259	74.88
345.487	78.88
345.714	73.88
345.942	65.88
346.17	76.88
346.397	93.88
346.625	83.88
346.853	82.88
347.08	83.88
347.308	73.88
347.535	75.88
347.763	73.88
347.99	70.88
348.218	86.88
348.445	83.88
348.673	69.88
348.9	71.88
349.128	79.88
349.355	71.88
349.583	93.88
349.81	83.88
350.037	79.88
350.265	83.88
350.492	75.88
350.72	64.88
350.947	87.88
351.174	76.88
351.402	73.88
351.629	74.88
351.856	75.88
352.083	70.88
352.311	68.88
352.538	94.88
352.765	95.88
352.992	73.88
353.22	66.88
353.447	80.88
353.674	80.88
353.901	85.88
354.128	77.88
354.355	81.88
354.583	67.88
354.81	92.88
355.037	79.88
355.264	78.88
355.491	65.88
355.718	89.88
355.945	91.88
356.172	75.88
356.399	72.88
356.626	74.88
356.853	87.88
357.08	87.88
357.307	80.88
357.534	73.88
357.761	67.88
357.988	76.88
358.215	95.88
358.441	75.88
358.668	74.88
358.895	82.88
359.122	69.88
359.349	87.88
359.576	82.88
359.802	71.88
360.029	76.88
360.256	77.88
360.483	73.88
360.709	76.88
360.936	76.88
361.163	88.88
361.39	91.88
361.616	79.88
361.843	72.88
362.07	84.88
362.296	65.88
362.523	68.88
362.749	65.88
362.976	75.88
363.203	63.88
363.429	81.88
363.656	76.88
363.882	72.88
364.109	89.88
364.335	78.88
364.562	83.88
364.788	65.88
365.015	74.88
365.241	68.88
365.468	71.88
365.694	90.88
365.92	83.88
366.147	79.88
366.373	75.88
366.599	80.88
366.826	81.88
367.052	75.88
367.278	72.88
367.505	73.88
367.731	89.88
367.957	83.88
368.184	77.88
368.41	79.88
368.636	84.88
368.862	79.88
369.089	80.88
369.315	81.88
369.541	94.88
369.767	73.88
369.993	69.88
370.219	69.88
370.445	82.88
370.672	64.88
370.898	64.88
371.124	62.88
371.35	69.88
371.576	69.88
371.802	68.88
372.028	99.88
372.254	77.88
372.48	78.88
372.706	74.88
372.932	77.88
373.158	65.88
373.384	82.88
373.61	93.88
373.835	75.88
374.061	86.88
374.287	73.88
374.513	82.88
374.739	73.88
374.965	73.88
375.191	81.88
375.416	76.88
375.642	86.88
375.868	79.88
376.094	67.88
376.319	71.88
376.545	72.88
376.771	71.88
376.997	78.88
377.222	78.88
377.448	76.88
377.674	84.88
377.899	69.88
378.125	63.88
378.35	60.88
378.576	68.88
378.802	71.88
379.027	80.88
379.253	75.88
379.478	70.88
379.704	70.88
379.929	88.88
380.155	76.88
380.38	72.88
380.606	84.88
380.831	83.88
381.057	86.88
381.282	66.88
381.507	97.88
381.733	82.88
381.958	84.88
382.184	61.88
382.409	83.88
382.634	87.88
382.86	65.88
383.085	71.88
383.31	65.88
383.535	87.88
383.761	77.88
383.986	75.88
384.211	77.88
384.436	84.88
384.662	90.88
384.887	69.88
385.112	76.88
385.337	71.88
385.562	91.88
385.787	78.88
386.013	81.88
386.238	86.88
386.463	84.88
386.688	86.88
386.913	73.88
387.138	64.88
387.363	80.88
387.588	76.88
387.813	73.88
388.038	64.88
388.263	79.88
388.488	73.88
388.713	76.88
388.938	75.88
389.163	76.88
389.387	68.88
389.612	70.88
389.837	73.88
390.062	58.88
390.287	73.88
390.512	73.88
390.736	75.88
390.961	81.88
391.186	87.88
391.411	87.88
391.636	74.88
391.86	73.88
392.085	91.88
392.31	82.88
392.534	80.88
392.759	64.88
392.984	83.88
393.208	81.88
393.433	83.88
393.658	73.88
393.882	77.88
394.107	75.88
394.331	65.88
394.556	76.88
394.78	83.88
395.005	64.88
395.229	77.88
395.454	81.88
395.678	76.88
395.903	77.88
396.127	87.88
396.352	71.88
396.576	67.88
396.801	90.88
397.025	66.88
397.249	82.88
397.474	69.88
397.698	81.88
397.922	82.88
398.147	52.88
398.371	70.88
398.595	85.88
398.82	85.88
399.044	82.88
399.268	77.88
399.492	71.88
399.717	78.88
399.941	79.88
400.165	68.88
400.389	90.88
400.613	82.88
400.837	91.88
401.062	82.88
401.286	77.88
401.51	74.88
401.734	63.88
401.958	74.88
402.182	81.88
402.406	66.88
402.63	83.88
402.854	87.88
403.078	73.88
403.302	86.88
403.526	69.88
403.75	86.88
403.974	74.88
404.198	80.88
404.422	89.88
404.645	103.88
404.869	84.88
405.093	69.88
405.317	72.88
405.541	71.88
405.765	76.88
405.988	68.88
406.212	70.88
406.436	79.88
406.66	85.88
406.883	77.88
407.107	76.88
407.331	79.88
407.555	71.88
407.778	60.88
408.002	66.88
408.226	88.88
408.449	69.88
408.673	75.88
408.896	63.88
409.12	83.88
409.344	72.88
409.567	68.88
409.791	69.88
410.014	61.88
410.238	76.88
410.461	69.88
410.685	71.88
410.908	94.88
411.132	75.88
411.355	79.88
411.578	71.88
411.802	72.88
412.025	79.88
412.249	80.88
412.472	81.88
412.695	78.88
412.919	65.88
413.142	73.88
413.365	73.88
413.589	78.88
413.812	76.88
414.035	78.88
414.258	67.88
414.482	74.88
414.705	66.88
414.928	80.88
415.151	81.88
415.374	79.88
415.597	75.88
415.821	87.88
416.044	70.88
416.267	79.88
416.49	75.88
416.713	77.88
416.936	76.88
417.159	69.88
417.382	73.88
417.605	73.88
417.828	84.88
418.051	63.88
418.274	70.88
418.497	70.88
418.72	72.88
418.943	87.88
419.166	73.88
419.389	75.88
419.611	83.88
419.834	66.88
420.057	65.88
420.28	64.88
420.503	76.88
420.726	66.88
420.948	69.88
421.171	69.88
421.394	86.88
421.617	83.88
421.839	78.88
422.062	66.88
422.285	59.88
422.507	63.88
422.73	95.88
422.953	81.88
423.175	85.88
423.398	70.88
423.621	78.88
423.843	81.88
424.066	67.88
424.288	80.88
424.511	71.88
424.733	80.88
424.956	71.88
425.178	74.88
425.401	86.88
425.623	69.88
425.846	66.88
426.068	71.88
426.291	75.88
426.513	76.88
426.735	60.88
426.958	69.88
427.18	65.88
427.402	71.88
427.625	68.88
427.847	72.88
428.069	83.88
428.292	80.88
428.514	76.88
428.736	72.88
428.958	76.88
429.181	77.88
429.403	80.88
429.625	80.88
429.847	63.88
430.069	82.88
430.292	79.88
430.514	82.88
430.736	79.88
430.958	68.88
431.18	91.88
431.402	79.88
431.624	96.88
431.846	74.88
432.068	89.88
432.29	86.88
432.512	69.88
432.734	66.88
432.956	81.88
433.178	87.88
433.4	68.88
433.622	89.88
433.844	71.88
434.066	69.88
434.287	79.88
434.509	65.88
434.731	76.88
434.953	66.88
435.175	63.88
435.397	74.88
435.618	60.88
435.84	69.88
436.062	84.88
436.284	75.88
436.505	83.88
436.727	84.88
436.949	65.88
437.17	69.88
437.392	65.88
437.614	80.88
437.835	71.88
438.057	66.88
438.278	66.88
438.5	50.88
438.721	84.88
438.943	67.88
439.165	63.88
439.386	79.88
439.608	73.88
439.829	74.88
440.05	65.88
440.272	69.88
440.493	79.88
440.715	80.88
440.936	88.88
441.158	77.88
441.379	66.88
441.6	63.88
441.822	67.88
442.043	73.88
442.264	74.88
442.486	63.88
442.707	67.88
442.928	72.88
443.149	55.88
443.371	73.88
443.592	62.88
443.813	84.88
444.034	70.88
444.255	78.88
444.476	76.88
444.698	82.88
444.919	79.88
445.14	145.88
445.361	111.88
445.582	83.88
445.803	89.88
446.024	87.88
446.245	82.88
446.466	71.88
446.687	66.88
446.908	75.88
447.129	75.88
447.35	80.88
447.571	69.88
447.792	80.88
448.013	79.88
448.234	72.88
448.455	71.88
448.675	86.88
448.896	77.88
449.117	69.88
449.338	73.88
449.559	72.88
449.779	60.88
450	73.88
450.221	73.88
450.442	75.88
450.662	70.88
450.883	94.88
451.104	76.88
451.324	67.88
451.545	80.88
451.766	88.88
451.986	77.88
452.207	77.88
452.428	83.88
452.648	75.88
452.869	70.88
453.089	83.88
453.31	75.88
453.53	73.88
453.751	91.88
453.971	75.88
454.192	88.88
454.412	66.88
454.633	76.88
454.853	65.88
455.073	79.88
455.294	79.88
455.514	92.88
455.734	65.88
455.955	87.88
456.175	67.88
456.395	77.88
456.616	67.88
456.836	70.88
457.056	82.88
457.276	79.88
457.497	71.88
457.717	78.88
457.937	92.88
458.157	76.88
458.377	78.88
458.598	63.88
458.818	74.88
459.038	77.88
459.258	73.88
459.478	92.88
459.698	71.88
459.918	84.88
460.138	80.88
460.358	69.88
460.578	78.88
460.798	87.88
461.018	91.88
461.238	96.88
461.458	77.88
461.678	81.88
461.898	76.88
462.118	70.88
462.338	71.88
462.558	73.88
462.777	79.88
462.997	64.88
463.217	77.88
463.437	77.88
463.657	81.88
463.876	80.88
464.096	80.88
464.316	79.88
464.536	70.88
464.755	73.88
464.975	83.88
465.195	66.88
465.414	71.88
465.634	71.88
465.854	81.88
466.073	74.88
466.293	72.88
466.512	74.88
466.732	70.88
466.951	74.88
467.171	70.88
467.391	71.88
467.61	84.88
467.829	75.88
468.049	61.88
468.268	70.88
468.488	79.88
468.707	77.88
468.927	74.88
469.146	67.88
469.365	69.88
469.585	55.88
469.804	82.88
470.023	80.88
470.243	76.88
470.462	76.88
470.681	80.88
470.901	80.88
471.12	80.88
471.339	86.88
471.558	86.88
471.777	67.88
471.997	79.88
472.216	78.88
472.435	60.88
472.654	75.88
472.873	91.88
473.092	63.88
473.311	73.88
473.53	67.88
473.749	94.88
473.968	80.88
474.187	81.88
474.406	79.88
474.625	83.88
474.844	86.88
475.063	66.88
475.282	63.88
475.501	68.88
475.72	84.88
475.939	70.88
476.158	80.88
476.377	70.88
476.596	83.88
476.814	71.88
477.033	69.88
477.252	75.88
477.471	69.88
477.69	66.88
477.908	75.88
478.127	75.88
478.346	70.88
478.564	75.88
478.783	84.88
479.002	71.88
479.22	69.88
479.439	65.88
479.658	61.88
479.876	81.88
480.095	83.88
480.313	91.88
480.532	77.88
480.751	74.88
480.969	72.88
481.188	80.88
481.406	76.88
481.624	73.88
481.843	89.88
482.061	71.88
482.28	75.88
482.498	83.88
482.717	84.88
482.935	77.88
483.153	80.88
483.372	62.88
483.59	71.88
483.808	67.88
484.027	67.88
484.245	79.88
484.463	64.88
484.681	71.88
484.9	80.88
485.118	91.88
485.336	85.88
485.554	73.88
485.772	81.88
485.99	75.88
486.209	73.88
486.427	70.88
486.645	76.88
486.863	99.88
487.081	64.88
487.299	68.88
487.517	75.88
487.735	72.88
487.953	68.88
488.171	92.88
488.389	83.88
488.607	79.88
488.825	82.88
489.043	75.88
489.261	79.88
489.479	82.88
489.696	80.88
489.914	75.88
490.132	81.88
490.35	84.88
490.568	77.88
490.786	67.88
491.003	78.88
491.221	72.88
491.439	75.88
491.657	72.88
491.874	69.88
492.092	78.88
492.31	67.88
492.527	64.88
492.745	84.88
492.963	79.88
493.18	74.88
493.398	85.88
493.615	74.88
493.833	81.88
494.05	79.88
494.268	75.88
494.485	78.88
494.703	91.88
494.92	77.88
495.138	77.88
495.355	73.88
495.573	61.88
495.79	68.88
496.008	74.88
496.225	69.88
496.442	78.88
496.66	71.88
496.877	82.88
497.094	78.88
497.312	63.88
497.529	66.88
497.746	76.88
497.963	86.88
498.181	74.88
498.398	67.88
498.615	91.88
498.832	84.88
499.049	82.88
499.267	76.88
499.484	78.88
499.701	89.88
499.918	88.88
500.135	76.88
500.352	82.88
500.569	80.88
500.786	76.88
501.003	78.88
501.22	73.88
501.437	78.88
501.654	69.88
501.871	80.88
502.088	93.88
502.305	88.88
502.522	82.88
502.739	81.88
502.956	80.88
503.172	71.88
503.389	69.88
503.606	83.88
503.823	71.88
504.04	83.88
504.256	79.88
504.473	76.88
504.69	72.88
504.907	96.88
505.123	83.88
505.34	78.88
505.557	75.88
505.773	71.88
505.99	78.88
506.207	72.88
506.423	77.88
506.64	80.88
506.856	85.88
507.073	69.88
507.289	82.88
507.506	86.88
507.722	79.88
507.939	79.88
508.155	76.88
508.372	67.88
508.588	77.88
508.805	78.88
509.021	75.88
509.238	85.88
509.454	83.88
509.67	69.88
509.887	88.88
510.103	79.88
510.319	86.88
510.536	77.88
510.752	73.88
510.968	83.88
511.184	90.88
511.401	58.88
511.617	59.88
511.833	64.88
512.049	64.88
512.265	74.88
512.481	72.88
512.698	84.88
512.914	83.88
513.13	64.88
513.346	69.88
513.562	71.88
513.778	81.88
513.994	82.88
514.21	92.88
514.426	75.88
514.642	81.88
514.858	77.88
515.074	87.88
515.29	90.88
515.506	77.88
515.721	79.88
515.937	74.88
516.153	81.88
516.369	77.88
516.585	86.88
516.801	87.88
517.016	91.88
517.232	84.88
517.448	70.88
517.664	88.88
517.879	71.88
518.095	80.88
518.311	75.88
518.527	68.88
518.742	70.88
518.958	77.88
519.173	79.88
519.389	69.88
519.605	73.88
519.82	78.88
520.036	73.88
520.251	81.88
520.467	69.88
520.682	82.88
520.898	75.88
521.113	75.88
521.329	82.88
521.544	78.88
521.76	70.88
521.975	82.88
522.19	78.88
522.406	82.88
522.621	76.88
522.836	85.88
523.052	66.88
523.267	81.88
523.482	69.88
523.698	82.88
523.913	73.88
524.128	67.88
524.343	87.88
524.559	93.88
524.774	77.88
524.989	82.88
525.204	82.88
525.419	78.88
525.634	82.88
525.849	73.88
526.064	92.88
526.28	68.88
526.495	85.88
526.71	78.88
526.925	80.88
527.14	93.88
527.355	84.88
527.57	89.88
527.785	89.88
527.999	64.88
528.214	71.88
528.429	80.88
528.644	80.88
528.859	77.88
529.074	78.88
529.289	84.88
529.503	77.88
529.718	80.88
529.933	85.88
530.148	70.88
530.363	76.88
530.577	87.88
530.792	67.88
531.007	83.88
531.221	101.88
531.436	63.88
531.651	85.88
531.865	82.88
532.08	75.88
532.295	75.88
532.509	68.88
532.724	89.88
532.938	83.88
533.153	71.88
533.367	78.88
533.582	77.88
533.796	85.88
534.011	78.88
534.225	73.88
534.44	81.88
534.654	74.88
534.868	73.88
535.083	73.88
535.297	97.88
535.511	91.88
535.726	82.88
535.94	71.88
536.154	75.88
536.369	82.88
536.583	75.88
536.797	75.88
537.011	82.88
537.225	66.88
537.44	99.88
537.654	72.88
537.868	74.88
538.082	85.88
538.296	84.88
538.51	80.88
538.724	77.88
538.938	83.88
539.153	76.88
539.367	82.88
539.581	75.88
539.795	74.88
540.009	83.88
540.222	93.88
540.436	89.88
540.65	80.88
540.864	86.88
541.078	83.88
541.292	65.88
541.506	66.88
541.72	87.88
541.934	88.88
542.147	78.88
542.361	77.88
542.575	74.88
542.789	71.88
543.002	76.88
543.216	69.88
543.43	63.88
543.644	84.88
543.857	77.88
544.071	82.88
544.285	70.88
544.498	69.88
544.712	83.88
544.925	85.88
545.139	78.88
545.352	95.88
545.566	89.88
545.779	79.88
545.993	72.88
546.206	79.88
546.42	81.88
546.633	82.88
546.847	82.88
547.06	82.88
547.274	76.88
547.487	75.88
547.7	89.88
547.914	80.88
548.127	73.88
548.34	73.88
548.554	69.88
548.767	91.88
548.98	89.88
549.193	91.88
549.407	68.88
549.62	92.88
549.833	66.88
550.046	87.88
550.259	79.88
550.473	98.88
550.686	91.88
550.899	84.88
551.112	78.88
551.325	81.88
551.538	67.88
551.751	83.88
551.964	89.88
552.177	71.88
552.39	77.88
552.603	75.88
552.816	60.88
553.029	86.88
553.242	80.88
553.455	81.88
553.667	85.88
553.88	71.88
554.093	77.88
554.306	85.88
554.519	91.88
554.732	71.88
554.944	80.88
555.157	69.88
555.37	72.88
555.583	79.88
555.795	78.88
556.008	82.88
556.221	79.88
556.433	78.88
556.646	81.88
556.859	84.88
557.071	82.88
557.284	69.88
557.496	67.88
557.709	77.88
557.921	87.88
558.134	70.88
558.346	85.88
558.559	75.88
558.771	89.88
558.984	87.88
559.196	83.88
559.409	90.88
559.621	83.88
559.833	79.88
560.046	81.88
560.258	69.88
560.47	78.88
560.683	74.88
560.895	84.88
561.107	69.88
561.32	85.88
561.532	67.88
561.744	74.88
561.956	59.88
562.168	88.88
562.381	81.88
562.593	75.88
562.805	85.88
563.017	66.88
563.229	83.88
563.441	74.88
563.653	80.88
563.865	70.88
564.077	93.88
564.289	81.88
564.501	83.88
564.713	87.88
564.925	69.88
565.137	94.88
565.349	78.88
565.561	79.88
565.773	85.88
565.985	83.88
566.197	75.88
566.408	93.88
566.62	75.88
566.832	84.88
567.044	98.88
567.255	81.88
567.467	96.88
567.679	89.88
567.891	87.88
568.102	75.88
568.314	90.88
568.526	92.88
568.737	81.88
568.949	87.88
569.161	74.88
569.372	79.88
569.584	76.88
569.795	81.88
570.007	79.88
570.218	91.88
570.43	74.88
570.641	85.88
570.853	65.88
571.064	73.88
571.276	67.88
571.487	81.88
571.698	93.88
571.91	82.88
572.121	76.88
572.333	82.88
572.544	80.88
572.755	75.88
572.966	81.88
573.178	80.88
573.389	83.88
573.6	73.88
573.811	75.88
574.023	67.88
574.234	69.88
574.445	79.88
574.656	69.88
574.867	68.88
575.078	71.88
575.289	76.88
575.501	84.88
575.712	89.88
575.923	86.88
576.134	75.88
576.345	79.88
576.556	92.88
576.767	93.88
576.978	86.88
577.188	77.88
577.399	84.88
577.61	76.88
577.821	81.88
578.032	79.88
578.243	82.88
578.454	83.88
578.665	92.88
578.875	84.88
579.086	85.88
579.297	61.88
579.508	88.88
579.718	70.88
579.929	88.88
580.14	81.88
580.35	77.88
580.561	85.88
580.772	84.88
580.982	62.88
581.193	70.88
581.403	89.88
581.614	82.88
581.825	71.88
582.035	87.88
582.246	69.88
582.456	84.88
582.667	65.88
582.877	83.88
583.087	82.88
583.298	86.88
583.508	80.88
583.719	66.88
583.929	83.88
584.139	81.88
584.35	92.88
584.56	87.88
584.77	79.88
584.981	82.88
585.191	74.88
585.401	81.88
585.611	73.88
585.821	77.88
586.032	78.88
586.242	69.88
586.452	74.88
586.662	89.88
586.872	80.88
587.082	87.88
587.292	67.88
587.502	74.88
587.713	82.88
587.923	70.88
588.133	78.88
588.343	78.88
588.553	64.88
588.762	91.88
588.972	119.88
589.182	206.88
589.392	156.88
589.602	131.88
589.812	189.88
590.022	110.88
590.232	84.88
590.441	76.88
590.651	95.88
590.861	83.88
591.071	87.88
591.281	94.88
591.49	91.88
591.7	66.88
591.91	67.88
592.119	84.88
592.329	83.88
592.539	74.88
592.748	85.88
592.958	75.88
593.167	71.88
593.377	77.88
593.587	98.88
593.796	75.88
594.006	87.88
594.215	72.88
594.424	88.88
594.634	67.88
594.843	84.88
595.053	66.88
595.262	75.88
595.472	75.88
595.681	78.88
595.89	82.88
596.1	62.88
596.309	62.88
596.518	80.88
596.727	85.88
596.937	86.88
597.146	69.88
597.355	83.88
597.564	78.88
597.774	85.88
597.983	83.88
598.192	79.88
598.401	65.88
598.61	79.88
598.819	97.88
599.028	84.88
599.237	81.88
599.446	81.88
599.655	72.88
599.864	79.88
600.073	88.88
600.282	73.88
600.491	80.88
600.7	84.88
600.909	88.88
601.118	78.88
601.327	82.88
601.536	82.88
601.745	77.88
601.953	81.88
602.162	80.88
602.371	75.88
602.58	90.88
602.789	85.88
602.997	71.88
603.206	78.88
603.415	101.88
603.623	88.88
603.832	72.88
604.041	83.88
604.249	84.88
604.458	77.88
604.666	92.88
604.875	70.88
605.084	79.88
605.292	95.88
605.501	78.88
605.709	90.88
605.918	64.88
606.126	83.88
606.334	73.88
606.543	78.88
606.751	92.88
606.96	81.88
607.168	83.88
607.376	76.88
607.585	89.88
607.793	77.88
608.001	77.88
608.21	81.88
608.418	91.88
608.626	76.88
608.834	81.88
609.043	65.88
609.251	82.88
609.459	91.88
609.667	77.88
609.875	83.88
610.083	91.88
610.291	84.88
610.499	83.88
610.707	67.88
610.916	67.88
611.124	89.88
611.332	75.88
611.54	67.88
611.748	81.88
611.955	70.88
612.163	73.88
612.371	89.88
612.579	87.88
612.787	69.88
612.995	99.88
613.203	85.88
613.411	97.88
613.618	81.88
613.826	77.88
614.034	83.88
614.242	83.88
614.449	87.88
614.657	72.88
614.865	69.88
615.072	76.88
615.28	86.88
615.488	83.88
615.695	73.88
615.903	89.88
616.111	87.88
616.318	70.88
616.526	82.88
616.733	83.88
616.941	70.88
617.148	76.88
617.356	79.88
617.563	84.88
617.771	75.88
617.978	87.88
618.185	84.88
618.393	98.88
618.6	83.88
618.807	89.88
619.015	70.88
619.222	75.88
619.429	80.88
619.637	74.88
619.844	68.88
620.051	74.88
620.258	75.88
620.466	73.88
620.673	85.88
620.88	73.88
621.087	81.88
621.294	86.88
621.501	85.88
621.708	65.88
621.915	82.88
622.122	87.88
622.329	87.88
622.536	82.88
622.743	88.88
622.95	98.88
623.157	71.88
623.364	92.88
623.571	82.88
623.778	77.88
623.985	69.88
624.192	76.88
624.399	65.88
624.606	77.88
624.812	78.88
625.019	75.88
625.226	83.88
625.433	78.88
625.639	89.88
625.846	77.88
626.053	87.88
626.259	89.88
626.466	87.88
626.673	78.88
626.879	78.88
627.086	88.88
627.293	78.88
627.499	79.88
627.706	76.88
627.912	82.88
628.119	80.88
628.325	80.88
628.532	92.88
628.738	86.88
628.945	83.88
629.151	75.88
629.357	82.88
629.564	76.88
629.77	82.88
629.976	83.88
630.183	75.88
630.389	70.88
630.595	78.88
630.802	64.88
631.008	79.88
631.214	84.88
631.42	82.88
631.627	98.88
631.833	80.88
632.039	95.88
632.245	73.88
632.451	81.88
632.657	70.88
632.863	71.88
633.069	66.88
633.275	82.88
633.481	101.88
633.688	77.88
633.893	84.88
634.099	79.88
634.305	69.88
634.511	93.88
634.717	81.88
634.923	86.88
635.129	83.88
635.335	75.88
635.541	82.88
635.747	76.88
635.952	83.88
636.158	73.88
636.364	78.88
636.57	70.88
636.775	75.88
636.981	66.88
637.187	76.88
637.392	71.88
637.598	73.88
637.804	58.88
638.009	85.88
638.215	89.88
638.421	79.88
638.626	81.88
638.832	73.88
639.037	82.88
639.243	81.88
639.448	75.88
639.654	97.88
639.859	77.88
640.065	75.88
640.27	88.88
640.475	71.88
640.681	73.88
640.886	69.88
641.091	75.88
641.297	80.88
641.502	80.88
641.707	79.88
641.913	87.88
642.118	66.88
642.323	72.88
642.528	86.88
642.733	82.88
642.939	82.88
643.144	81.88
643.349	81.88
643.554	82.88
643.759	82.88
643.964	91.88
644.169	79.88
644.374	65.88
644.579	79.88
644.784	85.88
644.989	91.88
645.194	70.88
645.399	72.88
645.604	78.88
645.809	72.88
646.014	72.88
646.219	86.88
646.423	79.88
646.628	75.88
646.833	77.88
647.038	77.88
647.243	76.88
647.447	81.88
647.652	63.88
647.857	70.88
648.062	77.88
648.266	79.88
648.471	65.88
648.676	77.88
648.88	89.88
649.085	77.88
649.289	73.88
649.494	81.88
649.698	82.88
649.903	64.88
650.107	89.88
650.312	85.88
650.516	75.88
650.721	78.88
650.925	69.88
651.13	71.88
651.334	66.88
651.539	81.88
651.743	84.88
651.947	69.88
652.152	69.88
652.356	61.88
652.56	71.88
652.764	73.88
652.969	91.88
653.173	81.88
653.377	71.88
653.581	82.88
653.785	71.88
653.99	71.88
654.194	79.88
654.398	87.88
654.602	81.88
654.806	65.88
655.01	78.88
655.214	66.88
655.418	92.88
655.622	64.88
655.826	73.88
656.03	67.88
656.234	78.88
656.438	66.88
656.642	69.88
656.846	75.88
657.049	72.88
657.253	75.88
657.457	78.88
657.661	70.88
657.865	75.88
658.068	81.88
658.272	77.88
658.476	80.88
658.68	74.88
658.883	83.88
659.087	80.88
659.291	74.88
659.494	96.88
659.698	85.88
659.901	78.88
660.105	83.88
660.309	78.88
660.512	70.88
660.716	92.88
660.919	76.88
661.123	75.88
661.326	69.88
661.53	66.88
661.733	75.88
661.936	83.88
662.14	78.88
662.343	81.88
662.546	80.88
662.75	73.88
662.953	83.88
663.156	83.88
663.36	80.88
663.563	68.88
663.766	81.88
663.969	86.88
664.173	81.88
664.376	74.88
664.579	78.88
664.782	81.88
664.985	81.88
665.188	74.88
665.391	74.88
665.594	75.88
665.797	81.88
666	75.88
666.203	86.88
666.406	69.88
666.609	74.88
666.812	81.88
667.015	81.88
667.218	78.88
667.421	79.88
667.624	67.88
667.827	74.88
668.03	71.88
668.232	74.88
668.435	85.88
668.638	68.88
668.841	96.88
669.043	73.88
669.246	72.88
669.449	82.88
669.651	83.88
669.854	77.88
670.057	75.88
670.259	75.88
670.462	73.88
670.665	75.88
670.867	69.88
671.07	87.88
671.272	87.88
671.475	90.88
671.677	73.88
671.88	94.88
672.082	67.88
672.284	73.88
672.487	65.88
672.689	66.88
672.892	69.88
