Data from 10100_3_HRD10591_00038.txt Node
Date: Mon Jan 19 14:02:41 EST 2026
User: Yrep
Spectrometer: HR+D1059
Trigger mode: 1
Integration Time (sec): 1.000000E-1
Scans to average: 1
Electric dark correction enabled: true
Nonlinearity correction enabled: false
Boxcar width: 0
XAxis mode: Wavelengths
Number of Pixels in Spectrum: 2048
>>>>>Begin Spectral Data<<<<<
223.165	-15.31
223.4	-15.31
223.635	-15.31
223.869	-32.31
224.104	-22.31
224.338	-8.31
224.573	-15.31
224.808	-16.31
225.042	-4.31
225.277	-8.31
225.511	4.69
225.746	8.69
225.98	-3.31
226.215	4.69
226.449	27.69
226.683	16.69
226.918	26.69
227.152	36.69
227.387	30.69
227.621	16.69
227.856	51.69
228.09	42.69
228.324	49.69
228.559	57.69
228.793	52.69
229.027	50.69
229.262	54.69
229.496	59.69
229.73	68.69
229.964	88.69
230.199	75.69
230.433	64.69
230.667	72.69
230.901	83.69
231.136	102.69
231.37	87.69
231.604	87.69
231.838	70.69
232.072	84.69
232.306	87.69
232.541	80.69
232.775	91.69
233.009	74.69
233.243	72.69
233.477	76.69
233.711	83.69
233.945	69.69
234.179	81.69
234.413	81.69
234.647	80.69
234.881	81.69
235.115	77.69
235.349	86.69
235.583	87.69
235.817	86.69
236.051	73.69
236.285	60.69
236.519	73.69
236.753	65.69
236.987	71.69
237.221	85.69
237.455	59.69
237.689	73.69
237.922	73.69
238.156	66.69
238.39	72.69
238.624	66.69
238.858	74.69
239.091	74.69
239.325	71.69
239.559	74.69
239.793	76.69
240.027	79.69
240.26	90.69
240.494	84.69
240.728	75.69
240.961	70.69
241.195	83.69
241.429	72.69
241.662	70.69
241.896	68.69
242.13	74.69
242.363	77.69
242.597	67.69
242.83	90.69
243.064	86.69
243.298	86.69
243.531	82.69
243.765	74.69
243.998	87.69
244.232	77.69
244.465	81.69
244.699	71.69
244.932	77.69
245.166	78.69
245.399	86.69
245.633	74.69
245.866	85.69
246.099	86.69
246.333	86.69
246.566	83.69
246.8	79.69
247.033	73.69
247.266	87.69
247.5	82.69
247.733	86.69
247.966	86.69
248.2	96.69
248.433	83.69
248.666	75.69
248.899	81.69
249.133	72.69
249.366	84.69
249.599	80.69
249.832	63.69
250.066	78.69
250.299	71.69
250.532	80.69
250.765	78.69
250.998	74.69
251.231	66.69
251.465	87.69
251.698	82.69
251.931	66.69
252.164	66.69
252.397	68.69
252.63	101.69
252.863	77.69
253.096	78.69
253.329	76.69
253.562	86.69
253.795	65.69
254.028	79.69
254.261	94.69
254.494	74.69
254.727	77.69
254.96	80.69
255.193	79.69
255.426	71.69
255.659	76.69
255.892	84.69
256.124	68.69
256.357	84.69
256.59	76.69
256.823	60.69
257.056	65.69
257.289	76.69
257.521	70.69
257.754	72.69
257.987	75.69
258.22	83.69
258.452	85.69
258.685	81.69
258.918	86.69
259.151	79.69
259.383	75.69
259.616	81.69
259.849	72.69
260.081	87.69
260.314	76.69
260.547	88.69
260.779	76.69
261.012	79.69
261.244	82.69
261.477	80.69
261.71	71.69
261.942	78.69
262.175	81.69
262.407	75.69
262.64	88.69
262.872	70.69
263.105	90.69
263.337	102.69
263.57	81.69
263.802	84.69
264.035	92.69
264.267	69.69
264.499	82.69
264.732	80.69
264.964	82.69
265.197	78.69
265.429	92.69
265.661	82.69
265.894	88.69
266.126	70.69
266.358	94.69
266.591	76.69
266.823	71.69
267.055	75.69
267.287	69.69
267.52	82.69
267.752	94.69
267.984	85.69
268.216	85.69
268.448	81.69
268.681	90.69
268.913	90.69
269.145	96.69
269.377	71.69
269.609	91.69
269.841	95.69
270.073	68.69
270.306	83.69
270.538	79.69
270.77	94.69
271.002	84.69
271.234	73.69
271.466	81.69
271.698	92.69
271.93	70.69
272.162	82.69
272.394	96.69
272.626	76.69
272.858	82.69
273.09	76.69
273.322	74.69
273.553	89.69
273.785	85.69
274.017	64.69
274.249	90.69
274.481	86.69
274.713	70.69
274.945	92.69
275.176	74.69
275.408	90.69
275.64	86.69
275.872	70.69
276.104	86.69
276.335	85.69
276.567	101.69
276.799	95.69
277.031	86.69
277.262	91.69
277.494	93.69
277.726	89.69
277.957	86.69
278.189	88.69
278.421	102.69
278.652	90.69
278.884	74.69
279.115	92.69
279.347	99.69
279.579	80.69
279.81	75.69
280.042	96.69
280.273	90.69
280.505	93.69
280.736	80.69
280.968	84.69
281.199	83.69
281.431	90.69
281.662	79.69
281.894	91.69
282.125	79.69
282.356	90.69
282.588	82.69
282.819	87.69
283.051	81.69
283.282	85.69
283.513	74.69
283.745	74.69
283.976	93.69
284.207	94.69
284.439	83.69
284.67	83.69
284.901	82.69
285.132	76.69
285.364	86.69
285.595	79.69
285.826	77.69
286.057	85.69
286.288	81.69
286.52	82.69
286.751	96.69
286.982	78.69
287.213	75.69
287.444	79.69
287.675	85.69
287.906	92.69
288.138	79.69
288.369	97.69
288.6	98.69
288.831	75.69
289.062	90.69
289.293	79.69
289.524	103.69
289.755	91.69
289.986	97.69
290.217	104.69
290.448	83.69
290.679	86.69
290.91	84.69
291.141	91.69
291.371	90.69
291.602	79.69
291.833	87.69
292.064	84.69
292.295	80.69
292.526	78.69
292.757	86.69
292.987	96.69
293.218	77.69
293.449	77.69
293.68	86.69
293.91	88.69
294.141	85.69
294.372	79.69
294.603	82.69
294.833	106.69
295.064	96.69
295.295	85.69
295.525	84.69
295.756	79.69
295.987	75.69
296.217	80.69
296.448	71.69
296.679	81.69
296.909	87.69
297.14	80.69
297.37	69.69
297.601	80.69
297.831	97.69
298.062	86.69
298.292	94.69
298.523	98.69
298.753	75.69
298.984	104.69
299.214	97.69
299.445	89.69
299.675	105.69
299.905	86.69
300.136	75.69
300.366	80.69
300.597	90.69
300.827	89.69
301.057	102.69
301.288	77.69
301.518	94.69
301.748	76.69
301.979	94.69
302.209	76.69
302.439	82.69
302.669	90.69
302.9	84.69
303.13	76.69
303.36	92.69
303.59	82.69
303.82	93.69
304.051	86.69
304.281	84.69
304.511	93.69
304.741	86.69
304.971	83.69
305.201	94.69
305.431	89.69
305.661	74.69
305.891	86.69
306.121	98.69
306.352	75.69
306.582	113.69
306.812	78.69
307.042	90.69
307.272	93.69
307.502	90.69
307.731	83.69
307.961	81.69
308.191	96.69
308.421	94.69
308.651	103.69
308.881	86.69
309.111	79.69
309.341	84.69
309.571	71.69
309.8	81.69
310.03	88.69
310.26	93.69
310.49	73.69
310.72	87.69
310.949	85.69
311.179	79.69
311.409	90.69
311.639	78.69
311.868	91.69
312.098	79.69
312.328	75.69
312.557	78.69
312.787	80.69
313.017	77.69
313.246	80.69
313.476	93.69
313.706	96.69
313.935	92.69
314.165	80.69
314.394	87.69
314.624	81.69
314.853	88.69
315.083	88.69
315.312	84.69
315.542	88.69
315.771	82.69
316.001	97.69
316.23	95.69
316.46	89.69
316.689	88.69
316.919	89.69
317.148	87.69
317.377	86.69
317.607	89.69
317.836	104.69
318.065	86.69
318.295	90.69
318.524	97.69
318.753	88.69
318.983	95.69
319.212	97.69
319.441	90.69
319.67	85.69
319.9	84.69
320.129	80.69
320.358	94.69
320.587	106.69
320.816	92.69
321.046	97.69
321.275	103.69
321.504	85.69
321.733	86.69
321.962	108.69
322.191	80.69
322.42	84.69
322.649	93.69
322.878	80.69
323.108	88.69
323.337	93.69
323.566	95.69
323.795	89.69
324.024	89.69
324.253	94.69
324.482	94.69
324.71	92.69
324.939	80.69
325.168	88.69
325.397	94.69
325.626	93.69
325.855	86.69
326.084	81.69
326.313	102.69
326.542	88.69
326.77	90.69
326.999	96.69
327.228	76.69
327.457	98.69
327.686	91.69
327.914	95.69
328.143	81.69
328.372	86.69
328.6	92.69
328.829	88.69
329.058	84.69
329.287	81.69
329.515	86.69
329.744	97.69
329.972	96.69
330.201	88.69
330.43	84.69
330.658	91.69
330.887	86.69
331.115	80.69
331.344	91.69
331.572	88.69
331.801	86.69
332.03	95.69
332.258	97.69
332.486	81.69
332.715	95.69
332.943	95.69
333.172	88.69
333.4	79.69
333.629	82.69
333.857	93.69
334.085	106.69
334.314	89.69
334.542	88.69
334.771	90.69
334.999	80.69
335.227	88.69
335.455	98.69
335.684	100.69
335.912	81.69
336.14	85.69
336.369	89.69
336.597	80.69
336.825	84.69
337.053	86.69
337.281	105.69
337.51	87.69
337.738	79.69
337.966	96.69
338.194	80.69
338.422	82.69
338.65	90.69
338.878	91.69
339.106	92.69
339.334	85.69
339.562	104.69
339.79	87.69
340.018	82.69
340.246	88.69
340.474	86.69
340.702	91.69
340.93	96.69
341.158	96.69
341.386	88.69
341.614	96.69
341.842	76.69
342.07	76.69
342.298	97.69
342.526	83.69
342.754	91.69
342.981	98.69
343.209	78.69
343.437	101.69
343.665	90.69
343.893	82.69
344.12	80.69
344.348	105.69
344.576	85.69
344.804	81.69
345.031	84.69
345.259	98.69
345.487	88.69
345.714	81.69
345.942	80.69
346.17	94.69
346.397	87.69
346.625	75.69
346.853	95.69
347.08	96.69
347.308	86.69
347.535	93.69
347.763	104.69
347.99	94.69
348.218	97.69
348.445	82.69
348.673	92.69
348.9	105.69
349.128	82.69
349.355	82.69
349.583	76.69
349.81	85.69
350.037	77.69
350.265	86.69
350.492	87.69
350.72	89.69
350.947	82.69
351.174	76.69
351.402	84.69
351.629	84.69
351.856	83.69
352.083	83.69
352.311	84.69
352.538	79.69
352.765	96.69
352.992	90.69
353.22	92.69
353.447	80.69
353.674	79.69
353.901	87.69
354.128	75.69
354.355	75.69
354.583	85.69
354.81	71.69
355.037	82.69
355.264	82.69
355.491	82.69
355.718	84.69
355.945	84.69
356.172	90.69
356.399	79.69
356.626	82.69
356.853	78.69
357.08	90.69
357.307	86.69
357.534	91.69
357.761	98.69
357.988	87.69
358.215	85.69
358.441	81.69
358.668	85.69
358.895	95.69
359.122	89.69
359.349	87.69
359.576	94.69
359.802	79.69
360.029	89.69
360.256	80.69
360.483	75.69
360.709	83.69
360.936	95.69
361.163	95.69
361.39	87.69
361.616	83.69
361.843	88.69
362.07	77.69
362.296	76.69
362.523	91.69
362.749	84.69
362.976	98.69
363.203	84.69
363.429	91.69
363.656	107.69
363.882	91.69
364.109	104.69
364.335	99.69
364.562	104.69
364.788	105.69
365.015	84.69
365.241	81.69
365.468	91.69
365.694	88.69
365.92	92.69
366.147	74.69
366.373	71.69
366.599	87.69
366.826	87.69
367.052	77.69
367.278	82.69
367.505	80.69
367.731	99.69
367.957	90.69
368.184	87.69
368.41	89.69
368.636	94.69
368.862	75.69
369.089	86.69
369.315	97.69
369.541	100.69
369.767	94.69
369.993	102.69
370.219	82.69
370.445	80.69
370.672	94.69
370.898	94.69
371.124	85.69
371.35	77.69
371.576	100.69
371.802	91.69
372.028	72.69
372.254	91.69
372.48	83.69
372.706	77.69
372.932	71.69
373.158	91.69
373.384	89.69
373.61	91.69
373.835	95.69
374.061	92.69
374.287	83.69
374.513	94.69
374.739	83.69
374.965	94.69
375.191	94.69
375.416	87.69
375.642	89.69
375.868	94.69
376.094	96.69
376.319	87.69
376.545	102.69
376.771	89.69
376.997	83.69
377.222	83.69
377.448	94.69
377.674	81.69
377.899	89.69
378.125	91.69
378.35	93.69
378.576	95.69
378.802	92.69
379.027	84.69
379.253	86.69
379.478	91.69
379.704	93.69
379.929	61.69
380.155	79.69
380.38	82.69
380.606	90.69
380.831	84.69
381.057	88.69
381.282	97.69
381.507	94.69
381.733	73.69
381.958	95.69
382.184	98.69
382.409	87.69
382.634	83.69
382.86	79.69
383.085	86.69
383.31	90.69
383.535	72.69
383.761	92.69
383.986	86.69
384.211	84.69
384.436	92.69
384.662	88.69
384.887	84.69
385.112	83.69
385.337	71.69
385.562	92.69
385.787	102.69
386.013	87.69
386.238	87.69
386.463	97.69
386.688	95.69
386.913	80.69
387.138	84.69
387.363	87.69
387.588	82.69
387.813	80.69
388.038	68.69
388.263	84.69
388.488	104.69
388.713	96.69
388.938	89.69
389.163	82.69
389.387	78.69
389.612	89.69
389.837	91.69
390.062	91.69
390.287	99.69
390.512	84.69
390.736	84.69
390.961	80.69
391.186	81.69
391.411	84.69
391.636	96.69
391.86	84.69
392.085	89.69
392.31	106.69
392.534	91.69
392.759	111.69
392.984	129.69
393.208	120.69
393.433	154.69
393.658	137.69
393.882	96.69
394.107	83.69
394.331	82.69
394.556	89.69
394.78	82.69
395.005	84.69
395.229	89.69
395.454	91.69
395.678	83.69
395.903	93.69
396.127	99.69
396.352	98.69
396.576	110.69
396.801	132.69
397.025	123.69
397.249	103.69
397.474	90.69
397.698	98.69
397.922	86.69
398.147	97.69
398.371	95.69
398.595	86.69
398.82	75.69
399.044	84.69
399.268	83.69
399.492	88.69
399.717	89.69
399.941	84.69
400.165	94.69
400.389	73.69
400.613	80.69
400.837	78.69
401.062	79.69
401.286	70.69
401.51	76.69
401.734	76.69
401.958	82.69
402.182	89.69
402.406	88.69
402.63	81.69
402.854	85.69
403.078	76.69
403.302	88.69
403.526	97.69
403.75	84.69
403.974	86.69
404.198	91.69
404.422	105.69
404.645	81.69
404.869	88.69
405.093	77.69
405.317	80.69
405.541	86.69
405.765	74.69
405.988	82.69
406.212	86.69
406.436	68.69
406.66	98.69
406.883	96.69
407.107	88.69
407.331	79.69
407.555	82.69
407.778	87.69
408.002	94.69
408.226	72.69
408.449	74.69
408.673	78.69
408.896	77.69
409.12	68.69
409.344	92.69
409.567	99.69
409.791	92.69
410.014	81.69
410.238	93.69
410.461	87.69
410.685	77.69
410.908	90.69
411.132	88.69
411.355	88.69
411.578	93.69
411.802	56.69
412.025	72.69
412.249	60.69
412.472	82.69
412.695	84.69
412.919	84.69
413.142	90.69
413.365	84.69
413.589	84.69
413.812	84.69
414.035	87.69
414.258	85.69
414.482	91.69
414.705	91.69
414.928	83.69
415.151	84.69
415.374	80.69
415.597	89.69
415.821	76.69
416.044	87.69
416.267	78.69
416.49	96.69
416.713	97.69
416.936	86.69
417.159	84.69
417.382	82.69
417.605	80.69
417.828	96.69
418.051	88.69
418.274	87.69
418.497	68.69
418.72	78.69
418.943	80.69
419.166	83.69
419.389	81.69
419.611	86.69
419.834	86.69
420.057	82.69
420.28	82.69
420.503	79.69
420.726	78.69
420.948	84.69
421.171	84.69
421.394	89.69
421.617	94.69
421.839	96.69
422.062	105.69
422.285	106.69
422.507	143.69
422.73	198.69
422.953	178.69
423.175	128.69
423.398	118.69
423.621	87.69
423.843	94.69
424.066	86.69
424.288	80.69
424.511	82.69
424.733	79.69
424.956	97.69
425.178	76.69
425.401	89.69
425.623	87.69
425.846	74.69
426.068	77.69
426.291	83.69
426.513	79.69
426.735	83.69
426.958	85.69
427.18	97.69
427.402	78.69
427.625	88.69
427.847	82.69
428.069	84.69
428.292	100.69
428.514	89.69
428.736	94.69
428.958	87.69
429.181	98.69
429.403	74.69
429.625	86.69
429.847	101.69
430.069	99.69
430.292	115.69
430.514	94.69
430.736	77.69
430.958	98.69
431.18	77.69
431.402	82.69
431.624	90.69
431.846	99.69
432.068	90.69
432.29	85.69
432.512	87.69
432.734	88.69
432.956	95.69
433.178	74.69
433.4	89.69
433.622	91.69
433.844	86.69
434.066	70.69
434.287	71.69
434.509	83.69
434.731	80.69
434.953	69.69
435.175	89.69
435.397	91.69
435.618	74.69
435.84	79.69
436.062	90.69
436.284	87.69
436.505	82.69
436.727	78.69
436.949	82.69
437.17	77.69
437.392	78.69
437.614	84.69
437.835	89.69
438.057	86.69
438.278	88.69
438.5	99.69
438.721	84.69
438.943	82.69
439.165	71.69
439.386	81.69
439.608	89.69
439.829	80.69
440.05	80.69
440.272	74.69
440.493	81.69
440.715	91.69
440.936	81.69
441.158	84.69
441.379	88.69
441.6	83.69
441.822	87.69
442.043	86.69
442.264	85.69
442.486	97.69
442.707	104.69
442.928	90.69
443.149	88.69
443.371	101.69
443.592	138.69
443.813	130.69
444.034	83.69
444.255	87.69
444.476	75.69
444.698	98.69
444.919	90.69
445.14	165.69
445.361	132.69
445.582	155.69
445.803	136.69
446.024	100.69
446.245	73.69
446.466	76.69
446.687	73.69
446.908	82.69
447.129	80.69
447.35	72.69
447.571	88.69
447.792	84.69
448.013	61.69
448.234	65.69
448.455	86.69
448.675	76.69
448.896	78.69
449.117	82.69
449.338	71.69
449.559	96.69
449.779	83.69
450	80.69
450.221	76.69
450.442	74.69
450.662	72.69
450.883	71.69
451.104	84.69
451.324	86.69
451.545	79.69
451.766	84.69
451.986	97.69
452.207	85.69
452.428	83.69
452.648	85.69
452.869	88.69
453.089	97.69
453.31	85.69
453.53	70.69
453.751	86.69
453.971	78.69
454.192	69.69
454.412	88.69
454.633	81.69
454.853	73.69
455.073	82.69
455.294	79.69
455.514	91.69
455.734	86.69
455.955	90.69
456.175	80.69
456.395	82.69
456.616	81.69
456.836	68.69
457.056	92.69
457.276	94.69
457.497	86.69
457.717	95.69
457.937	95.69
458.157	92.69
458.377	82.69
458.598	78.69
458.818	86.69
459.038	86.69
459.258	83.69
459.478	74.69
459.698	92.69
459.918	82.69
460.138	85.69
460.358	78.69
460.578	86.69
460.798	93.69
461.018	92.69
461.238	84.69
461.458	87.69
461.678	83.69
461.898	75.69
462.118	85.69
462.338	74.69
462.558	75.69
462.777	67.69
462.997	70.69
463.217	87.69
463.437	72.69
463.657	74.69
463.876	76.69
464.096	79.69
464.316	82.69
464.536	91.69
464.755	80.69
464.975	82.69
465.195	82.69
465.414	75.69
465.634	93.69
465.854	94.69
466.073	65.69
466.293	84.69
466.512	75.69
466.732	90.69
466.951	80.69
467.171	85.69
467.391	80.69
467.61	83.69
467.829	69.69
468.049	75.69
468.268	79.69
468.488	75.69
468.707	83.69
468.927	78.69
469.146	83.69
469.365	76.69
469.585	84.69
469.804	90.69
470.023	87.69
470.243	76.69
470.462	91.69
470.681	71.69
470.901	75.69
471.12	77.69
471.339	82.69
471.558	88.69
471.777	90.69
471.997	75.69
472.216	89.69
472.435	81.69
472.654	75.69
472.873	86.69
473.092	85.69
473.311	92.69
473.53	90.69
473.749	75.69
473.968	85.69
474.187	81.69
474.406	77.69
474.625	99.69
474.844	93.69
475.063	83.69
475.282	82.69
475.501	82.69
475.72	95.69
475.939	76.69
476.158	74.69
476.377	88.69
476.596	90.69
476.814	71.69
477.033	76.69
477.252	90.69
477.471	83.69
477.69	79.69
477.908	85.69
478.127	77.69
478.346	91.69
478.564	80.69
478.783	63.69
479.002	85.69
479.22	90.69
479.439	75.69
479.658	85.69
479.876	71.69
480.095	77.69
480.313	77.69
480.532	76.69
480.751	92.69
480.969	78.69
481.188	83.69
481.406	87.69
481.624	68.69
481.843	87.69
482.061	82.69
482.28	80.69
482.498	82.69
482.717	86.69
482.935	80.69
483.153	72.69
483.372	83.69
483.59	94.69
483.808	70.69
484.027	94.69
484.245	68.69
484.463	96.69
484.681	88.69
484.9	89.69
485.118	81.69
485.336	81.69
485.554	72.69
485.772	80.69
485.99	90.69
486.209	94.69
486.427	83.69
486.645	92.69
486.863	98.69
487.081	83.69
487.299	86.69
487.517	83.69
487.735	96.69
487.953	113.69
488.171	100.69
488.389	82.69
488.607	107.69
488.825	82.69
489.043	70.69
489.261	86.69
489.479	78.69
489.696	86.69
489.914	78.69
490.132	76.69
490.35	94.69
490.568	77.69
490.786	79.69
491.003	95.69
491.221	85.69
491.439	80.69
491.657	88.69
491.874	77.69
492.092	96.69
492.31	80.69
492.527	78.69
492.745	79.69
492.963	72.69
493.18	72.69
493.398	78.69
493.615	100.69
493.833	72.69
494.05	83.69
494.268	85.69
494.485	75.69
494.703	73.69
494.92	98.69
495.138	80.69
495.355	87.69
495.573	89.69
495.79	89.69
496.008	68.69
496.225	84.69
496.442	82.69
496.66	81.69
496.877	103.69
497.094	93.69
497.312	89.69
497.529	91.69
497.746	93.69
497.963	82.69
498.181	77.69
498.398	87.69
498.615	98.69
498.832	85.69
499.049	88.69
499.267	85.69
499.484	76.69
499.701	78.69
499.918	81.69
500.135	81.69
500.352	81.69
500.569	67.69
500.786	91.69
501.003	88.69
501.22	82.69
501.437	88.69
501.654	87.69
501.871	72.69
502.088	69.69
502.305	75.69
502.522	87.69
502.739	86.69
502.956	81.69
503.172	86.69
503.389	85.69
503.606	90.69
503.823	87.69
504.04	81.69
504.256	111.69
504.473	92.69
504.69	67.69
504.907	94.69
505.123	76.69
505.34	79.69
505.557	90.69
505.773	78.69
505.99	71.69
506.207	74.69
506.423	79.69
506.64	90.69
506.856	88.69
507.073	87.69
507.289	87.69
507.506	79.69
507.722	92.69
507.939	83.69
508.155	83.69
508.372	71.69
508.588	78.69
508.805	78.69
509.021	83.69
509.238	88.69
509.454	74.69
509.67	80.69
509.887	70.69
510.103	79.69
510.319	71.69
510.536	83.69
510.752	99.69
510.968	86.69
511.184	82.69
511.401	70.69
511.617	80.69
511.833	74.69
512.049	82.69
512.265	94.69
512.481	74.69
512.698	84.69
512.914	85.69
513.13	90.69
513.346	71.69
513.562	79.69
513.778	84.69
513.994	87.69
514.21	78.69
514.426	86.69
514.642	82.69
514.858	77.69
515.074	76.69
515.29	78.69
515.506	90.69
515.721	70.69
515.937	94.69
516.153	84.69
516.369	83.69
516.585	82.69
516.801	83.69
517.016	88.69
517.232	76.69
517.448	90.69
517.664	90.69
517.879	75.69
518.095	68.69
518.311	72.69
518.527	86.69
518.742	90.69
518.958	96.69
519.173	116.69
519.389	105.69
519.605	98.69
519.82	71.69
520.036	80.69
520.251	90.69
520.467	94.69
520.682	84.69
520.898	98.69
521.113	83.69
521.329	82.69
521.544	91.69
521.76	88.69
521.975	74.69
522.19	76.69
522.406	75.69
522.621	84.69
522.836	90.69
523.052	85.69
523.267	77.69
523.482	81.69
523.698	89.69
523.913	81.69
524.128	80.69
524.343	75.69
524.559	88.69
524.774	79.69
524.989	92.69
525.204	86.69
525.419	74.69
525.634	87.69
525.849	94.69
526.064	96.69
526.28	121.69
526.495	156.69
526.71	171.69
526.925	141.69
527.14	160.69
527.355	129.69
527.57	96.69
527.785	90.69
527.999	88.69
528.214	101.69
528.429	94.69
528.644	90.69
528.859	93.69
529.074	82.69
529.289	78.69
529.503	82.69
529.718	86.69
529.933	92.69
530.148	91.69
530.363	95.69
530.577	85.69
530.792	77.69
531.007	84.69
531.221	84.69
531.436	86.69
531.651	84.69
531.865	94.69
532.08	93.69
532.295	72.69
532.509	78.69
532.724	76.69
532.938	90.69
533.153	92.69
533.367	86.69
533.582	91.69
533.796	81.69
534.011	83.69
534.225	85.69
534.44	92.69
534.654	87.69
534.868	99.69
535.083	92.69
535.297	104.69
535.511	95.69
535.726	104.69
535.94	89.69
536.154	102.69
536.369	88.69
536.583	103.69
536.797	98.69
537.011	94.69
537.225	85.69
537.44	88.69
537.654	85.69
537.868	100.69
538.082	100.69
538.296	96.69
538.51	77.69
538.724	92.69
538.938	93.69
539.153	104.69
539.367	88.69
539.581	98.69
539.795	100.69
540.009	87.69
540.222	81.69
540.436	98.69
540.65	84.69
540.864	105.69
541.078	90.69
541.292	93.69
541.506	94.69
541.72	96.69
541.934	100.69
542.147	96.69
542.361	74.69
542.575	98.69
542.789	93.69
543.002	93.69
543.216	85.69
543.43	81.69
543.644	86.69
543.857	91.69
544.071	90.69
544.285	94.69
544.498	95.69
544.712	90.69
544.925	98.69
545.139	92.69
545.352	91.69
545.566	95.69
545.779	85.69
545.993	103.69
546.206	105.69
546.42	96.69
546.633	82.69
546.847	100.69
547.06	105.69
547.274	95.69
547.487	112.69
547.7	126.69
547.914	108.69
548.127	114.69
548.34	128.69
548.554	122.69
548.767	122.69
548.98	104.69
549.193	117.69
549.407	131.69
549.62	127.69
549.833	116.69
550.046	139.69
550.259	139.69
550.473	138.69
550.686	161.69
550.899	147.69
551.112	153.69
551.325	162.69
551.538	176.69
551.751	169.69
551.964	160.69
552.177	151.69
552.39	155.69
552.603	159.69
552.816	144.69
553.029	149.69
553.242	160.69
553.455	158.69
553.667	162.69
553.88	178.69
554.093	182.69
554.306	164.69
554.519	189.69
554.732	167.69
554.944	179.69
555.157	150.69
555.37	175.69
555.583	162.69
555.795	162.69
556.008	124.69
556.221	150.69
556.433	151.69
556.646	148.69
556.859	131.69
557.071	127.69
557.284	135.69
557.496	116.69
557.709	116.69
557.921	108.69
558.134	138.69
558.346	136.69
558.559	126.69
558.771	113.69
558.984	180.69
559.196	201.69
559.409	141.69
559.621	166.69
559.833	143.69
560.046	159.69
560.258	139.69
560.47	134.69
560.683	114.69
560.895	104.69
561.107	100.69
561.32	95.69
561.532	97.69
561.744	108.69
561.956	93.69
562.168	94.69
562.381	103.69
562.593	94.69
562.805	92.69
563.017	94.69
563.229	99.69
563.441	97.69
563.653	88.69
563.865	92.69
564.077	91.69
564.289	94.69
564.501	87.69
564.713	89.69
564.925	89.69
565.137	85.69
565.349	100.69
565.561	90.69
565.773	92.69
565.985	91.69
566.197	100.69
566.408	95.69
566.62	84.69
566.832	93.69
567.044	90.69
567.255	98.69
567.467	97.69
567.679	80.69
567.891	81.69
568.102	96.69
568.314	86.69
568.526	86.69
568.737	91.69
568.949	88.69
569.161	84.69
569.372	92.69
569.584	81.69
569.795	97.69
570.007	80.69
570.218	104.69
570.43	96.69
570.641	97.69
570.853	90.69
571.064	96.69
571.276	91.69
571.487	77.69
571.698	104.69
571.91	90.69
572.121	85.69
572.333	96.69
572.544	96.69
572.755	87.69
572.966	102.69
573.178	91.69
573.389	94.69
573.6	98.69
573.811	84.69
574.023	84.69
574.234	95.69
574.445	89.69
574.656	90.69
574.867	100.69
575.078	90.69
575.289	86.69
575.501	89.69
575.712	94.69
575.923	88.69
576.134	98.69
576.345	88.69
576.556	82.69
576.767	86.69
576.978	93.69
577.188	96.69
577.399	80.69
577.61	82.69
577.821	90.69
578.032	79.69
578.243	88.69
578.454	83.69
578.665	94.69
578.875	88.69
579.086	89.69
579.297	87.69
579.508	94.69
579.718	86.69
579.929	70.69
580.14	70.69
580.35	107.69
580.561	91.69
580.772	99.69
580.982	99.69
581.193	99.69
581.403	79.69
581.614	89.69
581.825	92.69
582.035	84.69
582.246	97.69
582.456	97.69
582.667	99.69
582.877	86.69
583.087	97.69
583.298	100.69
583.508	77.69
583.719	90.69
583.929	86.69
584.139	91.69
584.35	98.69
584.56	82.69
584.77	86.69
584.981	100.69
585.191	88.69
585.401	94.69
585.611	98.69
585.821	117.69
586.032	139.69
586.242	122.69
586.452	94.69
586.662	116.69
586.872	104.69
587.082	98.69
587.292	99.69
587.502	104.69
587.713	94.69
587.923	90.69
588.133	96.69
588.343	99.69
588.553	92.69
588.762	104.69
588.972	135.69
589.182	215.69
589.392	192.69
589.602	155.69
589.812	184.69
590.022	147.69
590.232	110.69
590.441	92.69
590.651	89.69
590.861	91.69
591.071	107.69
591.281	88.69
591.49	88.69
591.7	104.69
591.91	110.69
592.119	88.69
592.329	83.69
592.539	104.69
592.748	94.69
592.958	99.69
593.167	105.69
593.377	103.69
593.587	105.69
593.796	106.69
594.006	97.69
594.215	112.69
594.424	112.69
594.634	112.69
594.843	98.69
595.053	100.69
595.262	116.69
595.472	115.69
595.681	103.69
595.89	111.69
596.1	125.69
596.309	116.69
596.518	127.69
596.727	133.69
596.937	121.69
597.146	122.69
597.355	119.69
597.564	132.69
597.774	118.69
597.983	124.69
598.192	112.69
598.401	127.69
598.61	122.69
598.819	126.69
599.028	107.69
599.237	131.69
599.446	120.69
599.655	125.69
599.864	124.69
600.073	125.69
600.282	128.69
600.491	120.69
600.7	141.69
600.909	133.69
601.118	123.69
601.327	120.69
601.536	105.69
601.745	129.69
601.953	110.69
602.162	124.69
602.371	117.69
602.58	120.69
602.789	136.69
602.997	145.69
603.206	118.69
603.415	122.69
603.623	127.69
603.832	118.69
604.041	111.69
604.249	132.69
604.458	138.69
604.666	137.69
604.875	132.69
605.084	132.69
605.292	128.69
605.501	119.69
605.709	126.69
605.918	127.69
606.126	145.69
606.334	142.69
606.543	134.69
606.751	141.69
606.96	141.69
607.168	139.69
607.376	140.69
607.585	127.69
607.793	112.69
608.001	137.69
608.21	131.69
608.418	139.69
608.626	135.69
608.834	121.69
609.043	128.69
609.251	143.69
609.459	146.69
609.667	128.69
609.875	149.69
610.083	126.69
610.291	147.69
610.499	178.69
610.707	130.69
610.916	142.69
611.124	136.69
611.332	140.69
611.54	136.69
611.748	146.69
611.955	150.69
612.163	147.69
612.371	203.69
612.579	159.69
612.787	162.69
612.995	158.69
613.203	152.69
613.411	148.69
613.618	140.69
613.826	161.69
614.034	140.69
614.242	152.69
614.449	165.69
614.657	145.69
614.865	142.69
615.072	132.69
615.28	128.69
615.488	163.69
615.695	155.69
615.903	156.69
616.111	145.69
616.318	207.69
616.526	235.69
616.733	163.69
616.941	158.69
617.148	182.69
617.356	170.69
617.563	166.69
617.771	149.69
617.978	147.69
618.185	149.69
618.393	148.69
618.6	155.69
618.807	132.69
619.015	152.69
619.222	151.69
619.429	168.69
619.637	131.69
619.844	136.69
620.051	152.69
620.258	137.69
620.466	134.69
620.673	148.69
620.88	141.69
621.087	136.69
621.294	137.69
621.501	161.69
621.708	164.69
621.915	146.69
622.122	144.69
622.329	140.69
622.536	143.69
622.743	156.69
622.95	151.69
623.157	141.69
623.364	146.69
623.571	144.69
623.778	144.69
623.985	160.69
624.192	146.69
624.399	150.69
624.606	144.69
624.812	155.69
625.019	139.69
625.226	131.69
625.433	159.69
625.639	140.69
625.846	135.69
626.053	129.69
626.259	142.69
626.466	126.69
626.673	145.69
626.879	123.69
627.086	125.69
627.293	106.69
627.499	116.69
627.706	119.69
627.912	123.69
628.119	119.69
628.325	107.69
628.532	110.69
628.738	102.69
628.945	112.69
629.151	99.69
629.357	94.69
629.564	108.69
629.77	100.69
629.976	89.69
630.183	99.69
630.389	98.69
630.595	97.69
630.802	108.69
631.008	105.69
631.214	93.69
631.42	106.69
631.627	98.69
631.833	95.69
632.039	101.69
632.245	95.69
632.451	87.69
632.657	86.69
632.863	99.69
633.069	96.69
633.275	91.69
633.481	91.69
633.688	79.69
633.893	95.69
634.099	82.69
634.305	95.69
634.511	104.69
634.717	96.69
634.923	99.69
635.129	102.69
635.335	98.69
635.541	85.69
635.747	90.69
635.952	81.69
636.158	95.69
636.364	99.69
636.57	106.69
636.775	97.69
636.981	107.69
637.187	95.69
637.392	93.69
637.598	98.69
637.804	88.69
638.009	101.69
638.215	80.69
638.421	74.69
638.626	94.69
638.832	99.69
639.037	95.69
639.243	78.69
639.448	84.69
639.654	99.69
639.859	75.69
640.065	91.69
640.27	95.69
640.475	101.69
640.681	96.69
640.886	92.69
641.091	79.69
641.297	100.69
641.502	72.69
641.707	99.69
641.913	95.69
642.118	86.69
642.323	74.69
642.528	95.69
642.733	98.69
642.939	100.69
643.144	96.69
643.349	99.69
643.554	100.69
643.759	99.69
643.964	114.69
644.169	104.69
644.374	93.69
644.579	90.69
644.784	92.69
644.989	113.69
645.194	118.69
645.399	105.69
645.604	92.69
645.809	95.69
646.014	96.69
646.219	92.69
646.423	104.69
646.628	102.69
646.833	85.69
647.038	98.69
647.243	90.69
647.447	95.69
647.652	107.69
647.857	100.69
648.062	98.69
648.266	90.69
648.471	87.69
648.676	98.69
648.88	94.69
649.085	87.69
649.289	99.69
649.494	97.69
649.698	103.69
649.903	107.69
650.107	96.69
650.312	107.69
650.516	101.69
650.721	89.69
650.925	82.69
651.13	96.69
651.334	71.69
651.539	84.69
651.743	82.69
651.947	83.69
652.152	77.69
652.356	71.69
652.56	87.69
652.764	77.69
652.969	81.69
653.173	71.69
653.377	84.69
653.581	89.69
653.785	91.69
653.99	105.69
654.194	90.69
654.398	88.69
654.602	75.69
654.806	84.69
655.01	98.69
655.214	98.69
655.418	94.69
655.622	76.69
655.826	80.69
656.03	96.69
656.234	90.69
656.438	94.69
656.642	82.69
656.846	76.69
657.049	80.69
657.253	72.69
657.457	94.69
657.661	96.69
657.865	83.69
658.068	73.69
658.272	106.69
658.476	88.69
658.68	87.69
658.883	88.69
659.087	89.69
659.291	72.69
659.494	74.69
659.698	90.69
659.901	82.69
660.105	92.69
660.309	63.69
660.512	82.69
660.716	94.69
660.919	99.69
661.123	99.69
661.326	85.69
661.53	91.69
661.733	97.69
661.936	82.69
662.14	90.69
662.343	91.69
662.546	79.69
662.75	84.69
662.953	94.69
663.156	80.69
663.36	72.69
663.563	78.69
663.766	77.69
663.969	80.69
664.173	86.69
664.376	96.69
664.579	87.69
664.782	69.69
664.985	88.69
665.188	88.69
665.391	72.69
665.594	78.69
665.797	86.69
666	92.69
666.203	86.69
666.406	77.69
666.609	82.69
666.812	86.69
667.015	90.69
667.218	80.69
667.421	88.69
667.624	83.69
667.827	75.69
668.03	83.69
668.232	84.69
668.435	80.69
668.638	93.69
668.841	88.69
669.043	94.69
669.246	86.69
669.449	75.69
669.651	85.69
669.854	90.69
670.057	77.69
670.259	91.69
670.462	86.69
670.665	86.69
670.867	81.69
671.07	87.69
671.272	83.69
671.475	92.69
671.677	92.69
671.88	87.69
672.082	70.69
672.284	88.69
672.487	100.69
672.689	84.69
672.892	86.69
