Data from 10100_3_HRD10591_00031.txt Node
Date: Mon Jan 19 14:02:38 EST 2026
User: Yrep
Spectrometer: HR+D1059
Trigger mode: 1
Integration Time (sec): 1.000000E-1
Scans to average: 1
Electric dark correction enabled: true
Nonlinearity correction enabled: false
Boxcar width: 0
XAxis mode: Wavelengths
Number of Pixels in Spectrum: 2048
>>>>>Begin Spectral Data<<<<<
223.165	-18.38
223.4	-18.38
223.635	-18.38
223.869	-21.38
224.104	-18.38
224.338	-17.38
224.573	-26.38
224.808	-0.38
225.042	-20.38
225.277	-19.38
225.511	-5.38
225.746	5.62
225.98	21.62
226.215	-3.38
226.449	29.62
226.683	18.62
226.918	38.62
227.152	36.62
227.387	30.62
227.621	44.62
227.856	39.62
228.09	58.62
228.324	43.62
228.559	59.62
228.793	69.62
229.027	49.62
229.262	60.62
229.496	64.62
229.73	81.62
229.964	76.62
230.199	85.62
230.433	83.62
230.667	70.62
230.901	65.62
231.136	61.62
231.37	79.62
231.604	80.62
231.838	78.62
232.072	67.62
232.306	76.62
232.541	73.62
232.775	87.62
233.009	85.62
233.243	76.62
233.477	85.62
233.711	84.62
233.945	79.62
234.179	98.62
234.413	77.62
234.647	82.62
234.881	88.62
235.115	76.62
235.349	72.62
235.583	77.62
235.817	76.62
236.051	78.62
236.285	89.62
236.519	81.62
236.753	87.62
236.987	85.62
237.221	73.62
237.455	75.62
237.689	74.62
237.922	73.62
238.156	68.62
238.39	75.62
238.624	65.62
238.858	71.62
239.091	82.62
239.325	73.62
239.559	80.62
239.793	73.62
240.027	72.62
240.26	77.62
240.494	89.62
240.728	76.62
240.961	83.62
241.195	85.62
241.429	71.62
241.662	77.62
241.896	91.62
242.13	88.62
242.363	83.62
242.597	72.62
242.83	85.62
243.064	74.62
243.298	83.62
243.531	74.62
243.765	77.62
243.998	75.62
244.232	65.62
244.465	73.62
244.699	81.62
244.932	72.62
245.166	70.62
245.399	90.62
245.633	70.62
245.866	67.62
246.099	71.62
246.333	80.62
246.566	101.62
246.8	81.62
247.033	90.62
247.266	81.62
247.5	84.62
247.733	85.62
247.966	83.62
248.2	80.62
248.433	71.62
248.666	85.62
248.899	63.62
249.133	87.62
249.366	87.62
249.599	65.62
249.832	68.62
250.066	71.62
250.299	72.62
250.532	91.62
250.765	87.62
250.998	87.62
251.231	85.62
251.465	76.62
251.698	72.62
251.931	78.62
252.164	78.62
252.397	95.62
252.63	82.62
252.863	89.62
253.096	92.62
253.329	73.62
253.562	80.62
253.795	93.62
254.028	76.62
254.261	74.62
254.494	84.62
254.727	87.62
254.96	85.62
255.193	92.62
255.426	75.62
255.659	74.62
255.892	80.62
256.124	76.62
256.357	77.62
256.59	81.62
256.823	88.62
257.056	75.62
257.289	101.62
257.521	80.62
257.754	76.62
257.987	91.62
258.22	75.62
258.452	71.62
258.685	87.62
258.918	72.62
259.151	77.62
259.383	78.62
259.616	83.62
259.849	80.62
260.081	81.62
260.314	79.62
260.547	74.62
260.779	91.62
261.012	79.62
261.244	71.62
261.477	69.62
261.71	83.62
261.942	70.62
262.175	83.62
262.407	76.62
262.64	79.62
262.872	76.62
263.105	68.62
263.337	90.62
263.57	73.62
263.802	91.62
264.035	86.62
264.267	84.62
264.499	89.62
264.732	85.62
264.964	84.62
265.197	90.62
265.429	103.62
265.661	89.62
265.894	76.62
266.126	83.62
266.358	96.62
266.591	86.62
266.823	80.62
267.055	90.62
267.287	87.62
267.52	88.62
267.752	88.62
267.984	88.62
268.216	76.62
268.448	93.62
268.681	91.62
268.913	85.62
269.145	97.62
269.377	85.62
269.609	86.62
269.841	89.62
270.073	78.62
270.306	81.62
270.538	100.62
270.77	80.62
271.002	93.62
271.234	94.62
271.466	83.62
271.698	79.62
271.93	88.62
272.162	77.62
272.394	86.62
272.626	91.62
272.858	94.62
273.09	84.62
273.322	85.62
273.553	96.62
273.785	87.62
274.017	85.62
274.249	84.62
274.481	83.62
274.713	90.62
274.945	74.62
275.176	100.62
275.408	86.62
275.64	78.62
275.872	84.62
276.104	84.62
276.335	77.62
276.567	80.62
276.799	97.62
277.031	79.62
277.262	67.62
277.494	86.62
277.726	76.62
277.957	91.62
278.189	76.62
278.421	79.62
278.652	84.62
278.884	76.62
279.115	97.62
279.347	109.62
279.579	78.62
279.81	87.62
280.042	72.62
280.273	86.62
280.505	87.62
280.736	89.62
280.968	91.62
281.199	89.62
281.431	88.62
281.662	89.62
281.894	82.62
282.125	76.62
282.356	74.62
282.588	89.62
282.819	92.62
283.051	78.62
283.282	95.62
283.513	103.62
283.745	76.62
283.976	90.62
284.207	70.62
284.439	85.62
284.67	109.62
284.901	78.62
285.132	86.62
285.364	80.62
285.595	107.62
285.826	93.62
286.057	66.62
286.288	71.62
286.52	86.62
286.751	76.62
286.982	83.62
287.213	76.62
287.444	74.62
287.675	83.62
287.906	88.62
288.138	89.62
288.369	81.62
288.6	85.62
288.831	79.62
289.062	83.62
289.293	88.62
289.524	98.62
289.755	90.62
289.986	77.62
290.217	75.62
290.448	85.62
290.679	82.62
290.91	86.62
291.141	89.62
291.371	78.62
291.602	72.62
291.833	81.62
292.064	93.62
292.295	79.62
292.526	86.62
292.757	81.62
292.987	86.62
293.218	95.62
293.449	83.62
293.68	84.62
293.91	83.62
294.141	94.62
294.372	87.62
294.603	84.62
294.833	83.62
295.064	84.62
295.295	92.62
295.525	88.62
295.756	93.62
295.987	86.62
296.217	96.62
296.448	83.62
296.679	91.62
296.909	88.62
297.14	84.62
297.37	86.62
297.601	100.62
297.831	90.62
298.062	90.62
298.292	69.62
298.523	94.62
298.753	85.62
298.984	88.62
299.214	83.62
299.445	81.62
299.675	83.62
299.905	87.62
300.136	99.62
300.366	75.62
300.597	87.62
300.827	87.62
301.057	95.62
301.288	73.62
301.518	82.62
301.748	88.62
301.979	101.62
302.209	93.62
302.439	90.62
302.669	62.62
302.9	84.62
303.13	87.62
303.36	104.62
303.59	87.62
303.82	93.62
304.051	88.62
304.281	96.62
304.511	88.62
304.741	84.62
304.971	74.62
305.201	91.62
305.431	92.62
305.661	85.62
305.891	80.62
306.121	84.62
306.352	81.62
306.582	96.62
306.812	92.62
307.042	96.62
307.272	83.62
307.502	86.62
307.731	91.62
307.961	88.62
308.191	90.62
308.421	80.62
308.651	92.62
308.881	93.62
309.111	94.62
309.341	92.62
309.571	90.62
309.8	93.62
310.03	83.62
310.26	76.62
310.49	88.62
310.72	93.62
310.949	100.62
311.179	97.62
311.409	77.62
311.639	95.62
311.868	98.62
312.098	86.62
312.328	79.62
312.557	89.62
312.787	95.62
313.017	85.62
313.246	87.62
313.476	78.62
313.706	97.62
313.935	99.62
314.165	86.62
314.394	101.62
314.624	104.62
314.853	71.62
315.083	85.62
315.312	89.62
315.542	87.62
315.771	89.62
316.001	101.62
316.23	96.62
316.46	73.62
316.689	85.62
316.919	87.62
317.148	87.62
317.377	83.62
317.607	87.62
317.836	74.62
318.065	100.62
318.295	92.62
318.524	90.62
318.753	81.62
318.983	71.62
319.212	87.62
319.441	90.62
319.67	85.62
319.9	91.62
320.129	91.62
320.358	84.62
320.587	85.62
320.816	79.62
321.046	83.62
321.275	97.62
321.504	101.62
321.733	101.62
321.962	85.62
322.191	85.62
322.42	86.62
322.649	83.62
322.878	92.62
323.108	80.62
323.337	88.62
323.566	88.62
323.795	92.62
324.024	87.62
324.253	83.62
324.482	89.62
324.71	86.62
324.939	91.62
325.168	95.62
325.397	99.62
325.626	84.62
325.855	97.62
326.084	84.62
326.313	88.62
326.542	97.62
326.77	99.62
326.999	96.62
327.228	84.62
327.457	89.62
327.686	89.62
327.914	81.62
328.143	100.62
328.372	84.62
328.6	83.62
328.829	89.62
329.058	88.62
329.287	108.62
329.515	90.62
329.744	85.62
329.972	82.62
330.201	86.62
330.43	95.62
330.658	99.62
330.887	77.62
331.115	84.62
331.344	85.62
331.572	108.62
331.801	95.62
332.03	76.62
332.258	77.62
332.486	92.62
332.715	79.62
332.943	89.62
333.172	92.62
333.4	87.62
333.629	87.62
333.857	73.62
334.085	100.62
334.314	93.62
334.542	87.62
334.771	103.62
334.999	96.62
335.227	99.62
335.455	76.62
335.684	99.62
335.912	103.62
336.14	96.62
336.369	96.62
336.597	88.62
336.825	86.62
337.053	74.62
337.281	73.62
337.51	88.62
337.738	83.62
337.966	97.62
338.194	83.62
338.422	76.62
338.65	87.62
338.878	92.62
339.106	92.62
339.334	93.62
339.562	75.62
339.79	80.62
340.018	84.62
340.246	77.62
340.474	96.62
340.702	77.62
340.93	92.62
341.158	90.62
341.386	98.62
341.614	89.62
341.842	100.62
342.07	83.62
342.298	80.62
342.526	88.62
342.754	83.62
342.981	79.62
343.209	75.62
343.437	93.62
343.665	79.62
343.893	91.62
344.12	88.62
344.348	102.62
344.576	84.62
344.804	91.62
345.031	103.62
345.259	77.62
345.487	82.62
345.714	91.62
345.942	85.62
346.17	84.62
346.397	83.62
346.625	97.62
346.853	83.62
347.08	96.62
347.308	93.62
347.535	82.62
347.763	85.62
347.99	90.62
348.218	90.62
348.445	80.62
348.673	92.62
348.9	85.62
349.128	97.62
349.355	104.62
349.583	104.62
349.81	74.62
350.037	92.62
350.265	82.62
350.492	88.62
350.72	81.62
350.947	100.62
351.174	90.62
351.402	88.62
351.629	85.62
351.856	80.62
352.083	85.62
352.311	99.62
352.538	80.62
352.765	81.62
352.992	84.62
353.22	84.62
353.447	83.62
353.674	91.62
353.901	84.62
354.128	98.62
354.355	95.62
354.583	86.62
354.81	101.62
355.037	87.62
355.264	83.62
355.491	84.62
355.718	81.62
355.945	78.62
356.172	74.62
356.399	79.62
356.626	95.62
356.853	85.62
357.08	98.62
357.307	97.62
357.534	71.62
357.761	99.62
357.988	87.62
358.215	97.62
358.441	100.62
358.668	90.62
358.895	90.62
359.122	84.62
359.349	76.62
359.576	97.62
359.802	81.62
360.029	96.62
360.256	88.62
360.483	99.62
360.709	95.62
360.936	86.62
361.163	91.62
361.39	92.62
361.616	87.62
361.843	91.62
362.07	105.62
362.296	100.62
362.523	102.62
362.749	112.62
362.976	115.62
363.203	117.62
363.429	106.62
363.656	92.62
363.882	90.62
364.109	114.62
364.335	128.62
364.562	127.62
364.788	116.62
365.015	87.62
365.241	89.62
365.468	93.62
365.694	78.62
365.92	88.62
366.147	87.62
366.373	88.62
366.599	68.62
366.826	86.62
367.052	103.62
367.278	103.62
367.505	82.62
367.731	89.62
367.957	95.62
368.184	96.62
368.41	70.62
368.636	85.62
368.862	91.62
369.089	85.62
369.315	88.62
369.541	96.62
369.767	86.62
369.993	95.62
370.219	85.62
370.445	92.62
370.672	81.62
370.898	89.62
371.124	95.62
371.35	85.62
371.576	91.62
371.802	102.62
372.028	85.62
372.254	95.62
372.48	75.62
372.706	100.62
372.932	99.62
373.158	97.62
373.384	106.62
373.61	107.62
373.835	97.62
374.061	104.62
374.287	94.62
374.513	103.62
374.739	91.62
374.965	100.62
375.191	98.62
375.416	91.62
375.642	90.62
375.868	81.62
376.094	79.62
376.319	85.62
376.545	93.62
376.771	100.62
376.997	88.62
377.222	87.62
377.448	102.62
377.674	86.62
377.899	88.62
378.125	92.62
378.35	95.62
378.576	85.62
378.802	91.62
379.027	91.62
379.253	83.62
379.478	87.62
379.704	96.62
379.929	84.62
380.155	81.62
380.38	92.62
380.606	84.62
380.831	76.62
381.057	95.62
381.282	87.62
381.507	76.62
381.733	83.62
381.958	98.62
382.184	95.62
382.409	96.62
382.634	96.62
382.86	91.62
383.085	87.62
383.31	92.62
383.535	97.62
383.761	101.62
383.986	104.62
384.211	82.62
384.436	88.62
384.662	82.62
384.887	78.62
385.112	101.62
385.337	98.62
385.562	91.62
385.787	106.62
386.013	95.62
386.238	92.62
386.463	95.62
386.688	111.62
386.913	82.62
387.138	102.62
387.363	89.62
387.588	97.62
387.813	87.62
388.038	83.62
388.263	88.62
388.488	95.62
388.713	99.62
388.938	88.62
389.163	87.62
389.387	89.62
389.612	95.62
389.837	102.62
390.062	89.62
390.287	87.62
390.512	87.62
390.736	81.62
390.961	88.62
391.186	95.62
391.411	91.62
391.636	91.62
391.86	92.62
392.085	79.62
392.31	88.62
392.534	103.62
392.759	111.62
392.984	165.62
393.208	214.62
393.433	310.62
393.658	260.62
393.882	143.62
394.107	101.62
394.331	111.62
394.556	114.62
394.78	97.62
395.005	101.62
395.229	82.62
395.454	92.62
395.678	99.62
395.903	130.62
396.127	144.62
396.352	136.62
396.576	167.62
396.801	244.62
397.025	245.62
397.249	166.62
397.474	123.62
397.698	122.62
397.922	102.62
398.147	97.62
398.371	75.62
398.595	87.62
398.82	73.62
399.044	89.62
399.268	69.62
399.492	95.62
399.717	98.62
399.941	93.62
400.165	74.62
400.389	94.62
400.613	84.62
400.837	86.62
401.062	87.62
401.286	95.62
401.51	79.62
401.734	82.62
401.958	107.62
402.182	90.62
402.406	85.62
402.63	71.62
402.854	98.62
403.078	91.62
403.302	101.62
403.526	97.62
403.75	83.62
403.974	84.62
404.198	81.62
404.422	85.62
404.645	90.62
404.869	101.62
405.093	101.62
405.317	85.62
405.541	94.62
405.765	88.62
405.988	83.62
406.212	84.62
406.436	89.62
406.66	85.62
406.883	74.62
407.107	88.62
407.331	81.62
407.555	91.62
407.778	106.62
408.002	106.62
408.226	89.62
408.449	80.62
408.673	85.62
408.896	93.62
409.12	85.62
409.344	111.62
409.567	93.62
409.791	106.62
410.014	100.62
410.238	98.62
410.461	80.62
410.685	83.62
410.908	75.62
411.132	84.62
411.355	67.62
411.578	94.62
411.802	86.62
412.025	78.62
412.249	89.62
412.472	75.62
412.695	96.62
412.919	94.62
413.142	97.62
413.365	97.62
413.589	84.62
413.812	90.62
414.035	93.62
414.258	83.62
414.482	85.62
414.705	87.62
414.928	86.62
415.151	86.62
415.374	75.62
415.597	83.62
415.821	86.62
416.044	77.62
416.267	84.62
416.49	81.62
416.713	96.62
416.936	91.62
417.159	84.62
417.382	83.62
417.605	82.62
417.828	98.62
418.051	87.62
418.274	87.62
418.497	76.62
418.72	69.62
418.943	85.62
419.166	84.62
419.389	89.62
419.611	73.62
419.834	82.62
420.057	92.62
420.28	92.62
420.503	90.62
420.726	90.62
420.948	83.62
421.171	107.62
421.394	105.62
421.617	114.62
421.839	115.62
422.062	124.62
422.285	172.62
422.507	272.62
422.73	375.62
422.953	349.62
423.175	215.62
423.398	143.62
423.621	116.62
423.843	103.62
424.066	93.62
424.288	93.62
424.511	97.62
424.733	75.62
424.956	97.62
425.178	92.62
425.401	90.62
425.623	92.62
425.846	93.62
426.068	82.62
426.291	99.62
426.513	92.62
426.735	93.62
426.958	98.62
427.18	97.62
427.402	86.62
427.625	84.62
427.847	92.62
428.069	98.62
428.292	123.62
428.514	125.62
428.736	116.62
428.958	112.62
429.181	124.62
429.403	105.62
429.625	98.62
429.847	122.62
430.069	149.62
430.292	189.62
430.514	154.62
430.736	123.62
430.958	134.62
431.18	112.62
431.402	95.62
431.624	92.62
431.846	111.62
432.068	140.62
432.29	105.62
432.512	90.62
432.734	89.62
432.956	89.62
433.178	74.62
433.4	95.62
433.622	79.62
433.844	82.62
434.066	98.62
434.287	84.62
434.509	87.62
434.731	82.62
434.953	80.62
435.175	75.62
435.397	100.62
435.618	97.62
435.84	97.62
436.062	83.62
436.284	90.62
436.505	88.62
436.727	87.62
436.949	89.62
437.17	87.62
437.392	86.62
437.614	77.62
437.835	78.62
438.057	86.62
438.278	102.62
438.5	88.62
438.721	90.62
438.943	80.62
439.165	80.62
439.386	98.62
439.608	86.62
439.829	82.62
440.05	90.62
440.272	88.62
440.493	99.62
440.715	96.62
440.936	88.62
441.158	78.62
441.379	96.62
441.6	92.62
441.822	104.62
442.043	91.62
442.264	107.62
442.486	122.62
442.707	155.62
442.928	117.62
443.149	119.62
443.371	156.62
443.592	229.62
443.813	198.62
444.034	117.62
444.255	113.62
444.476	97.62
444.698	95.62
444.919	100.62
445.14	177.62
445.361	181.62
445.582	295.62
445.803	237.62
446.024	119.62
446.245	98.62
446.466	109.62
446.687	91.62
446.908	97.62
447.129	86.62
447.35	96.62
447.571	88.62
447.792	88.62
448.013	93.62
448.234	94.62
448.455	95.62
448.675	96.62
448.896	95.62
449.117	75.62
449.338	87.62
449.559	74.62
449.779	94.62
450	85.62
450.221	83.62
450.442	83.62
450.662	95.62
450.883	95.62
451.104	93.62
451.324	87.62
451.545	82.62
451.766	96.62
451.986	87.62
452.207	80.62
452.428	91.62
452.648	106.62
452.869	102.62
453.089	92.62
453.31	102.62
453.53	89.62
453.751	97.62
453.971	96.62
454.192	86.62
454.412	86.62
454.633	79.62
454.853	83.62
455.073	81.62
455.294	93.62
455.514	88.62
455.734	71.62
455.955	79.62
456.175	84.62
456.395	95.62
456.616	92.62
456.836	94.62
457.056	73.62
457.276	96.62
457.497	87.62
457.717	97.62
457.937	114.62
458.157	129.62
458.377	130.62
458.598	121.62
458.818	116.62
459.038	97.62
459.258	81.62
459.478	95.62
459.698	80.62
459.918	94.62
460.138	91.62
460.358	99.62
460.578	100.62
460.798	120.62
461.018	107.62
461.238	96.62
461.458	80.62
461.678	94.62
461.898	85.62
462.118	99.62
462.338	91.62
462.558	82.62
462.777	90.62
462.997	89.62
463.217	93.62
463.437	92.62
463.657	90.62
463.876	91.62
464.096	95.62
464.316	91.62
464.536	78.62
464.755	86.62
464.975	91.62
465.195	89.62
465.414	85.62
465.634	77.62
465.854	86.62
466.073	80.62
466.293	97.62
466.512	90.62
466.732	74.62
466.951	87.62
467.171	92.62
467.391	74.62
467.61	81.62
467.829	92.62
468.049	89.62
468.268	90.62
468.488	75.62
468.707	92.62
468.927	76.62
469.146	78.62
469.365	86.62
469.585	80.62
469.804	91.62
470.023	82.62
470.243	81.62
470.462	96.62
470.681	100.62
470.901	97.62
471.12	81.62
471.339	83.62
471.558	72.62
471.777	74.62
471.997	79.62
472.216	87.62
472.435	96.62
472.654	83.62
472.873	78.62
473.092	90.62
473.311	81.62
473.53	76.62
473.749	95.62
473.968	89.62
474.187	96.62
474.406	88.62
474.625	88.62
474.844	96.62
475.063	93.62
475.282	81.62
475.501	73.62
475.72	76.62
475.939	95.62
476.158	92.62
476.377	90.62
476.596	81.62
476.814	84.62
477.033	86.62
477.252	84.62
477.471	73.62
477.69	89.62
477.908	88.62
478.127	83.62
478.346	86.62
478.564	82.62
478.783	85.62
479.002	76.62
479.22	77.62
479.439	82.62
479.658	78.62
479.876	91.62
480.095	85.62
480.313	88.62
480.532	103.62
480.751	95.62
480.969	73.62
481.188	83.62
481.406	84.62
481.624	85.62
481.843	80.62
482.061	86.62
482.28	98.62
482.498	88.62
482.717	87.62
482.935	98.62
483.153	98.62
483.372	104.62
483.59	83.62
483.808	79.62
484.027	87.62
484.245	95.62
484.463	74.62
484.681	102.62
484.9	101.62
485.118	89.62
485.336	89.62
485.554	88.62
485.772	97.62
485.99	90.62
486.209	99.62
486.427	92.62
486.645	77.62
486.863	89.62
487.081	79.62
487.299	90.62
487.517	97.62
487.735	123.62
487.953	202.62
488.171	162.62
488.389	100.62
488.607	82.62
488.825	95.62
489.043	87.62
489.261	86.62
489.479	96.62
489.696	77.62
489.914	89.62
490.132	81.62
490.35	91.62
490.568	89.62
490.786	72.62
491.003	83.62
491.221	88.62
491.439	95.62
491.657	78.62
491.874	96.62
492.092	98.62
492.31	96.62
492.527	89.62
492.745	95.62
492.963	84.62
493.18	106.62
493.398	97.62
493.615	97.62
493.833	96.62
494.05	88.62
494.268	90.62
494.485	75.62
494.703	83.62
494.92	72.62
495.138	89.62
495.355	93.62
495.573	92.62
495.79	100.62
496.008	86.62
496.225	99.62
496.442	95.62
496.66	88.62
496.877	96.62
497.094	98.62
497.312	87.62
497.529	97.62
497.746	91.62
497.963	93.62
498.181	93.62
498.398	96.62
498.615	81.62
498.832	104.62
499.049	93.62
499.267	101.62
499.484	101.62
499.701	95.62
499.918	83.62
500.135	105.62
500.352	83.62
500.569	96.62
500.786	101.62
501.003	87.62
501.22	96.62
501.437	82.62
501.654	111.62
501.871	92.62
502.088	85.62
502.305	83.62
502.522	78.62
502.739	87.62
502.956	91.62
503.172	96.62
503.389	87.62
503.606	81.62
503.823	100.62
504.04	103.62
504.256	137.62
504.473	138.62
504.69	92.62
504.907	98.62
505.123	89.62
505.34	113.62
505.557	99.62
505.773	93.62
505.99	83.62
506.207	112.62
506.423	96.62
506.64	80.62
506.856	97.62
507.073	74.62
507.289	86.62
507.506	85.62
507.722	77.62
507.939	80.62
508.155	91.62
508.372	103.62
508.588	76.62
508.805	90.62
509.021	100.62
509.238	99.62
509.454	94.62
509.67	94.62
509.887	88.62
510.103	101.62
510.319	66.62
510.536	73.62
510.752	74.62
510.968	93.62
511.184	82.62
511.401	89.62
511.617	93.62
511.833	96.62
512.049	92.62
512.265	88.62
512.481	80.62
512.698	106.62
512.914	92.62
513.13	86.62
513.346	81.62
513.562	90.62
513.778	89.62
513.994	103.62
514.21	84.62
514.426	85.62
514.642	71.62
514.858	92.62
515.074	79.62
515.29	96.62
515.506	100.62
515.721	92.62
515.937	84.62
516.153	82.62
516.369	89.62
516.585	109.62
516.801	85.62
517.016	88.62
517.232	98.62
517.448	103.62
517.664	104.62
517.879	90.62
518.095	98.62
518.311	102.62
518.527	102.62
518.742	122.62
518.958	155.62
519.173	170.62
519.389	95.62
519.605	84.62
519.82	87.62
520.036	82.62
520.251	79.62
520.467	90.62
520.682	83.62
520.898	85.62
521.113	97.62
521.329	96.62
521.544	75.62
521.76	91.62
521.975	81.62
522.19	103.62
522.406	85.62
522.621	91.62
522.836	91.62
523.052	92.62
523.267	92.62
523.482	96.62
523.698	101.62
523.913	84.62
524.128	84.62
524.343	88.62
524.559	84.62
524.774	84.62
524.989	101.62
525.204	94.62
525.419	95.62
525.634	98.62
525.849	106.62
526.064	121.62
526.28	228.62
526.495	309.62
526.71	321.62
526.925	213.62
527.14	277.62
527.355	261.62
527.57	119.62
527.785	97.62
527.999	93.62
528.214	77.62
528.429	92.62
528.644	95.62
528.859	88.62
529.074	95.62
529.289	92.62
529.503	103.62
529.718	100.62
529.933	102.62
530.148	87.62
530.363	93.62
530.577	85.62
530.792	88.62
531.007	84.62
531.221	98.62
531.436	82.62
531.651	100.62
531.865	95.62
532.08	83.62
532.295	89.62
532.509	93.62
532.724	88.62
532.938	99.62
533.153	98.62
533.367	105.62
533.582	106.62
533.796	101.62
534.011	98.62
534.225	90.62
534.44	109.62
534.654	104.62
534.868	101.62
535.083	159.62
535.297	152.62
535.511	99.62
535.726	100.62
535.94	94.62
536.154	99.62
536.369	98.62
536.583	107.62
536.797	112.62
537.011	93.62
537.225	99.62
537.44	112.62
537.654	104.62
537.868	103.62
538.082	100.62
538.296	113.62
538.51	93.62
538.724	108.62
538.938	106.62
539.153	90.62
539.367	84.62
539.581	86.62
539.795	101.62
540.009	100.62
540.222	99.62
540.436	99.62
540.65	103.62
540.864	104.62
541.078	104.62
541.292	87.62
541.506	108.62
541.72	107.62
541.934	96.62
542.147	99.62
542.361	108.62
542.575	106.62
542.789	89.62
543.002	104.62
543.216	91.62
543.43	101.62
543.644	99.62
543.857	101.62
544.071	109.62
544.285	122.62
544.498	91.62
544.712	95.62
544.925	97.62
545.139	94.62
545.352	96.62
545.566	105.62
545.779	98.62
545.993	113.62
546.206	102.62
546.42	124.62
546.633	107.62
546.847	123.62
547.06	125.62
547.274	147.62
547.487	158.62
547.7	160.62
547.914	176.62
548.127	191.62
548.34	179.62
548.554	180.62
548.767	167.62
548.98	153.62
549.193	175.62
549.407	185.62
549.62	170.62
549.833	191.62
550.046	209.62
550.259	228.62
550.473	209.62
550.686	240.62
550.899	248.62
551.112	261.62
551.325	289.62
551.538	292.62
551.751	255.62
551.964	267.62
552.177	248.62
552.39	251.62
552.603	239.62
552.816	233.62
553.029	266.62
553.242	243.62
553.455	264.62
553.667	279.62
553.88	268.62
554.093	260.62
554.306	268.62
554.519	266.62
554.732	288.62
554.944	261.62
555.157	263.62
555.37	257.62
555.583	249.62
555.795	228.62
556.008	216.62
556.221	223.62
556.433	218.62
556.646	195.62
556.859	183.62
557.071	166.62
557.284	171.62
557.496	162.62
557.709	150.62
557.921	152.62
558.134	154.62
558.346	201.62
558.559	195.62
558.771	180.62
558.984	289.62
559.196	366.62
559.409	217.62
559.621	313.62
559.833	224.62
560.046	285.62
560.258	227.62
560.47	235.62
560.683	144.62
560.895	116.62
561.107	122.62
561.32	113.62
561.532	98.62
561.744	109.62
561.956	116.62
562.168	107.62
562.381	100.62
562.593	114.62
562.805	109.62
563.017	101.62
563.229	96.62
563.441	105.62
563.653	100.62
563.865	105.62
564.077	100.62
564.289	109.62
564.501	99.62
564.713	96.62
564.925	106.62
565.137	99.62
565.349	104.62
565.561	113.62
565.773	97.62
565.985	93.62
566.197	96.62
566.408	94.62
566.62	104.62
566.832	89.62
567.044	104.62
567.255	101.62
567.467	102.62
567.679	102.62
567.891	83.62
568.102	86.62
568.314	104.62
568.526	101.62
568.737	107.62
568.949	107.62
569.161	104.62
569.372	86.62
569.584	100.62
569.795	98.62
570.007	100.62
570.218	99.62
570.43	98.62
570.641	102.62
570.853	103.62
571.064	94.62
571.276	86.62
571.487	99.62
571.698	99.62
571.91	103.62
572.121	98.62
572.333	106.62
572.544	104.62
572.755	89.62
572.966	100.62
573.178	94.62
573.389	100.62
573.6	107.62
573.811	105.62
574.023	102.62
574.234	84.62
574.445	111.62
574.656	76.62
574.867	87.62
575.078	105.62
575.289	95.62
575.501	105.62
575.712	99.62
575.923	88.62
576.134	107.62
576.345	101.62
576.556	102.62
576.767	92.62
576.978	91.62
577.188	96.62
577.399	107.62
577.61	95.62
577.821	91.62
578.032	97.62
578.243	88.62
578.454	92.62
578.665	92.62
578.875	90.62
579.086	104.62
579.297	100.62
579.508	100.62
579.718	90.62
579.929	97.62
580.14	101.62
580.35	96.62
580.561	103.62
580.772	89.62
580.982	97.62
581.193	96.62
581.403	81.62
581.614	98.62
581.825	86.62
582.035	91.62
582.246	97.62
582.456	83.62
582.667	92.62
582.877	99.62
583.087	96.62
583.298	89.62
583.508	97.62
583.719	77.62
583.929	101.62
584.139	104.62
584.35	85.62
584.56	100.62
584.77	113.62
584.981	103.62
585.191	95.62
585.401	85.62
585.611	107.62
585.821	178.62
586.032	231.62
586.242	134.62
586.452	107.62
586.662	88.62
586.872	101.62
587.082	85.62
587.292	100.62
587.502	101.62
587.713	116.62
587.923	100.62
588.133	115.62
588.343	108.62
588.553	120.62
588.762	128.62
588.972	195.62
589.182	424.62
589.392	291.62
589.602	220.62
589.812	358.62
590.022	205.62
590.232	117.62
590.441	102.62
590.651	115.62
590.861	104.62
591.071	109.62
591.281	113.62
591.49	122.62
591.7	113.62
591.91	108.62
592.119	101.62
592.329	111.62
592.539	116.62
592.748	118.62
592.958	128.62
593.167	128.62
593.377	106.62
593.587	138.62
593.796	116.62
594.006	108.62
594.215	126.62
594.424	135.62
594.634	127.62
594.843	131.62
595.053	130.62
595.262	141.62
595.472	139.62
595.681	138.62
595.89	140.62
596.1	146.62
596.309	138.62
596.518	149.62
596.727	179.62
596.937	185.62
597.146	174.62
597.355	176.62
597.564	180.62
597.774	168.62
597.983	183.62
598.192	161.62
598.401	179.62
598.61	203.62
598.819	181.62
599.028	178.62
599.237	172.62
599.446	182.62
599.655	177.62
599.864	164.62
600.073	185.62
600.282	161.62
600.491	172.62
600.7	191.62
600.909	176.62
601.118	164.62
601.327	160.62
601.536	148.62
601.745	167.62
601.953	154.62
602.162	151.62
602.371	161.62
602.58	157.62
602.789	157.62
602.997	180.62
603.206	168.62
603.415	187.62
603.623	184.62
603.832	175.62
604.041	171.62
604.249	163.62
604.458	189.62
604.666	178.62
604.875	191.62
605.084	167.62
605.292	202.62
605.501	194.62
605.709	201.62
605.918	214.62
606.126	221.62
606.334	223.62
606.543	229.62
606.751	202.62
606.96	218.62
607.168	194.62
607.376	184.62
607.585	204.62
607.793	191.62
608.001	168.62
608.21	182.62
608.418	195.62
608.626	210.62
608.834	218.62
609.043	227.62
609.251	195.62
609.459	191.62
609.667	217.62
609.875	227.62
610.083	240.62
610.291	215.62
610.499	309.62
610.707	239.62
610.916	215.62
611.124	205.62
611.332	224.62
611.54	202.62
611.748	226.62
611.955	250.62
612.163	240.62
612.371	371.62
612.579	329.62
612.787	257.62
612.995	259.62
613.203	240.62
613.411	216.62
613.618	218.62
613.826	206.62
614.034	210.62
614.242	235.62
614.449	236.62
614.657	231.62
614.865	220.62
615.072	219.62
615.28	233.62
615.488	234.62
615.695	241.62
615.903	248.62
616.111	266.62
616.318	391.62
616.526	412.62
616.733	272.62
616.941	277.62
617.148	342.62
617.356	279.62
617.563	252.62
617.771	232.62
617.978	228.62
618.185	223.62
618.393	251.62
618.6	221.62
618.807	201.62
619.015	209.62
619.222	180.62
619.429	196.62
619.637	202.62
619.844	209.62
620.051	204.62
620.258	200.62
620.466	194.62
620.673	206.62
620.88	202.62
621.087	209.62
621.294	205.62
621.501	215.62
621.708	219.62
621.915	227.62
622.122	201.62
622.329	222.62
622.536	231.62
622.743	207.62
622.95	210.62
623.157	208.62
623.364	201.62
623.571	216.62
623.778	201.62
623.985	200.62
624.192	203.62
624.399	208.62
624.606	220.62
624.812	211.62
625.019	220.62
625.226	198.62
625.433	208.62
625.639	191.62
625.846	195.62
626.053	186.62
626.259	183.62
626.466	182.62
626.673	154.62
626.879	168.62
627.086	157.62
627.293	167.62
627.499	164.62
627.706	149.62
627.912	137.62
628.119	141.62
628.325	141.62
628.532	136.62
628.738	127.62
628.945	119.62
629.151	129.62
629.357	123.62
629.564	117.62
629.77	123.62
629.976	132.62
630.183	108.62
630.389	117.62
630.595	107.62
630.802	100.62
631.008	111.62
631.214	116.62
631.42	115.62
631.627	114.62
631.833	106.62
632.039	103.62
632.245	113.62
632.451	95.62
632.657	103.62
632.863	111.62
633.069	118.62
633.275	104.62
633.481	103.62
633.688	101.62
633.893	107.62
634.099	108.62
634.305	92.62
634.511	107.62
634.717	97.62
634.923	97.62
635.129	107.62
635.335	99.62
635.541	100.62
635.747	97.62
635.952	101.62
636.158	108.62
636.364	98.62
636.57	103.62
636.775	96.62
636.981	117.62
637.187	114.62
637.392	103.62
637.598	100.62
637.804	102.62
638.009	106.62
638.215	115.62
638.421	109.62
638.626	97.62
638.832	117.62
639.037	105.62
639.243	98.62
639.448	91.62
639.654	101.62
639.859	104.62
640.065	103.62
640.27	95.62
640.475	111.62
640.681	101.62
640.886	100.62
641.091	103.62
641.297	106.62
641.502	98.62
641.707	103.62
641.913	97.62
642.118	107.62
642.323	103.62
642.528	101.62
642.733	113.62
642.939	121.62
643.144	106.62
643.349	113.62
643.554	108.62
643.759	123.62
643.964	148.62
644.169	168.62
644.374	114.62
644.579	96.62
644.784	95.62
644.989	109.62
645.194	124.62
645.399	106.62
645.604	125.62
645.809	118.62
646.014	106.62
646.219	104.62
646.423	164.62
646.628	124.62
646.833	104.62
647.038	98.62
647.243	104.62
647.447	124.62
647.652	81.62
647.857	97.62
648.062	95.62
648.266	109.62
648.471	81.62
648.676	103.62
648.88	97.62
649.085	96.62
649.289	88.62
649.494	116.62
649.698	117.62
649.903	97.62
650.107	106.62
650.312	105.62
650.516	95.62
650.721	93.62
650.925	92.62
651.13	84.62
651.334	95.62
651.539	89.62
651.743	90.62
651.947	103.62
652.152	87.62
652.356	84.62
652.56	88.62
652.764	81.62
652.969	90.62
653.173	76.62
653.377	93.62
653.581	83.62
653.785	83.62
653.99	97.62
654.194	93.62
654.398	75.62
654.602	83.62
654.806	90.62
655.01	92.62
655.214	89.62
655.418	92.62
655.622	99.62
655.826	87.62
656.03	99.62
656.234	87.62
656.438	91.62
656.642	88.62
656.846	90.62
657.049	95.62
657.253	95.62
657.457	82.62
657.661	89.62
657.865	78.62
658.068	87.62
658.272	78.62
658.476	84.62
658.68	87.62
658.883	85.62
659.087	74.62
659.291	97.62
659.494	93.62
659.698	91.62
659.901	69.62
660.105	73.62
660.309	97.62
660.512	92.62
660.716	76.62
660.919	95.62
661.123	92.62
661.326	87.62
661.53	90.62
661.733	89.62
661.936	80.62
662.14	78.62
662.343	67.62
662.546	75.62
662.75	91.62
662.953	92.62
663.156	76.62
663.36	90.62
663.563	91.62
663.766	64.62
663.969	80.62
664.173	83.62
664.376	90.62
664.579	83.62
664.782	87.62
664.985	82.62
665.188	91.62
665.391	88.62
665.594	84.62
665.797	92.62
666	82.62
666.203	77.62
666.406	91.62
666.609	83.62
666.812	86.62
667.015	82.62
667.218	79.62
667.421	66.62
667.624	71.62
667.827	81.62
668.03	88.62
668.232	79.62
668.435	99.62
668.638	72.62
668.841	99.62
669.043	71.62
669.246	67.62
669.449	89.62
669.651	75.62
669.854	89.62
670.057	91.62
670.259	89.62
670.462	66.62
670.665	79.62
670.867	99.62
671.07	92.62
671.272	89.62
671.475	85.62
671.677	85.62
671.88	85.62
672.082	98.62
672.284	79.62
672.487	74.62
672.689	78.62
672.892	67.62
