Data from 10100_3_HRD10591_00021.txt Node
Date: Mon Jan 19 14:02:33 EST 2026
User: Yrep
Spectrometer: HR+D1059
Trigger mode: 1
Integration Time (sec): 1.000000E-1
Scans to average: 1
Electric dark correction enabled: true
Nonlinearity correction enabled: false
Boxcar width: 0
XAxis mode: Wavelengths
Number of Pixels in Spectrum: 2048
>>>>>Begin Spectral Data<<<<<
223.165	-18.12
223.4	-18.12
223.635	-18.12
223.869	-11.12
224.104	-20.12
224.338	-11.12
224.573	-18.12
224.808	-2.12
225.042	-1.12
225.277	-17.12
225.511	-8.12
225.746	19.88
225.98	2.88
226.215	6.88
226.449	12.88
226.683	14.88
226.918	26.88
227.152	22.88
227.387	28.88
227.621	32.88
227.856	27.88
228.09	41.88
228.324	50.88
228.559	54.88
228.793	54.88
229.027	62.88
229.262	55.88
229.496	57.88
229.73	74.88
229.964	76.88
230.199	66.88
230.433	66.88
230.667	67.88
230.901	68.88
231.136	75.88
231.37	52.88
231.604	84.88
231.838	69.88
232.072	74.88
232.306	62.88
232.541	71.88
232.775	89.88
233.009	77.88
233.243	85.88
233.477	84.88
233.711	68.88
233.945	81.88
234.179	77.88
234.413	70.88
234.647	79.88
234.881	67.88
235.115	79.88
235.349	76.88
235.583	65.88
235.817	70.88
236.051	74.88
236.285	77.88
236.519	68.88
236.753	61.88
236.987	84.88
237.221	77.88
237.455	67.88
237.689	76.88
237.922	84.88
238.156	70.88
238.39	77.88
238.624	55.88
238.858	68.88
239.091	81.88
239.325	76.88
239.559	69.88
239.793	65.88
240.027	72.88
240.26	83.88
240.494	88.88
240.728	65.88
240.961	70.88
241.195	81.88
241.429	79.88
241.662	73.88
241.896	67.88
242.13	79.88
242.363	63.88
242.597	63.88
242.83	83.88
243.064	74.88
243.298	63.88
243.531	72.88
243.765	79.88
243.998	88.88
244.232	62.88
244.465	75.88
244.699	83.88
244.932	61.88
245.166	76.88
245.399	74.88
245.633	69.88
245.866	73.88
246.099	61.88
246.333	84.88
246.566	77.88
246.8	61.88
247.033	86.88
247.266	65.88
247.5	66.88
247.733	63.88
247.966	79.88
248.2	77.88
248.433	72.88
248.666	77.88
248.899	68.88
249.133	71.88
249.366	71.88
249.599	76.88
249.832	77.88
250.066	76.88
250.299	67.88
250.532	82.88
250.765	65.88
250.998	71.88
251.231	61.88
251.465	82.88
251.698	79.88
251.931	69.88
252.164	79.88
252.397	65.88
252.63	60.88
252.863	73.88
253.096	84.88
253.329	79.88
253.562	75.88
253.795	69.88
254.028	78.88
254.261	75.88
254.494	73.88
254.727	77.88
254.96	83.88
255.193	72.88
255.426	77.88
255.659	87.88
255.892	61.88
256.124	63.88
256.357	68.88
256.59	81.88
256.823	73.88
257.056	82.88
257.289	72.88
257.521	70.88
257.754	95.88
257.987	72.88
258.22	80.88
258.452	83.88
258.685	73.88
258.918	60.88
259.151	73.88
259.383	77.88
259.616	81.88
259.849	78.88
260.081	72.88
260.314	78.88
260.547	84.88
260.779	77.88
261.012	75.88
261.244	76.88
261.477	72.88
261.71	61.88
261.942	76.88
262.175	79.88
262.407	79.88
262.64	78.88
262.872	76.88
263.105	79.88
263.337	82.88
263.57	57.88
263.802	67.88
264.035	82.88
264.267	91.88
264.499	77.88
264.732	65.88
264.964	88.88
265.197	56.88
265.429	77.88
265.661	86.88
265.894	84.88
266.126	97.88
266.358	86.88
266.591	70.88
266.823	80.88
267.055	77.88
267.287	78.88
267.52	70.88
267.752	78.88
267.984	79.88
268.216	73.88
268.448	83.88
268.681	69.88
268.913	79.88
269.145	81.88
269.377	89.88
269.609	87.88
269.841	77.88
270.073	74.88
270.306	81.88
270.538	77.88
270.77	84.88
271.002	96.88
271.234	75.88
271.466	89.88
271.698	73.88
271.93	61.88
272.162	73.88
272.394	90.88
272.626	83.88
272.858	89.88
273.09	78.88
273.322	86.88
273.553	84.88
273.785	89.88
274.017	79.88
274.249	70.88
274.481	93.88
274.713	75.88
274.945	88.88
275.176	82.88
275.408	74.88
275.64	83.88
275.872	81.88
276.104	90.88
276.335	77.88
276.567	82.88
276.799	86.88
277.031	82.88
277.262	94.88
277.494	86.88
277.726	81.88
277.957	75.88
278.189	82.88
278.421	79.88
278.652	66.88
278.884	66.88
279.115	73.88
279.347	65.88
279.579	71.88
279.81	80.88
280.042	85.88
280.273	71.88
280.505	77.88
280.736	82.88
280.968	87.88
281.199	86.88
281.431	83.88
281.662	76.88
281.894	76.88
282.125	79.88
282.356	67.88
282.588	77.88
282.819	85.88
283.051	75.88
283.282	80.88
283.513	83.88
283.745	99.88
283.976	74.88
284.207	82.88
284.439	89.88
284.67	90.88
284.901	77.88
285.132	78.88
285.364	81.88
285.595	83.88
285.826	78.88
286.057	81.88
286.288	81.88
286.52	81.88
286.751	82.88
286.982	87.88
287.213	72.88
287.444	81.88
287.675	72.88
287.906	92.88
288.138	94.88
288.369	95.88
288.6	88.88
288.831	82.88
289.062	74.88
289.293	90.88
289.524	68.88
289.755	77.88
289.986	73.88
290.217	74.88
290.448	79.88
290.679	84.88
290.91	80.88
291.141	69.88
291.371	77.88
291.602	85.88
291.833	94.88
292.064	90.88
292.295	87.88
292.526	86.88
292.757	73.88
292.987	91.88
293.218	83.88
293.449	69.88
293.68	75.88
293.91	85.88
294.141	90.88
294.372	79.88
294.603	85.88
294.833	82.88
295.064	78.88
295.295	68.88
295.525	73.88
295.756	88.88
295.987	60.88
296.217	82.88
296.448	89.88
296.679	79.88
296.909	79.88
297.14	71.88
297.37	82.88
297.601	78.88
297.831	86.88
298.062	77.88
298.292	85.88
298.523	84.88
298.753	66.88
298.984	81.88
299.214	77.88
299.445	76.88
299.675	71.88
299.905	78.88
300.136	71.88
300.366	73.88
300.597	73.88
300.827	74.88
301.057	83.88
301.288	78.88
301.518	98.88
301.748	82.88
301.979	105.88
302.209	85.88
302.439	95.88
302.669	99.88
302.9	97.88
303.13	94.88
303.36	79.88
303.59	92.88
303.82	83.88
304.051	80.88
304.281	89.88
304.511	87.88
304.741	75.88
304.971	65.88
305.201	82.88
305.431	65.88
305.661	73.88
305.891	87.88
306.121	85.88
306.352	76.88
306.582	88.88
306.812	84.88
307.042	94.88
307.272	76.88
307.502	78.88
307.731	86.88
307.961	79.88
308.191	84.88
308.421	75.88
308.651	85.88
308.881	76.88
309.111	68.88
309.341	68.88
309.571	86.88
309.8	77.88
310.03	90.88
310.26	77.88
310.49	80.88
310.72	80.88
310.949	96.88
311.179	76.88
311.409	75.88
311.639	75.88
311.868	69.88
312.098	97.88
312.328	71.88
312.557	96.88
312.787	83.88
313.017	85.88
313.246	91.88
313.476	100.88
313.706	83.88
313.935	65.88
314.165	90.88
314.394	66.88
314.624	85.88
314.853	81.88
315.083	77.88
315.312	103.88
315.542	85.88
315.771	75.88
316.001	81.88
316.23	70.88
316.46	86.88
316.689	85.88
316.919	79.88
317.148	81.88
317.377	81.88
317.607	92.88
317.836	97.88
318.065	71.88
318.295	83.88
318.524	81.88
318.753	78.88
318.983	83.88
319.212	81.88
319.441	71.88
319.67	80.88
319.9	79.88
320.129	77.88
320.358	69.88
320.587	75.88
320.816	77.88
321.046	78.88
321.275	89.88
321.504	57.88
321.733	79.88
321.962	97.88
322.191	80.88
322.42	83.88
322.649	69.88
322.878	79.88
323.108	78.88
323.337	77.88
323.566	72.88
323.795	71.88
324.024	77.88
324.253	96.88
324.482	84.88
324.71	75.88
324.939	86.88
325.168	105.88
325.397	81.88
325.626	71.88
325.855	87.88
326.084	86.88
326.313	82.88
326.542	88.88
326.77	70.88
326.999	71.88
327.228	82.88
327.457	90.88
327.686	85.88
327.914	86.88
328.143	86.88
328.372	78.88
328.6	75.88
328.829	69.88
329.058	93.88
329.287	74.88
329.515	67.88
329.744	79.88
329.972	70.88
330.201	71.88
330.43	77.88
330.658	71.88
330.887	68.88
331.115	70.88
331.344	81.88
331.572	83.88
331.801	94.88
332.03	93.88
332.258	74.88
332.486	85.88
332.715	84.88
332.943	74.88
333.172	86.88
333.4	77.88
333.629	89.88
333.857	70.88
334.085	86.88
334.314	84.88
334.542	82.88
334.771	78.88
334.999	77.88
335.227	84.88
335.455	100.88
335.684	95.88
335.912	85.88
336.14	93.88
336.369	80.88
336.597	97.88
336.825	89.88
337.053	83.88
337.281	84.88
337.51	77.88
337.738	87.88
337.966	85.88
338.194	74.88
338.422	81.88
338.65	75.88
338.878	85.88
339.106	76.88
339.334	83.88
339.562	68.88
339.79	73.88
340.018	87.88
340.246	89.88
340.474	76.88
340.702	69.88
340.93	83.88
341.158	71.88
341.386	71.88
341.614	88.88
341.842	77.88
342.07	86.88
342.298	78.88
342.526	76.88
342.754	80.88
342.981	88.88
343.209	68.88
343.437	91.88
343.665	65.88
343.893	78.88
344.12	89.88
344.348	73.88
344.576	75.88
344.804	79.88
345.031	92.88
345.259	69.88
345.487	72.88
345.714	71.88
345.942	67.88
346.17	83.88
346.397	90.88
346.625	85.88
346.853	85.88
347.08	79.88
347.308	85.88
347.535	72.88
347.763	79.88
347.99	96.88
348.218	75.88
348.445	81.88
348.673	80.88
348.9	71.88
349.128	65.88
349.355	66.88
349.583	97.88
349.81	68.88
350.037	78.88
350.265	78.88
350.492	96.88
350.72	82.88
350.947	95.88
351.174	79.88
351.402	80.88
351.629	75.88
351.856	87.88
352.083	78.88
352.311	76.88
352.538	81.88
352.765	69.88
352.992	75.88
353.22	90.88
353.447	69.88
353.674	67.88
353.901	74.88
354.128	82.88
354.355	80.88
354.583	95.88
354.81	82.88
355.037	69.88
355.264	81.88
355.491	82.88
355.718	81.88
355.945	73.88
356.172	83.88
356.399	98.88
356.626	83.88
356.853	85.88
357.08	89.88
357.307	75.88
357.534	79.88
357.761	86.88
357.988	94.88
358.215	80.88
358.441	61.88
358.668	87.88
358.895	90.88
359.122	79.88
359.349	87.88
359.576	90.88
359.802	66.88
360.029	89.88
360.256	69.88
360.483	83.88
360.709	69.88
360.936	92.88
361.163	92.88
361.39	88.88
361.616	65.88
361.843	85.88
362.07	77.88
362.296	96.88
362.523	75.88
362.749	79.88
362.976	75.88
363.203	94.88
363.429	77.88
363.656	84.88
363.882	82.88
364.109	85.88
364.335	87.88
364.562	82.88
364.788	75.88
365.015	75.88
365.241	84.88
365.468	75.88
365.694	81.88
365.92	90.88
366.147	74.88
366.373	78.88
366.599	79.88
366.826	85.88
367.052	87.88
367.278	83.88
367.505	79.88
367.731	96.88
367.957	71.88
368.184	79.88
368.41	70.88
368.636	76.88
368.862	81.88
369.089	70.88
369.315	92.88
369.541	81.88
369.767	92.88
369.993	72.88
370.219	69.88
370.445	69.88
370.672	84.88
370.898	80.88
371.124	77.88
371.35	84.88
371.576	79.88
371.802	91.88
372.028	84.88
372.254	70.88
372.48	71.88
372.706	71.88
372.932	91.88
373.158	85.88
373.384	84.88
373.61	84.88
373.835	87.88
374.061	71.88
374.287	86.88
374.513	80.88
374.739	80.88
374.965	85.88
375.191	73.88
375.416	92.88
375.642	69.88
375.868	82.88
376.094	89.88
376.319	77.88
376.545	77.88
376.771	90.88
376.997	84.88
377.222	92.88
377.448	78.88
377.674	89.88
377.899	95.88
378.125	59.88
378.35	71.88
378.576	71.88
378.802	82.88
379.027	86.88
379.253	83.88
379.478	87.88
379.704	71.88
379.929	70.88
380.155	82.88
380.38	85.88
380.606	68.88
380.831	70.88
381.057	74.88
381.282	91.88
381.507	82.88
381.733	88.88
381.958	90.88
382.184	88.88
382.409	89.88
382.634	75.88
382.86	76.88
383.085	79.88
383.31	65.88
383.535	74.88
383.761	78.88
383.986	83.88
384.211	71.88
384.436	73.88
384.662	62.88
384.887	78.88
385.112	79.88
385.337	80.88
385.562	83.88
385.787	82.88
386.013	89.88
386.238	76.88
386.463	84.88
386.688	84.88
386.913	73.88
387.138	79.88
387.363	71.88
387.588	81.88
387.813	72.88
388.038	83.88
388.263	73.88
388.488	81.88
388.713	72.88
388.938	64.88
389.163	80.88
389.387	78.88
389.612	71.88
389.837	93.88
390.062	79.88
390.287	80.88
390.512	89.88
390.736	87.88
390.961	70.88
391.186	75.88
391.411	75.88
391.636	93.88
391.86	65.88
392.085	92.88
392.31	100.88
392.534	78.88
392.759	85.88
392.984	78.88
393.208	101.88
393.433	101.88
393.658	90.88
393.882	89.88
394.107	92.88
394.331	90.88
394.556	85.88
394.78	78.88
395.005	85.88
395.229	81.88
395.454	90.88
395.678	78.88
395.903	88.88
396.127	92.88
396.352	72.88
396.576	85.88
396.801	90.88
397.025	95.88
397.249	95.88
397.474	88.88
397.698	77.88
397.922	74.88
398.147	75.88
398.371	93.88
398.595	89.88
398.82	76.88
399.044	81.88
399.268	72.88
399.492	66.88
399.717	69.88
399.941	96.88
400.165	76.88
400.389	82.88
400.613	69.88
400.837	82.88
401.062	84.88
401.286	85.88
401.51	78.88
401.734	64.88
401.958	79.88
402.182	71.88
402.406	82.88
402.63	70.88
402.854	72.88
403.078	90.88
403.302	93.88
403.526	93.88
403.75	81.88
403.974	85.88
404.198	85.88
404.422	82.88
404.645	69.88
404.869	71.88
405.093	53.88
405.317	90.88
405.541	71.88
405.765	85.88
405.988	93.88
406.212	83.88
406.436	84.88
406.66	77.88
406.883	88.88
407.107	85.88
407.331	62.88
407.555	77.88
407.778	80.88
408.002	85.88
408.226	78.88
408.449	86.88
408.673	78.88
408.896	87.88
409.12	73.88
409.344	88.88
409.567	77.88
409.791	88.88
410.014	84.88
410.238	85.88
410.461	67.88
410.685	85.88
410.908	66.88
411.132	75.88
411.355	85.88
411.578	75.88
411.802	84.88
412.025	89.88
412.249	81.88
412.472	78.88
412.695	79.88
412.919	80.88
413.142	71.88
413.365	70.88
413.589	76.88
413.812	81.88
414.035	91.88
414.258	92.88
414.482	89.88
414.705	82.88
414.928	69.88
415.151	81.88
415.374	72.88
415.597	86.88
415.821	77.88
416.044	86.88
416.267	62.88
416.49	73.88
416.713	60.88
416.936	76.88
417.159	72.88
417.382	89.88
417.605	65.88
417.828	66.88
418.051	91.88
418.274	80.88
418.497	73.88
418.72	76.88
418.943	93.88
419.166	81.88
419.389	65.88
419.611	81.88
419.834	83.88
420.057	77.88
420.28	73.88
420.503	82.88
420.726	79.88
420.948	94.88
421.171	76.88
421.394	77.88
421.617	86.88
421.839	73.88
422.062	83.88
422.285	93.88
422.507	107.88
422.73	130.88
422.953	111.88
423.175	107.88
423.398	86.88
423.621	85.88
423.843	81.88
424.066	81.88
424.288	75.88
424.511	96.88
424.733	96.88
424.956	81.88
425.178	83.88
425.401	85.88
425.623	69.88
425.846	76.88
426.068	77.88
426.291	96.88
426.513	68.88
426.735	75.88
426.958	73.88
427.18	83.88
427.402	90.88
427.625	67.88
427.847	81.88
428.069	84.88
428.292	83.88
428.514	91.88
428.736	88.88
428.958	85.88
429.181	80.88
429.403	85.88
429.625	91.88
429.847	73.88
430.069	90.88
430.292	101.88
430.514	93.88
430.736	84.88
430.958	77.88
431.18	67.88
431.402	69.88
431.624	77.88
431.846	77.88
432.068	76.88
432.29	71.88
432.512	69.88
432.734	81.88
432.956	74.88
433.178	91.88
433.4	75.88
433.622	74.88
433.844	70.88
434.066	79.88
434.287	77.88
434.509	70.88
434.731	81.88
434.953	89.88
435.175	91.88
435.397	77.88
435.618	79.88
435.84	79.88
436.062	72.88
436.284	76.88
436.505	71.88
436.727	85.88
436.949	81.88
437.17	72.88
437.392	86.88
437.614	72.88
437.835	78.88
438.057	76.88
438.278	75.88
438.5	82.88
438.721	77.88
438.943	91.88
439.165	93.88
439.386	74.88
439.608	75.88
439.829	63.88
440.05	67.88
440.272	90.88
440.493	74.88
440.715	91.88
440.936	75.88
441.158	82.88
441.379	71.88
441.6	70.88
441.822	81.88
442.043	75.88
442.264	82.88
442.486	85.88
442.707	99.88
442.928	83.88
443.149	84.88
443.371	84.88
443.592	98.88
443.813	103.88
444.034	86.88
444.255	77.88
444.476	81.88
444.698	95.88
444.919	75.88
445.14	176.88
445.361	142.88
445.582	118.88
445.803	110.88
446.024	92.88
446.245	86.88
446.466	89.88
446.687	77.88
446.908	79.88
447.129	82.88
447.35	73.88
447.571	71.88
447.792	85.88
448.013	69.88
448.234	71.88
448.455	78.88
448.675	76.88
448.896	76.88
449.117	83.88
449.338	87.88
449.559	88.88
449.779	71.88
450	77.88
450.221	87.88
450.442	97.88
450.662	77.88
450.883	65.88
451.104	82.88
451.324	72.88
451.545	62.88
451.766	85.88
451.986	72.88
452.207	76.88
452.428	78.88
452.648	87.88
452.869	75.88
453.089	75.88
453.31	76.88
453.53	82.88
453.751	78.88
453.971	81.88
454.192	76.88
454.412	72.88
454.633	76.88
454.853	87.88
455.073	85.88
455.294	77.88
455.514	72.88
455.734	78.88
455.955	76.88
456.175	60.88
456.395	70.88
456.616	83.88
456.836	73.88
457.056	65.88
457.276	79.88
457.497	77.88
457.717	78.88
457.937	82.88
458.157	84.88
458.377	81.88
458.598	81.88
458.818	74.88
459.038	81.88
459.258	79.88
459.478	72.88
459.698	85.88
459.918	67.88
460.138	79.88
460.358	87.88
460.578	87.88
460.798	83.88
461.018	91.88
461.238	80.88
461.458	72.88
461.678	93.88
461.898	74.88
462.118	89.88
462.338	88.88
462.558	87.88
462.777	87.88
462.997	86.88
463.217	65.88
463.437	69.88
463.657	82.88
463.876	77.88
464.096	75.88
464.316	80.88
464.536	68.88
464.755	78.88
464.975	78.88
465.195	89.88
465.414	83.88
465.634	80.88
465.854	75.88
466.073	69.88
466.293	91.88
466.512	73.88
466.732	79.88
466.951	85.88
467.171	87.88
467.391	84.88
467.61	74.88
467.829	85.88
468.049	59.88
468.268	80.88
468.488	89.88
468.707	77.88
468.927	69.88
469.146	71.88
469.365	89.88
469.585	84.88
469.804	79.88
470.023	80.88
470.243	74.88
470.462	90.88
470.681	69.88
470.901	77.88
471.12	65.88
471.339	77.88
471.558	69.88
471.777	80.88
471.997	68.88
472.216	87.88
472.435	85.88
472.654	83.88
472.873	88.88
473.092	79.88
473.311	83.88
473.53	79.88
473.749	71.88
473.968	77.88
474.187	79.88
474.406	88.88
474.625	84.88
474.844	91.88
475.063	67.88
475.282	85.88
475.501	63.88
475.72	86.88
475.939	82.88
476.158	77.88
476.377	85.88
476.596	88.88
476.814	79.88
477.033	87.88
477.252	97.88
477.471	66.88
477.69	74.88
477.908	79.88
478.127	93.88
478.346	84.88
478.564	85.88
478.783	81.88
479.002	68.88
479.22	79.88
479.439	73.88
479.658	84.88
479.876	77.88
480.095	69.88
480.313	79.88
480.532	87.88
480.751	88.88
480.969	78.88
481.188	68.88
481.406	86.88
481.624	89.88
481.843	71.88
482.061	75.88
482.28	86.88
482.498	90.88
482.717	77.88
482.935	79.88
483.153	89.88
483.372	77.88
483.59	82.88
483.808	84.88
484.027	76.88
484.245	94.88
484.463	97.88
484.681	73.88
484.9	85.88
485.118	77.88
485.336	83.88
485.554	93.88
485.772	90.88
485.99	62.88
486.209	78.88
486.427	79.88
486.645	76.88
486.863	73.88
487.081	71.88
487.299	81.88
487.517	79.88
487.735	79.88
487.953	84.88
488.171	86.88
488.389	80.88
488.607	74.88
488.825	79.88
489.043	77.88
489.261	93.88
489.479	74.88
489.696	94.88
489.914	82.88
490.132	83.88
490.35	73.88
490.568	77.88
490.786	90.88
491.003	83.88
491.221	79.88
491.439	75.88
491.657	63.88
491.874	79.88
492.092	69.88
492.31	84.88
492.527	79.88
492.745	85.88
492.963	78.88
493.18	65.88
493.398	68.88
493.615	81.88
493.833	80.88
494.05	96.88
494.268	93.88
494.485	68.88
494.703	82.88
494.92	81.88
495.138	96.88
495.355	73.88
495.573	79.88
495.79	75.88
496.008	82.88
496.225	75.88
496.442	83.88
496.66	83.88
496.877	84.88
497.094	79.88
497.312	77.88
497.529	76.88
497.746	75.88
497.963	74.88
498.181	79.88
498.398	86.88
498.615	85.88
498.832	71.88
499.049	80.88
499.267	77.88
499.484	78.88
499.701	78.88
499.918	95.88
500.135	82.88
500.352	79.88
500.569	89.88
500.786	83.88
501.003	84.88
501.22	84.88
501.437	75.88
501.654	85.88
501.871	69.88
502.088	75.88
502.305	72.88
502.522	82.88
502.739	69.88
502.956	85.88
503.172	89.88
503.389	81.88
503.606	78.88
503.823	82.88
504.04	86.88
504.256	86.88
504.473	92.88
504.69	75.88
504.907	93.88
505.123	83.88
505.34	71.88
505.557	93.88
505.773	94.88
505.99	70.88
506.207	76.88
506.423	88.88
506.64	99.88
506.856	84.88
507.073	82.88
507.289	76.88
507.506	65.88
507.722	66.88
507.939	78.88
508.155	96.88
508.372	71.88
508.588	68.88
508.805	93.88
509.021	67.88
509.238	73.88
509.454	78.88
509.67	73.88
509.887	65.88
510.103	78.88
510.319	90.88
510.536	91.88
510.752	73.88
510.968	87.88
511.184	89.88
511.401	62.88
511.617	77.88
511.833	80.88
512.049	73.88
512.265	87.88
512.481	76.88
512.698	89.88
512.914	93.88
513.13	91.88
513.346	83.88
513.562	82.88
513.778	88.88
513.994	72.88
514.21	85.88
514.426	77.88
514.642	88.88
514.858	92.88
515.074	80.88
515.29	83.88
515.506	65.88
515.721	86.88
515.937	78.88
516.153	81.88
516.369	86.88
516.585	87.88
516.801	87.88
517.016	79.88
517.232	83.88
517.448	81.88
517.664	81.88
517.879	76.88
518.095	79.88
518.311	75.88
518.527	77.88
518.742	71.88
518.958	91.88
519.173	92.88
519.389	94.88
519.605	78.88
519.82	77.88
520.036	91.88
520.251	81.88
520.467	65.88
520.682	86.88
520.898	89.88
521.113	77.88
521.329	82.88
521.544	78.88
521.76	93.88
521.975	75.88
522.19	81.88
522.406	87.88
522.621	83.88
522.836	71.88
523.052	76.88
523.267	83.88
523.482	90.88
523.698	74.88
523.913	84.88
524.128	87.88
524.343	67.88
524.559	91.88
524.774	84.88
524.989	86.88
525.204	84.88
525.419	97.88
525.634	71.88
525.849	94.88
526.064	81.88
526.28	88.88
526.495	117.88
526.71	121.88
526.925	101.88
527.14	110.88
527.355	120.88
527.57	95.88
527.785	89.88
527.999	71.88
528.214	78.88
528.429	89.88
528.644	73.88
528.859	87.88
529.074	71.88
529.289	84.88
529.503	82.88
529.718	104.88
529.933	89.88
530.148	90.88
530.363	81.88
530.577	82.88
530.792	88.88
531.007	93.88
531.221	85.88
531.436	83.88
531.651	90.88
531.865	87.88
532.08	82.88
532.295	97.88
532.509	70.88
532.724	75.88
532.938	85.88
533.153	86.88
533.367	94.88
533.582	69.88
533.796	75.88
534.011	89.88
534.225	102.88
534.44	75.88
534.654	101.88
534.868	78.88
535.083	87.88
535.297	80.88
535.511	90.88
535.726	79.88
535.94	76.88
536.154	87.88
536.369	73.88
536.583	94.88
536.797	77.88
537.011	79.88
537.225	77.88
537.44	77.88
537.654	84.88
537.868	86.88
538.082	90.88
538.296	93.88
538.51	83.88
538.724	78.88
538.938	85.88
539.153	95.88
539.367	80.88
539.581	89.88
539.795	85.88
540.009	94.88
540.222	94.88
540.436	76.88
540.65	89.88
540.864	89.88
541.078	83.88
541.292	77.88
541.506	85.88
541.72	88.88
541.934	77.88
542.147	80.88
542.361	84.88
542.575	75.88
542.789	95.88
543.002	85.88
543.216	92.88
543.43	77.88
543.644	100.88
543.857	86.88
544.071	83.88
544.285	92.88
544.498	95.88
544.712	80.88
544.925	79.88
545.139	78.88
545.352	86.88
545.566	74.88
545.779	79.88
545.993	97.88
546.206	97.88
546.42	84.88
546.633	94.88
546.847	85.88
547.06	98.88
547.274	94.88
547.487	96.88
547.7	91.88
547.914	111.88
548.127	119.88
548.34	120.88
548.554	102.88
548.767	116.88
548.98	107.88
549.193	116.88
549.407	119.88
549.62	121.88
549.833	119.88
550.046	126.88
550.259	132.88
550.473	120.88
550.686	115.88
550.899	141.88
551.112	149.88
551.325	140.88
551.538	139.88
551.751	154.88
551.964	144.88
552.177	146.88
552.39	144.88
552.603	139.88
552.816	150.88
553.029	136.88
553.242	163.88
553.455	149.88
553.667	158.88
553.88	173.88
554.093	166.88
554.306	189.88
554.519	187.88
554.732	173.88
554.944	159.88
555.157	171.88
555.37	150.88
555.583	150.88
555.795	140.88
556.008	138.88
556.221	124.88
556.433	126.88
556.646	135.88
556.859	126.88
557.071	118.88
557.284	101.88
557.496	109.88
557.709	118.88
557.921	118.88
558.134	112.88
558.346	122.88
558.559	110.88
558.771	92.88
558.984	120.88
559.196	150.88
559.409	119.88
559.621	123.88
559.833	109.88
560.046	123.88
560.258	102.88
560.47	111.88
560.683	88.88
560.895	86.88
561.107	75.88
561.32	88.88
561.532	90.88
561.744	80.88
561.956	90.88
562.168	101.88
562.381	92.88
562.593	77.88
562.805	90.88
563.017	79.88
563.229	83.88
563.441	102.88
563.653	61.88
563.865	82.88
564.077	97.88
564.289	77.88
564.501	75.88
564.713	94.88
564.925	76.88
565.137	74.88
565.349	93.88
565.561	97.88
565.773	82.88
565.985	92.88
566.197	89.88
566.408	84.88
566.62	94.88
566.832	92.88
567.044	83.88
567.255	85.88
567.467	85.88
567.679	91.88
567.891	86.88
568.102	93.88
568.314	87.88
568.526	89.88
568.737	91.88
568.949	72.88
569.161	93.88
569.372	89.88
569.584	90.88
569.795	90.88
570.007	90.88
570.218	84.88
570.43	85.88
570.641	91.88
570.853	88.88
571.064	83.88
571.276	90.88
571.487	87.88
571.698	84.88
571.91	87.88
572.121	87.88
572.333	89.88
572.544	87.88
572.755	87.88
572.966	83.88
573.178	98.88
573.389	93.88
573.6	101.88
573.811	103.88
574.023	87.88
574.234	99.88
574.445	93.88
574.656	82.88
574.867	73.88
575.078	85.88
575.289	92.88
575.501	87.88
575.712	86.88
575.923	84.88
576.134	97.88
576.345	73.88
576.556	75.88
576.767	77.88
576.978	80.88
577.188	89.88
577.399	97.88
577.61	89.88
577.821	82.88
578.032	75.88
578.243	67.88
578.454	82.88
578.665	87.88
578.875	87.88
579.086	85.88
579.297	80.88
579.508	79.88
579.718	84.88
579.929	91.88
580.14	69.88
580.35	79.88
580.561	78.88
580.772	82.88
580.982	90.88
581.193	85.88
581.403	99.88
581.614	77.88
581.825	82.88
582.035	91.88
582.246	91.88
582.456	94.88
582.667	75.88
582.877	91.88
583.087	85.88
583.298	75.88
583.508	77.88
583.719	85.88
583.929	99.88
584.139	83.88
584.35	92.88
584.56	95.88
584.77	83.88
584.981	81.88
585.191	81.88
585.401	95.88
585.611	86.88
585.821	103.88
586.032	102.88
586.242	102.88
586.452	91.88
586.662	98.88
586.872	90.88
587.082	89.88
587.292	75.88
587.502	89.88
587.713	97.88
587.923	99.88
588.133	94.88
588.343	95.88
588.553	89.88
588.762	112.88
588.972	140.88
589.182	235.88
589.392	189.88
589.602	147.88
589.812	176.88
590.022	139.88
590.232	91.88
590.441	106.88
590.651	91.88
590.861	90.88
591.071	97.88
591.281	100.88
591.49	92.88
591.7	87.88
591.91	85.88
592.119	82.88
592.329	95.88
592.539	101.88
592.748	91.88
592.958	102.88
593.167	90.88
593.377	93.88
593.587	101.88
593.796	106.88
594.006	101.88
594.215	98.88
594.424	93.88
594.634	96.88
594.843	99.88
595.053	93.88
595.262	109.88
595.472	114.88
595.681	99.88
595.89	113.88
596.1	96.88
596.309	111.88
596.518	109.88
596.727	101.88
596.937	113.88
597.146	107.88
597.355	114.88
597.564	111.88
597.774	121.88
597.983	104.88
598.192	87.88
598.401	111.88
598.61	111.88
598.819	110.88
599.028	124.88
599.237	117.88
599.446	114.88
599.655	118.88
599.864	123.88
600.073	115.88
600.282	116.88
600.491	123.88
600.7	113.88
600.909	108.88
601.118	99.88
601.327	121.88
601.536	125.88
601.745	113.88
601.953	116.88
602.162	112.88
602.371	115.88
602.58	118.88
602.789	97.88
602.997	108.88
603.206	124.88
603.415	118.88
603.623	132.88
603.832	115.88
604.041	115.88
604.249	118.88
604.458	115.88
604.666	123.88
604.875	127.88
605.084	125.88
605.292	119.88
605.501	133.88
605.709	139.88
605.918	118.88
606.126	130.88
606.334	126.88
606.543	127.88
606.751	128.88
606.96	135.88
607.168	129.88
607.376	119.88
607.585	122.88
607.793	114.88
608.001	116.88
608.21	121.88
608.418	108.88
608.626	131.88
608.834	128.88
609.043	136.88
609.251	130.88
609.459	131.88
609.667	135.88
609.875	120.88
610.083	123.88
610.291	139.88
610.499	146.88
610.707	136.88
610.916	125.88
611.124	121.88
611.332	134.88
611.54	131.88
611.748	141.88
611.955	117.88
612.163	147.88
612.371	171.88
612.579	151.88
612.787	134.88
612.995	137.88
613.203	151.88
613.411	126.88
613.618	148.88
613.826	130.88
614.034	137.88
614.242	130.88
614.449	129.88
614.657	147.88
614.865	136.88
615.072	147.88
615.28	147.88
615.488	148.88
615.695	145.88
615.903	136.88
616.111	143.88
616.318	185.88
616.526	166.88
616.733	161.88
616.941	155.88
617.148	147.88
617.356	136.88
617.563	139.88
617.771	138.88
617.978	134.88
618.185	142.88
618.393	144.88
618.6	140.88
618.807	140.88
619.015	134.88
619.222	151.88
619.429	149.88
619.637	136.88
619.844	132.88
620.051	137.88
620.258	144.88
620.466	127.88
620.673	135.88
620.88	130.88
621.087	138.88
621.294	146.88
621.501	146.88
621.708	146.88
621.915	140.88
622.122	132.88
622.329	148.88
622.536	148.88
622.743	146.88
622.95	159.88
623.157	143.88
623.364	125.88
623.571	135.88
623.778	135.88
623.985	142.88
624.192	134.88
624.399	145.88
624.606	149.88
624.812	145.88
625.019	125.88
625.226	137.88
625.433	144.88
625.639	125.88
625.846	140.88
626.053	123.88
626.259	123.88
626.466	135.88
626.673	124.88
626.879	107.88
627.086	111.88
627.293	107.88
627.499	116.88
627.706	131.88
627.912	116.88
628.119	105.88
628.325	114.88
628.532	95.88
628.738	97.88
628.945	94.88
629.151	109.88
629.357	89.88
629.564	102.88
629.77	100.88
629.976	98.88
630.183	92.88
630.389	81.88
630.595	81.88
630.802	87.88
631.008	93.88
631.214	98.88
631.42	83.88
631.627	78.88
631.833	106.88
632.039	87.88
632.245	89.88
632.451	85.88
632.657	90.88
632.863	91.88
633.069	87.88
633.275	79.88
633.481	85.88
633.688	94.88
633.893	82.88
634.099	83.88
634.305	90.88
634.511	91.88
634.717	91.88
634.923	94.88
635.129	91.88
635.335	89.88
635.541	84.88
635.747	99.88
635.952	79.88
636.158	87.88
636.364	84.88
636.57	87.88
636.775	90.88
636.981	89.88
637.187	89.88
637.392	79.88
637.598	91.88
637.804	78.88
638.009	90.88
638.215	79.88
638.421	92.88
638.626	94.88
638.832	89.88
639.037	110.88
639.243	99.88
639.448	85.88
639.654	86.88
639.859	96.88
640.065	86.88
640.27	94.88
640.475	92.88
640.681	87.88
640.886	102.88
641.091	81.88
641.297	87.88
641.502	80.88
641.707	94.88
641.913	79.88
642.118	92.88
642.323	88.88
642.528	80.88
642.733	94.88
642.939	98.88
643.144	92.88
643.349	71.88
643.554	91.88
643.759	80.88
643.964	94.88
644.169	99.88
644.374	93.88
644.579	101.88
644.784	75.88
644.989	83.88
645.194	82.88
645.399	96.88
645.604	79.88
645.809	91.88
646.014	85.88
646.219	93.88
646.423	102.88
646.628	100.88
646.833	93.88
647.038	92.88
647.243	95.88
647.447	85.88
647.652	84.88
647.857	82.88
648.062	74.88
648.266	86.88
648.471	69.88
648.676	72.88
648.88	86.88
649.085	88.88
649.289	86.88
649.494	89.88
649.698	83.88
649.903	94.88
650.107	83.88
650.312	91.88
650.516	82.88
650.721	88.88
650.925	92.88
651.13	83.88
651.334	77.88
651.539	74.88
651.743	83.88
651.947	97.88
652.152	85.88
652.356	85.88
652.56	92.88
652.764	78.88
652.969	83.88
653.173	83.88
653.377	77.88
653.581	83.88
653.785	83.88
653.99	92.88
654.194	77.88
654.398	86.88
654.602	90.88
654.806	74.88
655.01	77.88
655.214	83.88
655.418	98.88
655.622	74.88
655.826	84.88
656.03	91.88
656.234	81.88
656.438	79.88
656.642	86.88
656.846	56.88
657.049	69.88
657.253	72.88
657.457	73.88
657.661	74.88
657.865	91.88
658.068	75.88
658.272	82.88
658.476	72.88
658.68	73.88
658.883	81.88
659.087	85.88
659.291	88.88
659.494	85.88
659.698	75.88
659.901	98.88
660.105	93.88
660.309	77.88
660.512	79.88
660.716	87.88
660.919	66.88
661.123	79.88
661.326	82.88
661.53	77.88
661.733	79.88
661.936	83.88
662.14	76.88
662.343	73.88
662.546	76.88
662.75	70.88
662.953	75.88
663.156	93.88
663.36	72.88
663.563	63.88
663.766	71.88
663.969	73.88
664.173	68.88
664.376	79.88
664.579	76.88
664.782	81.88
664.985	82.88
665.188	85.88
665.391	89.88
665.594	91.88
665.797	78.88
666	94.88
666.203	79.88
666.406	75.88
666.609	73.88
666.812	80.88
667.015	74.88
667.218	85.88
667.421	97.88
667.624	84.88
667.827	81.88
668.03	86.88
668.232	76.88
668.435	67.88
668.638	82.88
668.841	65.88
669.043	78.88
669.246	61.88
669.449	71.88
669.651	87.88
669.854	92.88
670.057	80.88
670.259	79.88
670.462	78.88
670.665	68.88
670.867	77.88
671.07	79.88
671.272	84.88
671.475	71.88
671.677	85.88
671.88	76.88
672.082	77.88
672.284	67.88
672.487	81.88
672.689	82.88
672.892	85.88
