Data from Uncirc_1981_H10_HRD10591_00038.txt Node
Date: Wed Jan 03 12:33:15 EST 2024
User: Yrep
Spectrometer: HR+D1059
Trigger mode: 1
Integration Time (sec): 1.000000E-1
Scans to average: 1
Electric dark correction enabled: true
Nonlinearity correction enabled: false
Boxcar width: 0
XAxis mode: Wavelengths
Number of Pixels in Spectrum: 2048
>>>>>Begin Spectral Data<<<<<
223.165	-15.81
223.4	-15.81
223.635	-15.81
223.869	-32.81
224.104	-27.81
224.338	-24.81
224.573	-20.81
224.808	-10.81
225.042	-13.81
225.277	-6.81
225.511	-1.81
225.746	11.19
225.98	19.19
226.215	9.19
226.449	12.19
226.683	26.19
226.918	36.19
227.152	41.19
227.387	42.19
227.621	42.19
227.856	45.19
228.09	43.19
228.324	44.19
228.559	68.19
228.793	50.19
229.027	63.19
229.262	75.19
229.496	82.19
229.73	88.19
229.964	68.19
230.199	75.19
230.433	68.19
230.667	69.19
230.901	62.19
231.136	72.19
231.37	70.19
231.604	72.19
231.838	80.19
232.072	84.19
232.306	83.19
232.541	72.19
232.775	78.19
233.009	89.19
233.243	87.19
233.477	94.19
233.711	74.19
233.945	92.19
234.179	82.19
234.413	65.19
234.647	69.19
234.881	83.19
235.115	73.19
235.349	62.19
235.583	83.19
235.817	82.19
236.051	78.19
236.285	80.19
236.519	97.19
236.753	69.19
236.987	63.19
237.221	90.19
237.455	88.19
237.689	65.19
237.922	78.19
238.156	89.19
238.39	70.19
238.624	63.19
238.858	65.19
239.091	73.19
239.325	72.19
239.559	80.19
239.793	67.19
240.027	76.19
240.26	65.19
240.494	68.19
240.728	86.19
240.961	85.19
241.195	61.19
241.429	73.19
241.662	74.19
241.896	86.19
242.13	75.19
242.363	64.19
242.597	79.19
242.83	75.19
243.064	79.19
243.298	80.19
243.531	80.19
243.765	72.19
243.998	75.19
244.232	85.19
244.465	81.19
244.699	78.19
244.932	79.19
245.166	67.19
245.399	71.19
245.633	87.19
245.866	83.19
246.099	74.19
246.333	76.19
246.566	80.19
246.8	75.19
247.033	74.19
247.266	75.19
247.5	76.19
247.733	75.19
247.966	80.19
248.2	71.19
248.433	76.19
248.666	79.19
248.899	70.19
249.133	95.19
249.366	91.19
249.599	86.19
249.832	86.19
250.066	83.19
250.299	91.19
250.532	74.19
250.765	78.19
250.998	67.19
251.231	82.19
251.465	57.19
251.698	69.19
251.931	73.19
252.164	70.19
252.397	66.19
252.63	82.19
252.863	75.19
253.096	76.19
253.329	76.19
253.562	67.19
253.795	75.19
254.028	70.19
254.261	85.19
254.494	76.19
254.727	71.19
254.96	77.19
255.193	88.19
255.426	75.19
255.659	88.19
255.892	88.19
256.124	92.19
256.357	78.19
256.59	80.19
256.823	73.19
257.056	78.19
257.289	88.19
257.521	83.19
257.754	71.19
257.987	80.19
258.22	99.19
258.452	86.19
258.685	68.19
258.918	69.19
259.151	73.19
259.383	80.19
259.616	79.19
259.849	86.19
260.081	77.19
260.314	73.19
260.547	90.19
260.779	68.19
261.012	84.19
261.244	78.19
261.477	86.19
261.71	99.19
261.942	81.19
262.175	88.19
262.407	75.19
262.64	88.19
262.872	79.19
263.105	88.19
263.337	85.19
263.57	75.19
263.802	86.19
264.035	86.19
264.267	80.19
264.499	74.19
264.732	76.19
264.964	91.19
265.197	84.19
265.429	65.19
265.661	66.19
265.894	86.19
266.126	73.19
266.358	87.19
266.591	87.19
266.823	74.19
267.055	89.19
267.287	81.19
267.52	69.19
267.752	78.19
267.984	85.19
268.216	78.19
268.448	81.19
268.681	66.19
268.913	81.19
269.145	91.19
269.377	99.19
269.609	87.19
269.841	86.19
270.073	86.19
270.306	82.19
270.538	75.19
270.77	83.19
271.002	75.19
271.234	76.19
271.466	83.19
271.698	80.19
271.93	89.19
272.162	83.19
272.394	83.19
272.626	89.19
272.858	98.19
273.09	82.19
273.322	84.19
273.553	94.19
273.785	77.19
274.017	84.19
274.249	82.19
274.481	68.19
274.713	79.19
274.945	88.19
275.176	89.19
275.408	92.19
275.64	77.19
275.872	90.19
276.104	89.19
276.335	78.19
276.567	81.19
276.799	94.19
277.031	87.19
277.262	97.19
277.494	82.19
277.726	83.19
277.957	86.19
278.189	74.19
278.421	90.19
278.652	79.19
278.884	79.19
279.115	84.19
279.347	79.19
279.579	91.19
279.81	81.19
280.042	74.19
280.273	88.19
280.505	74.19
280.736	90.19
280.968	90.19
281.199	77.19
281.431	99.19
281.662	102.19
281.894	88.19
282.125	90.19
282.356	91.19
282.588	119.19
282.819	107.19
283.051	99.19
283.282	98.19
283.513	80.19
283.745	78.19
283.976	88.19
284.207	74.19
284.439	80.19
284.67	80.19
284.901	97.19
285.132	73.19
285.364	79.19
285.595	84.19
285.826	84.19
286.057	83.19
286.288	85.19
286.52	95.19
286.751	84.19
286.982	82.19
287.213	78.19
287.444	90.19
287.675	103.19
287.906	87.19
288.138	91.19
288.369	92.19
288.6	97.19
288.831	80.19
289.062	82.19
289.293	86.19
289.524	72.19
289.755	90.19
289.986	90.19
290.217	87.19
290.448	84.19
290.679	84.19
290.91	88.19
291.141	76.19
291.371	88.19
291.602	82.19
291.833	91.19
292.064	93.19
292.295	93.19
292.526	80.19
292.757	89.19
292.987	84.19
293.218	86.19
293.449	91.19
293.68	87.19
293.91	85.19
294.141	94.19
294.372	99.19
294.603	96.19
294.833	83.19
295.064	84.19
295.295	98.19
295.525	98.19
295.756	90.19
295.987	106.19
296.217	117.19
296.448	107.19
296.679	88.19
296.909	86.19
297.14	76.19
297.37	91.19
297.601	92.19
297.831	72.19
298.062	90.19
298.292	86.19
298.523	78.19
298.753	80.19
298.984	94.19
299.214	91.19
299.445	96.19
299.675	97.19
299.905	87.19
300.136	84.19
300.366	84.19
300.597	86.19
300.827	88.19
301.057	82.19
301.288	90.19
301.518	94.19
301.748	76.19
301.979	86.19
302.209	86.19
302.439	82.19
302.669	86.19
302.9	85.19
303.13	79.19
303.36	108.19
303.59	97.19
303.82	87.19
304.051	87.19
304.281	76.19
304.511	93.19
304.741	70.19
304.971	88.19
305.201	89.19
305.431	91.19
305.661	99.19
305.891	93.19
306.121	101.19
306.352	95.19
306.582	102.19
306.812	96.19
307.042	80.19
307.272	84.19
307.502	82.19
307.731	93.19
307.961	86.19
308.191	82.19
308.421	84.19
308.651	88.19
308.881	76.19
309.111	87.19
309.341	104.19
309.571	101.19
309.8	108.19
310.03	83.19
310.26	87.19
310.49	90.19
310.72	85.19
310.949	103.19
311.179	97.19
311.409	96.19
311.639	95.19
311.868	94.19
312.098	90.19
312.328	98.19
312.557	98.19
312.787	109.19
313.017	99.19
313.246	90.19
313.476	98.19
313.706	104.19
313.935	112.19
314.165	97.19
314.394	106.19
314.624	90.19
314.853	88.19
315.083	90.19
315.312	91.19
315.542	91.19
315.771	97.19
316.001	92.19
316.23	84.19
316.46	93.19
316.689	82.19
316.919	84.19
317.148	95.19
317.377	81.19
317.607	87.19
317.836	79.19
318.065	101.19
318.295	95.19
318.524	96.19
318.753	88.19
318.983	91.19
319.212	88.19
319.441	103.19
319.67	116.19
319.9	107.19
320.129	97.19
320.358	99.19
320.587	106.19
320.816	96.19
321.046	105.19
321.275	93.19
321.504	104.19
321.733	104.19
321.962	97.19
322.191	94.19
322.42	99.19
322.649	107.19
322.878	101.19
323.108	111.19
323.337	106.19
323.566	131.19
323.795	150.19
324.024	188.19
324.253	376.19
324.482	793.19
324.71	1647.19
324.939	2248.19
325.168	815.19
325.397	226.19
325.626	142.19
325.855	102.19
326.084	130.19
326.313	120.19
326.542	161.19
326.77	218.19
326.999	432.19
327.228	911.19
327.457	1765.19
327.686	1427.19
327.914	377.19
328.143	178.19
328.372	150.19
328.6	133.19
328.829	118.19
329.058	95.19
329.287	118.19
329.515	108.19
329.744	101.19
329.972	107.19
330.201	113.19
330.43	115.19
330.658	109.19
330.887	117.19
331.115	108.19
331.344	96.19
331.572	87.19
331.801	102.19
332.03	89.19
332.258	91.19
332.486	90.19
332.715	94.19
332.943	86.19
333.172	94.19
333.4	97.19
333.629	102.19
333.857	115.19
334.085	90.19
334.314	104.19
334.542	95.19
334.771	106.19
334.999	110.19
335.227	91.19
335.455	85.19
335.684	91.19
335.912	86.19
336.14	116.19
336.369	99.19
336.597	88.19
336.825	83.19
337.053	103.19
337.281	85.19
337.51	85.19
337.738	88.19
337.966	91.19
338.194	95.19
338.422	98.19
338.65	93.19
338.878	88.19
339.106	92.19
339.334	79.19
339.562	78.19
339.79	88.19
340.018	95.19
340.246	93.19
340.474	93.19
340.702	82.19
340.93	92.19
341.158	90.19
341.386	90.19
341.614	91.19
341.842	98.19
342.07	88.19
342.298	102.19
342.526	83.19
342.754	88.19
342.981	90.19
343.209	88.19
343.437	113.19
343.665	88.19
343.893	99.19
344.12	86.19
344.348	93.19
344.576	89.19
344.804	80.19
345.031	95.19
345.259	99.19
345.487	82.19
345.714	89.19
345.942	87.19
346.17	83.19
346.397	88.19
346.625	84.19
346.853	91.19
347.08	91.19
347.308	86.19
347.535	101.19
347.763	90.19
347.99	92.19
348.218	102.19
348.445	92.19
348.673	101.19
348.9	100.19
349.128	66.19
349.355	84.19
349.583	99.19
349.81	96.19
350.037	102.19
350.265	99.19
350.492	74.19
350.72	93.19
350.947	96.19
351.174	116.19
351.402	100.19
351.629	85.19
351.856	99.19
352.083	99.19
352.311	105.19
352.538	113.19
352.765	102.19
352.992	114.19
353.22	92.19
353.447	94.19
353.674	106.19
353.901	94.19
354.128	90.19
354.355	107.19
354.583	98.19
354.81	114.19
355.037	109.19
355.264	101.19
355.491	106.19
355.718	82.19
355.945	90.19
356.172	92.19
356.399	95.19
356.626	83.19
356.853	96.19
357.08	96.19
357.307	79.19
357.534	81.19
357.761	98.19
357.988	106.19
358.215	93.19
358.441	86.19
358.668	87.19
358.895	80.19
359.122	84.19
359.349	91.19
359.576	89.19
359.802	92.19
360.029	102.19
360.256	103.19
360.483	104.19
360.709	91.19
360.936	96.19
361.163	92.19
361.39	92.19
361.616	87.19
361.843	89.19
362.07	96.19
362.296	83.19
362.523	81.19
362.749	98.19
362.976	87.19
363.203	100.19
363.429	97.19
363.656	90.19
363.882	85.19
364.109	93.19
364.335	79.19
364.562	78.19
364.788	88.19
365.015	94.19
365.241	105.19
365.468	88.19
365.694	96.19
365.92	87.19
366.147	99.19
366.373	95.19
366.599	94.19
366.826	91.19
367.052	78.19
367.278	101.19
367.505	82.19
367.731	97.19
367.957	68.19
368.184	83.19
368.41	95.19
368.636	112.19
368.862	94.19
369.089	84.19
369.315	94.19
369.541	97.19
369.767	94.19
369.993	114.19
370.219	97.19
370.445	102.19
370.672	83.19
370.898	87.19
371.124	88.19
371.35	93.19
371.576	84.19
371.802	94.19
372.028	88.19
372.254	84.19
372.48	78.19
372.706	84.19
372.932	81.19
373.158	85.19
373.384	94.19
373.61	100.19
373.835	100.19
374.061	87.19
374.287	95.19
374.513	89.19
374.739	86.19
374.965	75.19
375.191	85.19
375.416	93.19
375.642	80.19
375.868	88.19
376.094	98.19
376.319	99.19
376.545	94.19
376.771	82.19
376.997	90.19
377.222	101.19
377.448	82.19
377.674	101.19
377.899	79.19
378.125	89.19
378.35	94.19
378.576	97.19
378.802	78.19
379.027	92.19
379.253	79.19
379.478	87.19
379.704	90.19
379.929	92.19
380.155	94.19
380.38	98.19
380.606	80.19
380.831	96.19
381.057	97.19
381.282	88.19
381.507	94.19
381.733	90.19
381.958	97.19
382.184	94.19
382.409	88.19
382.634	99.19
382.86	102.19
383.085	94.19
383.31	104.19
383.535	103.19
383.761	93.19
383.986	83.19
384.211	86.19
384.436	107.19
384.662	107.19
384.887	87.19
385.112	112.19
385.337	123.19
385.562	111.19
385.787	107.19
386.013	118.19
386.238	119.19
386.463	104.19
386.688	110.19
386.913	119.19
387.138	107.19
387.363	94.19
387.588	96.19
387.813	95.19
388.038	103.19
388.263	114.19
388.488	104.19
388.713	86.19
388.938	82.19
389.163	91.19
389.387	98.19
389.612	98.19
389.837	83.19
390.062	100.19
390.287	101.19
390.512	94.19
390.736	101.19
390.961	72.19
391.186	88.19
391.411	92.19
391.636	77.19
391.86	70.19
392.085	80.19
392.31	79.19
392.534	90.19
392.759	85.19
392.984	81.19
393.208	84.19
393.433	92.19
393.658	82.19
393.882	92.19
394.107	92.19
394.331	97.19
394.556	92.19
394.78	97.19
395.005	68.19
395.229	88.19
395.454	79.19
395.678	79.19
395.903	75.19
396.127	88.19
396.352	90.19
396.576	84.19
396.801	83.19
397.025	90.19
397.249	88.19
397.474	88.19
397.698	82.19
397.922	81.19
398.147	89.19
398.371	82.19
398.595	103.19
398.82	75.19
399.044	85.19
399.268	95.19
399.492	86.19
399.717	82.19
399.941	89.19
400.165	91.19
400.389	97.19
400.613	90.19
400.837	80.19
401.062	87.19
401.286	87.19
401.51	94.19
401.734	88.19
401.958	108.19
402.182	120.19
402.406	139.19
402.63	109.19
402.854	110.19
403.078	83.19
403.302	91.19
403.526	95.19
403.75	82.19
403.974	86.19
404.198	101.19
404.422	94.19
404.645	94.19
404.869	92.19
405.093	92.19
405.317	88.19
405.541	94.19
405.765	98.19
405.988	108.19
406.212	148.19
406.436	171.19
406.66	125.19
406.883	94.19
407.107	91.19
407.331	95.19
407.555	104.19
407.778	96.19
408.002	91.19
408.226	94.19
408.449	97.19
408.673	88.19
408.896	84.19
409.12	84.19
409.344	81.19
409.567	95.19
409.791	86.19
410.014	84.19
410.238	97.19
410.461	94.19
410.685	95.19
410.908	113.19
411.132	108.19
411.355	99.19
411.578	93.19
411.802	80.19
412.025	85.19
412.249	85.19
412.472	82.19
412.695	92.19
412.919	107.19
413.142	92.19
413.365	86.19
413.589	82.19
413.812	90.19
414.035	90.19
414.258	92.19
414.482	75.19
414.705	87.19
414.928	83.19
415.151	92.19
415.374	89.19
415.597	90.19
415.821	82.19
416.044	79.19
416.267	91.19
416.49	91.19
416.713	87.19
416.936	94.19
417.159	84.19
417.382	86.19
417.605	92.19
417.828	90.19
418.051	95.19
418.274	90.19
418.497	94.19
418.72	81.19
418.943	97.19
419.166	73.19
419.389	85.19
419.611	81.19
419.834	92.19
420.057	96.19
420.28	113.19
420.503	76.19
420.726	72.19
420.948	88.19
421.171	88.19
421.394	89.19
421.617	101.19
421.839	105.19
422.062	96.19
422.285	89.19
422.507	87.19
422.73	101.19
422.953	85.19
423.175	99.19
423.398	86.19
423.621	79.19
423.843	88.19
424.066	96.19
424.288	108.19
424.511	89.19
424.733	91.19
424.956	101.19
425.178	83.19
425.401	92.19
425.623	111.19
425.846	81.19
426.068	84.19
426.291	90.19
426.513	94.19
426.735	78.19
426.958	89.19
427.18	104.19
427.402	136.19
427.625	158.19
427.847	122.19
428.069	100.19
428.292	92.19
428.514	90.19
428.736	87.19
428.958	92.19
429.181	91.19
429.403	98.19
429.625	86.19
429.847	96.19
430.069	111.19
430.292	98.19
430.514	82.19
430.736	85.19
430.958	81.19
431.18	78.19
431.402	95.19
431.624	87.19
431.846	83.19
432.068	82.19
432.29	90.19
432.512	85.19
432.734	78.19
432.956	84.19
433.178	94.19
433.4	100.19
433.622	93.19
433.844	95.19
434.066	88.19
434.287	84.19
434.509	101.19
434.731	88.19
434.953	87.19
435.175	94.19
435.397	70.19
435.618	99.19
435.84	105.19
436.062	114.19
436.284	108.19
436.505	89.19
436.727	91.19
436.949	88.19
437.17	96.19
437.392	86.19
437.614	85.19
437.835	89.19
438.057	111.19
438.278	108.19
438.5	109.19
438.721	108.19
438.943	98.19
439.165	84.19
439.386	90.19
439.608	97.19
439.829	102.19
440.05	120.19
440.272	131.19
440.493	98.19
440.715	87.19
440.936	96.19
441.158	80.19
441.379	78.19
441.6	96.19
441.822	97.19
442.043	86.19
442.264	99.19
442.486	98.19
442.707	89.19
442.928	112.19
443.149	133.19
443.371	116.19
443.592	99.19
443.813	116.19
444.034	93.19
444.255	103.19
444.476	87.19
444.698	94.19
444.919	72.19
445.14	123.19
445.361	126.19
445.582	122.19
445.803	122.19
446.024	142.19
446.245	131.19
446.466	105.19
446.687	102.19
446.908	89.19
447.129	101.19
447.35	92.19
447.571	94.19
447.792	88.19
448.013	83.19
448.234	92.19
448.455	95.19
448.675	97.19
448.896	114.19
449.117	91.19
449.338	108.19
449.559	124.19
449.779	130.19
450	88.19
450.221	79.19
450.442	81.19
450.662	99.19
450.883	101.19
451.104	103.19
451.324	98.19
451.545	92.19
451.766	93.19
451.986	82.19
452.207	85.19
452.428	100.19
452.648	89.19
452.869	103.19
453.089	102.19
453.31	99.19
453.53	91.19
453.751	88.19
453.971	99.19
454.192	95.19
454.412	75.19
454.633	80.19
454.853	88.19
455.073	79.19
455.294	91.19
455.514	103.19
455.734	91.19
455.955	85.19
456.175	73.19
456.395	78.19
456.616	82.19
456.836	96.19
457.056	94.19
457.276	81.19
457.497	76.19
457.717	86.19
457.937	96.19
458.157	91.19
458.377	92.19
458.598	96.19
458.818	135.19
459.038	134.19
459.258	108.19
459.478	84.19
459.698	90.19
459.918	84.19
460.138	79.19
460.358	78.19
460.578	82.19
460.798	76.19
461.018	84.19
461.238	86.19
461.458	82.19
461.678	79.19
461.898	76.19
462.118	84.19
462.338	78.19
462.558	71.19
462.777	89.19
462.997	83.19
463.217	97.19
463.437	90.19
463.657	82.19
463.876	85.19
464.096	82.19
464.316	90.19
464.536	86.19
464.755	90.19
464.975	98.19
465.195	153.19
465.414	140.19
465.634	98.19
465.854	84.19
466.073	75.19
466.293	90.19
466.512	86.19
466.732	93.19
466.951	86.19
467.171	91.19
467.391	87.19
467.61	94.19
467.829	97.19
468.049	79.19
468.268	92.19
468.488	80.19
468.707	87.19
468.927	78.19
469.146	87.19
469.365	79.19
469.585	87.19
469.804	81.19
470.023	90.19
470.243	103.19
470.462	85.19
470.681	83.19
470.901	80.19
471.12	92.19
471.339	73.19
471.558	74.19
471.777	97.19
471.997	98.19
472.216	113.19
472.435	126.19
472.654	93.19
472.873	94.19
473.092	91.19
473.311	78.19
473.53	65.19
473.749	81.19
473.968	89.19
474.187	90.19
474.406	83.19
474.625	105.19
474.844	91.19
475.063	71.19
475.282	72.19
475.501	78.19
475.72	86.19
475.939	74.19
476.158	87.19
476.377	81.19
476.596	91.19
476.814	94.19
477.033	99.19
477.252	80.19
477.471	82.19
477.69	100.19
477.908	71.19
478.127	82.19
478.346	96.19
478.564	90.19
478.783	82.19
479.002	90.19
479.22	84.19
479.439	95.19
479.658	98.19
479.876	94.19
480.095	85.19
480.313	82.19
480.532	82.19
480.751	71.19
480.969	106.19
481.188	162.19
481.406	130.19
481.624	86.19
481.843	92.19
482.061	84.19
482.28	88.19
482.498	89.19
482.717	83.19
482.935	70.19
483.153	92.19
483.372	93.19
483.59	93.19
483.808	104.19
484.027	89.19
484.245	79.19
484.463	97.19
484.681	100.19
484.9	91.19
485.118	104.19
485.336	95.19
485.554	103.19
485.772	88.19
485.99	97.19
486.209	105.19
486.427	116.19
486.645	112.19
486.863	98.19
487.081	110.19
487.299	91.19
487.517	84.19
487.735	87.19
487.953	87.19
488.171	90.19
488.389	92.19
488.607	97.19
488.825	91.19
489.043	88.19
489.261	81.19
489.479	80.19
489.696	88.19
489.914	90.19
490.132	90.19
490.35	100.19
490.568	83.19
490.786	71.19
491.003	82.19
491.221	80.19
491.439	99.19
491.657	96.19
491.874	82.19
492.092	84.19
492.31	82.19
492.527	88.19
492.745	86.19
492.963	89.19
493.18	95.19
493.398	93.19
493.615	108.19
493.833	83.19
494.05	88.19
494.268	87.19
494.485	92.19
494.703	93.19
494.92	91.19
495.138	75.19
495.355	106.19
495.573	88.19
495.79	97.19
496.008	81.19
496.225	84.19
496.442	91.19
496.66	78.19
496.877	90.19
497.094	94.19
497.312	90.19
497.529	90.19
497.746	90.19
497.963	85.19
498.181	98.19
498.398	107.19
498.615	90.19
498.832	92.19
499.049	87.19
499.267	75.19
499.484	89.19
499.701	89.19
499.918	92.19
500.135	91.19
500.352	90.19
500.569	84.19
500.786	83.19
501.003	87.19
501.22	94.19
501.437	93.19
501.654	96.19
501.871	114.19
502.088	94.19
502.305	92.19
502.522	69.19
502.739	90.19
502.956	94.19
503.172	82.19
503.389	90.19
503.606	98.19
503.823	73.19
504.04	89.19
504.256	90.19
504.473	89.19
504.69	90.19
504.907	83.19
505.123	86.19
505.34	103.19
505.557	88.19
505.773	101.19
505.99	86.19
506.207	94.19
506.423	92.19
506.64	98.19
506.856	91.19
507.073	104.19
507.289	92.19
507.506	97.19
507.722	102.19
507.939	108.19
508.155	92.19
508.372	96.19
508.588	84.19
508.805	87.19
509.021	88.19
509.238	100.19
509.454	97.19
509.67	87.19
509.887	102.19
510.103	114.19
510.319	170.19
510.536	578.19
510.752	1718.19
510.968	500.19
511.184	144.19
511.401	105.19
511.617	94.19
511.833	85.19
512.049	93.19
512.265	88.19
512.481	82.19
512.698	72.19
512.914	95.19
513.13	81.19
513.346	92.19
513.562	107.19
513.778	98.19
513.994	81.19
514.21	97.19
514.426	101.19
514.642	114.19
514.858	121.19
515.074	146.19
515.29	344.19
515.506	1066.19
515.721	417.19
515.937	117.19
516.153	103.19
516.369	116.19
516.585	83.19
516.801	91.19
517.016	98.19
517.232	105.19
517.448	97.19
517.664	86.19
517.879	101.19
518.095	86.19
518.311	87.19
518.527	92.19
518.742	90.19
518.958	100.19
519.173	90.19
519.389	88.19
519.605	92.19
519.82	65.19
520.036	95.19
520.251	107.19
520.467	106.19
520.682	103.19
520.898	94.19
521.113	112.19
521.329	119.19
521.544	184.19
521.76	457.19
521.975	1812.19
522.19	1081.19
522.406	251.19
522.621	111.19
522.836	105.19
523.052	98.19
523.267	79.19
523.482	94.19
523.698	100.19
523.913	108.19
524.128	85.19
524.343	97.19
524.559	90.19
524.774	86.19
524.989	94.19
525.204	97.19
525.419	90.19
525.634	83.19
525.849	100.19
526.064	86.19
526.28	97.19
526.495	88.19
526.71	89.19
526.925	94.19
527.14	79.19
527.355	91.19
527.57	81.19
527.785	72.19
527.999	86.19
528.214	86.19
528.429	89.19
528.644	82.19
528.859	92.19
529.074	91.19
529.289	103.19
529.503	157.19
529.718	91.19
529.933	96.19
530.148	69.19
530.363	83.19
530.577	86.19
530.792	104.19
531.007	84.19
531.221	87.19
531.436	74.19
531.651	76.19
531.865	94.19
532.08	90.19
532.295	84.19
532.509	85.19
532.724	84.19
532.938	96.19
533.153	106.19
533.367	98.19
533.582	93.19
533.796	91.19
534.011	94.19
534.225	97.19
534.44	88.19
534.654	80.19
534.868	84.19
535.083	78.19
535.297	94.19
535.511	101.19
535.726	111.19
535.94	99.19
536.154	86.19
536.369	86.19
536.583	65.19
536.797	105.19
537.011	95.19
537.225	92.19
537.44	94.19
537.654	71.19
537.868	78.19
538.082	86.19
538.296	81.19
538.51	99.19
538.724	78.19
538.938	88.19
539.153	81.19
539.367	89.19
539.581	89.19
539.795	86.19
540.009	81.19
540.222	101.19
540.436	69.19
540.65	84.19
540.864	97.19
541.078	92.19
541.292	84.19
541.506	87.19
541.72	80.19
541.934	91.19
542.147	84.19
542.361	82.19
542.575	83.19
542.789	89.19
543.002	88.19
543.216	100.19
543.43	107.19
543.644	105.19
543.857	90.19
544.071	86.19
544.285	71.19
544.498	85.19
544.712	97.19
544.925	91.19
545.139	85.19
545.352	81.19
545.566	90.19
545.779	92.19
545.993	87.19
546.206	79.19
546.42	87.19
546.633	86.19
546.847	86.19
547.06	87.19
547.274	75.19
547.487	84.19
547.7	71.19
547.914	90.19
548.127	86.19
548.34	90.19
548.554	102.19
548.767	91.19
548.98	93.19
549.193	83.19
549.407	81.19
549.62	92.19
549.833	87.19
550.046	79.19
550.259	83.19
550.473	94.19
550.686	82.19
550.899	96.19
551.112	91.19
551.325	88.19
551.538	87.19
551.751	79.19
551.964	92.19
552.177	104.19
552.39	85.19
552.603	74.19
552.816	83.19
553.029	78.19
553.242	87.19
553.455	97.19
553.667	99.19
553.88	101.19
554.093	85.19
554.306	100.19
554.519	84.19
554.732	80.19
554.944	87.19
555.157	95.19
555.37	96.19
555.583	88.19
555.795	96.19
556.008	90.19
556.221	74.19
556.433	87.19
556.646	100.19
556.859	98.19
557.071	104.19
557.284	85.19
557.496	90.19
557.709	89.19
557.921	79.19
558.134	95.19
558.346	90.19
558.559	85.19
558.771	84.19
558.984	88.19
559.196	88.19
559.409	89.19
559.621	89.19
559.833	103.19
560.046	96.19
560.258	89.19
560.47	94.19
560.683	99.19
560.895	94.19
561.107	80.19
561.32	86.19
561.532	90.19
561.744	88.19
561.956	84.19
562.168	87.19
562.381	84.19
562.593	96.19
562.805	102.19
563.017	91.19
563.229	68.19
563.441	92.19
563.653	82.19
563.865	79.19
564.077	80.19
564.289	86.19
564.501	91.19
564.713	106.19
564.925	78.19
565.137	86.19
565.349	78.19
565.561	100.19
565.773	95.19
565.985	98.19
566.197	86.19
566.408	90.19
566.62	83.19
566.832	94.19
567.044	91.19
567.255	90.19
567.467	66.19
567.679	80.19
567.891	86.19
568.102	94.19
568.314	73.19
568.526	90.19
568.737	80.19
568.949	72.19
569.161	82.19
569.372	82.19
569.584	83.19
569.795	107.19
570.007	109.19
570.218	198.19
570.43	127.19
570.641	81.19
570.853	104.19
571.064	76.19
571.276	93.19
571.487	95.19
571.698	94.19
571.91	82.19
572.121	92.19
572.333	79.19
572.544	76.19
572.755	103.19
572.966	89.19
573.178	89.19
573.389	94.19
573.6	80.19
573.811	90.19
574.023	80.19
574.234	97.19
574.445	99.19
574.656	85.19
574.867	105.19
575.078	91.19
575.289	80.19
575.501	89.19
575.712	78.19
575.923	90.19
576.134	86.19
576.345	82.19
576.556	81.19
576.767	87.19
576.978	97.19
577.188	91.19
577.399	87.19
577.61	95.19
577.821	99.19
578.032	120.19
578.243	222.19
578.454	570.19
578.665	170.19
578.875	101.19
579.086	104.19
579.297	83.19
579.508	94.19
579.718	104.19
579.929	83.19
580.14	88.19
580.35	87.19
580.561	90.19
580.772	88.19
580.982	101.19
581.193	90.19
581.403	68.19
581.614	90.19
581.825	82.19
582.035	83.19
582.246	85.19
582.456	82.19
582.667	85.19
582.877	62.19
583.087	83.19
583.298	85.19
583.508	78.19
583.719	82.19
583.929	87.19
584.139	102.19
584.35	95.19
584.56	91.19
584.77	97.19
584.981	87.19
585.191	92.19
585.401	82.19
585.611	84.19
585.821	84.19
586.032	88.19
586.242	83.19
586.452	94.19
586.662	84.19
586.872	84.19
587.082	91.19
587.292	81.19
587.502	91.19
587.713	97.19
587.923	97.19
588.133	83.19
588.343	93.19
588.553	83.19
588.762	90.19
588.972	79.19
589.182	86.19
589.392	78.19
589.602	85.19
589.812	98.19
590.022	84.19
590.232	94.19
590.441	89.19
590.651	80.19
590.861	74.19
591.071	94.19
591.281	92.19
591.49	97.19
591.7	84.19
591.91	92.19
592.119	86.19
592.329	78.19
592.539	90.19
592.748	75.19
592.958	70.19
593.167	78.19
593.377	82.19
593.587	90.19
593.796	94.19
594.006	82.19
594.215	76.19
594.424	86.19
594.634	81.19
594.843	78.19
595.053	76.19
595.262	75.19
595.472	88.19
595.681	93.19
595.89	92.19
596.1	86.19
596.309	82.19
596.518	80.19
596.727	80.19
596.937	91.19
597.146	88.19
597.355	90.19
597.564	76.19
597.774	95.19
597.983	75.19
598.192	73.19
598.401	78.19
598.61	84.19
598.819	92.19
599.028	79.19
599.237	82.19
599.446	67.19
599.655	78.19
599.864	91.19
600.073	77.19
600.282	87.19
600.491	101.19
600.7	82.19
600.909	72.19
601.118	93.19
601.327	95.19
601.536	79.19
601.745	79.19
601.953	87.19
602.162	90.19
602.371	89.19
602.58	82.19
602.789	80.19
602.997	93.19
603.206	86.19
603.415	94.19
603.623	94.19
603.832	93.19
604.041	73.19
604.249	79.19
604.458	80.19
604.666	87.19
604.875	85.19
605.084	84.19
605.292	80.19
605.501	74.19
605.709	89.19
605.918	86.19
606.126	71.19
606.334	90.19
606.543	80.19
606.751	86.19
606.96	84.19
607.168	85.19
607.376	85.19
607.585	82.19
607.793	92.19
608.001	92.19
608.21	84.19
608.418	91.19
608.626	87.19
608.834	98.19
609.043	80.19
609.251	96.19
609.459	72.19
609.667	90.19
609.875	75.19
610.083	68.19
610.291	81.19
610.499	80.19
610.707	75.19
610.916	98.19
611.124	96.19
611.332	90.19
611.54	91.19
611.748	103.19
611.955	89.19
612.163	78.19
612.371	82.19
612.579	74.19
612.787	82.19
612.995	95.19
613.203	89.19
613.411	82.19
613.618	84.19
613.826	86.19
614.034	77.19
614.242	81.19
614.449	68.19
614.657	91.19
614.865	82.19
615.072	92.19
615.28	86.19
615.488	93.19
615.695	85.19
615.903	78.19
616.111	89.19
616.318	90.19
616.526	87.19
616.733	89.19
616.941	82.19
617.148	101.19
617.356	76.19
617.563	78.19
617.771	80.19
617.978	73.19
618.185	90.19
618.393	88.19
618.6	78.19
618.807	89.19
619.015	66.19
619.222	78.19
619.429	92.19
619.637	73.19
619.844	64.19
620.051	80.19
620.258	84.19
620.466	92.19
620.673	84.19
620.88	81.19
621.087	80.19
621.294	94.19
621.501	86.19
621.708	76.19
621.915	80.19
622.122	90.19
622.329	70.19
622.536	86.19
622.743	81.19
622.95	88.19
623.157	88.19
623.364	92.19
623.571	83.19
623.778	82.19
623.985	82.19
624.192	82.19
624.399	68.19
624.606	88.19
624.812	82.19
625.019	81.19
625.226	86.19
625.433	89.19
625.639	82.19
625.846	71.19
626.053	80.19
626.259	78.19
626.466	88.19
626.673	82.19
626.879	72.19
627.086	82.19
627.293	65.19
627.499	72.19
627.706	79.19
627.912	77.19
628.119	85.19
628.325	77.19
628.532	96.19
628.738	82.19
628.945	70.19
629.151	94.19
629.357	66.19
629.564	67.19
629.77	86.19
629.976	78.19
630.183	84.19
630.389	77.19
630.595	94.19
630.802	79.19
631.008	76.19
631.214	81.19
631.42	85.19
631.627	103.19
631.833	85.19
632.039	87.19
632.245	95.19
632.451	87.19
632.657	74.19
632.863	94.19
633.069	76.19
633.275	62.19
633.481	84.19
633.688	84.19
633.893	80.19
634.099	78.19
634.305	88.19
634.511	72.19
634.717	78.19
634.923	86.19
635.129	64.19
635.335	92.19
635.541	86.19
635.747	87.19
635.952	88.19
636.158	84.19
636.364	88.19
636.57	84.19
636.775	94.19
636.981	78.19
637.187	88.19
637.392	86.19
637.598	72.19
637.804	82.19
638.009	103.19
638.215	78.19
638.421	79.19
638.626	90.19
638.832	86.19
639.037	82.19
639.243	87.19
639.448	91.19
639.654	82.19
639.859	86.19
640.065	78.19
640.27	73.19
640.475	89.19
640.681	99.19
640.886	98.19
641.091	91.19
641.297	92.19
641.502	84.19
641.707	86.19
641.913	80.19
642.118	78.19
642.323	76.19
642.528	82.19
642.733	81.19
642.939	78.19
643.144	74.19
643.349	97.19
643.554	81.19
643.759	83.19
643.964	91.19
644.169	73.19
644.374	74.19
644.579	83.19
644.784	85.19
644.989	84.19
645.194	96.19
645.399	76.19
645.604	81.19
645.809	94.19
646.014	88.19
646.219	83.19
646.423	80.19
646.628	68.19
646.833	80.19
647.038	88.19
647.243	79.19
647.447	87.19
647.652	98.19
647.857	59.19
648.062	86.19
648.266	91.19
648.471	86.19
648.676	91.19
648.88	83.19
649.085	87.19
649.289	100.19
649.494	96.19
649.698	140.19
649.903	116.19
650.107	85.19
650.312	84.19
650.516	84.19
650.721	75.19
650.925	79.19
651.13	81.19
651.334	85.19
651.539	87.19
651.743	75.19
651.947	84.19
652.152	92.19
652.356	85.19
652.56	82.19
652.764	78.19
652.969	92.19
653.173	74.19
653.377	71.19
653.581	82.19
653.785	88.19
653.99	83.19
654.194	78.19
654.398	85.19
654.602	94.19
654.806	90.19
655.01	106.19
655.214	82.19
655.418	84.19
655.622	80.19
655.826	87.19
656.03	89.19
656.234	96.19
656.438	96.19
656.642	87.19
656.846	87.19
657.049	82.19
657.253	89.19
657.457	90.19
657.661	69.19
657.865	84.19
658.068	68.19
658.272	82.19
658.476	88.19
658.68	91.19
658.883	88.19
659.087	78.19
659.291	70.19
659.494	82.19
659.698	64.19
659.901	78.19
660.105	91.19
660.309	72.19
660.512	81.19
660.716	66.19
660.919	89.19
661.123	68.19
661.326	75.19
661.53	84.19
661.733	88.19
661.936	69.19
662.14	74.19
662.343	58.19
662.546	68.19
662.75	70.19
662.953	83.19
663.156	77.19
663.36	97.19
663.563	68.19
663.766	75.19
663.969	82.19
664.173	82.19
664.376	82.19
664.579	75.19
664.782	83.19
664.985	84.19
665.188	74.19
665.391	83.19
665.594	84.19
665.797	73.19
666	72.19
666.203	80.19
666.406	86.19
666.609	78.19
666.812	65.19
667.015	76.19
667.218	75.19
667.421	75.19
667.624	73.19
667.827	78.19
668.03	91.19
668.232	80.19
668.435	75.19
668.638	76.19
668.841	78.19
669.043	70.19
669.246	74.19
669.449	90.19
669.651	77.19
669.854	61.19
670.057	81.19
670.259	94.19
670.462	78.19
670.665	70.19
670.867	82.19
671.07	78.19
671.272	74.19
671.475	79.19
671.677	60.19
671.88	82.19
672.082	86.19
672.284	73.19
672.487	82.19
672.689	82.19
672.892	83.19
