Data from Uncirc_1981_H10_HRD10591_00022.txt Node
Date: Wed Jan 03 12:33:12 EST 2024
User: Yrep
Spectrometer: HR+D1059
Trigger mode: 1
Integration Time (sec): 1.000000E-1
Scans to average: 1
Electric dark correction enabled: true
Nonlinearity correction enabled: false
Boxcar width: 0
XAxis mode: Wavelengths
Number of Pixels in Spectrum: 2048
>>>>>Begin Spectral Data<<<<<
223.165	-7.88
223.4	-7.88
223.635	-7.88
223.869	-16.88
224.104	-14.88
224.338	-5.88
224.573	-13.88
224.808	-8.88
225.042	-10.88
225.277	-7.88
225.511	-11.88
225.746	8.12
225.98	8.12
226.215	4.12
226.449	3.12
226.683	28.12
226.918	14.12
227.152	33.12
227.387	29.12
227.621	34.12
227.856	47.12
228.09	43.12
228.324	42.12
228.559	56.12
228.793	154.12
229.027	411.12
229.262	471.12
229.496	547.12
229.73	720.12
229.964	721.12
230.199	491.12
230.433	449.12
230.667	433.12
230.901	459.12
231.136	427.12
231.37	452.12
231.604	430.12
231.838	458.12
232.072	463.12
232.306	464.12
232.541	448.12
232.775	472.12
233.009	456.12
233.243	467.12
233.477	473.12
233.711	498.12
233.945	493.12
234.179	496.12
234.413	501.12
234.647	504.12
234.881	500.12
235.115	510.12
235.349	520.12
235.583	543.12
235.817	566.12
236.051	593.12
236.285	593.12
236.519	606.12
236.753	647.12
236.987	811.12
237.221	1246.12
237.455	1345.12
237.689	842.12
237.922	707.12
238.156	711.12
238.39	643.12
238.624	631.12
238.858	624.12
239.091	633.12
239.325	641.12
239.559	666.12
239.793	681.12
240.027	749.12
240.26	875.12
240.494	905.12
240.728	910.12
240.961	883.12
241.195	797.12
241.429	783.12
241.662	769.12
241.896	744.12
242.13	771.12
242.363	772.12
242.597	785.12
242.83	828.12
243.064	807.12
243.298	832.12
243.531	833.12
243.765	835.12
243.998	850.12
244.232	871.12
244.465	884.12
244.699	913.12
244.932	907.12
245.166	897.12
245.399	900.12
245.633	932.12
245.866	921.12
246.099	909.12
246.333	926.12
246.566	954.12
246.8	970.12
247.033	1037.12
247.266	1081.12
247.5	1089.12
247.733	1146.12
247.966	1150.12
248.2	1143.12
248.433	1143.12
248.666	1214.12
248.899	1297.12
249.133	1402.12
249.366	1405.12
249.599	1294.12
249.832	1204.12
250.066	1241.12
250.299	1289.12
250.532	1361.12
250.765	1522.12
250.998	1674.12
251.231	1613.12
251.465	1501.12
251.698	1453.12
251.931	1398.12
252.164	1360.12
252.397	1377.12
252.63	1427.12
252.863	1536.12
253.096	1648.12
253.329	1650.12
253.562	1592.12
253.795	1534.12
254.028	1543.12
254.261	1554.12
254.494	1734.12
254.727	2025.12
254.96	2107.12
255.193	1880.12
255.426	1716.12
255.659	1606.12
255.892	1683.12
256.124	1673.12
256.357	1673.12
256.59	1569.12
256.823	1558.12
257.056	1523.12
257.289	1540.12
257.521	1558.12
257.754	1561.12
257.987	1507.12
258.22	1525.12
258.452	1515.12
258.685	1556.12
258.918	1555.12
259.151	1620.12
259.383	1655.12
259.616	1667.12
259.849	1717.12
260.081	1862.12
260.314	2025.12
260.547	1959.12
260.779	1789.12
261.012	1709.12
261.244	1703.12
261.477	1673.12
261.71	1639.12
261.942	1687.12
262.175	1706.12
262.407	1677.12
262.64	1631.12
262.872	1621.12
263.105	1624.12
263.337	1606.12
263.57	1643.12
263.802	1664.12
264.035	1641.12
264.267	1641.12
264.499	1637.12
264.732	1661.12
264.964	1704.12
265.197	1677.12
265.429	1697.12
265.661	1682.12
265.894	1705.12
266.126	1760.12
266.358	1733.12
266.591	1771.12
266.823	1808.12
267.055	1841.12
267.287	1833.12
267.52	1810.12
267.752	1808.12
267.984	1840.12
268.216	1892.12
268.448	1916.12
268.681	1930.12
268.913	2110.12
269.145	2237.12
269.377	2317.12
269.609	2223.12
269.841	2138.12
270.073	2242.12
270.306	2490.12
270.538	2693.12
270.77	2503.12
271.002	2411.12
271.234	2338.12
271.466	2460.12
271.698	2595.12
271.93	2609.12
272.162	2667.12
272.394	2578.12
272.626	2403.12
272.858	2272.12
273.09	2288.12
273.322	2226.12
273.553	2160.12
273.785	2175.12
274.017	2167.12
274.249	2209.12
274.481	2192.12
274.713	2259.12
274.945	2210.12
275.176	2230.12
275.408	2237.12
275.64	2224.12
275.872	2246.12
276.104	2239.12
276.335	2217.12
276.567	2326.12
276.799	2454.12
277.031	2678.12
277.262	2742.12
277.494	2667.12
277.726	2550.12
277.957	2465.12
278.189	2366.12
278.421	2333.12
278.652	2318.12
278.884	2356.12
279.115	2357.12
279.347	2347.12
279.579	2337.12
279.81	2346.12
280.042	2330.12
280.273	2370.12
280.505	2365.12
280.736	2375.12
280.968	2393.12
281.199	2384.12
281.431	2398.12
281.662	2421.12
281.894	2415.12
282.125	2457.12
282.356	2628.12
282.588	2672.12
282.819	2626.12
283.051	2516.12
283.282	2471.12
283.513	2534.12
283.745	2568.12
283.976	2649.12
284.207	2597.12
284.439	2567.12
284.67	2575.12
284.901	2584.12
285.132	2625.12
285.364	2584.12
285.595	2549.12
285.826	2595.12
286.057	2623.12
286.288	2650.12
286.52	2605.12
286.751	2637.12
286.982	2659.12
287.213	2667.12
287.444	2721.12
287.675	2777.12
287.906	2822.12
288.138	2861.12
288.369	2877.12
288.6	2879.12
288.831	2823.12
289.062	2775.12
289.293	2816.12
289.524	2772.12
289.755	2817.12
289.986	2776.12
290.217	2787.12
290.448	2800.12
290.679	2771.12
290.91	2740.12
291.141	2767.12
291.371	2773.12
291.602	2809.12
291.833	2723.12
292.064	2791.12
292.295	2794.12
292.526	2798.12
292.757	2787.12
292.987	2789.12
293.218	2795.12
293.449	2813.12
293.68	2850.12
293.91	2788.12
294.141	2818.12
294.372	2814.12
294.603	2833.12
294.833	2893.12
295.064	2867.12
295.295	2912.12
295.525	2890.12
295.756	2920.12
295.987	2929.12
296.217	3066.12
296.448	3062.12
296.679	2938.12
296.909	2923.12
297.14	2903.12
297.37	2963.12
297.601	3040.12
297.831	3008.12
298.062	3029.12
298.292	3023.12
298.523	3087.12
298.753	3077.12
298.984	3069.12
299.214	3043.12
299.445	3059.12
299.675	3055.12
299.905	3099.12
300.136	3065.12
300.366	3105.12
300.597	3184.12
300.827	3175.12
301.057	3267.12
301.288	3258.12
301.518	3264.12
301.748	3304.12
301.979	3364.12
302.209	3341.12
302.439	3371.12
302.669	3238.12
302.9	3265.12
303.13	3245.12
303.36	3290.12
303.59	3282.12
303.82	3302.12
304.051	3312.12
304.281	3341.12
304.511	3224.12
304.741	3262.12
304.971	3247.12
305.201	3232.12
305.431	3221.12
305.661	3270.12
305.891	3242.12
306.121	3189.12
306.352	3257.12
306.582	3188.12
306.812	3184.12
307.042	3297.12
307.272	3225.12
307.502	3265.12
307.731	3199.12
307.961	3203.12
308.191	3183.12
308.421	3206.12
308.651	3251.12
308.881	3227.12
309.111	3241.12
309.341	3267.12
309.571	3322.12
309.8	3411.12
310.03	3481.12
310.26	3475.12
310.49	3418.12
310.72	3509.12
310.949	3628.12
311.179	3602.12
311.409	3465.12
311.639	3514.12
311.868	3509.12
312.098	3503.12
312.328	3603.12
312.557	3717.12
312.787	3751.12
313.017	3698.12
313.246	3709.12
313.476	3621.12
313.706	3667.12
313.935	3716.12
314.165	3783.12
314.394	3790.12
314.624	3755.12
314.853	3685.12
315.083	3637.12
315.312	3613.12
315.542	3632.12
315.771	3631.12
316.001	3569.12
316.23	3600.12
316.46	3659.12
316.689	3591.12
316.919	3695.12
317.148	3686.12
317.377	3628.12
317.607	3600.12
317.836	3611.12
318.065	3576.12
318.295	3512.12
318.524	3587.12
318.753	3526.12
318.983	3581.12
319.212	3543.12
319.441	3553.12
319.67	3648.12
319.9	3539.12
320.129	3626.12
320.358	3611.12
320.587	3625.12
320.816	3662.12
321.046	3699.12
321.275	3717.12
321.504	3662.12
321.733	3707.12
321.962	3772.12
322.191	3861.12
322.42	3867.12
322.649	3954.12
322.878	3960.12
323.108	4080.12
323.337	4195.12
323.566	4317.12
323.795	4448.12
324.024	4859.12
324.253	6112.12
324.482	8705.12
324.71	13313.12
324.939	15275.12
325.168	9786.12
325.397	5541.12
325.626	4689.12
325.855	4404.12
326.084	4389.12
326.313	4417.12
326.542	4520.12
326.77	4970.12
326.999	6049.12
327.228	8429.12
327.457	12346.12
327.686	11505.12
327.914	6359.12
328.143	5153.12
328.372	5015.12
328.6	4828.12
328.829	4707.12
329.058	4891.12
329.287	4843.12
329.515	4725.12
329.744	4533.12
329.972	4614.12
330.201	4793.12
330.43	4974.12
330.658	5064.12
330.887	5262.12
331.115	5010.12
331.344	4726.12
331.572	4678.12
331.801	4778.12
332.03	4795.12
332.258	4750.12
332.486	4781.12
332.715	4938.12
332.943	5060.12
333.172	5272.12
333.4	5351.12
333.629	5461.12
333.857	5546.12
334.085	5592.12
334.314	5586.12
334.542	5709.12
334.771	5614.12
334.999	5303.12
335.227	5169.12
335.455	5050.12
335.684	4917.12
335.912	4953.12
336.14	4856.12
336.369	4842.12
336.597	4888.12
336.825	4813.12
337.053	4736.12
337.281	4688.12
337.51	4563.12
337.738	4637.12
337.966	4533.12
338.194	4582.12
338.422	4463.12
338.65	4405.12
338.878	4415.12
339.106	4457.12
339.334	4408.12
339.562	4379.12
339.79	4285.12
340.018	4306.12
340.246	4261.12
340.474	4315.12
340.702	4329.12
340.93	4314.12
341.158	4291.12
341.386	4250.12
341.614	4322.12
341.842	4231.12
342.07	4151.12
342.298	4174.12
342.526	4182.12
342.754	4200.12
342.981	4272.12
343.209	4352.12
343.437	4611.12
343.665	4874.12
343.893	5138.12
344.12	5107.12
344.348	4837.12
344.576	4711.12
344.804	4635.12
345.031	4456.12
345.259	4518.12
345.487	4307.12
345.714	4179.12
345.942	4107.12
346.17	4112.12
346.397	4149.12
346.625	4065.12
346.853	4102.12
347.08	4053.12
347.308	4086.12
347.535	4177.12
347.763	4199.12
347.99	4190.12
348.218	4123.12
348.445	4193.12
348.673	4037.12
348.9	4062.12
349.128	3973.12
349.355	4001.12
349.583	4018.12
349.81	3951.12
350.037	3921.12
350.265	3933.12
350.492	3910.12
350.72	3906.12
350.947	3930.12
351.174	4031.12
351.402	4067.12
351.629	3981.12
351.856	4024.12
352.083	4046.12
352.311	4000.12
352.538	4078.12
352.765	4046.12
352.992	4006.12
353.22	4001.12
353.447	3948.12
353.674	3899.12
353.901	3895.12
354.128	3886.12
354.355	3828.12
354.583	3875.12
354.81	3867.12
355.037	3909.12
355.264	3864.12
355.491	3849.12
355.718	3909.12
355.945	3877.12
356.172	3881.12
356.399	3879.12
356.626	3908.12
356.853	3891.12
357.08	3835.12
357.307	3889.12
357.534	3855.12
357.761	3873.12
357.988	3897.12
358.215	3901.12
358.441	3896.12
358.668	3984.12
358.895	3887.12
359.122	3956.12
359.349	3986.12
359.576	4101.12
359.802	4224.12
360.029	4374.12
360.256	4342.12
360.483	4263.12
360.709	4074.12
360.936	4063.12
361.163	4003.12
361.39	4100.12
361.616	4103.12
361.843	4021.12
362.07	4031.12
362.296	4072.12
362.523	4025.12
362.749	4019.12
362.976	4000.12
363.203	3939.12
363.429	4019.12
363.656	3977.12
363.882	3947.12
364.109	3899.12
364.335	3918.12
364.562	3961.12
364.788	3933.12
365.015	3963.12
365.241	3966.12
365.468	3955.12
365.694	4011.12
365.92	3923.12
366.147	3960.12
366.373	3947.12
366.599	3930.12
366.826	3917.12
367.052	3923.12
367.278	4010.12
367.505	3937.12
367.731	3935.12
367.957	3907.12
368.184	4011.12
368.41	4127.12
368.636	4091.12
368.862	4042.12
369.089	4038.12
369.315	4032.12
369.541	4075.12
369.767	4116.12
369.993	4093.12
370.219	4125.12
370.445	4146.12
370.672	4191.12
370.898	4127.12
371.124	4149.12
371.35	4296.12
371.576	4228.12
371.802	4229.12
372.028	4158.12
372.254	4228.12
372.48	4289.12
372.706	4408.12
372.932	4401.12
373.158	4394.12
373.384	4235.12
373.61	4277.12
373.835	4215.12
374.061	4333.12
374.287	4377.12
374.513	4479.12
374.739	4569.12
374.965	4665.12
375.191	4560.12
375.416	4580.12
375.642	4449.12
375.868	4405.12
376.094	4359.12
376.319	4308.12
376.545	4269.12
376.771	4337.12
376.997	4281.12
377.222	4285.12
377.448	4278.12
377.674	4250.12
377.899	4229.12
378.125	4201.12
378.35	4215.12
378.576	4209.12
378.802	4255.12
379.027	4294.12
379.253	4190.12
379.478	4183.12
379.704	4239.12
379.929	4251.12
380.155	4161.12
380.38	4275.12
380.606	4388.12
380.831	4277.12
381.057	4294.12
381.282	4310.12
381.507	4262.12
381.733	4315.12
381.958	4425.12
382.184	4417.12
382.409	4458.12
382.634	4501.12
382.86	4551.12
383.085	4610.12
383.31	4655.12
383.535	4707.12
383.761	4688.12
383.986	4784.12
384.211	4918.12
384.436	4971.12
384.662	5094.12
384.887	5108.12
385.112	5098.12
385.337	5154.12
385.562	5217.12
385.787	5231.12
386.013	5289.12
386.238	5237.12
386.463	5259.12
386.688	5282.12
386.913	5160.12
387.138	5191.12
387.363	5185.12
387.588	5041.12
387.813	5147.12
388.038	5145.12
388.263	5226.12
388.488	5123.12
388.713	5110.12
388.938	5045.12
389.163	5007.12
389.387	5117.12
389.612	4980.12
389.837	4984.12
390.062	4972.12
390.287	5086.12
390.512	5080.12
390.736	5042.12
390.961	5193.12
391.186	5338.12
391.411	5466.12
391.636	5563.12
391.86	5709.12
392.085	5739.12
392.31	5685.12
392.534	5471.12
392.759	5441.12
392.984	5350.12
393.208	5308.12
393.433	5364.12
393.658	5282.12
393.882	5288.12
394.107	5262.12
394.331	5310.12
394.556	5311.12
394.78	5425.12
395.005	5455.12
395.229	5454.12
395.454	5617.12
395.678	5692.12
395.903	5766.12
396.127	5750.12
396.352	5546.12
396.576	5424.12
396.801	5387.12
397.025	5464.12
397.249	5677.12
397.474	5736.12
397.698	5746.12
397.922	5834.12
398.147	5906.12
398.371	6056.12
398.595	6216.12
398.82	6442.12
399.044	7039.12
399.268	7843.12
399.492	8887.12
399.717	9408.12
399.941	9147.12
400.165	8438.12
400.389	7917.12
400.613	7104.12
400.837	6667.12
401.062	6491.12
401.286	6441.12
401.51	6405.12
401.734	6444.12
401.958	6475.12
402.182	6575.12
402.406	6655.12
402.63	6826.12
402.854	6853.12
403.078	6919.12
403.302	6993.12
403.526	7238.12
403.75	7226.12
403.974	7349.12
404.198	7358.12
404.422	7413.12
404.645	7407.12
404.869	7316.12
405.093	7403.12
405.317	7679.12
405.541	7641.12
405.765	7182.12
405.988	7074.12
406.212	7216.12
406.436	7422.12
406.66	7515.12
406.883	7545.12
407.107	8091.12
407.331	8615.12
407.555	9114.12
407.778	8838.12
408.002	7990.12
408.226	7735.12
408.449	7575.12
408.673	7468.12
408.896	7595.12
409.12	7770.12
409.344	7334.12
409.567	7065.12
409.791	7007.12
410.014	6935.12
410.238	6819.12
410.461	6867.12
410.685	6943.12
410.908	6974.12
411.132	7157.12
411.355	7213.12
411.578	6837.12
411.802	6672.12
412.025	6660.12
412.249	6837.12
412.472	6913.12
412.695	7055.12
412.919	6689.12
413.142	6462.12
413.365	6381.12
413.589	6447.12
413.812	6422.12
414.035	6192.12
414.258	6231.12
414.482	6287.12
414.705	6376.12
414.928	6338.12
415.151	6336.12
415.374	6322.12
415.597	6268.12
415.821	6209.12
416.044	6176.12
416.267	6115.12
416.49	6104.12
416.713	6051.12
416.936	6193.12
417.159	6125.12
417.382	6221.12
417.605	6240.12
417.828	6363.12
418.051	6517.12
418.274	6417.12
418.497	6249.12
418.72	6493.12
418.943	6364.12
419.166	6837.12
419.389	7226.12
419.611	7098.12
419.834	6856.12
420.057	6687.12
420.28	6545.12
420.503	6483.12
420.726	6357.12
420.948	6555.12
421.171	6799.12
421.394	6820.12
421.617	6384.12
421.839	6373.12
422.062	6434.12
422.285	6613.12
422.507	7219.12
422.73	7640.12
422.953	7095.12
423.175	6790.12
423.398	6746.12
423.621	6836.12
423.843	7044.12
424.066	7081.12
424.288	6867.12
424.511	7106.12
424.733	7581.12
424.956	7834.12
425.178	7361.12
425.401	7613.12
425.623	7469.12
425.846	6576.12
426.068	6464.12
426.291	6354.12
426.513	6292.12
426.735	6426.12
426.958	6869.12
427.18	7515.12
427.402	8451.12
427.625	8501.12
427.847	7285.12
428.069	6697.12
428.292	6255.12
428.514	5951.12
428.736	5742.12
428.958	5765.12
429.181	5657.12
429.403	5631.12
429.625	5866.12
429.847	6071.12
430.069	6557.12
430.292	6097.12
430.514	5670.12
430.736	5755.12
430.958	5660.12
431.18	5500.12
431.402	5552.12
431.624	5533.12
431.846	5703.12
432.068	5705.12
432.29	5647.12
432.512	5639.12
432.734	5670.12
432.956	5578.12
433.178	5699.12
433.4	5693.12
433.622	5699.12
433.844	5688.12
434.066	5731.12
434.287	5795.12
434.509	6041.12
434.731	6197.12
434.953	6311.12
435.175	6448.12
435.397	6532.12
435.618	6414.12
435.84	6707.12
436.062	7460.12
436.284	7359.12
436.505	6225.12
436.727	6049.12
436.949	5789.12
437.17	5693.12
437.392	5639.12
437.614	5770.12
437.835	6071.12
438.057	6867.12
438.278	7389.12
438.5	7370.12
438.721	8190.12
438.943	7198.12
439.165	6194.12
439.386	6053.12
439.608	6053.12
439.829	6053.12
440.05	6383.12
440.272	6667.12
440.493	6151.12
440.715	5905.12
440.936	5907.12
441.158	5965.12
441.379	6105.12
441.6	6464.12
441.822	6667.12
442.043	6976.12
442.264	7573.12
442.486	7346.12
442.707	6600.12
442.928	6522.12
443.149	6644.12
443.371	6879.12
443.592	7314.12
443.813	8235.12
444.034	8240.12
444.255	7271.12
444.476	7229.12
444.698	7438.12
444.919	7415.12
445.14	7194.12
445.361	7056.12
445.582	7059.12
445.803	7554.12
446.024	8143.12
446.245	7727.12
446.466	7062.12
446.687	6203.12
446.908	5886.12
447.129	5661.12
447.35	5505.12
447.571	5471.12
447.792	5385.12
448.013	5481.12
448.234	5662.12
448.455	6240.12
448.675	7259.12
448.896	7614.12
449.117	6328.12
449.338	6522.12
449.559	7622.12
449.779	7869.12
450	6114.12
450.221	5537.12
450.442	5329.12
450.662	5244.12
450.883	5359.12
451.104	5420.12
451.324	5272.12
451.545	5172.12
451.766	4992.12
451.986	4962.12
452.207	4999.12
452.428	4887.12
452.648	4976.12
452.869	4999.12
453.089	4959.12
453.31	5072.12
453.53	4953.12
453.751	4866.12
453.971	4953.12
454.192	5011.12
454.412	4814.12
454.633	4754.12
454.853	4769.12
455.073	4763.12
455.294	5113.12
455.514	5539.12
455.734	5177.12
455.955	4713.12
456.175	4617.12
456.395	4557.12
456.616	4481.12
456.836	4584.12
457.056	4594.12
457.276	4518.12
457.497	4594.12
457.717	4614.12
457.937	4707.12
458.157	4714.12
458.377	4817.12
458.598	5115.12
458.818	5604.12
459.038	6336.12
459.258	6324.12
459.478	5739.12
459.698	5720.12
459.918	5796.12
460.138	5873.12
460.358	6100.12
460.578	6212.12
460.798	6298.12
461.018	6248.12
461.238	6180.12
461.458	6113.12
461.678	6063.12
461.898	6210.12
462.118	6275.12
462.338	6614.12
462.558	6720.12
462.777	6981.12
462.997	7600.12
463.217	7917.12
463.437	7776.12
463.657	7190.12
463.876	6967.12
464.096	7087.12
464.316	7014.12
464.536	7140.12
464.755	6843.12
464.975	6687.12
465.195	6703.12
465.414	6645.12
465.634	5935.12
465.854	5630.12
466.073	5519.12
466.293	5332.12
466.512	5159.12
466.732	5088.12
466.951	5143.12
467.171	5116.12
467.391	5195.12
467.61	5235.12
467.829	5178.12
468.049	5060.12
468.268	4943.12
468.488	4905.12
468.707	4828.12
468.927	4869.12
469.146	4871.12
469.365	5014.12
469.585	4927.12
469.804	5230.12
470.023	5255.12
470.243	5291.12
470.462	5349.12
470.681	5471.12
470.901	5354.12
471.12	5265.12
471.339	5279.12
471.558	5160.12
471.777	5069.12
471.997	4937.12
472.216	5042.12
472.435	5122.12
472.654	4997.12
472.873	4887.12
473.092	4846.12
473.311	4894.12
473.53	4925.12
473.749	4969.12
473.968	5453.12
474.187	6360.12
474.406	5880.12
474.625	5106.12
474.844	4996.12
475.063	4946.12
475.282	4931.12
475.501	5009.12
475.72	5033.12
475.939	5016.12
476.158	5073.12
476.377	5081.12
476.596	5097.12
476.814	5222.12
477.033	5262.12
477.252	5342.12
477.471	5458.12
477.69	5581.12
477.908	5638.12
478.127	5810.12
478.346	5894.12
478.564	5973.12
478.783	6005.12
479.002	6217.12
479.22	6248.12
479.439	6179.12
479.658	6296.12
479.876	6425.12
480.095	6699.12
480.313	6997.12
480.532	6909.12
480.751	6814.12
480.969	6694.12
481.188	6935.12
481.406	6788.12
481.624	6225.12
481.843	6115.12
482.061	6034.12
482.28	5880.12
482.498	5818.12
482.717	5730.12
482.935	5734.12
483.153	5728.12
483.372	5760.12
483.59	5790.12
483.808	5746.12
484.027	5723.12
484.245	5854.12
484.463	5859.12
484.681	5961.12
484.9	6003.12
485.118	6016.12
485.336	6093.12
485.554	6135.12
485.772	6179.12
485.99	6104.12
486.209	6209.12
486.427	6118.12
486.645	6201.12
486.863	6401.12
487.081	6313.12
487.299	6244.12
487.517	6273.12
487.735	6219.12
487.953	6145.12
488.171	6154.12
488.389	6170.12
488.607	6214.12
488.825	6206.12
489.043	6184.12
489.261	6285.12
489.479	6225.12
489.696	6363.12
489.914	6389.12
490.132	6357.12
490.35	6471.12
490.568	6555.12
490.786	6553.12
491.003	6678.12
491.221	6741.12
491.439	6912.12
491.657	6981.12
491.874	6996.12
492.092	7028.12
492.31	7006.12
492.527	7129.12
492.745	7203.12
492.963	7184.12
493.18	7190.12
493.398	7279.12
493.615	7412.12
493.833	7475.12
494.05	7364.12
494.268	7435.12
494.485	7308.12
494.703	7302.12
494.92	7298.12
495.138	7337.12
495.355	7310.12
495.573	7327.12
495.79	7307.12
496.008	7360.12
496.225	7339.12
496.442	7391.12
496.66	7402.12
496.877	7443.12
497.094	7551.12
497.312	7733.12
497.529	7865.12
497.746	8086.12
497.963	8308.12
498.181	8739.12
498.398	8908.12
498.615	9340.12
498.832	9711.12
499.049	10347.12
499.267	10876.12
499.484	11689.12
499.701	12537.12
499.918	13283.12
500.135	14153.12
500.352	14706.12
500.569	14868.12
500.786	14740.12
501.003	14247.12
501.22	13615.12
501.437	12717.12
501.654	11937.12
501.871	11192.12
502.088	10532.12
502.305	10014.12
502.522	9477.12
502.739	9199.12
502.956	8702.12
503.172	8434.12
503.389	8096.12
503.606	8008.12
503.823	7933.12
504.04	7885.12
504.256	7951.12
504.473	8096.12
504.69	8083.12
504.907	7833.12
505.123	7474.12
505.34	7238.12
505.557	7092.12
505.773	6917.12
505.99	6879.12
506.207	6848.12
506.423	6769.12
506.64	6694.12
506.856	6566.12
507.073	6516.12
507.289	6482.12
507.506	6416.12
507.722	6471.12
507.939	6449.12
508.155	6282.12
508.372	6250.12
508.588	6120.12
508.805	6067.12
509.021	6169.12
509.238	6351.12
509.454	6342.12
509.67	6200.12
509.887	6044.12
510.103	6023.12
510.319	6097.12
510.536	6852.12
510.752	9061.12
510.968	6628.12
511.184	5853.12
511.401	5773.12
511.617	5770.12
511.833	5717.12
512.049	5749.12
512.265	5706.12
512.481	5671.12
512.698	5693.12
512.914	5691.12
513.13	5620.12
513.346	5654.12
513.562	5794.12
513.778	5717.12
513.994	5692.12
514.21	5801.12
514.426	5930.12
514.642	6069.12
514.858	6266.12
515.074	6541.12
515.29	7364.12
515.506	9130.12
515.721	7151.12
515.937	6415.12
516.153	6279.12
516.369	6379.12
516.585	6506.12
516.801	6650.12
517.016	6862.12
517.232	7072.12
517.448	7298.12
517.664	7462.12
517.879	7382.12
518.095	7309.12
518.311	7170.12
518.527	6926.12
518.742	6758.12
518.958	6427.12
519.173	6281.12
519.389	6083.12
519.605	6059.12
519.82	5961.12
520.036	5937.12
520.251	5977.12
520.467	6061.12
520.682	5983.12
520.898	5966.12
521.113	5983.12
521.329	6148.12
521.544	6605.12
521.76	7940.12
521.975	11111.12
522.19	8737.12
522.406	6321.12
522.621	5713.12
522.836	5409.12
523.052	5322.12
523.267	5117.12
523.482	5069.12
523.698	5070.12
523.913	5096.12
524.128	4958.12
524.343	4897.12
524.559	4882.12
524.774	4840.12
524.989	4794.12
525.204	4892.12
525.419	4827.12
525.634	4759.12
525.849	4738.12
526.064	4693.12
526.28	4815.12
526.495	4751.12
526.71	4642.12
526.925	4658.12
527.14	4678.12
527.355	4724.12
527.57	4657.12
527.785	4634.12
527.999	4654.12
528.214	4686.12
528.429	4675.12
528.644	4630.12
528.859	4652.12
529.074	4650.12
529.289	4822.12
529.503	5159.12
529.718	4974.12
529.933	4754.12
530.148	4705.12
530.363	4680.12
530.577	4605.12
530.792	4666.12
531.007	4563.12
531.221	4629.12
531.436	4653.12
531.651	4707.12
531.865	4591.12
532.08	4600.12
532.295	4557.12
532.509	4593.12
532.724	4592.12
532.938	4618.12
533.153	4608.12
533.367	4585.12
533.582	4571.12
533.796	4523.12
534.011	4578.12
534.225	4487.12
534.44	4501.12
534.654	4469.12
534.868	4480.12
535.083	4479.12
535.297	4464.12
535.511	4412.12
535.726	4503.12
535.94	4458.12
536.154	4440.12
536.369	4389.12
536.583	4300.12
536.797	4359.12
537.011	4269.12
537.225	4293.12
537.44	4232.12
537.654	4258.12
537.868	4210.12
538.082	4228.12
538.296	4278.12
538.51	4307.12
538.724	4264.12
538.938	4240.12
539.153	4175.12
539.367	4165.12
539.581	4153.12
539.795	4134.12
540.009	4128.12
540.222	4175.12
540.436	4198.12
540.65	4167.12
540.864	4197.12
541.078	4252.12
541.292	4157.12
541.506	4111.12
541.72	4088.12
541.934	4007.12
542.147	4047.12
542.361	4016.12
542.575	4002.12
542.789	4050.12
543.002	4096.12
543.216	4112.12
543.43	4119.12
543.644	4041.12
543.857	4121.12
544.071	4096.12
544.285	4079.12
544.498	4097.12
544.712	4098.12
544.925	4067.12
545.139	4080.12
545.352	4088.12
545.566	4121.12
545.779	4113.12
545.993	4139.12
546.206	4165.12
546.42	4126.12
546.633	4052.12
546.847	4100.12
547.06	4026.12
547.274	4077.12
547.487	4008.12
547.7	4064.12
547.914	4051.12
548.127	4155.12
548.34	4134.12
548.554	4135.12
548.767	4091.12
548.98	4132.12
549.193	4063.12
549.407	4149.12
549.62	4257.12
549.833	4210.12
550.046	4109.12
550.259	4056.12
550.473	4055.12
550.686	3986.12
550.899	4010.12
551.112	3938.12
551.325	3969.12
551.538	3999.12
551.751	3949.12
551.964	4017.12
552.177	4079.12
552.39	4119.12
552.603	4222.12
552.816	4294.12
553.029	4397.12
553.242	4442.12
553.455	4514.12
553.667	4518.12
553.88	4478.12
554.093	4330.12
554.306	4257.12
554.519	4168.12
554.732	4128.12
554.944	3928.12
555.157	3935.12
555.37	3843.12
555.583	3790.12
555.795	3726.12
556.008	3628.12
556.221	3613.12
556.433	3562.12
556.646	3496.12
556.859	3514.12
557.071	3501.12
557.284	3442.12
557.496	3408.12
557.709	3431.12
557.921	3436.12
558.134	3429.12
558.346	3412.12
558.559	3347.12
558.771	3322.12
558.984	3350.12
559.196	3328.12
559.409	3290.12
559.621	3314.12
559.833	3301.12
560.046	3301.12
560.258	3281.12
560.47	3304.12
560.683	3277.12
560.895	3325.12
561.107	3294.12
561.32	3205.12
561.532	3281.12
561.744	3275.12
561.956	3255.12
562.168	3216.12
562.381	3259.12
562.593	3307.12
562.805	3376.12
563.017	3343.12
563.229	3376.12
563.441	3340.12
563.653	3432.12
563.865	3365.12
564.077	3348.12
564.289	3392.12
564.501	3466.12
564.713	3509.12
564.925	3590.12
565.137	3737.12
565.349	3725.12
565.561	3870.12
565.773	4021.12
565.985	4196.12
566.197	4449.12
566.408	4733.12
566.62	5026.12
566.832	5389.12
567.044	5405.12
567.255	5409.12
567.467	5576.12
567.679	5840.12
567.891	6224.12
568.102	6137.12
568.314	5888.12
568.526	5303.12
568.737	4883.12
568.949	4468.12
569.161	4203.12
569.372	3893.12
569.584	3728.12
569.795	3644.12
570.007	3554.12
570.218	3631.12
570.43	3431.12
570.641	3372.12
570.853	3444.12
571.064	3395.12
571.276	3392.12
571.487	3297.12
571.698	3100.12
571.91	3051.12
572.121	2969.12
572.333	2923.12
572.544	2907.12
572.755	2819.12
572.966	2815.12
573.178	2781.12
573.389	2753.12
573.6	2718.12
573.811	2735.12
574.023	2688.12
574.234	2660.12
574.445	2663.12
574.656	2670.12
574.867	2665.12
575.078	2674.12
575.289	2606.12
575.501	2591.12
575.712	2562.12
575.923	2522.12
576.134	2490.12
576.345	2517.12
576.556	2547.12
576.767	2473.12
576.978	2499.12
577.188	2482.12
577.399	2464.12
577.61	2429.12
577.821	2404.12
578.032	2408.12
578.243	2663.12
578.454	3320.12
578.665	2530.12
578.875	2328.12
579.086	2337.12
579.297	2337.12
579.508	2332.12
579.718	2295.12
579.929	2271.12
580.14	2233.12
580.35	2209.12
580.561	2266.12
580.772	2219.12
580.982	2247.12
581.193	2189.12
581.403	2181.12
581.614	2167.12
581.825	2186.12
582.035	2191.12
582.246	2178.12
582.456	2138.12
582.667	2173.12
582.877	2088.12
583.087	2144.12
583.298	2135.12
583.508	2145.12
583.719	2095.12
583.929	2147.12
584.139	2136.12
584.35	2183.12
584.56	2111.12
584.77	2085.12
584.981	2102.12
585.191	2125.12
585.401	2114.12
585.611	2044.12
585.821	2057.12
586.032	2109.12
586.242	2096.12
586.452	2038.12
586.662	2067.12
586.872	2047.12
587.082	2097.12
587.292	2051.12
587.502	2009.12
587.713	2028.12
587.923	2011.12
588.133	2017.12
588.343	2063.12
588.553	2072.12
588.762	2042.12
588.972	2037.12
589.182	2025.12
589.392	2075.12
589.602	2051.12
589.812	2059.12
590.022	2082.12
590.232	2017.12
590.441	2074.12
590.651	2079.12
590.861	2117.12
591.071	2084.12
591.281	2115.12
591.49	2201.12
591.7	2181.12
591.91	2226.12
592.119	2230.12
592.329	2300.12
592.539	2362.12
592.748	2431.12
592.958	2532.12
593.167	2545.12
593.377	2589.12
593.587	2632.12
593.796	2638.12
594.006	2612.12
594.215	2673.12
594.424	2612.12
594.634	2528.12
594.843	2509.12
595.053	2393.12
595.262	2296.12
595.472	2240.12
595.681	2180.12
595.89	2120.12
596.1	2043.12
596.309	1961.12
596.518	1984.12
596.727	1942.12
596.937	1914.12
597.146	1866.12
597.355	1883.12
597.564	1826.12
597.774	1801.12
597.983	1771.12
598.192	1816.12
598.401	1779.12
598.61	1786.12
598.819	1729.12
599.028	1701.12
599.237	1729.12
599.446	1706.12
599.655	1680.12
599.864	1699.12
600.073	1697.12
600.282	1683.12
600.491	1624.12
600.7	1642.12
600.909	1662.12
601.118	1688.12
601.327	1650.12
601.536	1631.12
601.745	1610.12
601.953	1621.12
602.162	1603.12
602.371	1613.12
602.58	1569.12
602.789	1572.12
602.997	1544.12
603.206	1564.12
603.415	1557.12
603.623	1552.12
603.832	1529.12
604.041	1545.12
604.249	1533.12
604.458	1556.12
604.666	1544.12
604.875	1517.12
605.084	1494.12
605.292	1501.12
605.501	1461.12
605.709	1489.12
605.918	1477.12
606.126	1507.12
606.334	1488.12
606.543	1461.12
606.751	1458.12
606.96	1513.12
607.168	1447.12
607.376	1439.12
607.585	1451.12
607.793	1497.12
608.001	1465.12
608.21	1447.12
608.418	1459.12
608.626	1427.12
608.834	1415.12
609.043	1433.12
609.251	1426.12
609.459	1433.12
609.667	1427.12
609.875	1412.12
610.083	1403.12
610.291	1423.12
610.499	1384.12
610.707	1407.12
610.916	1387.12
611.124	1449.12
611.332	1391.12
611.54	1382.12
611.748	1426.12
611.955	1417.12
612.163	1384.12
612.371	1381.12
612.579	1385.12
612.787	1383.12
612.995	1393.12
613.203	1396.12
613.411	1358.12
613.618	1369.12
613.826	1387.12
614.034	1375.12
614.242	1380.12
614.449	1399.12
614.657	1371.12
614.865	1375.12
615.072	1378.12
615.28	1337.12
615.488	1359.12
615.695	1383.12
615.903	1397.12
616.111	1383.12
616.318	1458.12
616.526	1443.12
616.733	1401.12
616.941	1455.12
617.148	1411.12
617.356	1379.12
617.563	1424.12
617.771	1395.12
617.978	1377.12
618.185	1371.12
618.393	1334.12
618.6	1369.12
618.807	1355.12
619.015	1367.12
619.222	1329.12
619.429	1309.12
619.637	1351.12
619.844	1315.12
620.051	1310.12
620.258	1335.12
620.466	1267.12
620.673	1235.12
620.88	1235.12
621.087	1234.12
621.294	1273.12
621.501	1334.12
621.708	1292.12
621.915	1287.12
622.122	1280.12
622.329	1230.12
622.536	1250.12
622.743	1237.12
622.95	1238.12
623.157	1199.12
623.364	1225.12
623.571	1158.12
623.778	1194.12
623.985	1200.12
624.192	1199.12
624.399	1159.12
624.606	1186.12
624.812	1151.12
625.019	1184.12
625.226	1163.12
625.433	1153.12
625.639	1178.12
625.846	1123.12
626.053	1143.12
626.259	1153.12
626.466	1128.12
626.673	1125.12
626.879	1106.12
627.086	1109.12
627.293	1101.12
627.499	1075.12
627.706	1085.12
627.912	1075.12
628.119	1083.12
628.325	1088.12
628.532	1080.12
628.738	1073.12
628.945	1069.12
629.151	1047.12
629.357	1054.12
629.564	1053.12
629.77	1034.12
629.976	1022.12
630.183	1019.12
630.389	1014.12
630.595	996.12
630.802	989.12
631.008	988.12
631.214	982.12
631.42	985.12
631.627	1003.12
631.833	998.12
632.039	998.12
632.245	945.12
632.451	925.12
632.657	944.12
632.863	953.12
633.069	958.12
633.275	982.12
633.481	941.12
633.688	912.12
633.893	948.12
634.099	954.12
634.305	905.12
634.511	931.12
634.717	902.12
634.923	902.12
635.129	886.12
635.335	865.12
635.541	890.12
635.747	894.12
635.952	899.12
636.158	882.12
636.364	924.12
636.57	882.12
636.775	901.12
636.981	875.12
637.187	888.12
637.392	848.12
637.598	867.12
637.804	883.12
638.009	880.12
638.215	863.12
638.421	870.12
638.626	830.12
638.832	847.12
639.037	838.12
639.243	836.12
639.448	835.12
639.654	820.12
639.859	799.12
640.065	807.12
640.27	825.12
640.475	811.12
640.681	812.12
640.886	821.12
641.091	824.12
641.297	808.12
641.502	811.12
641.707	793.12
641.913	787.12
642.118	796.12
642.323	749.12
642.528	761.12
642.733	753.12
642.939	775.12
643.144	737.12
643.349	786.12
643.554	759.12
643.759	756.12
643.964	729.12
644.169	740.12
644.374	765.12
644.579	760.12
644.784	759.12
644.989	761.12
645.194	766.12
645.399	710.12
645.604	743.12
645.809	760.12
646.014	754.12
646.219	783.12
646.423	769.12
646.628	781.12
646.833	766.12
647.038	771.12
647.243	796.12
647.447	783.12
647.652	790.12
647.857	800.12
648.062	813.12
648.266	858.12
648.471	854.12
648.676	851.12
648.88	850.12
649.085	822.12
649.289	823.12
649.494	843.12
649.698	937.12
649.903	831.12
650.107	781.12
650.312	718.12
650.516	710.12
650.721	676.12
650.925	657.12
651.13	631.12
651.334	635.12
651.539	593.12
651.743	614.12
651.947	601.12
652.152	611.12
652.356	573.12
652.56	587.12
652.764	579.12
652.969	541.12
653.173	555.12
653.377	536.12
653.581	519.12
653.785	516.12
653.99	522.12
654.194	502.12
654.398	513.12
654.602	506.12
654.806	508.12
655.01	560.12
655.214	505.12
655.418	507.12
655.622	482.12
655.826	462.12
656.03	477.12
656.234	501.12
656.438	518.12
656.642	511.12
656.846	498.12
657.049	458.12
657.253	419.12
657.457	365.12
657.661	337.12
657.865	318.12
658.068	305.12
658.272	283.12
658.476	277.12
658.68	247.12
658.883	256.12
659.087	241.12
659.291	215.12
659.494	201.12
659.698	198.12
659.901	208.12
660.105	196.12
660.309	185.12
660.512	179.12
660.716	162.12
660.919	166.12
661.123	159.12
661.326	139.12
661.53	146.12
661.733	137.12
661.936	125.12
662.14	126.12
662.343	128.12
662.546	103.12
662.75	98.12
662.953	91.12
663.156	95.12
663.36	93.12
663.563	89.12
663.766	91.12
663.969	74.12
664.173	85.12
664.376	106.12
664.579	87.12
664.782	77.12
664.985	85.12
665.188	77.12
665.391	71.12
665.594	74.12
665.797	81.12
666	81.12
666.203	88.12
666.406	81.12
666.609	79.12
666.812	81.12
667.015	81.12
667.218	87.12
667.421	85.12
667.624	87.12
667.827	90.12
668.03	88.12
668.232	83.12
668.435	79.12
668.638	82.12
668.841	67.12
669.043	66.12
669.246	88.12
669.449	83.12
669.651	79.12
669.854	72.12
670.057	74.12
670.259	65.12
670.462	72.12
670.665	79.12
670.867	89.12
671.07	77.12
671.272	84.12
671.475	77.12
671.677	70.12
671.88	81.12
672.082	78.12
672.284	75.12
672.487	82.12
672.689	82.12
672.892	78.12
