Data from Uncirc_1981_H10_HRD10591_00098.txt Node
Date: Wed Jan 03 12:33:27 EST 2024
User: Yrep
Spectrometer: HR+D1059
Trigger mode: 1
Integration Time (sec): 1.000000E-1
Scans to average: 1
Electric dark correction enabled: true
Nonlinearity correction enabled: false
Boxcar width: 0
XAxis mode: Wavelengths
Number of Pixels in Spectrum: 2048
>>>>>Begin Spectral Data<<<<<
223.165	-10.56
223.4	-10.56
223.635	-10.56
223.869	-20.56
224.104	-19.56
224.338	-5.56
224.573	-13.56
224.808	-20.56
225.042	-17.56
225.277	-1.56
225.511	-4.56
225.746	15.44
225.98	11.44
226.215	2.44
226.449	9.44
226.683	20.44
226.918	28.44
227.152	26.44
227.387	44.44
227.621	48.44
227.856	38.44
228.09	52.44
228.324	41.44
228.559	47.44
228.793	71.44
229.027	70.44
229.262	70.44
229.496	67.44
229.73	87.44
229.964	83.44
230.199	87.44
230.433	67.44
230.667	65.44
230.901	79.44
231.136	75.44
231.37	82.44
231.604	92.44
231.838	79.44
232.072	74.44
232.306	99.44
232.541	86.44
232.775	82.44
233.009	92.44
233.243	89.44
233.477	83.44
233.711	81.44
233.945	77.44
234.179	77.44
234.413	87.44
234.647	70.44
234.881	76.44
235.115	76.44
235.349	86.44
235.583	93.44
235.817	91.44
236.051	75.44
236.285	73.44
236.519	74.44
236.753	72.44
236.987	78.44
237.221	83.44
237.455	93.44
237.689	68.44
237.922	80.44
238.156	71.44
238.39	82.44
238.624	76.44
238.858	84.44
239.091	66.44
239.325	74.44
239.559	90.44
239.793	75.44
240.027	79.44
240.26	74.44
240.494	88.44
240.728	70.44
240.961	78.44
241.195	70.44
241.429	86.44
241.662	97.44
241.896	74.44
242.13	86.44
242.363	63.44
242.597	74.44
242.83	84.44
243.064	75.44
243.298	98.44
243.531	70.44
243.765	72.44
243.998	75.44
244.232	96.44
244.465	66.44
244.699	87.44
244.932	86.44
245.166	76.44
245.399	71.44
245.633	77.44
245.866	73.44
246.099	73.44
246.333	82.44
246.566	72.44
246.8	96.44
247.033	87.44
247.266	80.44
247.5	56.44
247.733	94.44
247.966	69.44
248.2	76.44
248.433	95.44
248.666	84.44
248.899	69.44
249.133	85.44
249.366	91.44
249.599	88.44
249.832	87.44
250.066	77.44
250.299	90.44
250.532	93.44
250.765	78.44
250.998	79.44
251.231	78.44
251.465	63.44
251.698	73.44
251.931	75.44
252.164	87.44
252.397	91.44
252.63	84.44
252.863	88.44
253.096	71.44
253.329	75.44
253.562	76.44
253.795	81.44
254.028	96.44
254.261	83.44
254.494	77.44
254.727	74.44
254.96	69.44
255.193	86.44
255.426	86.44
255.659	87.44
255.892	75.44
256.124	72.44
256.357	82.44
256.59	86.44
256.823	79.44
257.056	90.44
257.289	87.44
257.521	66.44
257.754	78.44
257.987	75.44
258.22	78.44
258.452	76.44
258.685	88.44
258.918	68.44
259.151	104.44
259.383	84.44
259.616	74.44
259.849	80.44
260.081	86.44
260.314	80.44
260.547	89.44
260.779	77.44
261.012	76.44
261.244	86.44
261.477	86.44
261.71	79.44
261.942	105.44
262.175	114.44
262.407	94.44
262.64	77.44
262.872	86.44
263.105	90.44
263.337	89.44
263.57	86.44
263.802	83.44
264.035	83.44
264.267	82.44
264.499	66.44
264.732	80.44
264.964	84.44
265.197	93.44
265.429	88.44
265.661	94.44
265.894	80.44
266.126	102.44
266.358	94.44
266.591	98.44
266.823	89.44
267.055	87.44
267.287	85.44
267.52	68.44
267.752	86.44
267.984	82.44
268.216	72.44
268.448	92.44
268.681	77.44
268.913	90.44
269.145	79.44
269.377	80.44
269.609	72.44
269.841	86.44
270.073	83.44
270.306	77.44
270.538	78.44
270.77	85.44
271.002	85.44
271.234	79.44
271.466	100.44
271.698	84.44
271.93	79.44
272.162	91.44
272.394	90.44
272.626	79.44
272.858	75.44
273.09	84.44
273.322	79.44
273.553	84.44
273.785	103.44
274.017	83.44
274.249	79.44
274.481	80.44
274.713	90.44
274.945	87.44
275.176	84.44
275.408	104.44
275.64	72.44
275.872	86.44
276.104	89.44
276.335	79.44
276.567	94.44
276.799	102.44
277.031	92.44
277.262	96.44
277.494	83.44
277.726	77.44
277.957	82.44
278.189	84.44
278.421	87.44
278.652	85.44
278.884	77.44
279.115	86.44
279.347	84.44
279.579	90.44
279.81	95.44
280.042	94.44
280.273	85.44
280.505	79.44
280.736	76.44
280.968	85.44
281.199	82.44
281.431	92.44
281.662	86.44
281.894	90.44
282.125	98.44
282.356	108.44
282.588	112.44
282.819	106.44
283.051	87.44
283.282	91.44
283.513	98.44
283.745	99.44
283.976	88.44
284.207	80.44
284.439	84.44
284.67	84.44
284.901	87.44
285.132	98.44
285.364	98.44
285.595	80.44
285.826	89.44
286.057	84.44
286.288	92.44
286.52	82.44
286.751	80.44
286.982	92.44
287.213	85.44
287.444	92.44
287.675	90.44
287.906	101.44
288.138	91.44
288.369	75.44
288.6	92.44
288.831	72.44
289.062	82.44
289.293	76.44
289.524	95.44
289.755	90.44
289.986	105.44
290.217	93.44
290.448	77.44
290.679	79.44
290.91	99.44
291.141	96.44
291.371	102.44
291.602	102.44
291.833	84.44
292.064	96.44
292.295	87.44
292.526	91.44
292.757	106.44
292.987	85.44
293.218	98.44
293.449	92.44
293.68	95.44
293.91	113.44
294.141	98.44
294.372	84.44
294.603	75.44
294.833	82.44
295.064	85.44
295.295	103.44
295.525	77.44
295.756	95.44
295.987	104.44
296.217	132.44
296.448	101.44
296.679	87.44
296.909	68.44
297.14	86.44
297.37	91.44
297.601	92.44
297.831	98.44
298.062	84.44
298.292	92.44
298.523	87.44
298.753	90.44
298.984	88.44
299.214	90.44
299.445	87.44
299.675	96.44
299.905	92.44
300.136	99.44
300.366	90.44
300.597	84.44
300.827	79.44
301.057	99.44
301.288	117.44
301.518	94.44
301.748	84.44
301.979	100.44
302.209	84.44
302.439	96.44
302.669	91.44
302.9	88.44
303.13	102.44
303.36	95.44
303.59	108.44
303.82	95.44
304.051	84.44
304.281	88.44
304.511	99.44
304.741	89.44
304.971	94.44
305.201	86.44
305.431	86.44
305.661	88.44
305.891	92.44
306.121	92.44
306.352	98.44
306.582	93.44
306.812	99.44
307.042	91.44
307.272	92.44
307.502	93.44
307.731	96.44
307.961	90.44
308.191	91.44
308.421	86.44
308.651	82.44
308.881	98.44
309.111	107.44
309.341	103.44
309.571	92.44
309.8	94.44
310.03	94.44
310.26	97.44
310.49	84.44
310.72	104.44
310.949	112.44
311.179	106.44
311.409	85.44
311.639	84.44
311.868	107.44
312.098	94.44
312.328	93.44
312.557	111.44
312.787	109.44
313.017	105.44
313.246	97.44
313.476	91.44
313.706	91.44
313.935	85.44
314.165	100.44
314.394	97.44
314.624	99.44
314.853	87.44
315.083	91.44
315.312	92.44
315.542	89.44
315.771	73.44
316.001	92.44
316.23	85.44
316.46	82.44
316.689	84.44
316.919	85.44
317.148	107.44
317.377	95.44
317.607	104.44
317.836	100.44
318.065	104.44
318.295	100.44
318.524	86.44
318.753	81.44
318.983	99.44
319.212	112.44
319.441	102.44
319.67	94.44
319.9	87.44
320.129	94.44
320.358	95.44
320.587	96.44
320.816	90.44
321.046	98.44
321.275	109.44
321.504	103.44
321.733	99.44
321.962	95.44
322.191	99.44
322.42	115.44
322.649	104.44
322.878	108.44
323.108	103.44
323.337	101.44
323.566	131.44
323.795	139.44
324.024	195.44
324.253	332.44
324.482	730.44
324.71	1458.44
324.939	1882.44
325.168	673.44
325.397	218.44
325.626	137.44
325.855	121.44
326.084	124.44
326.313	122.44
326.542	143.44
326.77	211.44
326.999	395.44
327.228	834.44
327.457	1483.44
327.686	1177.44
327.914	338.44
328.143	192.44
328.372	132.44
328.6	111.44
328.829	106.44
329.058	115.44
329.287	115.44
329.515	110.44
329.744	124.44
329.972	109.44
330.201	118.44
330.43	127.44
330.658	121.44
330.887	110.44
331.115	113.44
331.344	100.44
331.572	105.44
331.801	96.44
332.03	101.44
332.258	76.44
332.486	102.44
332.715	93.44
332.943	96.44
333.172	103.44
333.4	93.44
333.629	103.44
333.857	113.44
334.085	114.44
334.314	104.44
334.542	122.44
334.771	123.44
334.999	113.44
335.227	103.44
335.455	90.44
335.684	95.44
335.912	88.44
336.14	100.44
336.369	101.44
336.597	92.44
336.825	105.44
337.053	89.44
337.281	98.44
337.51	86.44
337.738	100.44
337.966	93.44
338.194	82.44
338.422	101.44
338.65	91.44
338.878	94.44
339.106	78.44
339.334	89.44
339.562	95.44
339.79	92.44
340.018	95.44
340.246	90.44
340.474	106.44
340.702	88.44
340.93	99.44
341.158	97.44
341.386	86.44
341.614	83.44
341.842	97.44
342.07	92.44
342.298	85.44
342.526	85.44
342.754	80.44
342.981	85.44
343.209	90.44
343.437	99.44
343.665	107.44
343.893	101.44
344.12	99.44
344.348	94.44
344.576	97.44
344.804	94.44
345.031	93.44
345.259	85.44
345.487	85.44
345.714	106.44
345.942	88.44
346.17	87.44
346.397	101.44
346.625	86.44
346.853	98.44
347.08	104.44
347.308	82.44
347.535	104.44
347.763	101.44
347.99	102.44
348.218	114.44
348.445	106.44
348.673	103.44
348.9	93.44
349.128	97.44
349.355	98.44
349.583	109.44
349.81	105.44
350.037	106.44
350.265	106.44
350.492	95.44
350.72	91.44
350.947	96.44
351.174	102.44
351.402	103.44
351.629	103.44
351.856	96.44
352.083	98.44
352.311	107.44
352.538	111.44
352.765	100.44
352.992	112.44
353.22	108.44
353.447	100.44
353.674	100.44
353.901	94.44
354.128	98.44
354.355	95.44
354.583	101.44
354.81	89.44
355.037	96.44
355.264	95.44
355.491	97.44
355.718	101.44
355.945	93.44
356.172	96.44
356.399	99.44
356.626	82.44
356.853	98.44
357.08	100.44
357.307	104.44
357.534	100.44
357.761	98.44
357.988	105.44
358.215	105.44
358.441	100.44
358.668	96.44
358.895	83.44
359.122	98.44
359.349	107.44
359.576	100.44
359.802	104.44
360.029	120.44
360.256	100.44
360.483	108.44
360.709	85.44
360.936	84.44
361.163	87.44
361.39	80.44
361.616	103.44
361.843	84.44
362.07	106.44
362.296	95.44
362.523	98.44
362.749	92.44
362.976	88.44
363.203	97.44
363.429	93.44
363.656	82.44
363.882	105.44
364.109	91.44
364.335	101.44
364.562	104.44
364.788	91.44
365.015	94.44
365.241	101.44
365.468	85.44
365.694	90.44
365.92	80.44
366.147	93.44
366.373	103.44
366.599	98.44
366.826	84.44
367.052	92.44
367.278	90.44
367.505	85.44
367.731	88.44
367.957	95.44
368.184	110.44
368.41	101.44
368.636	98.44
368.862	102.44
369.089	91.44
369.315	96.44
369.541	83.44
369.767	92.44
369.993	88.44
370.219	87.44
370.445	86.44
370.672	95.44
370.898	82.44
371.124	89.44
371.35	78.44
371.576	84.44
371.802	87.44
372.028	102.44
372.254	86.44
372.48	82.44
372.706	83.44
372.932	83.44
373.158	84.44
373.384	83.44
373.61	86.44
373.835	81.44
374.061	88.44
374.287	88.44
374.513	96.44
374.739	88.44
374.965	78.44
375.191	87.44
375.416	100.44
375.642	98.44
375.868	90.44
376.094	95.44
376.319	77.44
376.545	98.44
376.771	90.44
376.997	84.44
377.222	94.44
377.448	95.44
377.674	103.44
377.899	83.44
378.125	95.44
378.35	95.44
378.576	105.44
378.802	95.44
379.027	83.44
379.253	83.44
379.478	91.44
379.704	98.44
379.929	87.44
380.155	89.44
380.38	86.44
380.606	97.44
380.831	100.44
381.057	111.44
381.282	88.44
381.507	97.44
381.733	98.44
381.958	100.44
382.184	92.44
382.409	79.44
382.634	91.44
382.86	95.44
383.085	102.44
383.31	107.44
383.535	103.44
383.761	95.44
383.986	88.44
384.211	106.44
384.436	105.44
384.662	107.44
384.887	90.44
385.112	91.44
385.337	115.44
385.562	101.44
385.787	102.44
386.013	101.44
386.238	111.44
386.463	93.44
386.688	122.44
386.913	105.44
387.138	109.44
387.363	93.44
387.588	107.44
387.813	88.44
388.038	115.44
388.263	110.44
388.488	104.44
388.713	102.44
388.938	96.44
389.163	100.44
389.387	91.44
389.612	79.44
389.837	95.44
390.062	87.44
390.287	94.44
390.512	95.44
390.736	100.44
390.961	99.44
391.186	95.44
391.411	90.44
391.636	96.44
391.86	95.44
392.085	98.44
392.31	79.44
392.534	93.44
392.759	89.44
392.984	94.44
393.208	88.44
393.433	87.44
393.658	86.44
393.882	91.44
394.107	96.44
394.331	98.44
394.556	84.44
394.78	87.44
395.005	86.44
395.229	68.44
395.454	92.44
395.678	82.44
395.903	76.44
396.127	83.44
396.352	91.44
396.576	91.44
396.801	79.44
397.025	85.44
397.249	65.44
397.474	87.44
397.698	65.44
397.922	90.44
398.147	94.44
398.371	98.44
398.595	78.44
398.82	94.44
399.044	92.44
399.268	82.44
399.492	105.44
399.717	86.44
399.941	88.44
400.165	104.44
400.389	92.44
400.613	86.44
400.837	90.44
401.062	99.44
401.286	79.44
401.51	90.44
401.734	87.44
401.958	98.44
402.182	116.44
402.406	134.44
402.63	110.44
402.854	89.44
403.078	86.44
403.302	90.44
403.526	91.44
403.75	96.44
403.974	91.44
404.198	86.44
404.422	85.44
404.645	95.44
404.869	88.44
405.093	95.44
405.317	89.44
405.541	103.44
405.765	110.44
405.988	96.44
406.212	137.44
406.436	154.44
406.66	104.44
406.883	110.44
407.107	78.44
407.331	104.44
407.555	113.44
407.778	86.44
408.002	98.44
408.226	89.44
408.449	90.44
408.673	77.44
408.896	99.44
409.12	102.44
409.344	84.44
409.567	79.44
409.791	94.44
410.014	88.44
410.238	91.44
410.461	93.44
410.685	76.44
410.908	96.44
411.132	103.44
411.355	102.44
411.578	94.44
411.802	93.44
412.025	94.44
412.249	87.44
412.472	93.44
412.695	86.44
412.919	98.44
413.142	95.44
413.365	108.44
413.589	90.44
413.812	102.44
414.035	102.44
414.258	105.44
414.482	98.44
414.705	102.44
414.928	95.44
415.151	107.44
415.374	101.44
415.597	86.44
415.821	76.44
416.044	81.44
416.267	82.44
416.49	83.44
416.713	92.44
416.936	92.44
417.159	80.44
417.382	107.44
417.605	96.44
417.828	74.44
418.051	89.44
418.274	93.44
418.497	92.44
418.72	102.44
418.943	98.44
419.166	83.44
419.389	91.44
419.611	89.44
419.834	100.44
420.057	100.44
420.28	91.44
420.503	81.44
420.726	77.44
420.948	94.44
421.171	91.44
421.394	90.44
421.617	90.44
421.839	109.44
422.062	94.44
422.285	98.44
422.507	93.44
422.73	108.44
422.953	81.44
423.175	83.44
423.398	97.44
423.621	96.44
423.843	110.44
424.066	90.44
424.288	83.44
424.511	88.44
424.733	95.44
424.956	103.44
425.178	110.44
425.401	103.44
425.623	116.44
425.846	80.44
426.068	96.44
426.291	102.44
426.513	91.44
426.735	91.44
426.958	88.44
427.18	102.44
427.402	128.44
427.625	139.44
427.847	110.44
428.069	111.44
428.292	86.44
428.514	91.44
428.736	92.44
428.958	78.44
429.181	79.44
429.403	86.44
429.625	95.44
429.847	98.44
430.069	99.44
430.292	90.44
430.514	93.44
430.736	75.44
430.958	94.44
431.18	93.44
431.402	88.44
431.624	90.44
431.846	95.44
432.068	104.44
432.29	98.44
432.512	86.44
432.734	93.44
432.956	83.44
433.178	97.44
433.4	106.44
433.622	108.44
433.844	88.44
434.066	111.44
434.287	90.44
434.509	91.44
434.731	82.44
434.953	91.44
435.175	88.44
435.397	95.44
435.618	105.44
435.84	88.44
436.062	105.44
436.284	110.44
436.505	100.44
436.727	92.44
436.949	90.44
437.17	94.44
437.392	82.44
437.614	106.44
437.835	93.44
438.057	112.44
438.278	106.44
438.5	98.44
438.721	102.44
438.943	102.44
439.165	87.44
439.386	90.44
439.608	95.44
439.829	101.44
440.05	120.44
440.272	124.44
440.493	96.44
440.715	72.44
440.936	96.44
441.158	97.44
441.379	86.44
441.6	102.44
441.822	95.44
442.043	99.44
442.264	105.44
442.486	101.44
442.707	98.44
442.928	100.44
443.149	101.44
443.371	115.44
443.592	105.44
443.813	109.44
444.034	105.44
444.255	92.44
444.476	98.44
444.698	93.44
444.919	80.44
445.14	114.44
445.361	117.44
445.582	108.44
445.803	111.44
446.024	131.44
446.245	116.44
446.466	98.44
446.687	90.44
446.908	96.44
447.129	97.44
447.35	94.44
447.571	99.44
447.792	94.44
448.013	94.44
448.234	101.44
448.455	100.44
448.675	97.44
448.896	119.44
449.117	94.44
449.338	104.44
449.559	131.44
449.779	120.44
450	91.44
450.221	101.44
450.442	90.44
450.662	83.44
450.883	101.44
451.104	107.44
451.324	94.44
451.545	99.44
451.766	85.44
451.986	81.44
452.207	98.44
452.428	98.44
452.648	108.44
452.869	116.44
453.089	118.44
453.31	95.44
453.53	85.44
453.751	87.44
453.971	86.44
454.192	109.44
454.412	94.44
454.633	79.44
454.853	92.44
455.073	84.44
455.294	88.44
455.514	103.44
455.734	99.44
455.955	83.44
456.175	77.44
456.395	85.44
456.616	75.44
456.836	92.44
457.056	85.44
457.276	86.44
457.497	92.44
457.717	86.44
457.937	86.44
458.157	82.44
458.377	89.44
458.598	102.44
458.818	124.44
459.038	138.44
459.258	104.44
459.478	102.44
459.698	88.44
459.918	91.44
460.138	97.44
460.358	86.44
460.578	93.44
460.798	104.44
461.018	89.44
461.238	94.44
461.458	91.44
461.678	87.44
461.898	78.44
462.118	108.44
462.338	92.44
462.558	97.44
462.777	94.44
462.997	88.44
463.217	106.44
463.437	76.44
463.657	76.44
463.876	95.44
464.096	86.44
464.316	93.44
464.536	91.44
464.755	89.44
464.975	105.44
465.195	141.44
465.414	135.44
465.634	101.44
465.854	78.44
466.073	98.44
466.293	97.44
466.512	94.44
466.732	84.44
466.951	93.44
467.171	98.44
467.391	102.44
467.61	103.44
467.829	94.44
468.049	95.44
468.268	82.44
468.488	93.44
468.707	80.44
468.927	80.44
469.146	78.44
469.365	84.44
469.585	82.44
469.804	97.44
470.023	90.44
470.243	84.44
470.462	96.44
470.681	95.44
470.901	90.44
471.12	93.44
471.339	78.44
471.558	104.44
471.777	87.44
471.997	95.44
472.216	106.44
472.435	129.44
472.654	90.44
472.873	99.44
473.092	89.44
473.311	99.44
473.53	81.44
473.749	83.44
473.968	100.44
474.187	101.44
474.406	100.44
474.625	83.44
474.844	91.44
475.063	76.44
475.282	91.44
475.501	90.44
475.72	104.44
475.939	96.44
476.158	85.44
476.377	93.44
476.596	100.44
476.814	93.44
477.033	78.44
477.252	92.44
477.471	99.44
477.69	89.44
477.908	100.44
478.127	89.44
478.346	88.44
478.564	97.44
478.783	98.44
479.002	95.44
479.22	98.44
479.439	84.44
479.658	103.44
479.876	89.44
480.095	99.44
480.313	70.44
480.532	88.44
480.751	92.44
480.969	107.44
481.188	159.44
481.406	132.44
481.624	88.44
481.843	87.44
482.061	87.44
482.28	75.44
482.498	88.44
482.717	94.44
482.935	91.44
483.153	98.44
483.372	105.44
483.59	84.44
483.808	91.44
484.027	89.44
484.245	96.44
484.463	95.44
484.681	99.44
484.9	86.44
485.118	100.44
485.336	92.44
485.554	108.44
485.772	88.44
485.99	104.44
486.209	102.44
486.427	99.44
486.645	102.44
486.863	117.44
487.081	98.44
487.299	93.44
487.517	96.44
487.735	86.44
487.953	102.44
488.171	85.44
488.389	92.44
488.607	105.44
488.825	104.44
489.043	85.44
489.261	84.44
489.479	82.44
489.696	82.44
489.914	84.44
490.132	95.44
490.35	101.44
490.568	95.44
490.786	91.44
491.003	76.44
491.221	86.44
491.439	95.44
491.657	97.44
491.874	88.44
492.092	97.44
492.31	84.44
492.527	83.44
492.745	100.44
492.963	95.44
493.18	102.44
493.398	104.44
493.615	98.44
493.833	98.44
494.05	83.44
494.268	99.44
494.485	92.44
494.703	80.44
494.92	94.44
495.138	80.44
495.355	84.44
495.573	98.44
495.79	84.44
496.008	85.44
496.225	102.44
496.442	90.44
496.66	98.44
496.877	84.44
497.094	85.44
497.312	95.44
497.529	83.44
497.746	109.44
497.963	94.44
498.181	99.44
498.398	90.44
498.615	104.44
498.832	91.44
499.049	90.44
499.267	101.44
499.484	96.44
499.701	85.44
499.918	92.44
500.135	84.44
500.352	96.44
500.569	100.44
500.786	83.44
501.003	90.44
501.22	87.44
501.437	96.44
501.654	98.44
501.871	111.44
502.088	82.44
502.305	82.44
502.522	88.44
502.739	72.44
502.956	83.44
503.172	84.44
503.389	97.44
503.606	102.44
503.823	104.44
504.04	102.44
504.256	75.44
504.473	93.44
504.69	94.44
504.907	96.44
505.123	92.44
505.34	87.44
505.557	103.44
505.773	86.44
505.99	94.44
506.207	103.44
506.423	90.44
506.64	96.44
506.856	92.44
507.073	100.44
507.289	86.44
507.506	95.44
507.722	101.44
507.939	90.44
508.155	87.44
508.372	76.44
508.588	101.44
508.805	99.44
509.021	93.44
509.238	100.44
509.454	93.44
509.67	99.44
509.887	104.44
510.103	110.44
510.319	187.44
510.536	603.44
510.752	1696.44
510.968	502.44
511.184	133.44
511.401	94.44
511.617	95.44
511.833	84.44
512.049	72.44
512.265	100.44
512.481	90.44
512.698	87.44
512.914	100.44
513.13	88.44
513.346	91.44
513.562	92.44
513.778	95.44
513.994	89.44
514.21	101.44
514.426	99.44
514.642	109.44
514.858	99.44
515.074	140.44
515.29	328.44
515.506	997.44
515.721	387.44
515.937	132.44
516.153	108.44
516.369	92.44
516.585	102.44
516.801	92.44
517.016	99.44
517.232	99.44
517.448	84.44
517.664	96.44
517.879	98.44
518.095	87.44
518.311	91.44
518.527	99.44
518.742	83.44
518.958	104.44
519.173	105.44
519.389	89.44
519.605	105.44
519.82	93.44
520.036	91.44
520.251	115.44
520.467	105.44
520.682	115.44
520.898	101.44
521.113	118.44
521.329	122.44
521.544	160.44
521.76	431.44
521.975	1675.44
522.19	1010.44
522.406	245.44
522.621	110.44
522.836	100.44
523.052	82.44
523.267	89.44
523.482	96.44
523.698	99.44
523.913	103.44
524.128	96.44
524.343	97.44
524.559	99.44
524.774	93.44
524.989	101.44
525.204	95.44
525.419	99.44
525.634	88.44
525.849	103.44
526.064	105.44
526.28	101.44
526.495	98.44
526.71	106.44
526.925	84.44
527.14	90.44
527.355	105.44
527.57	88.44
527.785	88.44
527.999	103.44
528.214	94.44
528.429	92.44
528.644	106.44
528.859	90.44
529.074	93.44
529.289	103.44
529.503	143.44
529.718	88.44
529.933	89.44
530.148	94.44
530.363	99.44
530.577	93.44
530.792	88.44
531.007	103.44
531.221	98.44
531.436	86.44
531.651	84.44
531.865	108.44
532.08	89.44
532.295	91.44
532.509	101.44
532.724	91.44
532.938	91.44
533.153	106.44
533.367	87.44
533.582	100.44
533.796	94.44
534.011	95.44
534.225	92.44
534.44	99.44
534.654	90.44
534.868	83.44
535.083	98.44
535.297	104.44
535.511	105.44
535.726	102.44
535.94	90.44
536.154	88.44
536.369	99.44
536.583	95.44
536.797	85.44
537.011	80.44
537.225	110.44
537.44	97.44
537.654	97.44
537.868	84.44
538.082	99.44
538.296	99.44
538.51	88.44
538.724	85.44
538.938	87.44
539.153	98.44
539.367	105.44
539.581	81.44
539.795	92.44
540.009	95.44
540.222	74.44
540.436	84.44
540.65	98.44
540.864	103.44
541.078	87.44
541.292	99.44
541.506	87.44
541.72	100.44
541.934	86.44
542.147	89.44
542.361	92.44
542.575	82.44
542.789	93.44
543.002	102.44
543.216	109.44
543.43	98.44
543.644	90.44
543.857	86.44
544.071	86.44
544.285	91.44
544.498	109.44
544.712	80.44
544.925	90.44
545.139	87.44
545.352	99.44
545.566	89.44
545.779	94.44
545.993	84.44
546.206	94.44
546.42	79.44
546.633	86.44
546.847	100.44
547.06	92.44
547.274	91.44
547.487	87.44
547.7	80.44
547.914	98.44
548.127	79.44
548.34	97.44
548.554	95.44
548.767	89.44
548.98	91.44
549.193	91.44
549.407	88.44
549.62	90.44
549.833	79.44
550.046	85.44
550.259	92.44
550.473	93.44
550.686	87.44
550.899	86.44
551.112	92.44
551.325	86.44
551.538	98.44
551.751	104.44
551.964	85.44
552.177	84.44
552.39	94.44
552.603	99.44
552.816	87.44
553.029	90.44
553.242	80.44
553.455	100.44
553.667	104.44
553.88	109.44
554.093	90.44
554.306	78.44
554.519	82.44
554.732	96.44
554.944	94.44
555.157	85.44
555.37	91.44
555.583	93.44
555.795	98.44
556.008	88.44
556.221	91.44
556.433	102.44
556.646	98.44
556.859	93.44
557.071	106.44
557.284	84.44
557.496	82.44
557.709	90.44
557.921	79.44
558.134	86.44
558.346	89.44
558.559	82.44
558.771	100.44
558.984	98.44
559.196	98.44
559.409	103.44
559.621	87.44
559.833	101.44
560.046	86.44
560.258	100.44
560.47	85.44
560.683	90.44
560.895	100.44
561.107	85.44
561.32	84.44
561.532	99.44
561.744	92.44
561.956	104.44
562.168	99.44
562.381	96.44
562.593	78.44
562.805	82.44
563.017	101.44
563.229	99.44
563.441	91.44
563.653	89.44
563.865	91.44
564.077	79.44
564.289	101.44
564.501	85.44
564.713	90.44
564.925	83.44
565.137	111.44
565.349	102.44
565.561	81.44
565.773	85.44
565.985	87.44
566.197	82.44
566.408	94.44
566.62	88.44
566.832	94.44
567.044	94.44
567.255	96.44
567.467	90.44
567.679	90.44
567.891	104.44
568.102	93.44
568.314	98.44
568.526	95.44
568.737	106.44
568.949	86.44
569.161	78.44
569.372	88.44
569.584	98.44
569.795	92.44
570.007	119.44
570.218	197.44
570.43	116.44
570.641	102.44
570.853	100.44
571.064	103.44
571.276	98.44
571.487	95.44
571.698	79.44
571.91	81.44
572.121	88.44
572.333	80.44
572.544	110.44
572.755	93.44
572.966	98.44
573.178	90.44
573.389	101.44
573.6	86.44
573.811	83.44
574.023	78.44
574.234	77.44
574.445	91.44
574.656	82.44
574.867	92.44
575.078	81.44
575.289	98.44
575.501	101.44
575.712	94.44
575.923	78.44
576.134	95.44
576.345	94.44
576.556	93.44
576.767	95.44
576.978	108.44
577.188	92.44
577.399	86.44
577.61	101.44
577.821	95.44
578.032	99.44
578.243	216.44
578.454	549.44
578.665	168.44
578.875	107.44
579.086	82.44
579.297	90.44
579.508	86.44
579.718	91.44
579.929	89.44
580.14	87.44
580.35	83.44
580.561	91.44
580.772	84.44
580.982	84.44
581.193	80.44
581.403	82.44
581.614	86.44
581.825	80.44
582.035	79.44
582.246	85.44
582.456	109.44
582.667	76.44
582.877	87.44
583.087	89.44
583.298	99.44
583.508	94.44
583.719	75.44
583.929	110.44
584.139	90.44
584.35	94.44
584.56	101.44
584.77	83.44
584.981	84.44
585.191	93.44
585.401	90.44
585.611	78.44
585.821	88.44
586.032	94.44
586.242	99.44
586.452	86.44
586.662	77.44
586.872	87.44
587.082	90.44
587.292	90.44
587.502	86.44
587.713	73.44
587.923	86.44
588.133	76.44
588.343	84.44
588.553	87.44
588.762	91.44
588.972	95.44
589.182	92.44
589.392	82.44
589.602	83.44
589.812	91.44
590.022	95.44
590.232	88.44
590.441	86.44
590.651	88.44
590.861	95.44
591.071	94.44
591.281	85.44
591.49	82.44
591.7	83.44
591.91	95.44
592.119	102.44
592.329	89.44
592.539	92.44
592.748	92.44
592.958	88.44
593.167	92.44
593.377	87.44
593.587	101.44
593.796	90.44
594.006	79.44
594.215	88.44
594.424	86.44
594.634	95.44
594.843	110.44
595.053	91.44
595.262	87.44
595.472	82.44
595.681	95.44
595.89	90.44
596.1	92.44
596.309	110.44
596.518	88.44
596.727	85.44
596.937	75.44
597.146	91.44
597.355	93.44
597.564	80.44
597.774	85.44
597.983	78.44
598.192	97.44
598.401	79.44
598.61	86.44
598.819	87.44
599.028	107.44
599.237	85.44
599.446	91.44
599.655	92.44
599.864	71.44
600.073	90.44
600.282	89.44
600.491	75.44
600.7	82.44
600.909	84.44
601.118	94.44
601.327	106.44
601.536	92.44
601.745	93.44
601.953	73.44
602.162	86.44
602.371	90.44
602.58	79.44
602.789	88.44
602.997	108.44
603.206	86.44
603.415	88.44
603.623	86.44
603.832	94.44
604.041	98.44
604.249	91.44
604.458	80.44
604.666	84.44
604.875	78.44
605.084	90.44
605.292	84.44
605.501	88.44
605.709	79.44
605.918	75.44
606.126	94.44
606.334	86.44
606.543	86.44
606.751	84.44
606.96	91.44
607.168	79.44
607.376	82.44
607.585	110.44
607.793	92.44
608.001	95.44
608.21	88.44
608.418	95.44
608.626	83.44
608.834	92.44
609.043	88.44
609.251	77.44
609.459	94.44
609.667	80.44
609.875	94.44
610.083	90.44
610.291	82.44
610.499	108.44
610.707	88.44
610.916	100.44
611.124	84.44
611.332	90.44
611.54	78.44
611.748	91.44
611.955	86.44
612.163	100.44
612.371	90.44
612.579	90.44
612.787	93.44
612.995	89.44
613.203	92.44
613.411	76.44
613.618	98.44
613.826	79.44
614.034	95.44
614.242	90.44
614.449	93.44
614.657	90.44
614.865	94.44
615.072	76.44
615.28	90.44
615.488	94.44
615.695	85.44
615.903	95.44
616.111	99.44
616.318	104.44
616.526	102.44
616.733	88.44
616.941	95.44
617.148	93.44
617.356	87.44
617.563	99.44
617.771	92.44
617.978	102.44
618.185	90.44
618.393	91.44
618.6	87.44
618.807	100.44
619.015	106.44
619.222	82.44
619.429	87.44
619.637	76.44
619.844	84.44
620.051	87.44
620.258	83.44
620.466	97.44
620.673	84.44
620.88	83.44
621.087	82.44
621.294	79.44
621.501	96.44
621.708	88.44
621.915	80.44
622.122	99.44
622.329	80.44
622.536	86.44
622.743	91.44
622.95	86.44
623.157	78.44
623.364	96.44
623.571	91.44
623.778	101.44
623.985	85.44
624.192	72.44
624.399	84.44
624.606	78.44
624.812	79.44
625.019	95.44
625.226	90.44
625.433	98.44
625.639	94.44
625.846	101.44
626.053	85.44
626.259	77.44
626.466	99.44
626.673	89.44
626.879	87.44
627.086	91.44
627.293	94.44
627.499	90.44
627.706	89.44
627.912	90.44
628.119	75.44
628.325	99.44
628.532	80.44
628.738	79.44
628.945	84.44
629.151	90.44
629.357	80.44
629.564	82.44
629.77	77.44
629.976	86.44
630.183	92.44
630.389	77.44
630.595	106.44
630.802	75.44
631.008	90.44
631.214	86.44
631.42	96.44
631.627	92.44
631.833	78.44
632.039	102.44
632.245	77.44
632.451	94.44
632.657	88.44
632.863	109.44
633.069	79.44
633.275	80.44
633.481	79.44
633.688	87.44
633.893	87.44
634.099	99.44
634.305	97.44
634.511	91.44
634.717	82.44
634.923	89.44
635.129	77.44
635.335	75.44
635.541	88.44
635.747	82.44
635.952	77.44
636.158	97.44
636.364	103.44
636.57	86.44
636.775	76.44
636.981	83.44
637.187	84.44
637.392	88.44
637.598	85.44
637.804	103.44
638.009	106.44
638.215	89.44
638.421	76.44
638.626	90.44
638.832	78.44
639.037	83.44
639.243	92.44
639.448	92.44
639.654	88.44
639.859	89.44
640.065	75.44
640.27	97.44
640.475	92.44
640.681	77.44
640.886	76.44
641.091	78.44
641.297	93.44
641.502	100.44
641.707	92.44
641.913	91.44
642.118	91.44
642.323	87.44
642.528	92.44
642.733	93.44
642.939	94.44
643.144	94.44
643.349	83.44
643.554	95.44
643.759	79.44
643.964	86.44
644.169	90.44
644.374	89.44
644.579	96.44
644.784	87.44
644.989	72.44
645.194	82.44
645.399	80.44
645.604	88.44
645.809	82.44
646.014	79.44
646.219	95.44
646.423	84.44
646.628	85.44
646.833	80.44
647.038	96.44
647.243	94.44
647.447	92.44
647.652	85.44
647.857	78.44
648.062	107.44
648.266	81.44
648.471	96.44
648.676	101.44
648.88	102.44
649.085	98.44
649.289	97.44
649.494	88.44
649.698	122.44
649.903	101.44
650.107	92.44
650.312	96.44
650.516	88.44
650.721	96.44
650.925	97.44
651.13	86.44
651.334	97.44
651.539	92.44
651.743	82.44
651.947	83.44
652.152	95.44
652.356	83.44
652.56	90.44
652.764	93.44
652.969	83.44
653.173	86.44
653.377	91.44
653.581	85.44
653.785	87.44
653.99	99.44
654.194	100.44
654.398	103.44
654.602	77.44
654.806	89.44
655.01	102.44
655.214	104.44
655.418	79.44
655.622	94.44
655.826	92.44
656.03	77.44
656.234	107.44
656.438	97.44
656.642	89.44
656.846	87.44
657.049	72.44
657.253	83.44
657.457	84.44
657.661	78.44
657.865	78.44
658.068	87.44
658.272	74.44
658.476	79.44
658.68	86.44
658.883	78.44
659.087	93.44
659.291	86.44
659.494	83.44
659.698	90.44
659.901	91.44
660.105	90.44
660.309	83.44
660.512	79.44
660.716	86.44
660.919	85.44
661.123	99.44
661.326	88.44
661.53	98.44
661.733	95.44
661.936	76.44
662.14	82.44
662.343	91.44
662.546	84.44
662.75	87.44
662.953	92.44
663.156	72.44
663.36	87.44
663.563	79.44
663.766	92.44
663.969	79.44
664.173	82.44
664.376	85.44
664.579	80.44
664.782	87.44
664.985	86.44
665.188	78.44
665.391	78.44
665.594	96.44
665.797	84.44
666	91.44
666.203	87.44
666.406	80.44
666.609	80.44
666.812	75.44
667.015	74.44
667.218	71.44
667.421	92.44
667.624	82.44
667.827	98.44
668.03	85.44
668.232	90.44
668.435	71.44
668.638	79.44
668.841	95.44
669.043	82.44
669.246	98.44
669.449	88.44
669.651	89.44
669.854	98.44
670.057	89.44
670.259	76.44
670.462	74.44
670.665	79.44
670.867	87.44
671.07	85.44
671.272	86.44
671.475	94.44
671.677	74.44
671.88	70.44
672.082	80.44
672.284	85.44
672.487	84.44
672.689	84.44
672.892	71.44
