Data from Soil_50_2_HRD10591_00011.txt Node
Date: Thu Feb 19 11:31:48 EST 2026
User: Yrep
Spectrometer: HR+D1059
Trigger mode: 1
Integration Time (sec): 1.000000E-1
Scans to average: 1
Electric dark correction enabled: true
Nonlinearity correction enabled: false
Boxcar width: 0
XAxis mode: Wavelengths
Number of Pixels in Spectrum: 2048
>>>>>Begin Spectral Data<<<<<
223.165	-12.12
223.4	-12.12
223.635	-12.12
223.869	-16.12
224.104	-31.12
224.338	-27.12
224.573	-5.12
224.808	-14.12
225.042	-8.12
225.277	-4.12
225.511	-14.12
225.746	1.88
225.98	7.88
226.215	15.88
226.449	26.88
226.683	25.88
226.918	19.88
227.152	33.88
227.387	32.88
227.621	42.88
227.856	41.88
228.09	58.88
228.324	48.88
228.559	58.88
228.793	56.88
229.027	58.88
229.262	58.88
229.496	67.88
229.73	70.88
229.964	66.88
230.199	65.88
230.433	79.88
230.667	72.88
230.901	85.88
231.136	81.88
231.37	77.88
231.604	76.88
231.838	80.88
232.072	84.88
232.306	83.88
232.541	72.88
232.775	94.88
233.009	67.88
233.243	75.88
233.477	85.88
233.711	84.88
233.945	81.88
234.179	81.88
234.413	85.88
234.647	93.88
234.881	85.88
235.115	87.88
235.349	85.88
235.583	86.88
235.817	80.88
236.051	75.88
236.285	89.88
236.519	66.88
236.753	74.88
236.987	79.88
237.221	75.88
237.455	80.88
237.689	78.88
237.922	74.88
238.156	67.88
238.39	66.88
238.624	79.88
238.858	71.88
239.091	76.88
239.325	76.88
239.559	74.88
239.793	71.88
240.027	70.88
240.26	91.88
240.494	84.88
240.728	88.88
240.961	83.88
241.195	71.88
241.429	67.88
241.662	74.88
241.896	85.88
242.13	88.88
242.363	81.88
242.597	84.88
242.83	101.88
243.064	78.88
243.298	79.88
243.531	75.88
243.765	67.88
243.998	71.88
244.232	82.88
244.465	79.88
244.699	77.88
244.932	71.88
245.166	75.88
245.399	73.88
245.633	72.88
245.866	79.88
246.099	83.88
246.333	70.88
246.566	77.88
246.8	73.88
247.033	74.88
247.266	75.88
247.5	76.88
247.733	78.88
247.966	77.88
248.2	70.88
248.433	78.88
248.666	71.88
248.899	89.88
249.133	71.88
249.366	85.88
249.599	81.88
249.832	83.88
250.066	94.88
250.299	74.88
250.532	64.88
250.765	83.88
250.998	90.88
251.231	80.88
251.465	78.88
251.698	72.88
251.931	88.88
252.164	67.88
252.397	73.88
252.63	76.88
252.863	85.88
253.096	67.88
253.329	83.88
253.562	73.88
253.795	79.88
254.028	83.88
254.261	88.88
254.494	87.88
254.727	83.88
254.96	84.88
255.193	79.88
255.426	85.88
255.659	72.88
255.892	85.88
256.124	89.88
256.357	75.88
256.59	79.88
256.823	79.88
257.056	83.88
257.289	89.88
257.521	95.88
257.754	93.88
257.987	88.88
258.22	85.88
258.452	83.88
258.685	69.88
258.918	82.88
259.151	89.88
259.383	81.88
259.616	85.88
259.849	84.88
260.081	88.88
260.314	66.88
260.547	71.88
260.779	78.88
261.012	77.88
261.244	91.88
261.477	94.88
261.71	79.88
261.942	86.88
262.175	91.88
262.407	81.88
262.64	70.88
262.872	67.88
263.105	85.88
263.337	78.88
263.57	79.88
263.802	93.88
264.035	79.88
264.267	70.88
264.499	78.88
264.732	78.88
264.964	78.88
265.197	78.88
265.429	76.88
265.661	87.88
265.894	90.88
266.126	90.88
266.358	90.88
266.591	89.88
266.823	87.88
267.055	84.88
267.287	82.88
267.52	74.88
267.752	85.88
267.984	88.88
268.216	87.88
268.448	68.88
268.681	101.88
268.913	75.88
269.145	76.88
269.377	83.88
269.609	81.88
269.841	77.88
270.073	79.88
270.306	89.88
270.538	84.88
270.77	93.88
271.002	76.88
271.234	79.88
271.466	85.88
271.698	88.88
271.93	94.88
272.162	90.88
272.394	78.88
272.626	95.88
272.858	81.88
273.09	91.88
273.322	91.88
273.553	74.88
273.785	77.88
274.017	81.88
274.249	72.88
274.481	77.88
274.713	74.88
274.945	83.88
275.176	95.88
275.408	80.88
275.64	81.88
275.872	89.88
276.104	83.88
276.335	81.88
276.567	70.88
276.799	79.88
277.031	93.88
277.262	92.88
277.494	92.88
277.726	88.88
277.957	82.88
278.189	81.88
278.421	80.88
278.652	71.88
278.884	74.88
279.115	91.88
279.347	87.88
279.579	91.88
279.81	90.88
280.042	81.88
280.273	77.88
280.505	65.88
280.736	89.88
280.968	79.88
281.199	98.88
281.431	82.88
281.662	101.88
281.894	81.88
282.125	82.88
282.356	88.88
282.588	84.88
282.819	91.88
283.051	91.88
283.282	89.88
283.513	100.88
283.745	89.88
283.976	78.88
284.207	83.88
284.439	99.88
284.67	84.88
284.901	80.88
285.132	91.88
285.364	79.88
285.595	92.88
285.826	92.88
286.057	76.88
286.288	86.88
286.52	84.88
286.751	81.88
286.982	87.88
287.213	81.88
287.444	76.88
287.675	88.88
287.906	81.88
288.138	87.88
288.369	66.88
288.6	70.88
288.831	75.88
289.062	88.88
289.293	85.88
289.524	98.88
289.755	97.88
289.986	99.88
290.217	72.88
290.448	74.88
290.679	92.88
290.91	79.88
291.141	81.88
291.371	79.88
291.602	94.88
291.833	86.88
292.064	84.88
292.295	78.88
292.526	96.88
292.757	84.88
292.987	84.88
293.218	79.88
293.449	96.88
293.68	97.88
293.91	84.88
294.141	83.88
294.372	75.88
294.603	72.88
294.833	81.88
295.064	91.88
295.295	76.88
295.525	80.88
295.756	87.88
295.987	83.88
296.217	76.88
296.448	92.88
296.679	99.88
296.909	96.88
297.14	80.88
297.37	88.88
297.601	67.88
297.831	74.88
298.062	89.88
298.292	91.88
298.523	101.88
298.753	99.88
298.984	97.88
299.214	102.88
299.445	106.88
299.675	101.88
299.905	91.88
300.136	99.88
300.366	95.88
300.597	93.88
300.827	90.88
301.057	84.88
301.288	75.88
301.518	77.88
301.748	85.88
301.979	90.88
302.209	85.88
302.439	87.88
302.669	87.88
302.9	84.88
303.13	88.88
303.36	85.88
303.59	97.88
303.82	91.88
304.051	95.88
304.281	99.88
304.511	92.88
304.741	83.88
304.971	89.88
305.201	84.88
305.431	85.88
305.661	94.88
305.891	83.88
306.121	79.88
306.352	91.88
306.582	80.88
306.812	94.88
307.042	90.88
307.272	99.88
307.502	95.88
307.731	91.88
307.961	75.88
308.191	77.88
308.421	91.88
308.651	70.88
308.881	86.88
309.111	74.88
309.341	93.88
309.571	83.88
309.8	93.88
310.03	79.88
310.26	76.88
310.49	86.88
310.72	103.88
310.949	91.88
311.179	85.88
311.409	91.88
311.639	92.88
311.868	77.88
312.098	88.88
312.328	101.88
312.557	97.88
312.787	93.88
313.017	79.88
313.246	85.88
313.476	88.88
313.706	89.88
313.935	84.88
314.165	95.88
314.394	87.88
314.624	100.88
314.853	88.88
315.083	75.88
315.312	89.88
315.542	99.88
315.771	95.88
316.001	101.88
316.23	93.88
316.46	94.88
316.689	91.88
316.919	101.88
317.148	92.88
317.377	87.88
317.607	88.88
317.836	87.88
318.065	77.88
318.295	83.88
318.524	89.88
318.753	89.88
318.983	77.88
319.212	84.88
319.441	73.88
319.67	83.88
319.9	83.88
320.129	101.88
320.358	113.88
320.587	94.88
320.816	80.88
321.046	77.88
321.275	95.88
321.504	99.88
321.733	87.88
321.962	94.88
322.191	85.88
322.42	105.88
322.649	75.88
322.878	104.88
323.108	89.88
323.337	100.88
323.566	94.88
323.795	68.88
324.024	82.88
324.253	79.88
324.482	75.88
324.71	80.88
324.939	80.88
325.168	99.88
325.397	89.88
325.626	96.88
325.855	90.88
326.084	94.88
326.313	79.88
326.542	90.88
326.77	90.88
326.999	81.88
327.228	75.88
327.457	90.88
327.686	90.88
327.914	93.88
328.143	96.88
328.372	91.88
328.6	103.88
328.829	84.88
329.058	80.88
329.287	87.88
329.515	77.88
329.744	87.88
329.972	83.88
330.201	93.88
330.43	84.88
330.658	84.88
330.887	88.88
331.115	82.88
331.344	77.88
331.572	82.88
331.801	85.88
332.03	82.88
332.258	99.88
332.486	89.88
332.715	77.88
332.943	90.88
333.172	91.88
333.4	82.88
333.629	79.88
333.857	76.88
334.085	95.88
334.314	67.88
334.542	83.88
334.771	84.88
334.999	80.88
335.227	87.88
335.455	97.88
335.684	93.88
335.912	87.88
336.14	84.88
336.369	85.88
336.597	99.88
336.825	85.88
337.053	81.88
337.281	113.88
337.51	77.88
337.738	77.88
337.966	90.88
338.194	82.88
338.422	80.88
338.65	91.88
338.878	84.88
339.106	83.88
339.334	87.88
339.562	104.88
339.79	84.88
340.018	90.88
340.246	75.88
340.474	81.88
340.702	81.88
340.93	83.88
341.158	80.88
341.386	90.88
341.614	79.88
341.842	75.88
342.07	82.88
342.298	83.88
342.526	84.88
342.754	109.88
342.981	88.88
343.209	87.88
343.437	109.88
343.665	76.88
343.893	89.88
344.12	83.88
344.348	77.88
344.576	76.88
344.804	84.88
345.031	84.88
345.259	85.88
345.487	80.88
345.714	92.88
345.942	85.88
346.17	77.88
346.397	87.88
346.625	85.88
346.853	80.88
347.08	80.88
347.308	95.88
347.535	99.88
347.763	82.88
347.99	89.88
348.218	92.88
348.445	85.88
348.673	77.88
348.9	73.88
349.128	96.88
349.355	91.88
349.583	85.88
349.81	75.88
350.037	92.88
350.265	97.88
350.492	79.88
350.72	77.88
350.947	81.88
351.174	85.88
351.402	70.88
351.629	69.88
351.856	76.88
352.083	79.88
352.311	81.88
352.538	83.88
352.765	83.88
352.992	89.88
353.22	83.88
353.447	77.88
353.674	100.88
353.901	92.88
354.128	85.88
354.355	90.88
354.583	91.88
354.81	78.88
355.037	77.88
355.264	103.88
355.491	92.88
355.718	83.88
355.945	92.88
356.172	99.88
356.399	82.88
356.626	97.88
356.853	95.88
357.08	95.88
357.307	80.88
357.534	91.88
357.761	85.88
357.988	74.88
358.215	91.88
358.441	96.88
358.668	81.88
358.895	83.88
359.122	90.88
359.349	89.88
359.576	76.88
359.802	75.88
360.029	91.88
360.256	97.88
360.483	84.88
360.709	83.88
360.936	86.88
361.163	92.88
361.39	73.88
361.616	89.88
361.843	91.88
362.07	85.88
362.296	84.88
362.523	80.88
362.749	87.88
362.976	94.88
363.203	79.88
363.429	91.88
363.656	82.88
363.882	77.88
364.109	88.88
364.335	91.88
364.562	91.88
364.788	77.88
365.015	86.88
365.241	87.88
365.468	92.88
365.694	86.88
365.92	89.88
366.147	73.88
366.373	70.88
366.599	96.88
366.826	82.88
367.052	78.88
367.278	89.88
367.505	77.88
367.731	97.88
367.957	92.88
368.184	84.88
368.41	79.88
368.636	90.88
368.862	101.88
369.089	89.88
369.315	83.88
369.541	91.88
369.767	80.88
369.993	80.88
370.219	80.88
370.445	87.88
370.672	95.88
370.898	76.88
371.124	83.88
371.35	91.88
371.576	88.88
371.802	77.88
372.028	79.88
372.254	93.88
372.48	83.88
372.706	80.88
372.932	89.88
373.158	83.88
373.384	86.88
373.61	99.88
373.835	87.88
374.061	83.88
374.287	83.88
374.513	82.88
374.739	100.88
374.965	92.88
375.191	88.88
375.416	82.88
375.642	88.88
375.868	96.88
376.094	80.88
376.319	74.88
376.545	93.88
376.771	86.88
376.997	83.88
377.222	75.88
377.448	85.88
377.674	85.88
377.899	81.88
378.125	92.88
378.35	75.88
378.576	78.88
378.802	73.88
379.027	93.88
379.253	78.88
379.478	91.88
379.704	92.88
379.929	90.88
380.155	89.88
380.38	100.88
380.606	87.88
380.831	93.88
381.057	95.88
381.282	76.88
381.507	81.88
381.733	83.88
381.958	81.88
382.184	88.88
382.409	81.88
382.634	103.88
382.86	106.88
383.085	108.88
383.31	107.88
383.535	105.88
383.761	109.88
383.986	94.88
384.211	79.88
384.436	79.88
384.662	86.88
384.887	79.88
385.112	90.88
385.337	83.88
385.562	83.88
385.787	80.88
386.013	87.88
386.238	100.88
386.463	79.88
386.688	99.88
386.913	95.88
387.138	97.88
387.363	87.88
387.588	89.88
387.813	89.88
388.038	80.88
388.263	108.88
388.488	65.88
388.713	72.88
388.938	87.88
389.163	85.88
389.387	88.88
389.612	80.88
389.837	83.88
390.062	94.88
390.287	83.88
390.512	90.88
390.736	87.88
390.961	89.88
391.186	81.88
391.411	87.88
391.636	93.88
391.86	88.88
392.085	102.88
392.31	89.88
392.534	75.88
392.759	85.88
392.984	100.88
393.208	136.88
393.433	149.88
393.658	129.88
393.882	87.88
394.107	97.88
394.331	80.88
394.556	81.88
394.78	80.88
395.005	84.88
395.229	90.88
395.454	85.88
395.678	109.88
395.903	80.88
396.127	103.88
396.352	101.88
396.576	102.88
396.801	131.88
397.025	122.88
397.249	102.88
397.474	95.88
397.698	103.88
397.922	95.88
398.147	95.88
398.371	76.88
398.595	91.88
398.82	78.88
399.044	94.88
399.268	84.88
399.492	84.88
399.717	77.88
399.941	88.88
400.165	85.88
400.389	83.88
400.613	86.88
400.837	73.88
401.062	60.88
401.286	85.88
401.51	81.88
401.734	84.88
401.958	97.88
402.182	81.88
402.406	83.88
402.63	83.88
402.854	81.88
403.078	77.88
403.302	66.88
403.526	59.88
403.75	84.88
403.974	75.88
404.198	75.88
404.422	77.88
404.645	83.88
404.869	90.88
405.093	78.88
405.317	82.88
405.541	79.88
405.765	88.88
405.988	85.88
406.212	90.88
406.436	87.88
406.66	85.88
406.883	83.88
407.107	71.88
407.331	83.88
407.555	77.88
407.778	88.88
408.002	81.88
408.226	78.88
408.449	85.88
408.673	80.88
408.896	74.88
409.12	95.88
409.344	103.88
409.567	87.88
409.791	69.88
410.014	93.88
410.238	95.88
410.461	98.88
410.685	97.88
410.908	90.88
411.132	89.88
411.355	74.88
411.578	78.88
411.802	83.88
412.025	91.88
412.249	84.88
412.472	90.88
412.695	74.88
412.919	78.88
413.142	84.88
413.365	82.88
413.589	97.88
413.812	75.88
414.035	76.88
414.258	79.88
414.482	81.88
414.705	73.88
414.928	75.88
415.151	93.88
415.374	73.88
415.597	74.88
415.821	86.88
416.044	73.88
416.267	94.88
416.49	91.88
416.713	75.88
416.936	87.88
417.159	91.88
417.382	74.88
417.605	93.88
417.828	101.88
418.051	87.88
418.274	78.88
418.497	97.88
418.72	85.88
418.943	86.88
419.166	89.88
419.389	83.88
419.611	69.88
419.834	72.88
420.057	77.88
420.28	83.88
420.503	74.88
420.726	93.88
420.948	79.88
421.171	69.88
421.394	89.88
421.617	79.88
421.839	83.88
422.062	76.88
422.285	103.88
422.507	116.88
422.73	140.88
422.953	125.88
423.175	97.88
423.398	99.88
423.621	87.88
423.843	81.88
424.066	83.88
424.288	88.88
424.511	91.88
424.733	89.88
424.956	68.88
425.178	94.88
425.401	80.88
425.623	67.88
425.846	89.88
426.068	89.88
426.291	74.88
426.513	74.88
426.735	85.88
426.958	83.88
427.18	86.88
427.402	88.88
427.625	80.88
427.847	83.88
428.069	93.88
428.292	89.88
428.514	85.88
428.736	78.88
428.958	100.88
429.181	92.88
429.403	78.88
429.625	87.88
429.847	77.88
430.069	93.88
430.292	104.88
430.514	93.88
430.736	101.88
430.958	95.88
431.18	87.88
431.402	88.88
431.624	90.88
431.846	91.88
432.068	92.88
432.29	91.88
432.512	81.88
432.734	95.88
432.956	95.88
433.178	97.88
433.4	80.88
433.622	82.88
433.844	75.88
434.066	79.88
434.287	84.88
434.509	89.88
434.731	79.88
434.953	91.88
435.175	85.88
435.397	88.88
435.618	86.88
435.84	78.88
436.062	77.88
436.284	92.88
436.505	89.88
436.727	77.88
436.949	74.88
437.17	82.88
437.392	81.88
437.614	89.88
437.835	83.88
438.057	84.88
438.278	82.88
438.5	110.88
438.721	82.88
438.943	91.88
439.165	73.88
439.386	85.88
439.608	83.88
439.829	79.88
440.05	85.88
440.272	87.88
440.493	76.88
440.715	85.88
440.936	88.88
441.158	91.88
441.379	66.88
441.6	84.88
441.822	92.88
442.043	81.88
442.264	84.88
442.486	85.88
442.707	87.88
442.928	78.88
443.149	84.88
443.371	93.88
443.592	93.88
443.813	108.88
444.034	96.88
444.255	91.88
444.476	84.88
444.698	85.88
444.919	87.88
445.14	145.88
445.361	141.88
445.582	111.88
445.803	98.88
446.024	99.88
446.245	78.88
446.466	79.88
446.687	80.88
446.908	93.88
447.129	87.88
447.35	81.88
447.571	75.88
447.792	74.88
448.013	77.88
448.234	88.88
448.455	90.88
448.675	75.88
448.896	71.88
449.117	80.88
449.338	74.88
449.559	87.88
449.779	97.88
450	71.88
450.221	84.88
450.442	65.88
450.662	73.88
450.883	77.88
451.104	85.88
451.324	77.88
451.545	85.88
451.766	85.88
451.986	84.88
452.207	80.88
452.428	77.88
452.648	87.88
452.869	79.88
453.089	99.88
453.31	87.88
453.53	98.88
453.751	81.88
453.971	65.88
454.192	79.88
454.412	92.88
454.633	83.88
454.853	83.88
455.073	84.88
455.294	83.88
455.514	79.88
455.734	82.88
455.955	87.88
456.175	79.88
456.395	73.88
456.616	72.88
456.836	87.88
457.056	89.88
457.276	69.88
457.497	80.88
457.717	109.88
457.937	87.88
458.157	72.88
458.377	91.88
458.598	83.88
458.818	92.88
459.038	76.88
459.258	87.88
459.478	97.88
459.698	71.88
459.918	82.88
460.138	94.88
460.358	71.88
460.578	81.88
460.798	90.88
461.018	74.88
461.238	91.88
461.458	97.88
461.678	89.88
461.898	82.88
462.118	106.88
462.338	84.88
462.558	87.88
462.777	73.88
462.997	77.88
463.217	81.88
463.437	89.88
463.657	93.88
463.876	74.88
464.096	79.88
464.316	91.88
464.536	91.88
464.755	57.88
464.975	84.88
465.195	81.88
465.414	90.88
465.634	83.88
465.854	85.88
466.073	77.88
466.293	84.88
466.512	83.88
466.732	78.88
466.951	82.88
467.171	78.88
467.391	66.88
467.61	91.88
467.829	87.88
468.049	97.88
468.268	83.88
468.488	75.88
468.707	83.88
468.927	82.88
469.146	75.88
469.365	93.88
469.585	86.88
469.804	73.88
470.023	81.88
470.243	69.88
470.462	84.88
470.681	77.88
470.901	78.88
471.12	81.88
471.339	82.88
471.558	85.88
471.777	79.88
471.997	83.88
472.216	84.88
472.435	81.88
472.654	91.88
472.873	79.88
473.092	86.88
473.311	94.88
473.53	81.88
473.749	89.88
473.968	82.88
474.187	86.88
474.406	75.88
474.625	87.88
474.844	90.88
475.063	83.88
475.282	93.88
475.501	93.88
475.72	88.88
475.939	91.88
476.158	80.88
476.377	75.88
476.596	64.88
476.814	74.88
477.033	76.88
477.252	89.88
477.471	76.88
477.69	78.88
477.908	91.88
478.127	87.88
478.346	90.88
478.564	69.88
478.783	86.88
479.002	74.88
479.22	78.88
479.439	86.88
479.658	72.88
479.876	78.88
480.095	83.88
480.313	88.88
480.532	91.88
480.751	76.88
480.969	88.88
481.188	93.88
481.406	86.88
481.624	63.88
481.843	77.88
482.061	89.88
482.28	79.88
482.498	89.88
482.717	79.88
482.935	89.88
483.153	81.88
483.372	82.88
483.59	85.88
483.808	91.88
484.027	86.88
484.245	77.88
484.463	83.88
484.681	81.88
484.9	79.88
485.118	88.88
485.336	72.88
485.554	81.88
485.772	75.88
485.99	83.88
486.209	78.88
486.427	77.88
486.645	82.88
486.863	67.88
487.081	90.88
487.299	77.88
487.517	80.88
487.735	88.88
487.953	107.88
488.171	102.88
488.389	92.88
488.607	86.88
488.825	90.88
489.043	81.88
489.261	85.88
489.479	84.88
489.696	75.88
489.914	85.88
490.132	89.88
490.35	101.88
490.568	84.88
490.786	86.88
491.003	86.88
491.221	94.88
491.439	81.88
491.657	73.88
491.874	81.88
492.092	88.88
492.31	87.88
492.527	72.88
492.745	90.88
492.963	83.88
493.18	81.88
493.398	87.88
493.615	75.88
493.833	80.88
494.05	73.88
494.268	87.88
494.485	81.88
494.703	89.88
494.92	76.88
495.138	67.88
495.355	77.88
495.573	77.88
495.79	76.88
496.008	86.88
496.225	73.88
496.442	76.88
496.66	81.88
496.877	77.88
497.094	88.88
497.312	91.88
497.529	82.88
497.746	78.88
497.963	91.88
498.181	76.88
498.398	89.88
498.615	79.88
498.832	101.88
499.049	84.88
499.267	93.88
499.484	85.88
499.701	75.88
499.918	83.88
500.135	92.88
500.352	90.88
500.569	84.88
500.786	90.88
501.003	89.88
501.22	87.88
501.437	82.88
501.654	87.88
501.871	89.88
502.088	79.88
502.305	86.88
502.522	85.88
502.739	91.88
502.956	79.88
503.172	81.88
503.389	73.88
503.606	77.88
503.823	98.88
504.04	85.88
504.256	89.88
504.473	93.88
504.69	90.88
504.907	90.88
505.123	81.88
505.34	91.88
505.557	87.88
505.773	79.88
505.99	79.88
506.207	91.88
506.423	99.88
506.64	99.88
506.856	95.88
507.073	82.88
507.289	83.88
507.506	86.88
507.722	89.88
507.939	80.88
508.155	81.88
508.372	87.88
508.588	83.88
508.805	72.88
509.021	85.88
509.238	82.88
509.454	75.88
509.67	83.88
509.887	81.88
510.103	81.88
510.319	83.88
510.536	78.88
510.752	84.88
510.968	78.88
511.184	82.88
511.401	78.88
511.617	93.88
511.833	77.88
512.049	91.88
512.265	87.88
512.481	91.88
512.698	75.88
512.914	81.88
513.13	75.88
513.346	107.88
513.562	96.88
513.778	95.88
513.994	99.88
514.21	88.88
514.426	89.88
514.642	75.88
514.858	91.88
515.074	65.88
515.29	85.88
515.506	89.88
515.721	90.88
515.937	73.88
516.153	82.88
516.369	82.88
516.585	87.88
516.801	92.88
517.016	108.88
517.232	92.88
517.448	99.88
517.664	103.88
517.879	88.88
518.095	95.88
518.311	102.88
518.527	121.88
518.742	102.88
518.958	88.88
519.173	97.88
519.389	84.88
519.605	91.88
519.82	91.88
520.036	100.88
520.251	93.88
520.467	84.88
520.682	87.88
520.898	91.88
521.113	77.88
521.329	82.88
521.544	91.88
521.76	84.88
521.975	83.88
522.19	93.88
522.406	85.88
522.621	95.88
522.836	93.88
523.052	107.88
523.267	83.88
523.482	71.88
523.698	76.88
523.913	93.88
524.128	77.88
524.343	94.88
524.559	83.88
524.774	107.88
524.989	81.88
525.204	81.88
525.419	83.88
525.634	89.88
525.849	84.88
526.064	104.88
526.28	107.88
526.495	101.88
526.71	139.88
526.925	102.88
527.14	115.88
527.355	111.88
527.57	88.88
527.785	105.88
527.999	83.88
528.214	91.88
528.429	103.88
528.644	91.88
528.859	85.88
529.074	99.88
529.289	95.88
529.503	80.88
529.718	86.88
529.933	72.88
530.148	83.88
530.363	86.88
530.577	86.88
530.792	88.88
531.007	96.88
531.221	90.88
531.436	69.88
531.651	79.88
531.865	81.88
532.08	95.88
532.295	101.88
532.509	87.88
532.724	87.88
532.938	85.88
533.153	75.88
533.367	102.88
533.582	93.88
533.796	103.88
534.011	91.88
534.225	83.88
534.44	86.88
534.654	91.88
534.868	97.88
535.083	97.88
535.297	82.88
535.511	87.88
535.726	94.88
535.94	76.88
536.154	93.88
536.369	94.88
536.583	89.88
536.797	99.88
537.011	86.88
537.225	87.88
537.44	88.88
537.654	102.88
537.868	81.88
538.082	81.88
538.296	82.88
538.51	96.88
538.724	85.88
538.938	89.88
539.153	82.88
539.367	84.88
539.581	88.88
539.795	91.88
540.009	89.88
540.222	87.88
540.436	85.88
540.65	83.88
540.864	88.88
541.078	85.88
541.292	92.88
541.506	78.88
541.72	88.88
541.934	77.88
542.147	101.88
542.361	91.88
542.575	80.88
542.789	84.88
543.002	91.88
543.216	93.88
543.43	91.88
543.644	85.88
543.857	87.88
544.071	81.88
544.285	95.88
544.498	93.88
544.712	79.88
544.925	84.88
545.139	87.88
545.352	79.88
545.566	87.88
545.779	92.88
545.993	99.88
546.206	105.88
546.42	86.88
546.633	86.88
546.847	107.88
547.06	82.88
547.274	107.88
547.487	105.88
547.7	89.88
547.914	97.88
548.127	106.88
548.34	92.88
548.554	104.88
548.767	98.88
548.98	101.88
549.193	88.88
549.407	93.88
549.62	103.88
549.833	106.88
550.046	92.88
550.259	110.88
550.473	108.88
550.686	97.88
550.899	111.88
551.112	112.88
551.325	107.88
551.538	99.88
551.751	107.88
551.964	112.88
552.177	109.88
552.39	113.88
552.603	114.88
552.816	101.88
553.029	99.88
553.242	103.88
553.455	103.88
553.667	108.88
553.88	130.88
554.093	111.88
554.306	111.88
554.519	113.88
554.732	116.88
554.944	109.88
555.157	108.88
555.37	117.88
555.583	96.88
555.795	118.88
556.008	111.88
556.221	101.88
556.433	109.88
556.646	105.88
556.859	105.88
557.071	99.88
557.284	95.88
557.496	81.88
557.709	103.88
557.921	81.88
558.134	112.88
558.346	114.88
558.559	104.88
558.771	104.88
558.984	133.88
559.196	121.88
559.409	93.88
559.621	122.88
559.833	114.88
560.046	128.88
560.258	113.88
560.47	109.88
560.683	97.88
560.895	88.88
561.107	75.88
561.32	87.88
561.532	105.88
561.744	112.88
561.956	92.88
562.168	103.88
562.381	102.88
562.593	77.88
562.805	87.88
563.017	85.88
563.229	99.88
563.441	84.88
563.653	86.88
563.865	90.88
564.077	70.88
564.289	83.88
564.501	90.88
564.713	92.88
564.925	96.88
565.137	91.88
565.349	106.88
565.561	85.88
565.773	102.88
565.985	100.88
566.197	88.88
566.408	78.88
566.62	83.88
566.832	95.88
567.044	77.88
567.255	86.88
567.467	95.88
567.679	87.88
567.891	95.88
568.102	99.88
568.314	91.88
568.526	85.88
568.737	96.88
568.949	111.88
569.161	105.88
569.372	93.88
569.584	95.88
569.795	104.88
570.007	91.88
570.218	83.88
570.43	83.88
570.641	106.88
570.853	99.88
571.064	94.88
571.276	98.88
571.487	80.88
571.698	83.88
571.91	101.88
572.121	90.88
572.333	85.88
572.544	96.88
572.755	91.88
572.966	79.88
573.178	87.88
573.389	90.88
573.6	89.88
573.811	90.88
574.023	85.88
574.234	90.88
574.445	96.88
574.656	85.88
574.867	82.88
575.078	89.88
575.289	84.88
575.501	93.88
575.712	103.88
575.923	87.88
576.134	92.88
576.345	77.88
576.556	80.88
576.767	93.88
576.978	82.88
577.188	97.88
577.399	89.88
577.61	81.88
577.821	84.88
578.032	81.88
578.243	98.88
578.454	99.88
578.665	83.88
578.875	89.88
579.086	86.88
579.297	89.88
579.508	93.88
579.718	93.88
579.929	98.88
580.14	86.88
580.35	92.88
580.561	103.88
580.772	101.88
580.982	73.88
581.193	91.88
581.403	85.88
581.614	81.88
581.825	91.88
582.035	91.88
582.246	95.88
582.456	92.88
582.667	91.88
582.877	87.88
583.087	77.88
583.298	85.88
583.508	92.88
583.719	79.88
583.929	108.88
584.139	83.88
584.35	100.88
584.56	99.88
584.77	97.88
584.981	88.88
585.191	77.88
585.401	92.88
585.611	87.88
585.821	106.88
586.032	109.88
586.242	100.88
586.452	106.88
586.662	86.88
586.872	97.88
587.082	85.88
587.292	99.88
587.502	101.88
587.713	102.88
587.923	92.88
588.133	109.88
588.343	106.88
588.553	117.88
588.762	152.88
588.972	268.88
589.182	417.88
589.392	337.88
589.602	304.88
589.812	347.88
590.022	251.88
590.232	164.88
590.441	115.88
590.651	119.88
590.861	99.88
591.071	111.88
591.281	97.88
591.49	107.88
591.7	84.88
591.91	111.88
592.119	105.88
592.329	96.88
592.539	101.88
592.748	112.88
592.958	96.88
593.167	94.88
593.377	101.88
593.587	105.88
593.796	111.88
594.006	103.88
594.215	107.88
594.424	94.88
594.634	101.88
594.843	101.88
595.053	102.88
595.262	85.88
595.472	103.88
595.681	103.88
595.89	91.88
596.1	101.88
596.309	75.88
596.518	101.88
596.727	99.88
596.937	98.88
597.146	97.88
597.355	103.88
597.564	97.88
597.774	103.88
597.983	101.88
598.192	102.88
598.401	94.88
598.61	99.88
598.819	96.88
599.028	93.88
599.237	101.88
599.446	101.88
599.655	99.88
599.864	101.88
600.073	106.88
600.282	93.88
600.491	93.88
600.7	102.88
600.909	100.88
601.118	108.88
601.327	103.88
601.536	94.88
601.745	91.88
601.953	93.88
602.162	112.88
602.371	109.88
602.58	92.88
602.789	97.88
602.997	121.88
603.206	86.88
603.415	103.88
603.623	105.88
603.832	115.88
604.041	107.88
604.249	88.88
604.458	97.88
604.666	99.88
604.875	109.88
605.084	100.88
605.292	117.88
605.501	103.88
605.709	97.88
605.918	92.88
606.126	107.88
606.334	112.88
606.543	116.88
606.751	101.88
606.96	112.88
607.168	95.88
607.376	111.88
607.585	100.88
607.793	102.88
608.001	97.88
608.21	97.88
608.418	110.88
608.626	99.88
608.834	105.88
609.043	98.88
609.251	97.88
609.459	105.88
609.667	103.88
609.875	105.88
610.083	100.88
610.291	109.88
610.499	119.88
610.707	94.88
610.916	113.88
611.124	114.88
611.332	100.88
611.54	97.88
611.748	115.88
611.955	106.88
612.163	103.88
612.371	151.88
612.579	125.88
612.787	115.88
612.995	116.88
613.203	108.88
613.411	114.88
613.618	99.88
613.826	99.88
614.034	119.88
614.242	103.88
614.449	103.88
614.657	105.88
614.865	121.88
615.072	87.88
615.28	113.88
615.488	100.88
615.695	109.88
615.903	128.88
616.111	127.88
616.318	162.88
616.526	166.88
616.733	129.88
616.941	116.88
617.148	133.88
617.356	134.88
617.563	141.88
617.771	135.88
617.978	129.88
618.185	144.88
618.393	130.88
618.6	123.88
618.807	131.88
619.015	110.88
619.222	117.88
619.429	124.88
619.637	140.88
619.844	120.88
620.051	106.88
620.258	127.88
620.466	126.88
620.673	125.88
620.88	129.88
621.087	109.88
621.294	105.88
621.501	123.88
621.708	109.88
621.915	99.88
622.122	124.88
622.329	105.88
622.536	113.88
622.743	122.88
622.95	109.88
623.157	101.88
623.364	104.88
623.571	89.88
623.778	101.88
623.985	99.88
624.192	112.88
624.399	112.88
624.606	107.88
624.812	106.88
625.019	104.88
625.226	103.88
625.433	113.88
625.639	97.88
625.846	106.88
626.053	104.88
626.259	110.88
626.466	116.88
626.673	112.88
626.879	87.88
627.086	94.88
627.293	119.88
627.499	90.88
627.706	91.88
627.912	106.88
628.119	92.88
628.325	90.88
628.532	84.88
628.738	99.88
628.945	97.88
629.151	100.88
629.357	86.88
629.564	89.88
629.77	85.88
629.976	104.88
630.183	97.88
630.389	91.88
630.595	90.88
630.802	83.88
631.008	88.88
631.214	92.88
631.42	94.88
631.627	109.88
631.833	92.88
632.039	93.88
632.245	100.88
632.451	92.88
632.657	98.88
632.863	106.88
633.069	91.88
633.275	73.88
633.481	73.88
633.688	71.88
633.893	87.88
634.099	81.88
634.305	96.88
634.511	87.88
634.717	83.88
634.923	81.88
635.129	96.88
635.335	76.88
635.541	100.88
635.747	93.88
635.952	103.88
636.158	86.88
636.364	83.88
636.57	74.88
636.775	98.88
636.981	78.88
637.187	95.88
637.392	92.88
637.598	79.88
637.804	99.88
638.009	93.88
638.215	97.88
638.421	92.88
638.626	88.88
638.832	88.88
639.037	91.88
639.243	101.88
639.448	88.88
639.654	99.88
639.859	82.88
640.065	87.88
640.27	89.88
640.475	94.88
640.681	83.88
640.886	91.88
641.091	79.88
641.297	82.88
641.502	88.88
641.707	94.88
641.913	93.88
642.118	91.88
642.323	83.88
642.528	80.88
642.733	74.88
642.939	82.88
643.144	80.88
643.349	91.88
643.554	97.88
643.759	100.88
643.964	103.88
644.169	102.88
644.374	83.88
644.579	97.88
644.784	99.88
644.989	92.88
645.194	94.88
645.399	85.88
645.604	82.88
645.809	97.88
646.014	90.88
646.219	87.88
646.423	103.88
646.628	91.88
646.833	91.88
647.038	91.88
647.243	92.88
647.447	99.88
647.652	93.88
647.857	79.88
648.062	101.88
648.266	93.88
648.471	89.88
648.676	73.88
648.88	71.88
649.085	91.88
649.289	85.88
649.494	82.88
649.698	76.88
649.903	95.88
650.107	89.88
650.312	79.88
650.516	71.88
650.721	89.88
650.925	81.88
651.13	80.88
651.334	85.88
651.539	80.88
651.743	71.88
651.947	97.88
652.152	76.88
652.356	67.88
652.56	79.88
652.764	81.88
652.969	92.88
653.173	87.88
653.377	87.88
653.581	98.88
653.785	90.88
653.99	91.88
654.194	97.88
654.398	92.88
654.602	83.88
654.806	84.88
655.01	99.88
655.214	101.88
655.418	81.88
655.622	82.88
655.826	74.88
656.03	71.88
656.234	77.88
656.438	76.88
656.642	79.88
656.846	71.88
657.049	84.88
657.253	87.88
657.457	82.88
657.661	83.88
657.865	91.88
658.068	81.88
658.272	83.88
658.476	75.88
658.68	98.88
658.883	81.88
659.087	91.88
659.291	86.88
659.494	76.88
659.698	74.88
659.901	75.88
660.105	80.88
660.309	77.88
660.512	87.88
660.716	89.88
660.919	83.88
661.123	85.88
661.326	77.88
661.53	85.88
661.733	87.88
661.936	87.88
662.14	83.88
662.343	70.88
662.546	80.88
662.75	75.88
662.953	80.88
663.156	91.88
663.36	73.88
663.563	89.88
663.766	95.88
663.969	94.88
664.173	81.88
664.376	89.88
664.579	78.88
664.782	83.88
664.985	89.88
665.188	92.88
665.391	85.88
665.594	93.88
665.797	90.88
666	94.88
666.203	89.88
666.406	83.88
666.609	85.88
666.812	84.88
667.015	80.88
667.218	90.88
667.421	99.88
667.624	67.88
667.827	89.88
668.03	70.88
668.232	87.88
668.435	81.88
668.638	86.88
668.841	84.88
669.043	76.88
669.246	85.88
669.449	74.88
669.651	58.88
669.854	96.88
670.057	87.88
670.259	64.88
670.462	82.88
670.665	90.88
670.867	88.88
671.07	75.88
671.272	77.88
671.475	83.88
671.677	80.88
671.88	79.88
672.082	71.88
672.284	72.88
672.487	99.88
672.689	87.88
672.892	91.88
