Data from Soil_50_5_HRD10591_00009.txt Node
Date: Thu Feb 19 11:33:53 EST 2026
User: Yrep
Spectrometer: HR+D1059
Trigger mode: 1
Integration Time (sec): 1.000000E-1
Scans to average: 1
Electric dark correction enabled: true
Nonlinearity correction enabled: false
Boxcar width: 0
XAxis mode: Wavelengths
Number of Pixels in Spectrum: 2048
>>>>>Begin Spectral Data<<<<<
223.165	-12.75
223.4	-12.75
223.635	-12.75
223.869	-9.75
224.104	-16.75
224.338	-22.75
224.573	-8.75
224.808	7.25
225.042	4.25
225.277	-13.75
225.511	-5.75
225.746	-4.75
225.98	8.25
226.215	0.25
226.449	12.25
226.683	14.25
226.918	26.25
227.152	22.25
227.387	29.25
227.621	38.25
227.856	47.25
228.09	42.25
228.324	46.25
228.559	64.25
228.793	64.25
229.027	68.25
229.262	65.25
229.496	58.25
229.73	61.25
229.964	76.25
230.199	86.25
230.433	80.25
230.667	66.25
230.901	82.25
231.136	89.25
231.37	75.25
231.604	85.25
231.838	73.25
232.072	92.25
232.306	76.25
232.541	93.25
232.775	92.25
233.009	85.25
233.243	83.25
233.477	88.25
233.711	77.25
233.945	87.25
234.179	81.25
234.413	85.25
234.647	85.25
234.881	72.25
235.115	96.25
235.349	75.25
235.583	80.25
235.817	85.25
236.051	82.25
236.285	81.25
236.519	85.25
236.753	86.25
236.987	74.25
237.221	81.25
237.455	72.25
237.689	73.25
237.922	74.25
238.156	73.25
238.39	81.25
238.624	66.25
238.858	77.25
239.091	89.25
239.325	78.25
239.559	78.25
239.793	74.25
240.027	76.25
240.26	84.25
240.494	71.25
240.728	78.25
240.961	73.25
241.195	71.25
241.429	85.25
241.662	61.25
241.896	74.25
242.13	69.25
242.363	70.25
242.597	75.25
242.83	76.25
243.064	71.25
243.298	70.25
243.531	86.25
243.765	97.25
243.998	75.25
244.232	71.25
244.465	93.25
244.699	75.25
244.932	90.25
245.166	76.25
245.399	70.25
245.633	81.25
245.866	72.25
246.099	72.25
246.333	78.25
246.566	69.25
246.8	67.25
247.033	68.25
247.266	76.25
247.5	68.25
247.733	75.25
247.966	81.25
248.2	76.25
248.433	84.25
248.666	86.25
248.899	84.25
249.133	78.25
249.366	79.25
249.599	66.25
249.832	77.25
250.066	74.25
250.299	69.25
250.532	81.25
250.765	85.25
250.998	72.25
251.231	83.25
251.465	91.25
251.698	80.25
251.931	84.25
252.164	86.25
252.397	83.25
252.63	90.25
252.863	84.25
253.096	86.25
253.329	90.25
253.562	87.25
253.795	91.25
254.028	83.25
254.261	79.25
254.494	78.25
254.727	79.25
254.96	86.25
255.193	76.25
255.426	82.25
255.659	74.25
255.892	86.25
256.124	73.25
256.357	75.25
256.59	84.25
256.823	80.25
257.056	77.25
257.289	64.25
257.521	85.25
257.754	91.25
257.987	82.25
258.22	88.25
258.452	66.25
258.685	75.25
258.918	81.25
259.151	78.25
259.383	89.25
259.616	88.25
259.849	84.25
260.081	71.25
260.314	78.25
260.547	82.25
260.779	84.25
261.012	80.25
261.244	92.25
261.477	88.25
261.71	93.25
261.942	88.25
262.175	85.25
262.407	71.25
262.64	92.25
262.872	76.25
263.105	79.25
263.337	78.25
263.57	77.25
263.802	73.25
264.035	86.25
264.267	90.25
264.499	79.25
264.732	80.25
264.964	85.25
265.197	84.25
265.429	73.25
265.661	72.25
265.894	80.25
266.126	84.25
266.358	90.25
266.591	90.25
266.823	74.25
267.055	89.25
267.287	72.25
267.52	66.25
267.752	79.25
267.984	82.25
268.216	93.25
268.448	80.25
268.681	73.25
268.913	70.25
269.145	95.25
269.377	88.25
269.609	74.25
269.841	81.25
270.073	86.25
270.306	86.25
270.538	88.25
270.77	81.25
271.002	72.25
271.234	88.25
271.466	73.25
271.698	89.25
271.93	88.25
272.162	102.25
272.394	92.25
272.626	78.25
272.858	84.25
273.09	92.25
273.322	87.25
273.553	72.25
273.785	77.25
274.017	89.25
274.249	90.25
274.481	76.25
274.713	84.25
274.945	80.25
275.176	92.25
275.408	86.25
275.64	88.25
275.872	85.25
276.104	90.25
276.335	76.25
276.567	94.25
276.799	92.25
277.031	68.25
277.262	77.25
277.494	82.25
277.726	91.25
277.957	94.25
278.189	109.25
278.421	81.25
278.652	85.25
278.884	91.25
279.115	78.25
279.347	80.25
279.579	90.25
279.81	66.25
280.042	83.25
280.273	89.25
280.505	84.25
280.736	85.25
280.968	87.25
281.199	92.25
281.431	77.25
281.662	87.25
281.894	71.25
282.125	89.25
282.356	81.25
282.588	79.25
282.819	87.25
283.051	77.25
283.282	90.25
283.513	89.25
283.745	86.25
283.976	70.25
284.207	82.25
284.439	90.25
284.67	85.25
284.901	84.25
285.132	89.25
285.364	92.25
285.595	89.25
285.826	85.25
286.057	89.25
286.288	90.25
286.52	90.25
286.751	82.25
286.982	94.25
287.213	76.25
287.444	86.25
287.675	88.25
287.906	81.25
288.138	92.25
288.369	76.25
288.6	85.25
288.831	82.25
289.062	80.25
289.293	84.25
289.524	75.25
289.755	78.25
289.986	73.25
290.217	85.25
290.448	88.25
290.679	77.25
290.91	98.25
291.141	93.25
291.371	81.25
291.602	80.25
291.833	82.25
292.064	86.25
292.295	80.25
292.526	78.25
292.757	88.25
292.987	94.25
293.218	82.25
293.449	92.25
293.68	103.25
293.91	93.25
294.141	80.25
294.372	70.25
294.603	89.25
294.833	80.25
295.064	92.25
295.295	88.25
295.525	79.25
295.756	81.25
295.987	97.25
296.217	74.25
296.448	86.25
296.679	84.25
296.909	76.25
297.14	97.25
297.37	82.25
297.601	74.25
297.831	90.25
298.062	85.25
298.292	75.25
298.523	89.25
298.753	77.25
298.984	76.25
299.214	82.25
299.445	92.25
299.675	78.25
299.905	87.25
300.136	84.25
300.366	72.25
300.597	85.25
300.827	84.25
301.057	78.25
301.288	83.25
301.518	94.25
301.748	71.25
301.979	88.25
302.209	80.25
302.439	82.25
302.669	68.25
302.9	90.25
303.13	80.25
303.36	70.25
303.59	80.25
303.82	90.25
304.051	81.25
304.281	85.25
304.511	94.25
304.741	98.25
304.971	80.25
305.201	81.25
305.431	77.25
305.661	67.25
305.891	89.25
306.121	82.25
306.352	82.25
306.582	93.25
306.812	90.25
307.042	92.25
307.272	86.25
307.502	78.25
307.731	88.25
307.961	92.25
308.191	84.25
308.421	87.25
308.651	78.25
308.881	84.25
309.111	90.25
309.341	77.25
309.571	83.25
309.8	92.25
310.03	86.25
310.26	81.25
310.49	82.25
310.72	83.25
310.949	82.25
311.179	91.25
311.409	81.25
311.639	85.25
311.868	89.25
312.098	80.25
312.328	90.25
312.557	92.25
312.787	89.25
313.017	81.25
313.246	85.25
313.476	89.25
313.706	80.25
313.935	82.25
314.165	92.25
314.394	80.25
314.624	100.25
314.853	93.25
315.083	85.25
315.312	77.25
315.542	78.25
315.771	75.25
316.001	86.25
316.23	90.25
316.46	85.25
316.689	74.25
316.919	92.25
317.148	87.25
317.377	78.25
317.607	81.25
317.836	88.25
318.065	88.25
318.295	94.25
318.524	78.25
318.753	94.25
318.983	92.25
319.212	98.25
319.441	76.25
319.67	80.25
319.9	95.25
320.129	77.25
320.358	95.25
320.587	80.25
320.816	72.25
321.046	81.25
321.275	94.25
321.504	84.25
321.733	89.25
321.962	95.25
322.191	86.25
322.42	78.25
322.649	91.25
322.878	76.25
323.108	83.25
323.337	84.25
323.566	93.25
323.795	90.25
324.024	88.25
324.253	73.25
324.482	74.25
324.71	76.25
324.939	95.25
325.168	82.25
325.397	83.25
325.626	89.25
325.855	88.25
326.084	90.25
326.313	80.25
326.542	83.25
326.77	101.25
326.999	91.25
327.228	86.25
327.457	86.25
327.686	95.25
327.914	82.25
328.143	78.25
328.372	90.25
328.6	80.25
328.829	80.25
329.058	86.25
329.287	84.25
329.515	92.25
329.744	77.25
329.972	80.25
330.201	82.25
330.43	84.25
330.658	76.25
330.887	81.25
331.115	78.25
331.344	80.25
331.572	92.25
331.801	84.25
332.03	92.25
332.258	85.25
332.486	88.25
332.715	87.25
332.943	98.25
333.172	87.25
333.4	92.25
333.629	92.25
333.857	83.25
334.085	91.25
334.314	82.25
334.542	81.25
334.771	75.25
334.999	83.25
335.227	84.25
335.455	76.25
335.684	79.25
335.912	98.25
336.14	83.25
336.369	81.25
336.597	98.25
336.825	81.25
337.053	83.25
337.281	78.25
337.51	84.25
337.738	84.25
337.966	82.25
338.194	84.25
338.422	104.25
338.65	82.25
338.878	83.25
339.106	88.25
339.334	96.25
339.562	69.25
339.79	86.25
340.018	79.25
340.246	89.25
340.474	81.25
340.702	85.25
340.93	94.25
341.158	89.25
341.386	79.25
341.614	86.25
341.842	83.25
342.07	81.25
342.298	84.25
342.526	86.25
342.754	76.25
342.981	82.25
343.209	84.25
343.437	103.25
343.665	72.25
343.893	77.25
344.12	80.25
344.348	102.25
344.576	80.25
344.804	82.25
345.031	86.25
345.259	77.25
345.487	84.25
345.714	88.25
345.942	92.25
346.17	69.25
346.397	82.25
346.625	88.25
346.853	99.25
347.08	76.25
347.308	86.25
347.535	84.25
347.763	77.25
347.99	82.25
348.218	89.25
348.445	84.25
348.673	86.25
348.9	92.25
349.128	77.25
349.355	84.25
349.583	83.25
349.81	86.25
350.037	81.25
350.265	80.25
350.492	89.25
350.72	88.25
350.947	83.25
351.174	80.25
351.402	81.25
351.629	92.25
351.856	78.25
352.083	74.25
352.311	84.25
352.538	82.25
352.765	82.25
352.992	92.25
353.22	92.25
353.447	82.25
353.674	78.25
353.901	92.25
354.128	75.25
354.355	82.25
354.583	84.25
354.81	91.25
355.037	81.25
355.264	95.25
355.491	82.25
355.718	87.25
355.945	85.25
356.172	74.25
356.399	78.25
356.626	93.25
356.853	90.25
357.08	91.25
357.307	84.25
357.534	70.25
357.761	87.25
357.988	91.25
358.215	95.25
358.441	75.25
358.668	81.25
358.895	94.25
359.122	92.25
359.349	81.25
359.576	89.25
359.802	84.25
360.029	90.25
360.256	97.25
360.483	78.25
360.709	84.25
360.936	98.25
361.163	76.25
361.39	81.25
361.616	88.25
361.843	86.25
362.07	87.25
362.296	90.25
362.523	89.25
362.749	80.25
362.976	84.25
363.203	85.25
363.429	96.25
363.656	75.25
363.882	92.25
364.109	84.25
364.335	86.25
364.562	78.25
364.788	76.25
365.015	87.25
365.241	83.25
365.468	82.25
365.694	94.25
365.92	79.25
366.147	89.25
366.373	72.25
366.599	83.25
366.826	90.25
367.052	95.25
367.278	78.25
367.505	85.25
367.731	92.25
367.957	85.25
368.184	88.25
368.41	91.25
368.636	93.25
368.862	82.25
369.089	75.25
369.315	84.25
369.541	73.25
369.767	73.25
369.993	89.25
370.219	86.25
370.445	74.25
370.672	88.25
370.898	92.25
371.124	87.25
371.35	80.25
371.576	78.25
371.802	74.25
372.028	82.25
372.254	73.25
372.48	99.25
372.706	75.25
372.932	77.25
373.158	85.25
373.384	79.25
373.61	82.25
373.835	86.25
374.061	81.25
374.287	69.25
374.513	87.25
374.739	88.25
374.965	92.25
375.191	95.25
375.416	87.25
375.642	83.25
375.868	74.25
376.094	69.25
376.319	91.25
376.545	84.25
376.771	78.25
376.997	80.25
377.222	88.25
377.448	83.25
377.674	88.25
377.899	100.25
378.125	92.25
378.35	94.25
378.576	87.25
378.802	89.25
379.027	92.25
379.253	82.25
379.478	73.25
379.704	73.25
379.929	86.25
380.155	80.25
380.38	83.25
380.606	87.25
380.831	84.25
381.057	94.25
381.282	82.25
381.507	87.25
381.733	84.25
381.958	98.25
382.184	101.25
382.409	80.25
382.634	94.25
382.86	94.25
383.085	87.25
383.31	82.25
383.535	89.25
383.761	98.25
383.986	90.25
384.211	86.25
384.436	79.25
384.662	75.25
384.887	78.25
385.112	87.25
385.337	81.25
385.562	83.25
385.787	100.25
386.013	94.25
386.238	72.25
386.463	87.25
386.688	96.25
386.913	95.25
387.138	79.25
387.363	80.25
387.588	81.25
387.813	81.25
388.038	89.25
388.263	84.25
388.488	84.25
388.713	76.25
388.938	66.25
389.163	71.25
389.387	82.25
389.612	84.25
389.837	80.25
390.062	91.25
390.287	78.25
390.512	77.25
390.736	85.25
390.961	87.25
391.186	84.25
391.411	97.25
391.636	80.25
391.86	94.25
392.085	81.25
392.31	90.25
392.534	75.25
392.759	76.25
392.984	88.25
393.208	95.25
393.433	97.25
393.658	115.25
393.882	84.25
394.107	84.25
394.331	76.25
394.556	89.25
394.78	99.25
395.005	91.25
395.229	85.25
395.454	77.25
395.678	91.25
395.903	85.25
396.127	101.25
396.352	89.25
396.576	96.25
396.801	98.25
397.025	98.25
397.249	88.25
397.474	91.25
397.698	101.25
397.922	77.25
398.147	81.25
398.371	81.25
398.595	74.25
398.82	80.25
399.044	81.25
399.268	95.25
399.492	77.25
399.717	94.25
399.941	97.25
400.165	78.25
400.389	91.25
400.613	84.25
400.837	84.25
401.062	80.25
401.286	79.25
401.51	82.25
401.734	83.25
401.958	82.25
402.182	89.25
402.406	81.25
402.63	69.25
402.854	78.25
403.078	73.25
403.302	72.25
403.526	86.25
403.75	83.25
403.974	88.25
404.198	91.25
404.422	81.25
404.645	69.25
404.869	57.25
405.093	76.25
405.317	89.25
405.541	78.25
405.765	82.25
405.988	73.25
406.212	80.25
406.436	81.25
406.66	83.25
406.883	80.25
407.107	72.25
407.331	82.25
407.555	82.25
407.778	84.25
408.002	91.25
408.226	101.25
408.449	80.25
408.673	78.25
408.896	83.25
409.12	89.25
409.344	67.25
409.567	83.25
409.791	91.25
410.014	106.25
410.238	70.25
410.461	74.25
410.685	93.25
410.908	85.25
411.132	93.25
411.355	71.25
411.578	85.25
411.802	84.25
412.025	86.25
412.249	78.25
412.472	92.25
412.695	82.25
412.919	68.25
413.142	93.25
413.365	88.25
413.589	70.25
413.812	84.25
414.035	96.25
414.258	95.25
414.482	82.25
414.705	83.25
414.928	76.25
415.151	79.25
415.374	94.25
415.597	61.25
415.821	80.25
416.044	84.25
416.267	88.25
416.49	78.25
416.713	75.25
416.936	83.25
417.159	74.25
417.382	80.25
417.605	91.25
417.828	83.25
418.051	87.25
418.274	78.25
418.497	77.25
418.72	88.25
418.943	80.25
419.166	92.25
419.389	76.25
419.611	91.25
419.834	84.25
420.057	92.25
420.28	79.25
420.503	87.25
420.726	76.25
420.948	67.25
421.171	80.25
421.394	77.25
421.617	83.25
421.839	90.25
422.062	94.25
422.285	96.25
422.507	90.25
422.73	114.25
422.953	85.25
423.175	87.25
423.398	78.25
423.621	84.25
423.843	78.25
424.066	79.25
424.288	78.25
424.511	88.25
424.733	80.25
424.956	74.25
425.178	73.25
425.401	82.25
425.623	82.25
425.846	86.25
426.068	81.25
426.291	79.25
426.513	84.25
426.735	85.25
426.958	87.25
427.18	81.25
427.402	92.25
427.625	82.25
427.847	69.25
428.069	82.25
428.292	82.25
428.514	97.25
428.736	86.25
428.958	83.25
429.181	86.25
429.403	86.25
429.625	70.25
429.847	79.25
430.069	84.25
430.292	77.25
430.514	95.25
430.736	91.25
430.958	92.25
431.18	72.25
431.402	78.25
431.624	78.25
431.846	69.25
432.068	92.25
432.29	75.25
432.512	85.25
432.734	78.25
432.956	83.25
433.178	92.25
433.4	86.25
433.622	82.25
433.844	69.25
434.066	82.25
434.287	78.25
434.509	91.25
434.731	88.25
434.953	94.25
435.175	84.25
435.397	74.25
435.618	90.25
435.84	77.25
436.062	95.25
436.284	77.25
436.505	82.25
436.727	68.25
436.949	92.25
437.17	90.25
437.392	69.25
437.614	77.25
437.835	68.25
438.057	74.25
438.278	84.25
438.5	71.25
438.721	82.25
438.943	84.25
439.165	82.25
439.386	92.25
439.608	89.25
439.829	80.25
440.05	74.25
440.272	78.25
440.493	90.25
440.715	75.25
440.936	98.25
441.158	95.25
441.379	82.25
441.6	76.25
441.822	84.25
442.043	70.25
442.264	68.25
442.486	86.25
442.707	84.25
442.928	82.25
443.149	86.25
443.371	89.25
443.592	77.25
443.813	104.25
444.034	83.25
444.255	80.25
444.476	83.25
444.698	70.25
444.919	73.25
445.14	161.25
445.361	137.25
445.582	94.25
445.803	95.25
446.024	87.25
446.245	74.25
446.466	92.25
446.687	78.25
446.908	74.25
447.129	91.25
447.35	96.25
447.571	84.25
447.792	87.25
448.013	78.25
448.234	76.25
448.455	85.25
448.675	84.25
448.896	91.25
449.117	84.25
449.338	86.25
449.559	90.25
449.779	94.25
450	85.25
450.221	77.25
450.442	78.25
450.662	76.25
450.883	72.25
451.104	90.25
451.324	87.25
451.545	95.25
451.766	81.25
451.986	104.25
452.207	92.25
452.428	86.25
452.648	77.25
452.869	76.25
453.089	82.25
453.31	98.25
453.53	80.25
453.751	84.25
453.971	78.25
454.192	69.25
454.412	73.25
454.633	87.25
454.853	93.25
455.073	80.25
455.294	90.25
455.514	86.25
455.734	83.25
455.955	87.25
456.175	84.25
456.395	93.25
456.616	85.25
456.836	93.25
457.056	87.25
457.276	82.25
457.497	74.25
457.717	85.25
457.937	90.25
458.157	73.25
458.377	80.25
458.598	80.25
458.818	90.25
459.038	87.25
459.258	81.25
459.478	92.25
459.698	80.25
459.918	92.25
460.138	80.25
460.358	73.25
460.578	86.25
460.798	92.25
461.018	97.25
461.238	94.25
461.458	93.25
461.678	87.25
461.898	79.25
462.118	90.25
462.338	76.25
462.558	78.25
462.777	89.25
462.997	76.25
463.217	87.25
463.437	80.25
463.657	74.25
463.876	92.25
464.096	75.25
464.316	81.25
464.536	81.25
464.755	82.25
464.975	79.25
465.195	84.25
465.414	70.25
465.634	68.25
465.854	70.25
466.073	80.25
466.293	73.25
466.512	88.25
466.732	78.25
466.951	59.25
467.171	80.25
467.391	86.25
467.61	82.25
467.829	80.25
468.049	89.25
468.268	85.25
468.488	86.25
468.707	79.25
468.927	94.25
469.146	71.25
469.365	80.25
469.585	88.25
469.804	76.25
470.023	85.25
470.243	87.25
470.462	80.25
470.681	90.25
470.901	89.25
471.12	75.25
471.339	75.25
471.558	86.25
471.777	91.25
471.997	92.25
472.216	75.25
472.435	90.25
472.654	77.25
472.873	83.25
473.092	79.25
473.311	77.25
473.53	76.25
473.749	81.25
473.968	93.25
474.187	78.25
474.406	76.25
474.625	83.25
474.844	84.25
475.063	84.25
475.282	77.25
475.501	74.25
475.72	92.25
475.939	86.25
476.158	93.25
476.377	88.25
476.596	89.25
476.814	80.25
477.033	88.25
477.252	75.25
477.471	81.25
477.69	70.25
477.908	92.25
478.127	88.25
478.346	83.25
478.564	87.25
478.783	88.25
479.002	88.25
479.22	75.25
479.439	88.25
479.658	78.25
479.876	79.25
480.095	58.25
480.313	76.25
480.532	80.25
480.751	84.25
480.969	83.25
481.188	80.25
481.406	78.25
481.624	81.25
481.843	93.25
482.061	85.25
482.28	84.25
482.498	77.25
482.717	87.25
482.935	82.25
483.153	88.25
483.372	76.25
483.59	82.25
483.808	76.25
484.027	80.25
484.245	84.25
484.463	79.25
484.681	95.25
484.9	91.25
485.118	78.25
485.336	82.25
485.554	73.25
485.772	89.25
485.99	85.25
486.209	95.25
486.427	91.25
486.645	81.25
486.863	74.25
487.081	82.25
487.299	83.25
487.517	96.25
487.735	82.25
487.953	87.25
488.171	72.25
488.389	89.25
488.607	76.25
488.825	86.25
489.043	86.25
489.261	97.25
489.479	88.25
489.696	73.25
489.914	114.25
490.132	89.25
490.35	84.25
490.568	79.25
490.786	86.25
491.003	80.25
491.221	89.25
491.439	77.25
491.657	88.25
491.874	90.25
492.092	93.25
492.31	98.25
492.527	98.25
492.745	84.25
492.963	86.25
493.18	94.25
493.398	87.25
493.615	82.25
493.833	77.25
494.05	76.25
494.268	82.25
494.485	82.25
494.703	81.25
494.92	75.25
495.138	88.25
495.355	92.25
495.573	93.25
495.79	84.25
496.008	78.25
496.225	80.25
496.442	86.25
496.66	92.25
496.877	91.25
497.094	89.25
497.312	75.25
497.529	84.25
497.746	93.25
497.963	87.25
498.181	101.25
498.398	76.25
498.615	82.25
498.832	93.25
499.049	80.25
499.267	76.25
499.484	75.25
499.701	88.25
499.918	79.25
500.135	91.25
500.352	89.25
500.569	86.25
500.786	80.25
501.003	75.25
501.22	80.25
501.437	81.25
501.654	93.25
501.871	86.25
502.088	72.25
502.305	92.25
502.522	70.25
502.739	91.25
502.956	74.25
503.172	82.25
503.389	77.25
503.606	77.25
503.823	81.25
504.04	92.25
504.256	85.25
504.473	90.25
504.69	93.25
504.907	81.25
505.123	78.25
505.34	81.25
505.557	76.25
505.773	81.25
505.99	88.25
506.207	86.25
506.423	88.25
506.64	74.25
506.856	84.25
507.073	96.25
507.289	83.25
507.506	68.25
507.722	84.25
507.939	85.25
508.155	87.25
508.372	82.25
508.588	94.25
508.805	91.25
509.021	76.25
509.238	84.25
509.454	76.25
509.67	74.25
509.887	76.25
510.103	83.25
510.319	89.25
510.536	87.25
510.752	98.25
510.968	80.25
511.184	86.25
511.401	75.25
511.617	83.25
511.833	83.25
512.049	99.25
512.265	90.25
512.481	84.25
512.698	80.25
512.914	88.25
513.13	90.25
513.346	93.25
513.562	83.25
513.778	95.25
513.994	83.25
514.21	97.25
514.426	76.25
514.642	84.25
514.858	90.25
515.074	92.25
515.29	80.25
515.506	82.25
515.721	92.25
515.937	81.25
516.153	88.25
516.369	92.25
516.585	76.25
516.801	95.25
517.016	83.25
517.232	86.25
517.448	88.25
517.664	86.25
517.879	87.25
518.095	90.25
518.311	88.25
518.527	92.25
518.742	85.25
518.958	89.25
519.173	92.25
519.389	84.25
519.605	84.25
519.82	96.25
520.036	86.25
520.251	82.25
520.467	80.25
520.682	87.25
520.898	87.25
521.113	92.25
521.329	88.25
521.544	81.25
521.76	87.25
521.975	80.25
522.19	68.25
522.406	73.25
522.621	95.25
522.836	88.25
523.052	82.25
523.267	82.25
523.482	75.25
523.698	74.25
523.913	80.25
524.128	74.25
524.343	92.25
524.559	91.25
524.774	89.25
524.989	82.25
525.204	88.25
525.419	73.25
525.634	83.25
525.849	93.25
526.064	83.25
526.28	94.25
526.495	86.25
526.71	90.25
526.925	103.25
527.14	84.25
527.355	92.25
527.57	71.25
527.785	84.25
527.999	77.25
528.214	73.25
528.429	97.25
528.644	86.25
528.859	88.25
529.074	68.25
529.289	78.25
529.503	85.25
529.718	90.25
529.933	85.25
530.148	82.25
530.363	72.25
530.577	76.25
530.792	82.25
531.007	76.25
531.221	86.25
531.436	83.25
531.651	86.25
531.865	81.25
532.08	78.25
532.295	83.25
532.509	91.25
532.724	85.25
532.938	77.25
533.153	89.25
533.367	62.25
533.582	76.25
533.796	75.25
534.011	85.25
534.225	82.25
534.44	79.25
534.654	98.25
534.868	76.25
535.083	91.25
535.297	98.25
535.511	88.25
535.726	84.25
535.94	85.25
536.154	99.25
536.369	90.25
536.583	96.25
536.797	89.25
537.011	85.25
537.225	84.25
537.44	80.25
537.654	104.25
537.868	100.25
538.082	78.25
538.296	76.25
538.51	72.25
538.724	83.25
538.938	78.25
539.153	78.25
539.367	68.25
539.581	69.25
539.795	73.25
540.009	92.25
540.222	99.25
540.436	80.25
540.65	89.25
540.864	85.25
541.078	84.25
541.292	83.25
541.506	76.25
541.72	90.25
541.934	98.25
542.147	80.25
542.361	80.25
542.575	83.25
542.789	86.25
543.002	84.25
543.216	80.25
543.43	75.25
543.644	86.25
543.857	82.25
544.071	86.25
544.285	84.25
544.498	84.25
544.712	88.25
544.925	82.25
545.139	80.25
545.352	98.25
545.566	94.25
545.779	91.25
545.993	86.25
546.206	90.25
546.42	75.25
546.633	84.25
546.847	90.25
547.06	74.25
547.274	89.25
547.487	92.25
547.7	78.25
547.914	82.25
548.127	70.25
548.34	78.25
548.554	84.25
548.767	78.25
548.98	80.25
549.193	93.25
549.407	82.25
549.62	88.25
549.833	94.25
550.046	100.25
550.259	81.25
550.473	81.25
550.686	86.25
550.899	89.25
551.112	89.25
551.325	97.25
551.538	94.25
551.751	81.25
551.964	81.25
552.177	94.25
552.39	100.25
552.603	105.25
552.816	88.25
553.029	75.25
553.242	86.25
553.455	82.25
553.667	96.25
553.88	92.25
554.093	102.25
554.306	83.25
554.519	84.25
554.732	90.25
554.944	83.25
555.157	92.25
555.37	81.25
555.583	84.25
555.795	90.25
556.008	87.25
556.221	85.25
556.433	78.25
556.646	88.25
556.859	89.25
557.071	81.25
557.284	91.25
557.496	84.25
557.709	94.25
557.921	82.25
558.134	83.25
558.346	93.25
558.559	91.25
558.771	77.25
558.984	94.25
559.196	100.25
559.409	80.25
559.621	85.25
559.833	93.25
560.046	100.25
560.258	109.25
560.47	98.25
560.683	94.25
560.895	92.25
561.107	103.25
561.32	93.25
561.532	90.25
561.744	96.25
561.956	102.25
562.168	92.25
562.381	96.25
562.593	84.25
562.805	94.25
563.017	88.25
563.229	86.25
563.441	90.25
563.653	81.25
563.865	84.25
564.077	84.25
564.289	93.25
564.501	80.25
564.713	102.25
564.925	89.25
565.137	93.25
565.349	78.25
565.561	82.25
565.773	84.25
565.985	90.25
566.197	87.25
566.408	71.25
566.62	76.25
566.832	112.25
567.044	80.25
567.255	100.25
567.467	88.25
567.679	83.25
567.891	82.25
568.102	98.25
568.314	104.25
568.526	94.25
568.737	102.25
568.949	82.25
569.161	91.25
569.372	81.25
569.584	89.25
569.795	94.25
570.007	76.25
570.218	86.25
570.43	88.25
570.641	85.25
570.853	78.25
571.064	92.25
571.276	73.25
571.487	78.25
571.698	82.25
571.91	74.25
572.121	95.25
572.333	78.25
572.544	92.25
572.755	85.25
572.966	83.25
573.178	92.25
573.389	88.25
573.6	82.25
573.811	88.25
574.023	80.25
574.234	88.25
574.445	92.25
574.656	77.25
574.867	85.25
575.078	84.25
575.289	69.25
575.501	89.25
575.712	74.25
575.923	88.25
576.134	82.25
576.345	86.25
576.556	86.25
576.767	98.25
576.978	92.25
577.188	95.25
577.399	95.25
577.61	100.25
577.821	90.25
578.032	80.25
578.243	83.25
578.454	78.25
578.665	78.25
578.875	83.25
579.086	80.25
579.297	78.25
579.508	66.25
579.718	86.25
579.929	99.25
580.14	88.25
580.35	86.25
580.561	84.25
580.772	74.25
580.982	84.25
581.193	94.25
581.403	81.25
581.614	80.25
581.825	92.25
582.035	78.25
582.246	92.25
582.456	79.25
582.667	79.25
582.877	70.25
583.087	89.25
583.298	90.25
583.508	92.25
583.719	81.25
583.929	94.25
584.139	78.25
584.35	83.25
584.56	91.25
584.77	104.25
584.981	89.25
585.191	93.25
585.401	101.25
585.611	87.25
585.821	88.25
586.032	93.25
586.242	88.25
586.452	91.25
586.662	88.25
586.872	88.25
587.082	77.25
587.292	88.25
587.502	85.25
587.713	101.25
587.923	91.25
588.133	85.25
588.343	101.25
588.553	100.25
588.762	113.25
588.972	154.25
589.182	202.25
589.392	173.25
589.602	154.25
589.812	169.25
590.022	140.25
590.232	116.25
590.441	99.25
590.651	88.25
590.861	88.25
591.071	86.25
591.281	95.25
591.49	98.25
591.7	80.25
591.91	90.25
592.119	89.25
592.329	90.25
592.539	76.25
592.748	84.25
592.958	94.25
593.167	94.25
593.377	103.25
593.587	98.25
593.796	84.25
594.006	82.25
594.215	98.25
594.424	82.25
594.634	98.25
594.843	89.25
595.053	79.25
595.262	78.25
595.472	94.25
595.681	97.25
595.89	100.25
596.1	93.25
596.309	100.25
596.518	90.25
596.727	70.25
596.937	89.25
597.146	84.25
597.355	95.25
597.564	90.25
597.774	99.25
597.983	90.25
598.192	82.25
598.401	75.25
598.61	84.25
598.819	96.25
599.028	77.25
599.237	82.25
599.446	106.25
599.655	99.25
599.864	85.25
600.073	82.25
600.282	77.25
600.491	88.25
600.7	92.25
600.909	79.25
601.118	102.25
601.327	87.25
601.536	94.25
601.745	84.25
601.953	78.25
602.162	86.25
602.371	88.25
602.58	80.25
602.789	84.25
602.997	89.25
603.206	83.25
603.415	78.25
603.623	93.25
603.832	101.25
604.041	86.25
604.249	82.25
604.458	88.25
604.666	95.25
604.875	100.25
605.084	96.25
605.292	105.25
605.501	89.25
605.709	97.25
605.918	106.25
606.126	94.25
606.334	82.25
606.543	88.25
606.751	85.25
606.96	100.25
607.168	83.25
607.376	95.25
607.585	96.25
607.793	95.25
608.001	71.25
608.21	82.25
608.418	94.25
608.626	93.25
608.834	85.25
609.043	80.25
609.251	80.25
609.459	88.25
609.667	97.25
609.875	78.25
610.083	101.25
610.291	99.25
610.499	96.25
610.707	89.25
610.916	88.25
611.124	92.25
611.332	94.25
611.54	97.25
611.748	94.25
611.955	95.25
612.163	97.25
612.371	123.25
612.579	101.25
612.787	101.25
612.995	92.25
613.203	82.25
613.411	104.25
613.618	101.25
613.826	98.25
614.034	76.25
614.242	86.25
614.449	78.25
614.657	87.25
614.865	93.25
615.072	88.25
615.28	78.25
615.488	92.25
615.695	91.25
615.903	77.25
616.111	97.25
616.318	113.25
616.526	86.25
616.733	92.25
616.941	117.25
617.148	87.25
617.356	100.25
617.563	82.25
617.771	91.25
617.978	108.25
618.185	105.25
618.393	90.25
618.6	90.25
618.807	101.25
619.015	94.25
619.222	105.25
619.429	93.25
619.637	92.25
619.844	89.25
620.051	83.25
620.258	97.25
620.466	89.25
620.673	102.25
620.88	101.25
621.087	97.25
621.294	97.25
621.501	94.25
621.708	86.25
621.915	94.25
622.122	90.25
622.329	89.25
622.536	77.25
622.743	93.25
622.95	108.25
623.157	90.25
623.364	90.25
623.571	89.25
623.778	87.25
623.985	98.25
624.192	93.25
624.399	86.25
624.606	86.25
624.812	81.25
625.019	97.25
625.226	86.25
625.433	92.25
625.639	89.25
625.846	93.25
626.053	97.25
626.259	99.25
626.466	93.25
626.673	79.25
626.879	75.25
627.086	92.25
627.293	90.25
627.499	85.25
627.706	88.25
627.912	82.25
628.119	87.25
628.325	94.25
628.532	88.25
628.738	74.25
628.945	89.25
629.151	96.25
629.357	82.25
629.564	80.25
629.77	91.25
629.976	76.25
630.183	81.25
630.389	96.25
630.595	81.25
630.802	72.25
631.008	86.25
631.214	88.25
631.42	92.25
631.627	85.25
631.833	94.25
632.039	94.25
632.245	89.25
632.451	84.25
632.657	101.25
632.863	75.25
633.069	92.25
633.275	83.25
633.481	85.25
633.688	81.25
633.893	82.25
634.099	91.25
634.305	84.25
634.511	89.25
634.717	84.25
634.923	88.25
635.129	92.25
635.335	88.25
635.541	84.25
635.747	87.25
635.952	86.25
636.158	80.25
636.364	89.25
636.57	98.25
636.775	73.25
636.981	89.25
637.187	99.25
637.392	102.25
637.598	87.25
637.804	98.25
638.009	83.25
638.215	79.25
638.421	95.25
638.626	85.25
638.832	84.25
639.037	73.25
639.243	79.25
639.448	80.25
639.654	103.25
639.859	82.25
640.065	86.25
640.27	97.25
640.475	88.25
640.681	80.25
640.886	96.25
641.091	86.25
641.297	82.25
641.502	76.25
641.707	76.25
641.913	94.25
642.118	78.25
642.323	88.25
642.528	93.25
642.733	81.25
642.939	77.25
643.144	84.25
643.349	82.25
643.554	86.25
643.759	92.25
643.964	83.25
644.169	82.25
644.374	77.25
644.579	79.25
644.784	87.25
644.989	80.25
645.194	94.25
645.399	81.25
645.604	67.25
645.809	92.25
646.014	75.25
646.219	89.25
646.423	81.25
646.628	88.25
646.833	85.25
647.038	94.25
647.243	83.25
647.447	98.25
647.652	92.25
647.857	101.25
648.062	94.25
648.266	77.25
648.471	91.25
648.676	101.25
648.88	84.25
649.085	83.25
649.289	95.25
649.494	91.25
649.698	78.25
649.903	90.25
650.107	81.25
650.312	83.25
650.516	94.25
650.721	81.25
650.925	80.25
651.13	78.25
651.334	72.25
651.539	88.25
651.743	82.25
651.947	76.25
652.152	77.25
652.356	80.25
652.56	78.25
652.764	95.25
652.969	96.25
653.173	87.25
653.377	73.25
653.581	93.25
653.785	78.25
653.99	80.25
654.194	85.25
654.398	83.25
654.602	89.25
654.806	90.25
655.01	84.25
655.214	86.25
655.418	74.25
655.622	80.25
655.826	73.25
656.03	92.25
656.234	87.25
656.438	101.25
656.642	90.25
656.846	66.25
657.049	88.25
657.253	86.25
657.457	79.25
657.661	83.25
657.865	71.25
658.068	73.25
658.272	91.25
658.476	98.25
658.68	93.25
658.883	82.25
659.087	90.25
659.291	91.25
659.494	82.25
659.698	80.25
659.901	81.25
660.105	84.25
660.309	70.25
660.512	92.25
660.716	75.25
660.919	79.25
661.123	84.25
661.326	79.25
661.53	85.25
661.733	83.25
661.936	80.25
662.14	84.25
662.343	88.25
662.546	76.25
662.75	70.25
662.953	74.25
663.156	98.25
663.36	96.25
663.563	81.25
663.766	84.25
663.969	88.25
664.173	84.25
664.376	89.25
664.579	72.25
664.782	85.25
664.985	72.25
665.188	74.25
665.391	88.25
665.594	101.25
665.797	80.25
666	89.25
666.203	69.25
666.406	87.25
666.609	80.25
666.812	88.25
667.015	83.25
667.218	97.25
667.421	82.25
667.624	66.25
667.827	83.25
668.03	82.25
668.232	86.25
668.435	105.25
668.638	80.25
668.841	84.25
669.043	74.25
669.246	78.25
669.449	102.25
669.651	86.25
669.854	81.25
670.057	73.25
670.259	77.25
670.462	97.25
670.665	92.25
670.867	87.25
671.07	76.25
671.272	81.25
671.475	76.25
671.677	69.25
671.88	75.25
672.082	74.25
672.284	80.25
672.487	89.25
672.689	87.25
672.892	77.25
