Data from Soil_50_5_HRD10591_00006.txt Node
Date: Thu Feb 19 11:33:52 EST 2026
User: Yrep
Spectrometer: HR+D1059
Trigger mode: 1
Integration Time (sec): 1.000000E-1
Scans to average: 1
Electric dark correction enabled: true
Nonlinearity correction enabled: false
Boxcar width: 0
XAxis mode: Wavelengths
Number of Pixels in Spectrum: 2048
>>>>>Begin Spectral Data<<<<<
223.165	-25.31
223.4	-25.31
223.635	-25.31
223.869	-17.31
224.104	-9.31
224.338	-16.31
224.573	-26.31
224.808	-9.31
225.042	5.69
225.277	-17.31
225.511	1.69
225.746	3.69
225.98	12.69
226.215	15.69
226.449	13.69
226.683	12.69
226.918	29.69
227.152	25.69
227.387	46.69
227.621	32.69
227.856	44.69
228.09	51.69
228.324	47.69
228.559	62.69
228.793	52.69
229.027	50.69
229.262	76.69
229.496	66.69
229.73	59.69
229.964	59.69
230.199	69.69
230.433	68.69
230.667	67.69
230.901	82.69
231.136	68.69
231.37	67.69
231.604	74.69
231.838	73.69
232.072	67.69
232.306	72.69
232.541	58.69
232.775	58.69
233.009	67.69
233.243	72.69
233.477	73.69
233.711	78.69
233.945	77.69
234.179	72.69
234.413	78.69
234.647	74.69
234.881	87.69
235.115	70.69
235.349	71.69
235.583	77.69
235.817	78.69
236.051	66.69
236.285	82.69
236.519	81.69
236.753	78.69
236.987	73.69
237.221	72.69
237.455	66.69
237.689	80.69
237.922	81.69
238.156	74.69
238.39	77.69
238.624	78.69
238.858	79.69
239.091	65.69
239.325	64.69
239.559	70.69
239.793	64.69
240.027	73.69
240.26	75.69
240.494	63.69
240.728	68.69
240.961	69.69
241.195	75.69
241.429	76.69
241.662	70.69
241.896	65.69
242.13	62.69
242.363	71.69
242.597	79.69
242.83	67.69
243.064	73.69
243.298	67.69
243.531	68.69
243.765	80.69
243.998	78.69
244.232	97.69
244.465	76.69
244.699	78.69
244.932	66.69
245.166	83.69
245.399	80.69
245.633	75.69
245.866	64.69
246.099	69.69
246.333	69.69
246.566	79.69
246.8	78.69
247.033	57.69
247.266	53.69
247.5	67.69
247.733	66.69
247.966	77.69
248.2	79.69
248.433	76.69
248.666	86.69
248.899	86.69
249.133	69.69
249.366	71.69
249.599	72.69
249.832	70.69
250.066	62.69
250.299	70.69
250.532	83.69
250.765	82.69
250.998	81.69
251.231	87.69
251.465	81.69
251.698	75.69
251.931	67.69
252.164	80.69
252.397	72.69
252.63	82.69
252.863	75.69
253.096	80.69
253.329	72.69
253.562	80.69
253.795	91.69
254.028	93.69
254.261	75.69
254.494	70.69
254.727	72.69
254.96	83.69
255.193	73.69
255.426	78.69
255.659	79.69
255.892	87.69
256.124	76.69
256.357	72.69
256.59	73.69
256.823	76.69
257.056	81.69
257.289	71.69
257.521	88.69
257.754	71.69
257.987	86.69
258.22	79.69
258.452	79.69
258.685	72.69
258.918	86.69
259.151	84.69
259.383	88.69
259.616	91.69
259.849	76.69
260.081	71.69
260.314	71.69
260.547	87.69
260.779	72.69
261.012	80.69
261.244	92.69
261.477	76.69
261.71	67.69
261.942	69.69
262.175	72.69
262.407	78.69
262.64	90.69
262.872	90.69
263.105	67.69
263.337	86.69
263.57	78.69
263.802	77.69
264.035	71.69
264.267	61.69
264.499	86.69
264.732	72.69
264.964	88.69
265.197	96.69
265.429	72.69
265.661	78.69
265.894	92.69
266.126	80.69
266.358	82.69
266.591	73.69
266.823	74.69
267.055	55.69
267.287	88.69
267.52	80.69
267.752	79.69
267.984	70.69
268.216	84.69
268.448	75.69
268.681	84.69
268.913	86.69
269.145	77.69
269.377	79.69
269.609	81.69
269.841	86.69
270.073	84.69
270.306	73.69
270.538	80.69
270.77	94.69
271.002	79.69
271.234	82.69
271.466	74.69
271.698	73.69
271.93	74.69
272.162	80.69
272.394	75.69
272.626	82.69
272.858	70.69
273.09	65.69
273.322	89.69
273.553	78.69
273.785	72.69
274.017	67.69
274.249	74.69
274.481	70.69
274.713	78.69
274.945	78.69
275.176	87.69
275.408	72.69
275.64	79.69
275.872	84.69
276.104	82.69
276.335	81.69
276.567	80.69
276.799	94.69
277.031	74.69
277.262	79.69
277.494	82.69
277.726	82.69
277.957	75.69
278.189	75.69
278.421	85.69
278.652	92.69
278.884	84.69
279.115	84.69
279.347	75.69
279.579	81.69
279.81	72.69
280.042	75.69
280.273	80.69
280.505	75.69
280.736	74.69
280.968	77.69
281.199	80.69
281.431	94.69
281.662	84.69
281.894	76.69
282.125	69.69
282.356	88.69
282.588	73.69
282.819	73.69
283.051	80.69
283.282	76.69
283.513	84.69
283.745	74.69
283.976	80.69
284.207	86.69
284.439	78.69
284.67	83.69
284.901	78.69
285.132	86.69
285.364	87.69
285.595	76.69
285.826	89.69
286.057	78.69
286.288	92.69
286.52	77.69
286.751	82.69
286.982	71.69
287.213	76.69
287.444	99.69
287.675	78.69
287.906	83.69
288.138	82.69
288.369	80.69
288.6	79.69
288.831	76.69
289.062	78.69
289.293	80.69
289.524	102.69
289.755	77.69
289.986	70.69
290.217	85.69
290.448	89.69
290.679	78.69
290.91	78.69
291.141	75.69
291.371	88.69
291.602	76.69
291.833	98.69
292.064	85.69
292.295	86.69
292.526	88.69
292.757	81.69
292.987	87.69
293.218	90.69
293.449	74.69
293.68	84.69
293.91	62.69
294.141	86.69
294.372	86.69
294.603	89.69
294.833	88.69
295.064	86.69
295.295	77.69
295.525	79.69
295.756	73.69
295.987	85.69
296.217	74.69
296.448	78.69
296.679	87.69
296.909	80.69
297.14	85.69
297.37	78.69
297.601	73.69
297.831	68.69
298.062	77.69
298.292	84.69
298.523	95.69
298.753	71.69
298.984	70.69
299.214	86.69
299.445	88.69
299.675	68.69
299.905	82.69
300.136	79.69
300.366	85.69
300.597	76.69
300.827	91.69
301.057	75.69
301.288	80.69
301.518	73.69
301.748	78.69
301.979	87.69
302.209	81.69
302.439	81.69
302.669	70.69
302.9	86.69
303.13	87.69
303.36	72.69
303.59	79.69
303.82	68.69
304.051	86.69
304.281	84.69
304.511	79.69
304.741	70.69
304.971	85.69
305.201	69.69
305.431	88.69
305.661	74.69
305.891	82.69
306.121	95.69
306.352	83.69
306.582	79.69
306.812	73.69
307.042	87.69
307.272	84.69
307.502	94.69
307.731	85.69
307.961	82.69
308.191	85.69
308.421	80.69
308.651	85.69
308.881	88.69
309.111	77.69
309.341	80.69
309.571	72.69
309.8	93.69
310.03	84.69
310.26	93.69
310.49	77.69
310.72	81.69
310.949	82.69
311.179	83.69
311.409	92.69
311.639	90.69
311.868	79.69
312.098	69.69
312.328	62.69
312.557	78.69
312.787	83.69
313.017	81.69
313.246	74.69
313.476	88.69
313.706	88.69
313.935	87.69
314.165	84.69
314.394	71.69
314.624	61.69
314.853	79.69
315.083	72.69
315.312	73.69
315.542	72.69
315.771	82.69
316.001	88.69
316.23	93.69
316.46	82.69
316.689	76.69
316.919	100.69
317.148	83.69
317.377	84.69
317.607	84.69
317.836	86.69
318.065	79.69
318.295	70.69
318.524	82.69
318.753	63.69
318.983	80.69
319.212	73.69
319.441	82.69
319.67	83.69
319.9	79.69
320.129	83.69
320.358	84.69
320.587	82.69
320.816	84.69
321.046	91.69
321.275	74.69
321.504	69.69
321.733	79.69
321.962	84.69
322.191	89.69
322.42	70.69
322.649	90.69
322.878	71.69
323.108	80.69
323.337	72.69
323.566	79.69
323.795	90.69
324.024	80.69
324.253	64.69
324.482	77.69
324.71	89.69
324.939	81.69
325.168	91.69
325.397	88.69
325.626	98.69
325.855	73.69
326.084	70.69
326.313	72.69
326.542	78.69
326.77	81.69
326.999	76.69
327.228	72.69
327.457	80.69
327.686	82.69
327.914	86.69
328.143	85.69
328.372	74.69
328.6	86.69
328.829	92.69
329.058	78.69
329.287	83.69
329.515	72.69
329.744	64.69
329.972	84.69
330.201	83.69
330.43	88.69
330.658	82.69
330.887	79.69
331.115	85.69
331.344	90.69
331.572	80.69
331.801	90.69
332.03	76.69
332.258	72.69
332.486	85.69
332.715	72.69
332.943	77.69
333.172	89.69
333.4	69.69
333.629	64.69
333.857	96.69
334.085	73.69
334.314	92.69
334.542	87.69
334.771	86.69
334.999	88.69
335.227	81.69
335.455	75.69
335.684	75.69
335.912	87.69
336.14	86.69
336.369	68.69
336.597	88.69
336.825	85.69
337.053	74.69
337.281	70.69
337.51	89.69
337.738	84.69
337.966	78.69
338.194	87.69
338.422	80.69
338.65	79.69
338.878	76.69
339.106	78.69
339.334	79.69
339.562	80.69
339.79	61.69
340.018	84.69
340.246	86.69
340.474	85.69
340.702	74.69
340.93	80.69
341.158	72.69
341.386	73.69
341.614	73.69
341.842	76.69
342.07	83.69
342.298	80.69
342.526	83.69
342.754	82.69
342.981	84.69
343.209	71.69
343.437	99.69
343.665	78.69
343.893	70.69
344.12	72.69
344.348	78.69
344.576	79.69
344.804	67.69
345.031	88.69
345.259	76.69
345.487	95.69
345.714	77.69
345.942	74.69
346.17	78.69
346.397	81.69
346.625	84.69
346.853	74.69
347.08	72.69
347.308	77.69
347.535	72.69
347.763	81.69
347.99	83.69
348.218	72.69
348.445	69.69
348.673	77.69
348.9	84.69
349.128	91.69
349.355	85.69
349.583	103.69
349.81	90.69
350.037	90.69
350.265	83.69
350.492	80.69
350.72	86.69
350.947	87.69
351.174	75.69
351.402	85.69
351.629	81.69
351.856	78.69
352.083	85.69
352.311	81.69
352.538	89.69
352.765	78.69
352.992	82.69
353.22	78.69
353.447	74.69
353.674	92.69
353.901	90.69
354.128	90.69
354.355	77.69
354.583	80.69
354.81	73.69
355.037	72.69
355.264	72.69
355.491	89.69
355.718	92.69
355.945	74.69
356.172	74.69
356.399	78.69
356.626	95.69
356.853	82.69
357.08	90.69
357.307	93.69
357.534	76.69
357.761	77.69
357.988	83.69
358.215	90.69
358.441	90.69
358.668	89.69
358.895	82.69
359.122	68.69
359.349	84.69
359.576	76.69
359.802	83.69
360.029	80.69
360.256	85.69
360.483	92.69
360.709	85.69
360.936	83.69
361.163	83.69
361.39	95.69
361.616	80.69
361.843	84.69
362.07	70.69
362.296	89.69
362.523	82.69
362.749	84.69
362.976	82.69
363.203	86.69
363.429	85.69
363.656	92.69
363.882	85.69
364.109	85.69
364.335	83.69
364.562	91.69
364.788	85.69
365.015	75.69
365.241	78.69
365.468	86.69
365.694	82.69
365.92	89.69
366.147	87.69
366.373	74.69
366.599	77.69
366.826	80.69
367.052	87.69
367.278	88.69
367.505	78.69
367.731	87.69
367.957	88.69
368.184	72.69
368.41	69.69
368.636	71.69
368.862	76.69
369.089	72.69
369.315	62.69
369.541	83.69
369.767	77.69
369.993	68.69
370.219	78.69
370.445	83.69
370.672	86.69
370.898	90.69
371.124	85.69
371.35	75.69
371.576	78.69
371.802	86.69
372.028	88.69
372.254	81.69
372.48	83.69
372.706	76.69
372.932	80.69
373.158	78.69
373.384	83.69
373.61	82.69
373.835	78.69
374.061	90.69
374.287	82.69
374.513	74.69
374.739	82.69
374.965	79.69
375.191	75.69
375.416	76.69
375.642	87.69
375.868	64.69
376.094	86.69
376.319	76.69
376.545	79.69
376.771	71.69
376.997	76.69
377.222	76.69
377.448	94.69
377.674	79.69
377.899	77.69
378.125	70.69
378.35	73.69
378.576	91.69
378.802	82.69
379.027	85.69
379.253	92.69
379.478	85.69
379.704	78.69
379.929	82.69
380.155	89.69
380.38	87.69
380.606	94.69
380.831	79.69
381.057	76.69
381.282	90.69
381.507	79.69
381.733	84.69
381.958	80.69
382.184	78.69
382.409	79.69
382.634	84.69
382.86	90.69
383.085	98.69
383.31	111.69
383.535	88.69
383.761	90.69
383.986	106.69
384.211	82.69
384.436	79.69
384.662	94.69
384.887	90.69
385.112	78.69
385.337	87.69
385.562	85.69
385.787	83.69
386.013	75.69
386.238	81.69
386.463	87.69
386.688	100.69
386.913	88.69
387.138	69.69
387.363	78.69
387.588	92.69
387.813	92.69
388.038	82.69
388.263	82.69
388.488	81.69
388.713	74.69
388.938	73.69
389.163	84.69
389.387	82.69
389.612	72.69
389.837	87.69
390.062	76.69
390.287	80.69
390.512	88.69
390.736	66.69
390.961	87.69
391.186	64.69
391.411	82.69
391.636	84.69
391.86	84.69
392.085	89.69
392.31	74.69
392.534	76.69
392.759	94.69
392.984	109.69
393.208	128.69
393.433	166.69
393.658	130.69
393.882	101.69
394.107	83.69
394.331	78.69
394.556	70.69
394.78	83.69
395.005	87.69
395.229	70.69
395.454	88.69
395.678	90.69
395.903	84.69
396.127	96.69
396.352	95.69
396.576	89.69
396.801	123.69
397.025	126.69
397.249	87.69
397.474	86.69
397.698	82.69
397.922	79.69
398.147	66.69
398.371	52.69
398.595	90.69
398.82	70.69
399.044	80.69
399.268	99.69
399.492	74.69
399.717	86.69
399.941	81.69
400.165	91.69
400.389	84.69
400.613	70.69
400.837	78.69
401.062	68.69
401.286	82.69
401.51	69.69
401.734	72.69
401.958	72.69
402.182	76.69
402.406	86.69
402.63	83.69
402.854	94.69
403.078	77.69
403.302	76.69
403.526	67.69
403.75	70.69
403.974	92.69
404.198	78.69
404.422	83.69
404.645	82.69
404.869	89.69
405.093	82.69
405.317	61.69
405.541	82.69
405.765	72.69
405.988	79.69
406.212	80.69
406.436	86.69
406.66	79.69
406.883	86.69
407.107	80.69
407.331	71.69
407.555	74.69
407.778	86.69
408.002	84.69
408.226	91.69
408.449	71.69
408.673	78.69
408.896	83.69
409.12	79.69
409.344	88.69
409.567	72.69
409.791	77.69
410.014	76.69
410.238	94.69
410.461	72.69
410.685	75.69
410.908	80.69
411.132	67.69
411.355	77.69
411.578	81.69
411.802	84.69
412.025	93.69
412.249	82.69
412.472	71.69
412.695	86.69
412.919	80.69
413.142	75.69
413.365	93.69
413.589	66.69
413.812	81.69
414.035	70.69
414.258	80.69
414.482	83.69
414.705	78.69
414.928	83.69
415.151	83.69
415.374	75.69
415.597	82.69
415.821	80.69
416.044	80.69
416.267	67.69
416.49	71.69
416.713	65.69
416.936	81.69
417.159	78.69
417.382	83.69
417.605	68.69
417.828	63.69
418.051	65.69
418.274	82.69
418.497	72.69
418.72	77.69
418.943	77.69
419.166	97.69
419.389	68.69
419.611	71.69
419.834	81.69
420.057	78.69
420.28	74.69
420.503	73.69
420.726	91.69
420.948	80.69
421.171	90.69
421.394	85.69
421.617	80.69
421.839	94.69
422.062	85.69
422.285	82.69
422.507	117.69
422.73	163.69
422.953	134.69
423.175	90.69
423.398	84.69
423.621	86.69
423.843	78.69
424.066	66.69
424.288	63.69
424.511	88.69
424.733	67.69
424.956	76.69
425.178	79.69
425.401	77.69
425.623	76.69
425.846	88.69
426.068	84.69
426.291	86.69
426.513	68.69
426.735	70.69
426.958	78.69
427.18	81.69
427.402	74.69
427.625	82.69
427.847	85.69
428.069	81.69
428.292	96.69
428.514	94.69
428.736	88.69
428.958	82.69
429.181	100.69
429.403	82.69
429.625	54.69
429.847	78.69
430.069	92.69
430.292	108.69
430.514	101.69
430.736	74.69
430.958	94.69
431.18	82.69
431.402	78.69
431.624	75.69
431.846	78.69
432.068	90.69
432.29	89.69
432.512	85.69
432.734	68.69
432.956	84.69
433.178	82.69
433.4	69.69
433.622	61.69
433.844	76.69
434.066	90.69
434.287	78.69
434.509	82.69
434.731	79.69
434.953	78.69
435.175	65.69
435.397	95.69
435.618	74.69
435.84	72.69
436.062	78.69
436.284	78.69
436.505	78.69
436.727	66.69
436.949	70.69
437.17	77.69
437.392	72.69
437.614	79.69
437.835	79.69
438.057	62.69
438.278	80.69
438.5	70.69
438.721	83.69
438.943	70.69
439.165	92.69
439.386	76.69
439.608	85.69
439.829	85.69
440.05	87.69
440.272	61.69
440.493	63.69
440.715	85.69
440.936	92.69
441.158	79.69
441.379	78.69
441.6	84.69
441.822	80.69
442.043	85.69
442.264	86.69
442.486	84.69
442.707	102.69
442.928	81.69
443.149	82.69
443.371	104.69
443.592	126.69
443.813	100.69
444.034	78.69
444.255	87.69
444.476	71.69
444.698	80.69
444.919	86.69
445.14	165.69
445.361	148.69
445.582	133.69
445.803	115.69
446.024	81.69
446.245	86.69
446.466	70.69
446.687	80.69
446.908	87.69
447.129	77.69
447.35	72.69
447.571	67.69
447.792	75.69
448.013	83.69
448.234	80.69
448.455	85.69
448.675	79.69
448.896	84.69
449.117	87.69
449.338	75.69
449.559	76.69
449.779	77.69
450	75.69
450.221	86.69
450.442	80.69
450.662	81.69
450.883	78.69
451.104	94.69
451.324	82.69
451.545	62.69
451.766	85.69
451.986	77.69
452.207	79.69
452.428	80.69
452.648	84.69
452.869	64.69
453.089	96.69
453.31	94.69
453.53	76.69
453.751	82.69
453.971	70.69
454.192	79.69
454.412	84.69
454.633	80.69
454.853	72.69
455.073	70.69
455.294	72.69
455.514	82.69
455.734	71.69
455.955	80.69
456.175	81.69
456.395	83.69
456.616	79.69
456.836	68.69
457.056	76.69
457.276	72.69
457.497	74.69
457.717	74.69
457.937	78.69
458.157	89.69
458.377	78.69
458.598	88.69
458.818	80.69
459.038	84.69
459.258	86.69
459.478	74.69
459.698	77.69
459.918	75.69
460.138	79.69
460.358	79.69
460.578	96.69
460.798	68.69
461.018	78.69
461.238	75.69
461.458	88.69
461.678	78.69
461.898	70.69
462.118	89.69
462.338	81.69
462.558	76.69
462.777	77.69
462.997	73.69
463.217	78.69
463.437	71.69
463.657	83.69
463.876	73.69
464.096	79.69
464.316	79.69
464.536	74.69
464.755	93.69
464.975	80.69
465.195	82.69
465.414	85.69
465.634	80.69
465.854	76.69
466.073	82.69
466.293	93.69
466.512	76.69
466.732	65.69
466.951	72.69
467.171	76.69
467.391	89.69
467.61	74.69
467.829	68.69
468.049	70.69
468.268	66.69
468.488	81.69
468.707	76.69
468.927	80.69
469.146	60.69
469.365	84.69
469.585	84.69
469.804	68.69
470.023	75.69
470.243	86.69
470.462	72.69
470.681	91.69
470.901	65.69
471.12	76.69
471.339	82.69
471.558	88.69
471.777	96.69
471.997	75.69
472.216	82.69
472.435	84.69
472.654	79.69
472.873	74.69
473.092	79.69
473.311	69.69
473.53	78.69
473.749	77.69
473.968	91.69
474.187	79.69
474.406	74.69
474.625	88.69
474.844	83.69
475.063	74.69
475.282	87.69
475.501	74.69
475.72	82.69
475.939	70.69
476.158	71.69
476.377	72.69
476.596	80.69
476.814	79.69
477.033	82.69
477.252	78.69
477.471	78.69
477.69	86.69
477.908	79.69
478.127	89.69
478.346	78.69
478.564	79.69
478.783	69.69
479.002	86.69
479.22	68.69
479.439	75.69
479.658	77.69
479.876	73.69
480.095	74.69
480.313	86.69
480.532	80.69
480.751	85.69
480.969	72.69
481.188	80.69
481.406	78.69
481.624	68.69
481.843	78.69
482.061	73.69
482.28	75.69
482.498	84.69
482.717	88.69
482.935	78.69
483.153	85.69
483.372	99.69
483.59	85.69
483.808	84.69
484.027	87.69
484.245	78.69
484.463	71.69
484.681	88.69
484.9	79.69
485.118	82.69
485.336	67.69
485.554	79.69
485.772	72.69
485.99	63.69
486.209	74.69
486.427	76.69
486.645	74.69
486.863	77.69
487.081	86.69
487.299	79.69
487.517	70.69
487.735	85.69
487.953	100.69
488.171	96.69
488.389	94.69
488.607	70.69
488.825	72.69
489.043	76.69
489.261	88.69
489.479	72.69
489.696	71.69
489.914	89.69
490.132	71.69
490.35	82.69
490.568	65.69
490.786	72.69
491.003	79.69
491.221	64.69
491.439	79.69
491.657	86.69
491.874	72.69
492.092	88.69
492.31	80.69
492.527	73.69
492.745	90.69
492.963	94.69
493.18	87.69
493.398	71.69
493.615	74.69
493.833	86.69
494.05	71.69
494.268	81.69
494.485	87.69
494.703	85.69
494.92	89.69
495.138	88.69
495.355	76.69
495.573	84.69
495.79	79.69
496.008	99.69
496.225	80.69
496.442	86.69
496.66	87.69
496.877	77.69
497.094	73.69
497.312	79.69
497.529	78.69
497.746	75.69
497.963	89.69
498.181	89.69
498.398	79.69
498.615	74.69
498.832	78.69
499.049	85.69
499.267	87.69
499.484	69.69
499.701	82.69
499.918	94.69
500.135	98.69
500.352	85.69
500.569	79.69
500.786	67.69
501.003	94.69
501.22	72.69
501.437	89.69
501.654	70.69
501.871	83.69
502.088	84.69
502.305	87.69
502.522	83.69
502.739	92.69
502.956	64.69
503.172	70.69
503.389	82.69
503.606	86.69
503.823	84.69
504.04	80.69
504.256	95.69
504.473	66.69
504.69	73.69
504.907	92.69
505.123	86.69
505.34	90.69
505.557	82.69
505.773	75.69
505.99	70.69
506.207	76.69
506.423	87.69
506.64	92.69
506.856	98.69
507.073	81.69
507.289	85.69
507.506	72.69
507.722	78.69
507.939	76.69
508.155	77.69
508.372	90.69
508.588	83.69
508.805	86.69
509.021	84.69
509.238	82.69
509.454	66.69
509.67	79.69
509.887	72.69
510.103	74.69
510.319	86.69
510.536	80.69
510.752	84.69
510.968	95.69
511.184	85.69
511.401	68.69
511.617	72.69
511.833	84.69
512.049	79.69
512.265	84.69
512.481	94.69
512.698	71.69
512.914	92.69
513.13	85.69
513.346	70.69
513.562	60.69
513.778	78.69
513.994	94.69
514.21	81.69
514.426	81.69
514.642	82.69
514.858	84.69
515.074	85.69
515.29	82.69
515.506	93.69
515.721	83.69
515.937	82.69
516.153	76.69
516.369	81.69
516.585	72.69
516.801	80.69
517.016	91.69
517.232	90.69
517.448	85.69
517.664	94.69
517.879	82.69
518.095	87.69
518.311	99.69
518.527	136.69
518.742	97.69
518.958	102.69
519.173	91.69
519.389	84.69
519.605	81.69
519.82	88.69
520.036	89.69
520.251	74.69
520.467	69.69
520.682	82.69
520.898	108.69
521.113	89.69
521.329	68.69
521.544	76.69
521.76	70.69
521.975	92.69
522.19	92.69
522.406	79.69
522.621	71.69
522.836	71.69
523.052	72.69
523.267	91.69
523.482	85.69
523.698	74.69
523.913	72.69
524.128	86.69
524.343	94.69
524.559	66.69
524.774	72.69
524.989	82.69
525.204	90.69
525.419	89.69
525.634	78.69
525.849	76.69
526.064	80.69
526.28	111.69
526.495	112.69
526.71	120.69
526.925	116.69
527.14	114.69
527.355	113.69
527.57	89.69
527.785	88.69
527.999	83.69
528.214	71.69
528.429	93.69
528.644	65.69
528.859	78.69
529.074	70.69
529.289	79.69
529.503	72.69
529.718	90.69
529.933	95.69
530.148	98.69
530.363	80.69
530.577	68.69
530.792	89.69
531.007	76.69
531.221	76.69
531.436	84.69
531.651	98.69
531.865	79.69
532.08	90.69
532.295	92.69
532.509	90.69
532.724	83.69
532.938	78.69
533.153	76.69
533.367	78.69
533.582	87.69
533.796	86.69
534.011	88.69
534.225	89.69
534.44	84.69
534.654	90.69
534.868	94.69
535.083	82.69
535.297	86.69
535.511	85.69
535.726	80.69
535.94	82.69
536.154	87.69
536.369	83.69
536.583	74.69
536.797	82.69
537.011	86.69
537.225	76.69
537.44	84.69
537.654	78.69
537.868	71.69
538.082	67.69
538.296	81.69
538.51	98.69
538.724	87.69
538.938	87.69
539.153	95.69
539.367	76.69
539.581	78.69
539.795	90.69
540.009	85.69
540.222	74.69
540.436	82.69
540.65	88.69
540.864	72.69
541.078	74.69
541.292	78.69
541.506	70.69
541.72	77.69
541.934	89.69
542.147	90.69
542.361	90.69
542.575	91.69
542.789	74.69
543.002	91.69
543.216	86.69
543.43	76.69
543.644	88.69
543.857	79.69
544.071	64.69
544.285	94.69
544.498	92.69
544.712	77.69
544.925	78.69
545.139	86.69
545.352	88.69
545.566	77.69
545.779	72.69
545.993	85.69
546.206	87.69
546.42	75.69
546.633	84.69
546.847	103.69
547.06	91.69
547.274	82.69
547.487	101.69
547.7	103.69
547.914	106.69
548.127	92.69
548.34	89.69
548.554	77.69
548.767	102.69
548.98	91.69
549.193	93.69
549.407	102.69
549.62	98.69
549.833	105.69
550.046	116.69
550.259	94.69
550.473	104.69
550.686	110.69
550.899	100.69
551.112	109.69
551.325	123.69
551.538	120.69
551.751	106.69
551.964	122.69
552.177	118.69
552.39	102.69
552.603	112.69
552.816	110.69
553.029	119.69
553.242	116.69
553.455	102.69
553.667	118.69
553.88	117.69
554.093	124.69
554.306	115.69
554.519	114.69
554.732	121.69
554.944	126.69
555.157	113.69
555.37	117.69
555.583	110.69
555.795	112.69
556.008	97.69
556.221	101.69
556.433	118.69
556.646	106.69
556.859	108.69
557.071	104.69
557.284	92.69
557.496	84.69
557.709	90.69
557.921	94.69
558.134	93.69
558.346	112.69
558.559	115.69
558.771	95.69
558.984	134.69
559.196	146.69
559.409	103.69
559.621	111.69
559.833	103.69
560.046	132.69
560.258	105.69
560.47	116.69
560.683	101.69
560.895	88.69
561.107	91.69
561.32	92.69
561.532	82.69
561.744	85.69
561.956	78.69
562.168	77.69
562.381	85.69
562.593	80.69
562.805	79.69
563.017	91.69
563.229	84.69
563.441	71.69
563.653	98.69
563.865	78.69
564.077	76.69
564.289	103.69
564.501	93.69
564.713	88.69
564.925	90.69
565.137	86.69
565.349	78.69
565.561	81.69
565.773	90.69
565.985	97.69
566.197	91.69
566.408	87.69
566.62	80.69
566.832	75.69
567.044	76.69
567.255	86.69
567.467	106.69
567.679	94.69
567.891	87.69
568.102	85.69
568.314	94.69
568.526	79.69
568.737	97.69
568.949	119.69
569.161	116.69
569.372	76.69
569.584	80.69
569.795	83.69
570.007	84.69
570.218	83.69
570.43	79.69
570.641	84.69
570.853	91.69
571.064	74.69
571.276	79.69
571.487	88.69
571.698	94.69
571.91	95.69
572.121	75.69
572.333	80.69
572.544	87.69
572.755	99.69
572.966	92.69
573.178	76.69
573.389	86.69
573.6	82.69
573.811	92.69
574.023	92.69
574.234	74.69
574.445	71.69
574.656	72.69
574.867	81.69
575.078	84.69
575.289	89.69
575.501	98.69
575.712	91.69
575.923	79.69
576.134	79.69
576.345	75.69
576.556	85.69
576.767	95.69
576.978	80.69
577.188	89.69
577.399	74.69
577.61	83.69
577.821	71.69
578.032	87.69
578.243	78.69
578.454	82.69
578.665	89.69
578.875	92.69
579.086	79.69
579.297	71.69
579.508	78.69
579.718	87.69
579.929	88.69
580.14	73.69
580.35	98.69
580.561	74.69
580.772	87.69
580.982	94.69
581.193	95.69
581.403	78.69
581.614	76.69
581.825	92.69
582.035	99.69
582.246	87.69
582.456	85.69
582.667	81.69
582.877	71.69
583.087	84.69
583.298	88.69
583.508	91.69
583.719	74.69
583.929	99.69
584.139	83.69
584.35	72.69
584.56	82.69
584.77	86.69
584.981	76.69
585.191	84.69
585.401	89.69
585.611	89.69
585.821	88.69
586.032	112.69
586.242	81.69
586.452	84.69
586.662	87.69
586.872	72.69
587.082	78.69
587.292	98.69
587.502	98.69
587.713	108.69
587.923	99.69
588.133	99.69
588.343	108.69
588.553	117.69
588.762	149.69
588.972	256.69
589.182	397.69
589.392	340.69
589.602	283.69
589.812	357.69
590.022	257.69
590.232	144.69
590.441	138.69
590.651	105.69
590.861	92.69
591.071	103.69
591.281	93.69
591.49	100.69
591.7	87.69
591.91	99.69
592.119	107.69
592.329	80.69
592.539	101.69
592.748	90.69
592.958	104.69
593.167	111.69
593.377	109.69
593.587	118.69
593.796	120.69
594.006	116.69
594.215	105.69
594.424	99.69
594.634	82.69
594.843	74.69
595.053	96.69
595.262	100.69
595.472	98.69
595.681	99.69
595.89	99.69
596.1	95.69
596.309	87.69
596.518	94.69
596.727	94.69
596.937	86.69
597.146	86.69
597.355	89.69
597.564	107.69
597.774	94.69
597.983	94.69
598.192	101.69
598.401	82.69
598.61	104.69
598.819	101.69
599.028	87.69
599.237	83.69
599.446	98.69
599.655	96.69
599.864	104.69
600.073	92.69
600.282	102.69
600.491	99.69
600.7	106.69
600.909	88.69
601.118	106.69
601.327	102.69
601.536	92.69
601.745	90.69
601.953	88.69
602.162	102.69
602.371	85.69
602.58	102.69
602.789	106.69
602.997	101.69
603.206	102.69
603.415	103.69
603.623	117.69
603.832	93.69
604.041	88.69
604.249	99.69
604.458	86.69
604.666	98.69
604.875	93.69
605.084	105.69
605.292	102.69
605.501	97.69
605.709	106.69
605.918	112.69
606.126	102.69
606.334	93.69
606.543	115.69
606.751	109.69
606.96	105.69
607.168	109.69
607.376	102.69
607.585	92.69
607.793	102.69
608.001	92.69
608.21	106.69
608.418	94.69
608.626	106.69
608.834	94.69
609.043	106.69
609.251	92.69
609.459	96.69
609.667	106.69
609.875	102.69
610.083	106.69
610.291	106.69
610.499	141.69
610.707	110.69
610.916	109.69
611.124	102.69
611.332	119.69
611.54	110.69
611.748	120.69
611.955	113.69
612.163	126.69
612.371	138.69
612.579	126.69
612.787	111.69
612.995	118.69
613.203	132.69
613.411	106.69
613.618	111.69
613.826	102.69
614.034	106.69
614.242	108.69
614.449	114.69
614.657	104.69
614.865	98.69
615.072	116.69
615.28	113.69
615.488	130.69
615.695	122.69
615.903	124.69
616.111	122.69
616.318	174.69
616.526	174.69
616.733	139.69
616.941	140.69
617.148	148.69
617.356	149.69
617.563	120.69
617.771	139.69
617.978	137.69
618.185	137.69
618.393	132.69
618.6	134.69
618.807	117.69
619.015	124.69
619.222	134.69
619.429	120.69
619.637	116.69
619.844	111.69
620.051	142.69
620.258	113.69
620.466	117.69
620.673	123.69
620.88	138.69
621.087	115.69
621.294	116.69
621.501	116.69
621.708	115.69
621.915	106.69
622.122	124.69
622.329	113.69
622.536	118.69
622.743	113.69
622.95	108.69
623.157	106.69
623.364	116.69
623.571	111.69
623.778	113.69
623.985	110.69
624.192	102.69
624.399	103.69
624.606	114.69
624.812	102.69
625.019	106.69
625.226	109.69
625.433	100.69
625.639	108.69
625.846	107.69
626.053	96.69
626.259	94.69
626.466	92.69
626.673	106.69
626.879	90.69
627.086	106.69
627.293	102.69
627.499	102.69
627.706	92.69
627.912	84.69
628.119	82.69
628.325	78.69
628.532	94.69
628.738	96.69
628.945	89.69
629.151	81.69
629.357	91.69
629.564	76.69
629.77	97.69
629.976	98.69
630.183	84.69
630.389	102.69
630.595	94.69
630.802	93.69
631.008	82.69
631.214	78.69
631.42	78.69
631.627	78.69
631.833	81.69
632.039	88.69
632.245	79.69
632.451	76.69
632.657	85.69
632.863	90.69
633.069	81.69
633.275	77.69
633.481	95.69
633.688	87.69
633.893	93.69
634.099	82.69
634.305	89.69
634.511	86.69
634.717	86.69
634.923	79.69
635.129	80.69
635.335	79.69
635.541	75.69
635.747	80.69
635.952	82.69
636.158	69.69
636.364	98.69
636.57	81.69
636.775	85.69
636.981	91.69
637.187	78.69
637.392	64.69
637.598	81.69
637.804	87.69
638.009	82.69
638.215	86.69
638.421	80.69
638.626	92.69
638.832	88.69
639.037	74.69
639.243	76.69
639.448	82.69
639.654	91.69
639.859	89.69
640.065	91.69
640.27	86.69
640.475	80.69
640.681	84.69
640.886	77.69
641.091	71.69
641.297	102.69
641.502	84.69
641.707	74.69
641.913	79.69
642.118	80.69
642.323	79.69
642.528	79.69
642.733	94.69
642.939	72.69
643.144	84.69
643.349	89.69
643.554	86.69
643.759	76.69
643.964	98.69
644.169	82.69
644.374	92.69
644.579	82.69
644.784	62.69
644.989	92.69
645.194	92.69
645.399	76.69
645.604	79.69
645.809	64.69
646.014	76.69
646.219	76.69
646.423	93.69
646.628	90.69
646.833	100.69
647.038	79.69
647.243	86.69
647.447	87.69
647.652	72.69
647.857	73.69
648.062	83.69
648.266	79.69
648.471	74.69
648.676	78.69
648.88	71.69
649.085	80.69
649.289	79.69
649.494	81.69
649.698	85.69
649.903	85.69
650.107	84.69
650.312	76.69
650.516	72.69
650.721	81.69
650.925	72.69
651.13	76.69
651.334	82.69
651.539	74.69
651.743	79.69
651.947	89.69
652.152	80.69
652.356	89.69
652.56	80.69
652.764	66.69
652.969	90.69
653.173	71.69
653.377	81.69
653.581	81.69
653.785	67.69
653.99	83.69
654.194	76.69
654.398	73.69
654.602	76.69
654.806	83.69
655.01	88.69
655.214	84.69
655.418	77.69
655.622	88.69
655.826	78.69
656.03	78.69
656.234	79.69
656.438	69.69
656.642	68.69
656.846	78.69
657.049	73.69
657.253	67.69
657.457	70.69
657.661	79.69
657.865	64.69
658.068	78.69
658.272	76.69
658.476	79.69
658.68	76.69
658.883	82.69
659.087	74.69
659.291	70.69
659.494	83.69
659.698	89.69
659.901	74.69
660.105	70.69
660.309	62.69
660.512	78.69
660.716	75.69
660.919	84.69
661.123	84.69
661.326	78.69
661.53	73.69
661.733	68.69
661.936	94.69
662.14	78.69
662.343	77.69
662.546	72.69
662.75	77.69
662.953	73.69
663.156	83.69
663.36	71.69
663.563	75.69
663.766	82.69
663.969	80.69
664.173	81.69
664.376	75.69
664.579	69.69
664.782	75.69
664.985	80.69
665.188	71.69
665.391	79.69
665.594	71.69
665.797	67.69
666	64.69
666.203	77.69
666.406	86.69
666.609	80.69
666.812	66.69
667.015	60.69
667.218	83.69
667.421	86.69
667.624	79.69
667.827	77.69
668.03	76.69
668.232	90.69
668.435	92.69
668.638	85.69
668.841	72.69
669.043	74.69
669.246	73.69
669.449	77.69
669.651	71.69
669.854	67.69
670.057	70.69
670.259	79.69
670.462	80.69
670.665	77.69
670.867	86.69
671.07	92.69
671.272	78.69
671.475	83.69
671.677	81.69
671.88	84.69
672.082	75.69
672.284	68.69
672.487	74.69
672.689	85.69
672.892	73.69
