Data from Circ_2023_H10_HRD10591_00028.txt Node
Date: Wed Jan 03 09:50:36 EST 2024
User: Yrep
Spectrometer: HR+D1059
Trigger mode: 1
Integration Time (sec): 1.000000E-1
Scans to average: 1
Electric dark correction enabled: true
Nonlinearity correction enabled: false
Boxcar width: 0
XAxis mode: Wavelengths
Number of Pixels in Spectrum: 2048
>>>>>Begin Spectral Data<<<<<
223.165	-18.56
223.4	-18.56
223.635	-18.56
223.869	-25.56
224.104	-20.56
224.338	-24.56
224.573	-16.56
224.808	-18.56
225.042	-10.56
225.277	7.44
225.511	8.44
225.746	4.44
225.98	15.44
226.215	5.44
226.449	14.44
226.683	3.44
226.918	35.44
227.152	40.44
227.387	31.44
227.621	40.44
227.856	38.44
228.09	42.44
228.324	47.44
228.559	65.44
228.793	60.44
229.027	68.44
229.262	71.44
229.496	68.44
229.73	101.44
229.964	90.44
230.199	88.44
230.433	68.44
230.667	72.44
230.901	91.44
231.136	91.44
231.37	82.44
231.604	69.44
231.838	80.44
232.072	84.44
232.306	83.44
232.541	78.44
232.775	82.44
233.009	86.44
233.243	94.44
233.477	85.44
233.711	88.44
233.945	81.44
234.179	73.44
234.413	73.44
234.647	78.44
234.881	84.44
235.115	87.44
235.349	82.44
235.583	81.44
235.817	66.44
236.051	85.44
236.285	74.44
236.519	72.44
236.753	77.44
236.987	79.44
237.221	103.44
237.455	113.44
237.689	78.44
237.922	84.44
238.156	80.44
238.39	79.44
238.624	74.44
238.858	77.44
239.091	79.44
239.325	62.44
239.559	90.44
239.793	92.44
240.027	83.44
240.26	83.44
240.494	80.44
240.728	84.44
240.961	85.44
241.195	74.44
241.429	99.44
241.662	82.44
241.896	62.44
242.13	73.44
242.363	79.44
242.597	70.44
242.83	85.44
243.064	70.44
243.298	64.44
243.531	80.44
243.765	73.44
243.998	68.44
244.232	70.44
244.465	85.44
244.699	84.44
244.932	84.44
245.166	81.44
245.399	82.44
245.633	85.44
245.866	98.44
246.099	101.44
246.333	67.44
246.566	90.44
246.8	81.44
247.033	75.44
247.266	84.44
247.5	81.44
247.733	77.44
247.966	88.44
248.2	89.44
248.433	88.44
248.666	69.44
248.899	81.44
249.133	77.44
249.366	99.44
249.599	103.44
249.832	101.44
250.066	87.44
250.299	83.44
250.532	82.44
250.765	87.44
250.998	91.44
251.231	89.44
251.465	85.44
251.698	86.44
251.931	86.44
252.164	87.44
252.397	71.44
252.63	75.44
252.863	83.44
253.096	87.44
253.329	70.44
253.562	75.44
253.795	82.44
254.028	83.44
254.261	62.44
254.494	86.44
254.727	86.44
254.96	80.44
255.193	77.44
255.426	80.44
255.659	80.44
255.892	94.44
256.124	97.44
256.357	75.44
256.59	82.44
256.823	93.44
257.056	87.44
257.289	90.44
257.521	79.44
257.754	69.44
257.987	79.44
258.22	87.44
258.452	112.44
258.685	94.44
258.918	88.44
259.151	87.44
259.383	88.44
259.616	67.44
259.849	87.44
260.081	87.44
260.314	99.44
260.547	89.44
260.779	91.44
261.012	96.44
261.244	125.44
261.477	97.44
261.71	108.44
261.942	140.44
262.175	155.44
262.407	113.44
262.64	87.44
262.872	96.44
263.105	89.44
263.337	80.44
263.57	86.44
263.802	86.44
264.035	90.44
264.267	78.44
264.499	91.44
264.732	81.44
264.964	82.44
265.197	79.44
265.429	75.44
265.661	75.44
265.894	95.44
266.126	85.44
266.358	85.44
266.591	91.44
266.823	91.44
267.055	82.44
267.287	71.44
267.52	94.44
267.752	76.44
267.984	70.44
268.216	86.44
268.448	91.44
268.681	91.44
268.913	93.44
269.145	83.44
269.377	83.44
269.609	93.44
269.841	93.44
270.073	75.44
270.306	90.44
270.538	89.44
270.77	90.44
271.002	80.44
271.234	95.44
271.466	91.44
271.698	101.44
271.93	67.44
272.162	83.44
272.394	93.44
272.626	97.44
272.858	93.44
273.09	95.44
273.322	91.44
273.553	85.44
273.785	89.44
274.017	90.44
274.249	89.44
274.481	99.44
274.713	79.44
274.945	103.44
275.176	92.44
275.408	104.44
275.64	126.44
275.872	135.44
276.104	118.44
276.335	103.44
276.567	112.44
276.799	158.44
277.031	192.44
277.262	211.44
277.494	163.44
277.726	99.44
277.957	94.44
278.189	82.44
278.421	94.44
278.652	89.44
278.884	106.44
279.115	86.44
279.347	112.44
279.579	119.44
279.81	128.44
280.042	206.44
280.273	287.44
280.505	209.44
280.736	114.44
280.968	102.44
281.199	100.44
281.431	94.44
281.662	97.44
281.894	99.44
282.125	96.44
282.356	151.44
282.588	189.44
282.819	146.44
283.051	86.44
283.282	85.44
283.513	87.44
283.745	90.44
283.976	93.44
284.207	82.44
284.439	104.44
284.67	93.44
284.901	95.44
285.132	79.44
285.364	92.44
285.595	81.44
285.826	101.44
286.057	113.44
286.288	81.44
286.52	90.44
286.751	98.44
286.982	83.44
287.213	95.44
287.444	91.44
287.675	103.44
287.906	95.44
288.138	97.44
288.369	94.44
288.6	94.44
288.831	109.44
289.062	83.44
289.293	71.44
289.524	89.44
289.755	80.44
289.986	87.44
290.217	83.44
290.448	84.44
290.679	87.44
290.91	90.44
291.141	87.44
291.371	92.44
291.602	86.44
291.833	87.44
292.064	88.44
292.295	94.44
292.526	89.44
292.757	106.44
292.987	97.44
293.218	97.44
293.449	82.44
293.68	85.44
293.91	89.44
294.141	81.44
294.372	80.44
294.603	82.44
294.833	85.44
295.064	101.44
295.295	88.44
295.525	88.44
295.756	106.44
295.987	132.44
296.217	181.44
296.448	159.44
296.679	110.44
296.909	104.44
297.14	90.44
297.37	98.44
297.601	97.44
297.831	91.44
298.062	97.44
298.292	96.44
298.523	100.44
298.753	90.44
298.984	87.44
299.214	88.44
299.445	97.44
299.675	102.44
299.905	91.44
300.136	101.44
300.366	89.44
300.597	80.44
300.827	90.44
301.057	123.44
301.288	133.44
301.518	93.44
301.748	97.44
301.979	116.44
302.209	90.44
302.439	90.44
302.669	94.44
302.9	102.44
303.13	105.44
303.36	103.44
303.59	135.44
303.82	152.44
304.051	111.44
304.281	101.44
304.511	84.44
304.741	102.44
304.971	90.44
305.201	91.44
305.431	95.44
305.661	101.44
305.891	90.44
306.121	111.44
306.352	121.44
306.582	128.44
306.812	108.44
307.042	140.44
307.272	177.44
307.502	201.44
307.731	170.44
307.961	142.44
308.191	94.44
308.421	93.44
308.651	86.44
308.881	94.44
309.111	95.44
309.341	103.44
309.571	120.44
309.8	81.44
310.03	95.44
310.26	112.44
310.49	102.44
310.72	119.44
310.949	131.44
311.179	118.44
311.409	99.44
311.639	110.44
311.868	96.44
312.098	97.44
312.328	92.44
312.557	131.44
312.787	151.44
313.017	114.44
313.246	104.44
313.476	96.44
313.706	93.44
313.935	100.44
314.165	112.44
314.394	125.44
314.624	99.44
314.853	109.44
315.083	112.44
315.312	98.44
315.542	101.44
315.771	95.44
316.001	103.44
316.23	91.44
316.46	96.44
316.689	103.44
316.919	90.44
317.148	121.44
317.377	106.44
317.607	98.44
317.836	109.44
318.065	89.44
318.295	102.44
318.524	91.44
318.753	100.44
318.983	94.44
319.212	113.44
319.441	129.44
319.67	136.44
319.9	93.44
320.129	83.44
320.358	85.44
320.587	96.44
320.816	117.44
321.046	95.44
321.275	110.44
321.504	100.44
321.733	93.44
321.962	116.44
322.191	116.44
322.42	126.44
322.649	129.44
322.878	135.44
323.108	138.44
323.337	147.44
323.566	177.44
323.795	178.44
324.024	259.44
324.253	537.44
324.482	1155.44
324.71	2351.44
324.939	3143.44
325.168	1171.44
325.397	323.44
325.626	187.44
325.855	149.44
326.084	147.44
326.313	154.44
326.542	200.44
326.77	333.44
326.999	583.44
327.228	1265.44
327.457	2287.44
327.686	1828.44
327.914	629.44
328.143	602.44
328.372	784.44
328.6	435.44
328.829	216.44
329.058	215.44
329.287	218.44
329.515	208.44
329.744	277.44
329.972	534.44
330.201	1127.44
330.43	1711.44
330.658	768.44
330.887	327.44
331.115	226.44
331.344	139.44
331.572	135.44
331.801	138.44
332.03	142.44
332.258	121.44
332.486	127.44
332.715	111.44
332.943	123.44
333.172	112.44
333.4	143.44
333.629	178.44
333.857	277.44
334.085	491.44
334.314	1039.44
334.542	2063.44
334.771	2020.44
334.999	495.44
335.227	195.44
335.455	145.44
335.684	127.44
335.912	124.44
336.14	111.44
336.369	127.44
336.597	118.44
336.825	98.44
337.053	100.44
337.281	113.44
337.51	106.44
337.738	92.44
337.966	100.44
338.194	112.44
338.422	104.44
338.65	90.44
338.878	83.44
339.106	100.44
339.334	91.44
339.562	86.44
339.79	90.44
340.018	108.44
340.246	101.44
340.474	118.44
340.702	92.44
340.93	93.44
341.158	98.44
341.386	115.44
341.614	110.44
341.842	94.44
342.07	86.44
342.298	90.44
342.526	84.44
342.754	94.44
342.981	109.44
343.209	88.44
343.437	101.44
343.665	100.44
343.893	88.44
344.12	96.44
344.348	98.44
344.576	95.44
344.804	112.44
345.031	112.44
345.259	127.44
345.487	101.44
345.714	116.44
345.942	84.44
346.17	95.44
346.397	104.44
346.625	94.44
346.853	98.44
347.08	99.44
347.308	122.44
347.535	131.44
347.763	115.44
347.99	109.44
348.218	121.44
348.445	122.44
348.673	106.44
348.9	112.44
349.128	98.44
349.355	88.44
349.583	108.44
349.81	97.44
350.037	100.44
350.265	100.44
350.492	88.44
350.72	96.44
350.947	101.44
351.174	115.44
351.402	114.44
351.629	106.44
351.856	114.44
352.083	123.44
352.311	127.44
352.538	129.44
352.765	114.44
352.992	124.44
353.22	126.44
353.447	116.44
353.674	117.44
353.901	96.44
354.128	84.44
354.355	84.44
354.583	87.44
354.81	107.44
355.037	91.44
355.264	103.44
355.491	99.44
355.718	109.44
355.945	93.44
356.172	84.44
356.399	88.44
356.626	91.44
356.853	93.44
357.08	96.44
357.307	74.44
357.534	92.44
357.761	101.44
357.988	92.44
358.215	105.44
358.441	81.44
358.668	80.44
358.895	81.44
359.122	89.44
359.349	105.44
359.576	102.44
359.802	120.44
360.029	166.44
360.256	154.44
360.483	123.44
360.709	109.44
360.936	97.44
361.163	105.44
361.39	115.44
361.616	105.44
361.843	94.44
362.07	96.44
362.296	113.44
362.523	95.44
362.749	100.44
362.976	99.44
363.203	106.44
363.429	95.44
363.656	110.44
363.882	93.44
364.109	85.44
364.335	103.44
364.562	94.44
364.788	88.44
365.015	103.44
365.241	99.44
365.468	111.44
365.694	118.44
365.92	111.44
366.147	96.44
366.373	102.44
366.599	104.44
366.826	99.44
367.052	82.44
367.278	99.44
367.505	93.44
367.731	106.44
367.957	109.44
368.184	88.44
368.41	114.44
368.636	148.44
368.862	139.44
369.089	136.44
369.315	113.44
369.541	110.44
369.767	94.44
369.993	98.44
370.219	105.44
370.445	93.44
370.672	89.44
370.898	100.44
371.124	97.44
371.35	87.44
371.576	91.44
371.802	88.44
372.028	97.44
372.254	83.44
372.48	73.44
372.706	97.44
372.932	92.44
373.158	94.44
373.384	98.44
373.61	99.44
373.835	82.44
374.061	91.44
374.287	95.44
374.513	84.44
374.739	88.44
374.965	95.44
375.191	85.44
375.416	84.44
375.642	100.44
375.868	82.44
376.094	88.44
376.319	90.44
376.545	68.44
376.771	82.44
376.997	88.44
377.222	91.44
377.448	83.44
377.674	78.44
377.899	86.44
378.125	85.44
378.35	86.44
378.576	75.44
378.802	85.44
379.027	68.44
379.253	77.44
379.478	99.44
379.704	93.44
379.929	94.44
380.155	93.44
380.38	99.44
380.606	109.44
380.831	99.44
381.057	95.44
381.282	106.44
381.507	99.44
381.733	103.44
381.958	105.44
382.184	94.44
382.409	88.44
382.634	102.44
382.86	106.44
383.085	83.44
383.31	103.44
383.535	93.44
383.761	101.44
383.986	93.44
384.211	74.44
384.436	105.44
384.662	89.44
384.887	91.44
385.112	84.44
385.337	97.44
385.562	96.44
385.787	102.44
386.013	128.44
386.238	119.44
386.463	101.44
386.688	99.44
386.913	98.44
387.138	106.44
387.363	93.44
387.588	98.44
387.813	99.44
388.038	95.44
388.263	98.44
388.488	109.44
388.713	111.44
388.938	89.44
389.163	87.44
389.387	89.44
389.612	89.44
389.837	91.44
390.062	91.44
390.287	86.44
390.512	86.44
390.736	83.44
390.961	87.44
391.186	88.44
391.411	83.44
391.636	91.44
391.86	93.44
392.085	82.44
392.31	85.44
392.534	87.44
392.759	98.44
392.984	74.44
393.208	77.44
393.433	96.44
393.658	93.44
393.882	93.44
394.107	78.44
394.331	89.44
394.556	87.44
394.78	92.44
395.005	87.44
395.229	88.44
395.454	100.44
395.678	103.44
395.903	91.44
396.127	105.44
396.352	107.44
396.576	91.44
396.801	88.44
397.025	82.44
397.249	90.44
397.474	93.44
397.698	102.44
397.922	87.44
398.147	87.44
398.371	77.44
398.595	85.44
398.82	77.44
399.044	86.44
399.268	93.44
399.492	81.44
399.717	95.44
399.941	93.44
400.165	104.44
400.389	100.44
400.613	82.44
400.837	92.44
401.062	81.44
401.286	85.44
401.51	110.44
401.734	102.44
401.958	125.44
402.182	170.44
402.406	241.44
402.63	150.44
402.854	123.44
403.078	91.44
403.302	73.44
403.526	87.44
403.75	90.44
403.974	98.44
404.198	96.44
404.422	91.44
404.645	90.44
404.869	119.44
405.093	131.44
405.317	159.44
405.541	165.44
405.765	126.44
405.988	155.44
406.212	241.44
406.436	367.44
406.66	235.44
406.883	124.44
407.107	106.44
407.331	103.44
407.555	115.44
407.778	123.44
408.002	98.44
408.226	98.44
408.449	82.44
408.673	104.44
408.896	84.44
409.12	97.44
409.344	92.44
409.567	87.44
409.791	93.44
410.014	98.44
410.238	110.44
410.461	96.44
410.685	109.44
410.908	87.44
411.132	97.44
411.355	108.44
411.578	97.44
411.802	95.44
412.025	96.44
412.249	89.44
412.472	114.44
412.695	152.44
412.919	106.44
413.142	96.44
413.365	100.44
413.589	90.44
413.812	87.44
414.035	102.44
414.258	105.44
414.482	83.44
414.705	91.44
414.928	101.44
415.151	97.44
415.374	105.44
415.597	83.44
415.821	93.44
416.044	81.44
416.267	97.44
416.49	101.44
416.713	90.44
416.936	91.44
417.159	98.44
417.382	104.44
417.605	115.44
417.828	118.44
418.051	88.44
418.274	83.44
418.497	69.44
418.72	83.44
418.943	98.44
419.166	96.44
419.389	96.44
419.611	96.44
419.834	95.44
420.057	98.44
420.28	100.44
420.503	99.44
420.726	103.44
420.948	90.44
421.171	100.44
421.394	97.44
421.617	75.44
421.839	85.44
422.062	93.44
422.285	96.44
422.507	117.44
422.73	125.44
422.953	100.44
423.175	96.44
423.398	88.44
423.621	99.44
423.843	89.44
424.066	75.44
424.288	87.44
424.511	114.44
424.733	116.44
424.956	134.44
425.178	126.44
425.401	120.44
425.623	115.44
425.846	109.44
426.068	93.44
426.291	98.44
426.513	102.44
426.735	99.44
426.958	113.44
427.18	131.44
427.402	201.44
427.625	295.44
427.847	289.44
428.069	242.44
428.292	157.44
428.514	103.44
428.736	82.44
428.958	87.44
429.181	98.44
429.403	88.44
429.625	95.44
429.847	99.44
430.069	116.44
430.292	91.44
430.514	87.44
430.736	82.44
430.958	82.44
431.18	93.44
431.402	89.44
431.624	82.44
431.846	106.44
432.068	92.44
432.29	81.44
432.512	97.44
432.734	100.44
432.956	100.44
433.178	100.44
433.4	110.44
433.622	87.44
433.844	94.44
434.066	76.44
434.287	96.44
434.509	82.44
434.731	93.44
434.953	97.44
435.175	89.44
435.397	90.44
435.618	97.44
435.84	120.44
436.062	140.44
436.284	159.44
436.505	121.44
436.727	105.44
436.949	102.44
437.17	81.44
437.392	101.44
437.614	111.44
437.835	144.44
438.057	180.44
438.278	157.44
438.5	125.44
438.721	158.44
438.943	127.44
439.165	95.44
439.386	91.44
439.608	93.44
439.829	130.44
440.05	162.44
440.272	207.44
440.493	129.44
440.715	101.44
440.936	107.44
441.158	103.44
441.379	102.44
441.6	94.44
441.822	123.44
442.043	117.44
442.264	116.44
442.486	123.44
442.707	92.44
442.928	131.44
443.149	189.44
443.371	187.44
443.592	133.44
443.813	135.44
444.034	133.44
444.255	100.44
444.476	85.44
444.698	86.44
444.919	102.44
445.14	106.44
445.361	132.44
445.582	157.44
445.803	203.44
446.024	211.44
446.245	185.44
446.466	129.44
446.687	113.44
446.908	87.44
447.129	87.44
447.35	99.44
447.571	118.44
447.792	97.44
448.013	114.44
448.234	122.44
448.455	121.44
448.675	143.44
448.896	161.44
449.117	104.44
449.338	120.44
449.559	178.44
449.779	167.44
450	104.44
450.221	100.44
450.442	92.44
450.662	115.44
450.883	144.44
451.104	135.44
451.324	119.44
451.545	104.44
451.766	86.44
451.986	95.44
452.207	77.44
452.428	105.44
452.648	114.44
452.869	131.44
453.089	150.44
453.31	159.44
453.53	118.44
453.751	106.44
453.971	132.44
454.192	147.44
454.412	113.44
454.633	100.44
454.853	95.44
455.073	96.44
455.294	118.44
455.514	117.44
455.734	94.44
455.955	91.44
456.175	87.44
456.395	83.44
456.616	87.44
456.836	92.44
457.056	87.44
457.276	85.44
457.497	104.44
457.717	91.44
457.937	106.44
458.157	93.44
458.377	99.44
458.598	143.44
458.818	240.44
459.038	279.44
459.258	173.44
459.478	101.44
459.698	98.44
459.918	83.44
460.138	84.44
460.358	93.44
460.578	86.44
460.798	85.44
461.018	92.44
461.238	96.44
461.458	86.44
461.678	97.44
461.898	97.44
462.118	78.44
462.338	81.44
462.558	89.44
462.777	93.44
462.997	102.44
463.217	120.44
463.437	113.44
463.657	94.44
463.876	96.44
464.096	112.44
464.316	103.44
464.536	109.44
464.755	104.44
464.975	139.44
465.195	266.44
465.414	265.44
465.634	110.44
465.854	95.44
466.073	90.44
466.293	89.44
466.512	105.44
466.732	83.44
466.951	89.44
467.171	103.44
467.391	132.44
467.61	157.44
467.829	230.44
468.049	624.44
468.268	971.44
468.488	262.44
468.707	127.44
468.927	97.44
469.146	103.44
469.365	96.44
469.585	106.44
469.804	116.44
470.023	128.44
470.243	112.44
470.462	115.44
470.681	160.44
470.901	106.44
471.12	118.44
471.339	109.44
471.558	136.44
471.777	170.44
471.997	345.44
472.216	1171.44
472.435	2869.44
472.654	691.44
472.873	185.44
473.092	111.44
473.311	113.44
473.53	91.44
473.749	107.44
473.968	109.44
474.187	147.44
474.406	115.44
474.625	107.44
474.844	84.44
475.063	86.44
475.282	96.44
475.501	90.44
475.72	90.44
475.939	103.44
476.158	79.44
476.377	101.44
476.596	97.44
476.814	117.44
477.033	119.44
477.252	104.44
477.471	103.44
477.69	95.44
477.908	90.44
478.127	101.44
478.346	109.44
478.564	103.44
478.783	104.44
479.002	106.44
479.22	116.44
479.439	135.44
479.658	160.44
479.876	133.44
480.095	138.44
480.313	150.44
480.532	161.44
480.751	306.44
480.969	1066.44
481.188	4696.44
481.406	2925.44
481.624	404.44
481.843	154.44
482.061	110.44
482.28	106.44
482.498	106.44
482.717	110.44
482.935	96.44
483.153	91.44
483.372	92.44
483.59	83.44
483.808	109.44
484.027	96.44
484.245	91.44
484.463	92.44
484.681	80.44
484.9	98.44
485.118	97.44
485.336	114.44
485.554	87.44
485.772	94.44
485.99	108.44
486.209	111.44
486.427	115.44
486.645	143.44
486.863	133.44
487.081	125.44
487.299	107.44
487.517	105.44
487.735	94.44
487.953	89.44
488.171	93.44
488.389	96.44
488.607	109.44
488.825	88.44
489.043	108.44
489.261	83.44
489.479	79.44
489.696	91.44
489.914	83.44
490.132	76.44
490.35	87.44
490.568	98.44
490.786	93.44
491.003	90.44
491.221	94.44
491.439	92.44
491.657	109.44
491.874	86.44
492.092	79.44
492.31	103.44
492.527	109.44
492.745	116.44
492.963	81.44
493.18	94.44
493.398	93.44
493.615	94.44
493.833	104.44
494.05	96.44
494.268	73.44
494.485	90.44
494.703	80.44
494.92	90.44
495.138	84.44
495.355	109.44
495.573	96.44
495.79	99.44
496.008	98.44
496.225	105.44
496.442	94.44
496.66	91.44
496.877	100.44
497.094	93.44
497.312	98.44
497.529	80.44
497.746	110.44
497.963	97.44
498.181	95.44
498.398	109.44
498.615	117.44
498.832	123.44
499.049	81.44
499.267	88.44
499.484	81.44
499.701	105.44
499.918	90.44
500.135	89.44
500.352	105.44
500.569	102.44
500.786	97.44
501.003	109.44
501.22	96.44
501.437	100.44
501.654	94.44
501.871	143.44
502.088	104.44
502.305	92.44
502.522	95.44
502.739	96.44
502.956	82.44
503.172	102.44
503.389	115.44
503.606	135.44
503.823	117.44
504.04	109.44
504.256	93.44
504.473	94.44
504.69	97.44
504.907	95.44
505.123	93.44
505.34	93.44
505.557	90.44
505.773	97.44
505.99	97.44
506.207	79.44
506.423	85.44
506.64	95.44
506.856	90.44
507.073	91.44
507.289	102.44
507.506	103.44
507.722	145.44
507.939	149.44
508.155	104.44
508.372	103.44
508.588	95.44
508.805	97.44
509.021	101.44
509.238	125.44
509.454	107.44
509.67	121.44
509.887	122.44
510.103	135.44
510.319	253.44
510.536	1059.44
510.752	3798.44
510.968	1074.44
511.184	205.44
511.401	130.44
511.617	116.44
511.833	129.44
512.049	111.44
512.265	94.44
512.481	96.44
512.698	109.44
512.914	97.44
513.13	98.44
513.346	106.44
513.562	107.44
513.778	117.44
513.994	104.44
514.21	123.44
514.426	151.44
514.642	213.44
514.858	184.44
515.074	240.44
515.29	822.44
515.506	3092.44
515.721	1103.44
515.937	252.44
516.153	155.44
516.369	125.44
516.585	105.44
516.801	115.44
517.016	109.44
517.232	107.44
517.448	89.44
517.664	109.44
517.879	111.44
518.095	111.44
518.311	120.44
518.527	125.44
518.742	103.44
518.958	90.44
519.173	103.44
519.389	112.44
519.605	95.44
519.82	121.44
520.036	123.44
520.251	151.44
520.467	154.44
520.682	132.44
520.898	120.44
521.113	145.44
521.329	197.44
521.544	342.44
521.76	1082.44
521.975	5113.44
522.19	3241.44
522.406	613.44
522.621	194.44
522.836	128.44
523.052	120.44
523.267	102.44
523.482	113.44
523.698	128.44
523.913	146.44
524.128	138.44
524.343	101.44
524.559	92.44
524.774	106.44
524.989	105.44
525.204	125.44
525.419	114.44
525.634	92.44
525.849	86.44
526.064	90.44
526.28	90.44
526.495	101.44
526.71	101.44
526.925	85.44
527.14	95.44
527.355	101.44
527.57	88.44
527.785	90.44
527.999	86.44
528.214	84.44
528.429	92.44
528.644	102.44
528.859	94.44
529.074	91.44
529.289	166.44
529.503	316.44
529.718	131.44
529.933	102.44
530.148	85.44
530.363	90.44
530.577	97.44
530.792	104.44
531.007	98.44
531.221	106.44
531.436	97.44
531.651	106.44
531.865	81.44
532.08	106.44
532.295	87.44
532.509	101.44
532.724	92.44
532.938	105.44
533.153	90.44
533.367	105.44
533.582	102.44
533.796	90.44
534.011	89.44
534.225	84.44
534.44	93.44
534.654	85.44
534.868	91.44
535.083	106.44
535.297	99.44
535.511	115.44
535.726	123.44
535.94	119.44
536.154	98.44
536.369	83.44
536.583	89.44
536.797	94.44
537.011	95.44
537.225	105.44
537.44	89.44
537.654	84.44
537.868	89.44
538.082	83.44
538.296	95.44
538.51	99.44
538.724	87.44
538.938	98.44
539.153	93.44
539.367	132.44
539.581	110.44
539.795	98.44
540.009	90.44
540.222	83.44
540.436	100.44
540.65	101.44
540.864	93.44
541.078	105.44
541.292	98.44
541.506	93.44
541.72	93.44
541.934	95.44
542.147	91.44
542.361	88.44
542.575	100.44
542.789	106.44
543.002	103.44
543.216	101.44
543.43	99.44
543.644	104.44
543.857	86.44
544.071	103.44
544.285	98.44
544.498	90.44
544.712	95.44
544.925	90.44
545.139	83.44
545.352	83.44
545.566	94.44
545.779	88.44
545.993	94.44
546.206	80.44
546.42	98.44
546.633	98.44
546.847	99.44
547.06	87.44
547.274	86.44
547.487	94.44
547.7	93.44
547.914	81.44
548.127	92.44
548.34	94.44
548.554	88.44
548.767	89.44
548.98	88.44
549.193	87.44
549.407	100.44
549.62	105.44
549.833	88.44
550.046	94.44
550.259	89.44
550.473	84.44
550.686	96.44
550.899	93.44
551.112	88.44
551.325	73.44
551.538	113.44
551.751	93.44
551.964	92.44
552.177	102.44
552.39	95.44
552.603	98.44
552.816	99.44
553.029	84.44
553.242	93.44
553.455	102.44
553.667	119.44
553.88	119.44
554.093	104.44
554.306	126.44
554.519	127.44
554.732	111.44
554.944	115.44
555.157	95.44
555.37	94.44
555.583	102.44
555.795	83.44
556.008	91.44
556.221	85.44
556.433	101.44
556.646	90.44
556.859	105.44
557.071	97.44
557.284	72.44
557.496	97.44
557.709	95.44
557.921	98.44
558.134	106.44
558.346	94.44
558.559	91.44
558.771	89.44
558.984	101.44
559.196	86.44
559.409	89.44
559.621	97.44
559.833	85.44
560.046	94.44
560.258	123.44
560.47	151.44
560.683	102.44
560.895	104.44
561.107	83.44
561.32	94.44
561.532	90.44
561.744	95.44
561.956	90.44
562.168	88.44
562.381	100.44
562.593	78.44
562.805	100.44
563.017	103.44
563.229	94.44
563.441	77.44
563.653	86.44
563.865	91.44
564.077	97.44
564.289	94.44
564.501	85.44
564.713	90.44
564.925	103.44
565.137	115.44
565.349	102.44
565.561	82.44
565.773	88.44
565.985	85.44
566.197	71.44
566.408	83.44
566.62	81.44
566.832	86.44
567.044	91.44
567.255	78.44
567.467	74.44
567.679	90.44
567.891	100.44
568.102	91.44
568.314	68.44
568.526	90.44
568.737	87.44
568.949	83.44
569.161	75.44
569.372	82.44
569.584	92.44
569.795	99.44
570.007	130.44
570.218	347.44
570.43	165.44
570.641	88.44
570.853	72.44
571.064	90.44
571.276	104.44
571.487	88.44
571.698	93.44
571.91	101.44
572.121	76.44
572.333	92.44
572.544	84.44
572.755	94.44
572.966	84.44
573.178	89.44
573.389	95.44
573.6	98.44
573.811	94.44
574.023	98.44
574.234	93.44
574.445	99.44
574.656	85.44
574.867	81.44
575.078	83.44
575.289	95.44
575.501	86.44
575.712	103.44
575.923	77.44
576.134	83.44
576.345	91.44
576.556	109.44
576.767	89.44
576.978	88.44
577.188	96.44
577.399	90.44
577.61	87.44
577.821	109.44
578.032	122.44
578.243	345.44
578.454	1185.44
578.665	303.44
578.875	118.44
579.086	84.44
579.297	67.44
579.508	80.44
579.718	83.44
579.929	100.44
580.14	89.44
580.35	86.44
580.561	95.44
580.772	92.44
580.982	85.44
581.193	89.44
581.403	92.44
581.614	79.44
581.825	94.44
582.035	84.44
582.246	105.44
582.456	89.44
582.667	85.44
582.877	91.44
583.087	85.44
583.298	88.44
583.508	80.44
583.719	85.44
583.929	75.44
584.139	73.44
584.35	84.44
584.56	92.44
584.77	82.44
584.981	102.44
585.191	96.44
585.401	85.44
585.611	87.44
585.821	93.44
586.032	99.44
586.242	73.44
586.452	79.44
586.662	85.44
586.872	71.44
587.082	88.44
587.292	85.44
587.502	84.44
587.713	83.44
587.923	82.44
588.133	88.44
588.343	86.44
588.553	65.44
588.762	81.44
588.972	96.44
589.182	94.44
589.392	91.44
589.602	87.44
589.812	84.44
590.022	94.44
590.232	93.44
590.441	93.44
590.651	90.44
590.861	82.44
591.071	83.44
591.281	84.44
591.49	78.44
591.7	78.44
591.91	95.44
592.119	81.44
592.329	97.44
592.539	96.44
592.748	102.44
592.958	82.44
593.167	77.44
593.377	90.44
593.587	87.44
593.796	92.44
594.006	80.44
594.215	89.44
594.424	87.44
594.634	85.44
594.843	78.44
595.053	91.44
595.262	94.44
595.472	103.44
595.681	85.44
595.89	77.44
596.1	74.44
596.309	97.44
596.518	90.44
596.727	102.44
596.937	105.44
597.146	86.44
597.355	83.44
597.564	80.44
597.774	82.44
597.983	78.44
598.192	74.44
598.401	71.44
598.61	85.44
598.819	74.44
599.028	85.44
599.237	78.44
599.446	77.44
599.655	91.44
599.864	97.44
600.073	91.44
600.282	88.44
600.491	78.44
600.7	84.44
600.909	97.44
601.118	91.44
601.327	87.44
601.536	91.44
601.745	89.44
601.953	89.44
602.162	85.44
602.371	89.44
602.58	84.44
602.789	97.44
602.997	85.44
603.206	88.44
603.415	88.44
603.623	86.44
603.832	90.44
604.041	83.44
604.249	83.44
604.458	74.44
604.666	80.44
604.875	88.44
605.084	89.44
605.292	73.44
605.501	94.44
605.709	95.44
605.918	85.44
606.126	84.44
606.334	79.44
606.543	84.44
606.751	87.44
606.96	87.44
607.168	75.44
607.376	90.44
607.585	81.44
607.793	97.44
608.001	94.44
608.21	78.44
608.418	76.44
608.626	79.44
608.834	89.44
609.043	85.44
609.251	83.44
609.459	81.44
609.667	95.44
609.875	96.44
610.083	87.44
610.291	85.44
610.499	96.44
610.707	70.44
610.916	80.44
611.124	85.44
611.332	84.44
611.54	80.44
611.748	91.44
611.955	91.44
612.163	87.44
612.371	81.44
612.579	90.44
612.787	79.44
612.995	86.44
613.203	82.44
613.411	96.44
613.618	79.44
613.826	89.44
614.034	74.44
614.242	90.44
614.449	80.44
614.657	90.44
614.865	67.44
615.072	79.44
615.28	91.44
615.488	100.44
615.695	94.44
615.903	111.44
616.111	94.44
616.318	95.44
616.526	95.44
616.733	92.44
616.941	94.44
617.148	90.44
617.356	94.44
617.563	99.44
617.771	76.44
617.978	84.44
618.185	83.44
618.393	87.44
618.6	90.44
618.807	83.44
619.015	94.44
619.222	82.44
619.429	82.44
619.637	97.44
619.844	88.44
620.051	87.44
620.258	88.44
620.466	88.44
620.673	88.44
620.88	82.44
621.087	94.44
621.294	85.44
621.501	87.44
621.708	92.44
621.915	74.44
622.122	91.44
622.329	95.44
622.536	90.44
622.743	80.44
622.95	100.44
623.157	80.44
623.364	77.44
623.571	89.44
623.778	72.44
623.985	101.44
624.192	83.44
624.399	84.44
624.606	84.44
624.812	81.44
625.019	85.44
625.226	70.44
625.433	78.44
625.639	92.44
625.846	88.44
626.053	79.44
626.259	84.44
626.466	84.44
626.673	89.44
626.879	62.44
627.086	88.44
627.293	86.44
627.499	67.44
627.706	85.44
627.912	95.44
628.119	84.44
628.325	85.44
628.532	88.44
628.738	86.44
628.945	79.44
629.151	87.44
629.357	97.44
629.564	97.44
629.77	88.44
629.976	98.44
630.183	79.44
630.389	88.44
630.595	84.44
630.802	79.44
631.008	87.44
631.214	93.44
631.42	90.44
631.627	95.44
631.833	83.44
632.039	86.44
632.245	83.44
632.451	85.44
632.657	85.44
632.863	79.44
633.069	82.44
633.275	92.44
633.481	90.44
633.688	89.44
633.893	80.44
634.099	81.44
634.305	89.44
634.511	84.44
634.717	81.44
634.923	81.44
635.129	85.44
635.335	79.44
635.541	87.44
635.747	89.44
635.952	94.44
636.158	151.44
636.364	415.44
636.57	396.44
636.775	153.44
636.981	98.44
637.187	77.44
637.392	88.44
637.598	86.44
637.804	96.44
638.009	77.44
638.215	82.44
638.421	78.44
638.626	101.44
638.832	82.44
639.037	77.44
639.243	59.44
639.448	75.44
639.654	74.44
639.859	76.44
640.065	81.44
640.27	81.44
640.475	79.44
640.681	77.44
640.886	84.44
641.091	80.44
641.297	85.44
641.502	85.44
641.707	77.44
641.913	101.44
642.118	95.44
642.323	101.44
642.528	98.44
642.733	81.44
642.939	79.44
643.144	80.44
643.349	79.44
643.554	85.44
643.759	91.44
643.964	84.44
644.169	77.44
644.374	90.44
644.579	96.44
644.784	85.44
644.989	67.44
645.194	74.44
645.399	84.44
645.604	87.44
645.809	84.44
646.014	85.44
646.219	79.44
646.423	82.44
646.628	82.44
646.833	75.44
647.038	91.44
647.243	86.44
647.447	83.44
647.652	90.44
647.857	92.44
648.062	81.44
648.266	85.44
648.471	90.44
648.676	102.44
648.88	84.44
649.085	74.44
649.289	83.44
649.494	103.44
649.698	163.44
649.903	98.44
650.107	83.44
650.312	96.44
650.516	72.44
650.721	104.44
650.925	72.44
651.13	71.44
651.334	80.44
651.539	89.44
651.743	66.44
651.947	88.44
652.152	76.44
652.356	74.44
652.56	80.44
652.764	92.44
652.969	75.44
653.173	75.44
653.377	83.44
653.581	84.44
653.785	92.44
653.99	84.44
654.194	71.44
654.398	74.44
654.602	81.44
654.806	87.44
655.01	109.44
655.214	86.44
655.418	85.44
655.622	84.44
655.826	94.44
656.03	75.44
656.234	91.44
656.438	101.44
656.642	82.44
656.846	82.44
657.049	101.44
657.253	78.44
657.457	95.44
657.661	86.44
657.865	90.44
658.068	75.44
658.272	78.44
658.476	95.44
658.68	73.44
658.883	83.44
659.087	86.44
659.291	66.44
659.494	78.44
659.698	78.44
659.901	89.44
660.105	79.44
660.309	77.44
660.512	64.44
660.716	70.44
660.919	73.44
661.123	78.44
661.326	85.44
661.53	93.44
661.733	91.44
661.936	78.44
662.14	74.44
662.343	84.44
662.546	82.44
662.75	83.44
662.953	87.44
663.156	86.44
663.36	76.44
663.563	81.44
663.766	67.44
663.969	89.44
664.173	83.44
664.376	79.44
664.579	90.44
664.782	87.44
664.985	88.44
665.188	83.44
665.391	86.44
665.594	88.44
665.797	88.44
666	74.44
666.203	81.44
666.406	98.44
666.609	81.44
666.812	83.44
667.015	82.44
667.218	79.44
667.421	79.44
667.624	82.44
667.827	76.44
668.03	82.44
668.232	82.44
668.435	94.44
668.638	80.44
668.841	96.44
669.043	72.44
669.246	82.44
669.449	73.44
669.651	78.44
669.854	93.44
670.057	78.44
670.259	74.44
670.462	73.44
670.665	77.44
670.867	79.44
671.07	78.44
671.272	80.44
671.475	88.44
671.677	74.44
671.88	82.44
672.082	69.44
672.284	81.44
672.487	80.44
672.689	79.44
672.892	72.44
