Data from Circ_2023_H10_HRD10591_00042.txt Node
Date: Wed Jan 03 09:50:39 EST 2024
User: Yrep
Spectrometer: HR+D1059
Trigger mode: 1
Integration Time (sec): 1.000000E-1
Scans to average: 1
Electric dark correction enabled: true
Nonlinearity correction enabled: false
Boxcar width: 0
XAxis mode: Wavelengths
Number of Pixels in Spectrum: 2048
>>>>>Begin Spectral Data<<<<<
223.165	-19.38
223.4	-19.38
223.635	-19.38
223.869	-23.38
224.104	-24.38
224.338	-8.38
224.573	-10.38
224.808	-10.38
225.042	-16.38
225.277	-7.38
225.511	-15.38
225.746	13.62
225.98	0.62
226.215	22.62
226.449	22.62
226.683	28.62
226.918	12.62
227.152	34.62
227.387	56.62
227.621	46.62
227.856	51.62
228.09	35.62
228.324	47.62
228.559	57.62
228.793	62.62
229.027	63.62
229.262	60.62
229.496	76.62
229.73	82.62
229.964	75.62
230.199	64.62
230.433	74.62
230.667	65.62
230.901	90.62
231.136	76.62
231.37	91.62
231.604	67.62
231.838	89.62
232.072	70.62
232.306	72.62
232.541	77.62
232.775	71.62
233.009	70.62
233.243	79.62
233.477	93.62
233.711	75.62
233.945	69.62
234.179	72.62
234.413	80.62
234.647	80.62
234.881	89.62
235.115	78.62
235.349	82.62
235.583	72.62
235.817	88.62
236.051	77.62
236.285	71.62
236.519	80.62
236.753	76.62
236.987	73.62
237.221	95.62
237.455	93.62
237.689	66.62
237.922	71.62
238.156	79.62
238.39	73.62
238.624	81.62
238.858	77.62
239.091	89.62
239.325	92.62
239.559	84.62
239.793	72.62
240.027	79.62
240.26	91.62
240.494	78.62
240.728	68.62
240.961	68.62
241.195	85.62
241.429	80.62
241.662	85.62
241.896	75.62
242.13	78.62
242.363	81.62
242.597	64.62
242.83	73.62
243.064	73.62
243.298	73.62
243.531	78.62
243.765	81.62
243.998	80.62
244.232	89.62
244.465	89.62
244.699	85.62
244.932	69.62
245.166	81.62
245.399	76.62
245.633	70.62
245.866	84.62
246.099	68.62
246.333	72.62
246.566	93.62
246.8	85.62
247.033	79.62
247.266	70.62
247.5	81.62
247.733	72.62
247.966	73.62
248.2	76.62
248.433	76.62
248.666	68.62
248.899	68.62
249.133	87.62
249.366	100.62
249.599	96.62
249.832	91.62
250.066	73.62
250.299	96.62
250.532	97.62
250.765	80.62
250.998	78.62
251.231	87.62
251.465	69.62
251.698	79.62
251.931	78.62
252.164	80.62
252.397	95.62
252.63	78.62
252.863	80.62
253.096	73.62
253.329	74.62
253.562	82.62
253.795	86.62
254.028	74.62
254.261	77.62
254.494	79.62
254.727	73.62
254.96	95.62
255.193	78.62
255.426	72.62
255.659	70.62
255.892	85.62
256.124	78.62
256.357	63.62
256.59	80.62
256.823	89.62
257.056	95.62
257.289	79.62
257.521	82.62
257.754	97.62
257.987	72.62
258.22	78.62
258.452	89.62
258.685	93.62
258.918	74.62
259.151	75.62
259.383	82.62
259.616	69.62
259.849	69.62
260.081	90.62
260.314	99.62
260.547	73.62
260.779	85.62
261.012	96.62
261.244	108.62
261.477	96.62
261.71	96.62
261.942	127.62
262.175	141.62
262.407	104.62
262.64	88.62
262.872	84.62
263.105	85.62
263.337	88.62
263.57	68.62
263.802	75.62
264.035	80.62
264.267	89.62
264.499	85.62
264.732	79.62
264.964	84.62
265.197	89.62
265.429	81.62
265.661	98.62
265.894	91.62
266.126	77.62
266.358	89.62
266.591	94.62
266.823	80.62
267.055	68.62
267.287	84.62
267.52	88.62
267.752	88.62
267.984	85.62
268.216	86.62
268.448	95.62
268.681	84.62
268.913	86.62
269.145	83.62
269.377	79.62
269.609	89.62
269.841	72.62
270.073	78.62
270.306	83.62
270.538	77.62
270.77	75.62
271.002	82.62
271.234	78.62
271.466	78.62
271.698	85.62
271.93	84.62
272.162	80.62
272.394	90.62
272.626	82.62
272.858	79.62
273.09	84.62
273.322	78.62
273.553	73.62
273.785	84.62
274.017	95.62
274.249	103.62
274.481	82.62
274.713	73.62
274.945	86.62
275.176	93.62
275.408	88.62
275.64	101.62
275.872	113.62
276.104	98.62
276.335	84.62
276.567	115.62
276.799	139.62
277.031	162.62
277.262	193.62
277.494	137.62
277.726	106.62
277.957	94.62
278.189	92.62
278.421	88.62
278.652	97.62
278.884	91.62
279.115	76.62
279.347	85.62
279.579	89.62
279.81	127.62
280.042	189.62
280.273	239.62
280.505	179.62
280.736	104.62
280.968	90.62
281.199	97.62
281.431	96.62
281.662	97.62
281.894	79.62
282.125	110.62
282.356	123.62
282.588	159.62
282.819	137.62
283.051	101.62
283.282	80.62
283.513	79.62
283.745	81.62
283.976	90.62
284.207	90.62
284.439	97.62
284.67	87.62
284.901	82.62
285.132	96.62
285.364	82.62
285.595	87.62
285.826	86.62
286.057	87.62
286.288	83.62
286.52	89.62
286.751	102.62
286.982	72.62
287.213	73.62
287.444	93.62
287.675	97.62
287.906	85.62
288.138	83.62
288.369	94.62
288.6	109.62
288.831	86.62
289.062	98.62
289.293	85.62
289.524	97.62
289.755	83.62
289.986	77.62
290.217	90.62
290.448	82.62
290.679	88.62
290.91	80.62
291.141	94.62
291.371	94.62
291.602	89.62
291.833	92.62
292.064	93.62
292.295	81.62
292.526	98.62
292.757	86.62
292.987	96.62
293.218	85.62
293.449	85.62
293.68	81.62
293.91	85.62
294.141	85.62
294.372	92.62
294.603	86.62
294.833	98.62
295.064	85.62
295.295	77.62
295.525	101.62
295.756	106.62
295.987	121.62
296.217	157.62
296.448	151.62
296.679	102.62
296.909	91.62
297.14	104.62
297.37	80.62
297.601	81.62
297.831	95.62
298.062	91.62
298.292	85.62
298.523	91.62
298.753	83.62
298.984	92.62
299.214	86.62
299.445	113.62
299.675	89.62
299.905	106.62
300.136	88.62
300.366	93.62
300.597	102.62
300.827	100.62
301.057	117.62
301.288	104.62
301.518	96.62
301.748	91.62
301.979	111.62
302.209	91.62
302.439	88.62
302.669	89.62
302.9	100.62
303.13	93.62
303.36	100.62
303.59	109.62
303.82	136.62
304.051	102.62
304.281	96.62
304.511	105.62
304.741	103.62
304.971	102.62
305.201	81.62
305.431	88.62
305.661	96.62
305.891	91.62
306.121	89.62
306.352	119.62
306.582	112.62
306.812	98.62
307.042	121.62
307.272	160.62
307.502	172.62
307.731	162.62
307.961	124.62
308.191	91.62
308.421	101.62
308.651	92.62
308.881	96.62
309.111	103.62
309.341	85.62
309.571	112.62
309.8	111.62
310.03	96.62
310.26	102.62
310.49	97.62
310.72	94.62
310.949	96.62
311.179	101.62
311.409	98.62
311.639	95.62
311.868	101.62
312.098	94.62
312.328	99.62
312.557	116.62
312.787	123.62
313.017	95.62
313.246	107.62
313.476	99.62
313.706	90.62
313.935	94.62
314.165	99.62
314.394	104.62
314.624	109.62
314.853	106.62
315.083	85.62
315.312	97.62
315.542	93.62
315.771	97.62
316.001	100.62
316.23	86.62
316.46	86.62
316.689	83.62
316.919	92.62
317.148	84.62
317.377	91.62
317.607	91.62
317.836	115.62
318.065	105.62
318.295	91.62
318.524	83.62
318.753	100.62
318.983	96.62
319.212	103.62
319.441	111.62
319.67	110.62
319.9	100.62
320.129	98.62
320.358	95.62
320.587	98.62
320.816	103.62
321.046	98.62
321.275	93.62
321.504	90.62
321.733	100.62
321.962	128.62
322.191	112.62
322.42	128.62
322.649	131.62
322.878	132.62
323.108	139.62
323.337	132.62
323.566	146.62
323.795	177.62
324.024	242.62
324.253	499.62
324.482	1037.62
324.71	2173.62
324.939	2848.62
325.168	992.62
325.397	283.62
325.626	165.62
325.855	144.62
326.084	122.62
326.313	129.62
326.542	183.62
326.77	279.62
326.999	533.62
327.228	1127.62
327.457	2072.62
327.686	1668.62
327.914	576.62
328.143	541.62
328.372	671.62
328.6	387.62
328.829	175.62
329.058	189.62
329.287	201.62
329.515	179.62
329.744	263.62
329.972	483.62
330.201	983.62
330.43	1439.62
330.658	639.62
330.887	301.62
331.115	198.62
331.344	123.62
331.572	107.62
331.801	119.62
332.03	145.62
332.258	114.62
332.486	112.62
332.715	103.62
332.943	98.62
333.172	121.62
333.4	136.62
333.629	177.62
333.857	224.62
334.085	430.62
334.314	891.62
334.542	1771.62
334.771	1726.62
334.999	434.62
335.227	171.62
335.455	131.62
335.684	111.62
335.912	120.62
336.14	131.62
336.369	102.62
336.597	115.62
336.825	112.62
337.053	100.62
337.281	84.62
337.51	86.62
337.738	90.62
337.966	123.62
338.194	112.62
338.422	103.62
338.65	106.62
338.878	105.62
339.106	97.62
339.334	99.62
339.562	97.62
339.79	83.62
340.018	89.62
340.246	96.62
340.474	92.62
340.702	106.62
340.93	96.62
341.158	97.62
341.386	110.62
341.614	102.62
341.842	80.62
342.07	96.62
342.298	96.62
342.526	94.62
342.754	93.62
342.981	99.62
343.209	76.62
343.437	100.62
343.665	106.62
343.893	90.62
344.12	93.62
344.348	95.62
344.576	85.62
344.804	115.62
345.031	97.62
345.259	111.62
345.487	109.62
345.714	102.62
345.942	95.62
346.17	89.62
346.397	89.62
346.625	82.62
346.853	108.62
347.08	89.62
347.308	103.62
347.535	107.62
347.763	104.62
347.99	102.62
348.218	106.62
348.445	99.62
348.673	104.62
348.9	109.62
349.128	94.62
349.355	76.62
349.583	112.62
349.81	107.62
350.037	72.62
350.265	87.62
350.492	96.62
350.72	99.62
350.947	110.62
351.174	114.62
351.402	129.62
351.629	127.62
351.856	92.62
352.083	103.62
352.311	102.62
352.538	123.62
352.765	123.62
352.992	111.62
353.22	112.62
353.447	113.62
353.674	101.62
353.901	94.62
354.128	89.62
354.355	78.62
354.583	100.62
354.81	101.62
355.037	101.62
355.264	94.62
355.491	85.62
355.718	84.62
355.945	96.62
356.172	98.62
356.399	100.62
356.626	96.62
356.853	87.62
357.08	91.62
357.307	108.62
357.534	97.62
357.761	81.62
357.988	80.62
358.215	84.62
358.441	83.62
358.668	94.62
358.895	74.62
359.122	87.62
359.349	86.62
359.576	95.62
359.802	117.62
360.029	131.62
360.256	125.62
360.483	119.62
360.709	86.62
360.936	95.62
361.163	84.62
361.39	95.62
361.616	101.62
361.843	102.62
362.07	98.62
362.296	107.62
362.523	84.62
362.749	105.62
362.976	97.62
363.203	91.62
363.429	92.62
363.656	88.62
363.882	91.62
364.109	92.62
364.335	102.62
364.562	101.62
364.788	91.62
365.015	100.62
365.241	98.62
365.468	121.62
365.694	109.62
365.92	100.62
366.147	96.62
366.373	78.62
366.599	98.62
366.826	99.62
367.052	92.62
367.278	91.62
367.505	84.62
367.731	89.62
367.957	110.62
368.184	95.62
368.41	98.62
368.636	117.62
368.862	127.62
369.089	112.62
369.315	100.62
369.541	88.62
369.767	100.62
369.993	89.62
370.219	87.62
370.445	81.62
370.672	82.62
370.898	105.62
371.124	79.62
371.35	84.62
371.576	98.62
371.802	85.62
372.028	88.62
372.254	92.62
372.48	95.62
372.706	77.62
372.932	87.62
373.158	94.62
373.384	93.62
373.61	86.62
373.835	96.62
374.061	86.62
374.287	98.62
374.513	92.62
374.739	88.62
374.965	85.62
375.191	84.62
375.416	105.62
375.642	80.62
375.868	92.62
376.094	92.62
376.319	90.62
376.545	79.62
376.771	89.62
376.997	79.62
377.222	86.62
377.448	73.62
377.674	91.62
377.899	80.62
378.125	95.62
378.35	84.62
378.576	91.62
378.802	84.62
379.027	82.62
379.253	90.62
379.478	79.62
379.704	87.62
379.929	88.62
380.155	93.62
380.38	93.62
380.606	91.62
380.831	88.62
381.057	95.62
381.282	93.62
381.507	97.62
381.733	81.62
381.958	91.62
382.184	99.62
382.409	110.62
382.634	109.62
382.86	91.62
383.085	91.62
383.31	94.62
383.535	77.62
383.761	77.62
383.986	101.62
384.211	87.62
384.436	95.62
384.662	95.62
384.887	98.62
385.112	96.62
385.337	101.62
385.562	91.62
385.787	93.62
386.013	105.62
386.238	99.62
386.463	99.62
386.688	102.62
386.913	91.62
387.138	91.62
387.363	84.62
387.588	86.62
387.813	93.62
388.038	112.62
388.263	96.62
388.488	95.62
388.713	96.62
388.938	104.62
389.163	96.62
389.387	89.62
389.612	73.62
389.837	95.62
390.062	87.62
390.287	102.62
390.512	76.62
390.736	85.62
390.961	100.62
391.186	99.62
391.411	87.62
391.636	103.62
391.86	78.62
392.085	93.62
392.31	102.62
392.534	85.62
392.759	88.62
392.984	73.62
393.208	83.62
393.433	92.62
393.658	79.62
393.882	89.62
394.107	88.62
394.331	89.62
394.556	83.62
394.78	71.62
395.005	83.62
395.229	79.62
395.454	84.62
395.678	90.62
395.903	108.62
396.127	84.62
396.352	89.62
396.576	81.62
396.801	83.62
397.025	88.62
397.249	88.62
397.474	92.62
397.698	98.62
397.922	97.62
398.147	77.62
398.371	67.62
398.595	80.62
398.82	76.62
399.044	85.62
399.268	88.62
399.492	93.62
399.717	76.62
399.941	91.62
400.165	96.62
400.389	85.62
400.613	84.62
400.837	91.62
401.062	90.62
401.286	101.62
401.51	100.62
401.734	92.62
401.958	125.62
402.182	145.62
402.406	180.62
402.63	135.62
402.854	121.62
403.078	90.62
403.302	93.62
403.526	88.62
403.75	100.62
403.974	89.62
404.198	76.62
404.422	91.62
404.645	92.62
404.869	118.62
405.093	112.62
405.317	145.62
405.541	149.62
405.765	127.62
405.988	135.62
406.212	225.62
406.436	289.62
406.66	204.62
406.883	115.62
407.107	104.62
407.331	116.62
407.555	112.62
407.778	111.62
408.002	102.62
408.226	93.62
408.449	87.62
408.673	98.62
408.896	91.62
409.12	102.62
409.344	84.62
409.567	95.62
409.791	92.62
410.014	96.62
410.238	97.62
410.461	90.62
410.685	92.62
410.908	101.62
411.132	108.62
411.355	105.62
411.578	91.62
411.802	87.62
412.025	98.62
412.249	108.62
412.472	123.62
412.695	157.62
412.919	116.62
413.142	95.62
413.365	91.62
413.589	80.62
413.812	87.62
414.035	73.62
414.258	102.62
414.482	98.62
414.705	87.62
414.928	84.62
415.151	84.62
415.374	99.62
415.597	110.62
415.821	95.62
416.044	92.62
416.267	99.62
416.49	96.62
416.713	86.62
416.936	104.62
417.159	86.62
417.382	101.62
417.605	91.62
417.828	108.62
418.051	89.62
418.274	94.62
418.497	97.62
418.72	83.62
418.943	78.62
419.166	81.62
419.389	91.62
419.611	86.62
419.834	97.62
420.057	88.62
420.28	100.62
420.503	100.62
420.726	108.62
420.948	92.62
421.171	101.62
421.394	103.62
421.617	96.62
421.839	92.62
422.062	87.62
422.285	103.62
422.507	109.62
422.73	116.62
422.953	101.62
423.175	102.62
423.398	73.62
423.621	83.62
423.843	88.62
424.066	83.62
424.288	81.62
424.511	92.62
424.733	114.62
424.956	141.62
425.178	118.62
425.401	113.62
425.623	103.62
425.846	99.62
426.068	101.62
426.291	99.62
426.513	91.62
426.735	89.62
426.958	111.62
427.18	129.62
427.402	191.62
427.625	266.62
427.847	235.62
428.069	229.62
428.292	145.62
428.514	86.62
428.736	88.62
428.958	99.62
429.181	81.62
429.403	73.62
429.625	84.62
429.847	111.62
430.069	112.62
430.292	103.62
430.514	89.62
430.736	94.62
430.958	99.62
431.18	91.62
431.402	79.62
431.624	90.62
431.846	82.62
432.068	96.62
432.29	89.62
432.512	88.62
432.734	81.62
432.956	86.62
433.178	100.62
433.4	104.62
433.622	93.62
433.844	81.62
434.066	96.62
434.287	90.62
434.509	105.62
434.731	89.62
434.953	99.62
435.175	86.62
435.397	101.62
435.618	101.62
435.84	120.62
436.062	143.62
436.284	131.62
436.505	107.62
436.727	107.62
436.949	95.62
437.17	92.62
437.392	89.62
437.614	116.62
437.835	120.62
438.057	148.62
438.278	128.62
438.5	119.62
438.721	139.62
438.943	121.62
439.165	84.62
439.386	95.62
439.608	107.62
439.829	115.62
440.05	156.62
440.272	190.62
440.493	121.62
440.715	95.62
440.936	86.62
441.158	96.62
441.379	92.62
441.6	93.62
441.822	124.62
442.043	92.62
442.264	126.62
442.486	113.62
442.707	109.62
442.928	124.62
443.149	179.62
443.371	163.62
443.592	125.62
443.813	141.62
444.034	137.62
444.255	93.62
444.476	88.62
444.698	81.62
444.919	93.62
445.14	119.62
445.361	125.62
445.582	157.62
445.803	195.62
446.024	173.62
446.245	175.62
446.466	150.62
446.687	94.62
446.908	91.62
447.129	92.62
447.35	94.62
447.571	89.62
447.792	95.62
448.013	98.62
448.234	104.62
448.455	111.62
448.675	135.62
448.896	148.62
449.117	107.62
449.338	103.62
449.559	163.62
449.779	171.62
450	101.62
450.221	95.62
450.442	92.62
450.662	97.62
450.883	129.62
451.104	144.62
451.324	99.62
451.545	88.62
451.766	82.62
451.986	96.62
452.207	102.62
452.428	96.62
452.648	125.62
452.869	137.62
453.089	133.62
453.31	140.62
453.53	106.62
453.751	106.62
453.971	129.62
454.192	122.62
454.412	103.62
454.633	81.62
454.853	96.62
455.073	85.62
455.294	99.62
455.514	126.62
455.734	103.62
455.955	94.62
456.175	73.62
456.395	83.62
456.616	80.62
456.836	92.62
457.056	76.62
457.276	75.62
457.497	103.62
457.717	83.62
457.937	94.62
458.157	86.62
458.377	102.62
458.598	126.62
458.818	197.62
459.038	235.62
459.258	163.62
459.478	110.62
459.698	96.62
459.918	89.62
460.138	82.62
460.358	83.62
460.578	91.62
460.798	84.62
461.018	88.62
461.238	82.62
461.458	84.62
461.678	77.62
461.898	91.62
462.118	82.62
462.338	96.62
462.558	69.62
462.777	86.62
462.997	90.62
463.217	103.62
463.437	86.62
463.657	105.62
463.876	94.62
464.096	98.62
464.316	103.62
464.536	110.62
464.755	111.62
464.975	124.62
465.195	214.62
465.414	212.62
465.634	122.62
465.854	98.62
466.073	102.62
466.293	105.62
466.512	86.62
466.732	87.62
466.951	87.62
467.171	90.62
467.391	117.62
467.61	143.62
467.829	210.62
468.049	567.62
468.268	843.62
468.488	230.62
468.707	105.62
468.927	98.62
469.146	97.62
469.365	91.62
469.585	87.62
469.804	95.62
470.023	115.62
470.243	101.62
470.462	107.62
470.681	142.62
470.901	107.62
471.12	106.62
471.339	100.62
471.558	133.62
471.777	147.62
471.997	284.62
472.216	1034.62
472.435	2491.62
472.654	617.62
472.873	160.62
473.092	112.62
473.311	99.62
473.53	88.62
473.749	94.62
473.968	89.62
474.187	128.62
474.406	121.62
474.625	103.62
474.844	95.62
475.063	92.62
475.282	92.62
475.501	96.62
475.72	87.62
475.939	95.62
476.158	78.62
476.377	85.62
476.596	67.62
476.814	105.62
477.033	96.62
477.252	102.62
477.471	89.62
477.69	100.62
477.908	94.62
478.127	93.62
478.346	92.62
478.564	100.62
478.783	96.62
479.002	113.62
479.22	98.62
479.439	119.62
479.658	141.62
479.876	125.62
480.095	128.62
480.313	138.62
480.532	159.62
480.751	257.62
480.969	967.62
481.188	4134.62
481.406	2619.62
481.624	360.62
481.843	151.62
482.061	114.62
482.28	112.62
482.498	88.62
482.717	91.62
482.935	79.62
483.153	90.62
483.372	100.62
483.59	92.62
483.808	90.62
484.027	93.62
484.245	99.62
484.463	95.62
484.681	115.62
484.9	93.62
485.118	112.62
485.336	97.62
485.554	85.62
485.772	103.62
485.99	111.62
486.209	101.62
486.427	98.62
486.645	111.62
486.863	131.62
487.081	99.62
487.299	93.62
487.517	104.62
487.735	110.62
487.953	98.62
488.171	82.62
488.389	84.62
488.607	103.62
488.825	101.62
489.043	87.62
489.261	98.62
489.479	85.62
489.696	103.62
489.914	103.62
490.132	95.62
490.35	91.62
490.568	100.62
490.786	88.62
491.003	95.62
491.221	93.62
491.439	88.62
491.657	87.62
491.874	87.62
492.092	91.62
492.31	88.62
492.527	103.62
492.745	108.62
492.963	111.62
493.18	110.62
493.398	89.62
493.615	92.62
493.833	92.62
494.05	92.62
494.268	95.62
494.485	81.62
494.703	81.62
494.92	102.62
495.138	87.62
495.355	88.62
495.573	102.62
495.79	100.62
496.008	98.62
496.225	91.62
496.442	92.62
496.66	96.62
496.877	115.62
497.094	99.62
497.312	97.62
497.529	104.62
497.746	96.62
497.963	96.62
498.181	102.62
498.398	96.62
498.615	110.62
498.832	107.62
499.049	91.62
499.267	95.62
499.484	102.62
499.701	92.62
499.918	98.62
500.135	97.62
500.352	82.62
500.569	84.62
500.786	101.62
501.003	98.62
501.22	88.62
501.437	88.62
501.654	88.62
501.871	114.62
502.088	111.62
502.305	71.62
502.522	96.62
502.739	85.62
502.956	95.62
503.172	83.62
503.389	112.62
503.606	119.62
503.823	127.62
504.04	108.62
504.256	86.62
504.473	75.62
504.69	80.62
504.907	90.62
505.123	82.62
505.34	87.62
505.557	87.62
505.773	86.62
505.99	87.62
506.207	73.62
506.423	90.62
506.64	93.62
506.856	90.62
507.073	94.62
507.289	95.62
507.506	95.62
507.722	135.62
507.939	133.62
508.155	91.62
508.372	89.62
508.588	86.62
508.805	100.62
509.021	99.62
509.238	103.62
509.454	111.62
509.67	97.62
509.887	93.62
510.103	144.62
510.319	243.62
510.536	908.62
510.752	3085.62
510.968	864.62
511.184	179.62
511.401	132.62
511.617	112.62
511.833	116.62
512.049	100.62
512.265	89.62
512.481	92.62
512.698	96.62
512.914	96.62
513.13	97.62
513.346	101.62
513.562	90.62
513.778	90.62
513.994	90.62
514.21	115.62
514.426	163.62
514.642	154.62
514.858	143.62
515.074	211.62
515.29	649.62
515.506	2354.62
515.721	883.62
515.937	199.62
516.153	138.62
516.369	107.62
516.585	111.62
516.801	101.62
517.016	94.62
517.232	98.62
517.448	87.62
517.664	93.62
517.879	80.62
518.095	94.62
518.311	108.62
518.527	107.62
518.742	97.62
518.958	94.62
519.173	103.62
519.389	96.62
519.605	100.62
519.82	96.62
520.036	127.62
520.251	140.62
520.467	137.62
520.682	131.62
520.898	123.62
521.113	140.62
521.329	171.62
521.544	261.62
521.76	877.62
521.975	4047.62
522.19	2480.62
522.406	485.62
522.621	162.62
522.836	126.62
523.052	108.62
523.267	102.62
523.482	104.62
523.698	99.62
523.913	149.62
524.128	104.62
524.343	106.62
524.559	92.62
524.774	81.62
524.989	113.62
525.204	121.62
525.419	105.62
525.634	82.62
525.849	95.62
526.064	91.62
526.28	95.62
526.495	92.62
526.71	93.62
526.925	85.62
527.14	80.62
527.355	96.62
527.57	95.62
527.785	95.62
527.999	91.62
528.214	83.62
528.429	88.62
528.644	89.62
528.859	89.62
529.074	107.62
529.289	146.62
529.503	260.62
529.718	129.62
529.933	97.62
530.148	80.62
530.363	88.62
530.577	82.62
530.792	96.62
531.007	89.62
531.221	92.62
531.436	92.62
531.651	106.62
531.865	96.62
532.08	95.62
532.295	93.62
532.509	88.62
532.724	93.62
532.938	97.62
533.153	106.62
533.367	95.62
533.582	81.62
533.796	83.62
534.011	89.62
534.225	88.62
534.44	96.62
534.654	93.62
534.868	90.62
535.083	83.62
535.297	83.62
535.511	119.62
535.726	117.62
535.94	113.62
536.154	100.62
536.369	77.62
536.583	80.62
536.797	84.62
537.011	78.62
537.225	91.62
537.44	89.62
537.654	95.62
537.868	95.62
538.082	120.62
538.296	90.62
538.51	85.62
538.724	86.62
538.938	97.62
539.153	113.62
539.367	113.62
539.581	115.62
539.795	99.62
540.009	96.62
540.222	92.62
540.436	83.62
540.65	92.62
540.864	79.62
541.078	92.62
541.292	92.62
541.506	94.62
541.72	94.62
541.934	91.62
542.147	81.62
542.361	95.62
542.575	94.62
542.789	79.62
543.002	93.62
543.216	102.62
543.43	89.62
543.644	88.62
543.857	96.62
544.071	76.62
544.285	90.62
544.498	85.62
544.712	103.62
544.925	85.62
545.139	85.62
545.352	96.62
545.566	87.62
545.779	86.62
545.993	88.62
546.206	76.62
546.42	86.62
546.633	92.62
546.847	90.62
547.06	100.62
547.274	85.62
547.487	86.62
547.7	93.62
547.914	92.62
548.127	85.62
548.34	88.62
548.554	93.62
548.767	89.62
548.98	88.62
549.193	88.62
549.407	78.62
549.62	75.62
549.833	80.62
550.046	91.62
550.259	105.62
550.473	87.62
550.686	97.62
550.899	93.62
551.112	91.62
551.325	89.62
551.538	96.62
551.751	80.62
551.964	95.62
552.177	100.62
552.39	82.62
552.603	85.62
552.816	85.62
553.029	84.62
553.242	87.62
553.455	110.62
553.667	142.62
553.88	110.62
554.093	104.62
554.306	102.62
554.519	111.62
554.732	96.62
554.944	86.62
555.157	91.62
555.37	97.62
555.583	91.62
555.795	86.62
556.008	84.62
556.221	87.62
556.433	100.62
556.646	89.62
556.859	84.62
557.071	86.62
557.284	79.62
557.496	90.62
557.709	95.62
557.921	88.62
558.134	80.62
558.346	87.62
558.559	77.62
558.771	101.62
558.984	95.62
559.196	90.62
559.409	90.62
559.621	85.62
559.833	84.62
560.046	91.62
560.258	117.62
560.47	133.62
560.683	111.62
560.895	98.62
561.107	89.62
561.32	95.62
561.532	85.62
561.744	81.62
561.956	86.62
562.168	85.62
562.381	91.62
562.593	91.62
562.805	98.62
563.017	85.62
563.229	84.62
563.441	93.62
563.653	87.62
563.865	95.62
564.077	89.62
564.289	89.62
564.501	93.62
564.713	89.62
564.925	86.62
565.137	98.62
565.349	83.62
565.561	91.62
565.773	82.62
565.985	72.62
566.197	79.62
566.408	81.62
566.62	84.62
566.832	82.62
567.044	69.62
567.255	84.62
567.467	91.62
567.679	88.62
567.891	104.62
568.102	92.62
568.314	83.62
568.526	92.62
568.737	81.62
568.949	81.62
569.161	73.62
569.372	81.62
569.584	98.62
569.795	94.62
570.007	120.62
570.218	291.62
570.43	141.62
570.641	94.62
570.853	91.62
571.064	76.62
571.276	84.62
571.487	101.62
571.698	73.62
571.91	75.62
572.121	91.62
572.333	85.62
572.544	86.62
572.755	78.62
572.966	80.62
573.178	93.62
573.389	88.62
573.6	83.62
573.811	71.62
574.023	87.62
574.234	98.62
574.445	95.62
574.656	88.62
574.867	91.62
575.078	97.62
575.289	82.62
575.501	88.62
575.712	98.62
575.923	90.62
576.134	98.62
576.345	89.62
576.556	94.62
576.767	88.62
576.978	85.62
577.188	97.62
577.399	92.62
577.61	102.62
577.821	116.62
578.032	112.62
578.243	308.62
578.454	970.62
578.665	251.62
578.875	105.62
579.086	86.62
579.297	78.62
579.508	83.62
579.718	95.62
579.929	87.62
580.14	82.62
580.35	104.62
580.561	85.62
580.772	72.62
580.982	77.62
581.193	80.62
581.403	82.62
581.614	75.62
581.825	80.62
582.035	77.62
582.246	80.62
582.456	85.62
582.667	71.62
582.877	72.62
583.087	85.62
583.298	86.62
583.508	85.62
583.719	93.62
583.929	74.62
584.139	78.62
584.35	95.62
584.56	100.62
584.77	84.62
584.981	99.62
585.191	96.62
585.401	89.62
585.611	87.62
585.821	93.62
586.032	82.62
586.242	102.62
586.452	85.62
586.662	80.62
586.872	93.62
587.082	97.62
587.292	85.62
587.502	84.62
587.713	76.62
587.923	84.62
588.133	88.62
588.343	85.62
588.553	80.62
588.762	91.62
588.972	91.62
589.182	99.62
589.392	89.62
589.602	79.62
589.812	84.62
590.022	80.62
590.232	78.62
590.441	75.62
590.651	74.62
590.861	92.62
591.071	87.62
591.281	94.62
591.49	83.62
591.7	87.62
591.91	88.62
592.119	72.62
592.329	89.62
592.539	94.62
592.748	89.62
592.958	97.62
593.167	97.62
593.377	85.62
593.587	81.62
593.796	84.62
594.006	94.62
594.215	72.62
594.424	85.62
594.634	74.62
594.843	81.62
595.053	77.62
595.262	76.62
595.472	77.62
595.681	85.62
595.89	79.62
596.1	76.62
596.309	80.62
596.518	81.62
596.727	87.62
596.937	82.62
597.146	92.62
597.355	92.62
597.564	92.62
597.774	86.62
597.983	85.62
598.192	81.62
598.401	82.62
598.61	98.62
598.819	83.62
599.028	76.62
599.237	67.62
599.446	88.62
599.655	79.62
599.864	86.62
600.073	67.62
600.282	85.62
600.491	86.62
600.7	82.62
600.909	80.62
601.118	79.62
601.327	91.62
601.536	95.62
601.745	86.62
601.953	76.62
602.162	82.62
602.371	87.62
602.58	87.62
602.789	86.62
602.997	88.62
603.206	77.62
603.415	86.62
603.623	108.62
603.832	81.62
604.041	96.62
604.249	74.62
604.458	71.62
604.666	90.62
604.875	89.62
605.084	71.62
605.292	61.62
605.501	81.62
605.709	93.62
605.918	77.62
606.126	88.62
606.334	84.62
606.543	75.62
606.751	87.62
606.96	79.62
607.168	76.62
607.376	80.62
607.585	87.62
607.793	100.62
608.001	85.62
608.21	78.62
608.418	84.62
608.626	82.62
608.834	78.62
609.043	81.62
609.251	70.62
609.459	73.62
609.667	99.62
609.875	79.62
610.083	90.62
610.291	84.62
610.499	91.62
610.707	83.62
610.916	88.62
611.124	82.62
611.332	82.62
611.54	79.62
611.748	76.62
611.955	81.62
612.163	90.62
612.371	78.62
612.579	84.62
612.787	89.62
612.995	90.62
613.203	91.62
613.411	81.62
613.618	81.62
613.826	80.62
614.034	87.62
614.242	96.62
614.449	79.62
614.657	83.62
614.865	91.62
615.072	88.62
615.28	92.62
615.488	104.62
615.695	92.62
615.903	107.62
616.111	108.62
616.318	104.62
616.526	97.62
616.733	86.62
616.941	89.62
617.148	94.62
617.356	89.62
617.563	87.62
617.771	90.62
617.978	80.62
618.185	87.62
618.393	80.62
618.6	88.62
618.807	84.62
619.015	77.62
619.222	89.62
619.429	76.62
619.637	94.62
619.844	76.62
620.051	74.62
620.258	72.62
620.466	80.62
620.673	71.62
620.88	78.62
621.087	72.62
621.294	86.62
621.501	85.62
621.708	84.62
621.915	79.62
622.122	88.62
622.329	89.62
622.536	83.62
622.743	77.62
622.95	75.62
623.157	74.62
623.364	88.62
623.571	85.62
623.778	89.62
623.985	83.62
624.192	79.62
624.399	87.62
624.606	77.62
624.812	75.62
625.019	81.62
625.226	74.62
625.433	83.62
625.639	84.62
625.846	84.62
626.053	92.62
626.259	95.62
626.466	88.62
626.673	82.62
626.879	81.62
627.086	81.62
627.293	83.62
627.499	82.62
627.706	81.62
627.912	81.62
628.119	89.62
628.325	83.62
628.532	86.62
628.738	96.62
628.945	86.62
629.151	82.62
629.357	85.62
629.564	86.62
629.77	79.62
629.976	87.62
630.183	81.62
630.389	83.62
630.595	87.62
630.802	77.62
631.008	75.62
631.214	82.62
631.42	91.62
631.627	81.62
631.833	95.62
632.039	79.62
632.245	70.62
632.451	70.62
632.657	67.62
632.863	73.62
633.069	87.62
633.275	84.62
633.481	67.62
633.688	91.62
633.893	84.62
634.099	83.62
634.305	89.62
634.511	94.62
634.717	81.62
634.923	72.62
635.129	79.62
635.335	96.62
635.541	80.62
635.747	83.62
635.952	91.62
636.158	126.62
636.364	384.62
636.57	357.62
636.775	135.62
636.981	99.62
637.187	73.62
637.392	84.62
637.598	81.62
637.804	75.62
638.009	85.62
638.215	94.62
638.421	66.62
638.626	74.62
638.832	85.62
639.037	84.62
639.243	79.62
639.448	83.62
639.654	83.62
639.859	85.62
640.065	70.62
640.27	83.62
640.475	76.62
640.681	80.62
640.886	90.62
641.091	95.62
641.297	74.62
641.502	80.62
641.707	88.62
641.913	78.62
642.118	94.62
642.323	86.62
642.528	90.62
642.733	73.62
642.939	71.62
643.144	79.62
643.349	81.62
643.554	80.62
643.759	72.62
643.964	81.62
644.169	76.62
644.374	83.62
644.579	85.62
644.784	81.62
644.989	91.62
645.194	83.62
645.399	88.62
645.604	72.62
645.809	77.62
646.014	81.62
646.219	99.62
646.423	77.62
646.628	79.62
646.833	68.62
647.038	77.62
647.243	81.62
647.447	90.62
647.652	87.62
647.857	75.62
648.062	70.62
648.266	81.62
648.471	67.62
648.676	86.62
648.88	102.62
649.085	82.62
649.289	74.62
649.494	104.62
649.698	155.62
649.903	97.62
650.107	87.62
650.312	102.62
650.516	79.62
650.721	81.62
650.925	82.62
651.13	77.62
651.334	81.62
651.539	91.62
651.743	90.62
651.947	86.62
652.152	85.62
652.356	87.62
652.56	82.62
652.764	86.62
652.969	76.62
653.173	72.62
653.377	77.62
653.581	89.62
653.785	87.62
653.99	75.62
654.194	69.62
654.398	78.62
654.602	85.62
654.806	87.62
655.01	103.62
655.214	69.62
655.418	75.62
655.622	63.62
655.826	85.62
656.03	80.62
656.234	77.62
656.438	100.62
656.642	93.62
656.846	87.62
657.049	77.62
657.253	81.62
657.457	69.62
657.661	76.62
657.865	89.62
658.068	72.62
658.272	71.62
658.476	77.62
658.68	60.62
658.883	80.62
659.087	91.62
659.291	85.62
659.494	78.62
659.698	87.62
659.901	70.62
660.105	73.62
660.309	83.62
660.512	70.62
660.716	81.62
660.919	79.62
661.123	69.62
661.326	74.62
661.53	81.62
661.733	79.62
661.936	81.62
662.14	84.62
662.343	78.62
662.546	84.62
662.75	73.62
662.953	80.62
663.156	68.62
663.36	79.62
663.563	83.62
663.766	73.62
663.969	72.62
664.173	70.62
664.376	85.62
664.579	86.62
664.782	64.62
664.985	76.62
665.188	79.62
665.391	80.62
665.594	84.62
665.797	82.62
666	89.62
666.203	67.62
666.406	73.62
666.609	70.62
666.812	82.62
667.015	75.62
667.218	75.62
667.421	67.62
667.624	79.62
667.827	80.62
668.03	78.62
668.232	69.62
668.435	78.62
668.638	82.62
668.841	83.62
669.043	78.62
669.246	74.62
669.449	77.62
669.651	70.62
669.854	74.62
670.057	77.62
670.259	87.62
670.462	94.62
670.665	74.62
670.867	80.62
671.07	72.62
671.272	81.62
671.475	81.62
671.677	73.62
671.88	88.62
672.082	88.62
672.284	72.62
672.487	77.62
672.689	85.62
672.892	87.62
