Data from Circ_2023_H10_HRD10591_00061.txt Node
Date: Wed Jan 03 09:50:43 EST 2024
User: Yrep
Spectrometer: HR+D1059
Trigger mode: 1
Integration Time (sec): 1.000000E-1
Scans to average: 1
Electric dark correction enabled: true
Nonlinearity correction enabled: false
Boxcar width: 0
XAxis mode: Wavelengths
Number of Pixels in Spectrum: 2048
>>>>>Begin Spectral Data<<<<<
223.165	-27.12
223.4	-27.12
223.635	-27.12
223.869	-10.12
224.104	-27.12
224.338	-29.12
224.573	-20.12
224.808	-30.12
225.042	0.88
225.277	1.88
225.511	8.88
225.746	5.88
225.98	8.88
226.215	11.88
226.449	12.88
226.683	18.88
226.918	22.88
227.152	50.88
227.387	35.88
227.621	55.88
227.856	42.88
228.09	45.88
228.324	57.88
228.559	49.88
228.793	57.88
229.027	65.88
229.262	68.88
229.496	82.88
229.73	115.88
229.964	95.88
230.199	79.88
230.433	88.88
230.667	73.88
230.901	82.88
231.136	67.88
231.37	80.88
231.604	76.88
231.838	84.88
232.072	72.88
232.306	82.88
232.541	87.88
232.775	82.88
233.009	98.88
233.243	97.88
233.477	85.88
233.711	75.88
233.945	90.88
234.179	86.88
234.413	76.88
234.647	78.88
234.881	83.88
235.115	57.88
235.349	72.88
235.583	82.88
235.817	76.88
236.051	76.88
236.285	88.88
236.519	67.88
236.753	61.88
236.987	86.88
237.221	89.88
237.455	79.88
237.689	83.88
237.922	74.88
238.156	69.88
238.39	73.88
238.624	74.88
238.858	72.88
239.091	75.88
239.325	79.88
239.559	96.88
239.793	66.88
240.027	82.88
240.26	82.88
240.494	72.88
240.728	86.88
240.961	83.88
241.195	91.88
241.429	68.88
241.662	89.88
241.896	75.88
242.13	105.88
242.363	79.88
242.597	88.88
242.83	75.88
243.064	76.88
243.298	68.88
243.531	90.88
243.765	71.88
243.998	85.88
244.232	86.88
244.465	86.88
244.699	73.88
244.932	82.88
245.166	75.88
245.399	79.88
245.633	81.88
245.866	82.88
246.099	95.88
246.333	81.88
246.566	91.88
246.8	76.88
247.033	94.88
247.266	84.88
247.5	91.88
247.733	93.88
247.966	78.88
248.2	81.88
248.433	82.88
248.666	87.88
248.899	95.88
249.133	94.88
249.366	107.88
249.599	106.88
249.832	98.88
250.066	96.88
250.299	81.88
250.532	98.88
250.765	91.88
250.998	75.88
251.231	73.88
251.465	92.88
251.698	85.88
251.931	87.88
252.164	64.88
252.397	82.88
252.63	89.88
252.863	84.88
253.096	83.88
253.329	88.88
253.562	80.88
253.795	83.88
254.028	80.88
254.261	77.88
254.494	83.88
254.727	83.88
254.96	84.88
255.193	101.88
255.426	70.88
255.659	89.88
255.892	102.88
256.124	91.88
256.357	85.88
256.59	95.88
256.823	89.88
257.056	88.88
257.289	88.88
257.521	82.88
257.754	93.88
257.987	93.88
258.22	90.88
258.452	111.88
258.685	94.88
258.918	77.88
259.151	87.88
259.383	98.88
259.616	91.88
259.849	86.88
260.081	90.88
260.314	90.88
260.547	93.88
260.779	96.88
261.012	110.88
261.244	100.88
261.477	111.88
261.71	119.88
261.942	133.88
262.175	167.88
262.407	108.88
262.64	89.88
262.872	92.88
263.105	94.88
263.337	99.88
263.57	82.88
263.802	91.88
264.035	85.88
264.267	82.88
264.499	88.88
264.732	89.88
264.964	83.88
265.197	88.88
265.429	79.88
265.661	100.88
265.894	83.88
266.126	93.88
266.358	70.88
266.591	86.88
266.823	79.88
267.055	76.88
267.287	89.88
267.52	100.88
267.752	94.88
267.984	68.88
268.216	75.88
268.448	89.88
268.681	93.88
268.913	90.88
269.145	90.88
269.377	94.88
269.609	84.88
269.841	83.88
270.073	89.88
270.306	90.88
270.538	78.88
270.77	93.88
271.002	85.88
271.234	91.88
271.466	91.88
271.698	94.88
271.93	91.88
272.162	98.88
272.394	86.88
272.626	98.88
272.858	99.88
273.09	88.88
273.322	91.88
273.553	80.88
273.785	79.88
274.017	90.88
274.249	89.88
274.481	98.88
274.713	108.88
274.945	88.88
275.176	95.88
275.408	94.88
275.64	115.88
275.872	128.88
276.104	128.88
276.335	118.88
276.567	140.88
276.799	161.88
277.031	201.88
277.262	199.88
277.494	161.88
277.726	113.88
277.957	114.88
278.189	101.88
278.421	90.88
278.652	91.88
278.884	86.88
279.115	92.88
279.347	102.88
279.579	111.88
279.81	130.88
280.042	210.88
280.273	299.88
280.505	190.88
280.736	118.88
280.968	113.88
281.199	104.88
281.431	78.88
281.662	92.88
281.894	102.88
282.125	107.88
282.356	141.88
282.588	163.88
282.819	140.88
283.051	90.88
283.282	94.88
283.513	88.88
283.745	78.88
283.976	96.88
284.207	87.88
284.439	99.88
284.67	90.88
284.901	86.88
285.132	94.88
285.364	87.88
285.595	97.88
285.826	85.88
286.057	107.88
286.288	80.88
286.52	94.88
286.751	80.88
286.982	92.88
287.213	88.88
287.444	87.88
287.675	90.88
287.906	94.88
288.138	94.88
288.369	110.88
288.6	102.88
288.831	87.88
289.062	89.88
289.293	86.88
289.524	97.88
289.755	71.88
289.986	89.88
290.217	81.88
290.448	101.88
290.679	85.88
290.91	89.88
291.141	102.88
291.371	90.88
291.602	102.88
291.833	91.88
292.064	99.88
292.295	91.88
292.526	91.88
292.757	80.88
292.987	94.88
293.218	86.88
293.449	87.88
293.68	93.88
293.91	91.88
294.141	100.88
294.372	110.88
294.603	88.88
294.833	91.88
295.064	102.88
295.295	94.88
295.525	103.88
295.756	100.88
295.987	133.88
296.217	170.88
296.448	150.88
296.679	114.88
296.909	88.88
297.14	87.88
297.37	102.88
297.601	95.88
297.831	105.88
298.062	98.88
298.292	103.88
298.523	96.88
298.753	82.88
298.984	94.88
299.214	95.88
299.445	96.88
299.675	96.88
299.905	114.88
300.136	98.88
300.366	97.88
300.597	97.88
300.827	103.88
301.057	112.88
301.288	123.88
301.518	100.88
301.748	102.88
301.979	112.88
302.209	115.88
302.439	100.88
302.669	115.88
302.9	91.88
303.13	98.88
303.36	110.88
303.59	148.88
303.82	162.88
304.051	111.88
304.281	83.88
304.511	102.88
304.741	95.88
304.971	83.88
305.201	97.88
305.431	93.88
305.661	98.88
305.891	104.88
306.121	104.88
306.352	105.88
306.582	126.88
306.812	138.88
307.042	140.88
307.272	161.88
307.502	190.88
307.731	187.88
307.961	138.88
308.191	99.88
308.421	94.88
308.651	98.88
308.881	96.88
309.111	87.88
309.341	96.88
309.571	103.88
309.8	115.88
310.03	96.88
310.26	105.88
310.49	87.88
310.72	106.88
310.949	106.88
311.179	124.88
311.409	104.88
311.639	108.88
311.868	106.88
312.098	102.88
312.328	103.88
312.557	110.88
312.787	124.88
313.017	128.88
313.246	111.88
313.476	106.88
313.706	105.88
313.935	106.88
314.165	107.88
314.394	127.88
314.624	102.88
314.853	107.88
315.083	110.88
315.312	99.88
315.542	97.88
315.771	104.88
316.001	100.88
316.23	79.88
316.46	94.88
316.689	107.88
316.919	102.88
317.148	102.88
317.377	106.88
317.607	113.88
317.836	96.88
318.065	103.88
318.295	93.88
318.524	105.88
318.753	99.88
318.983	107.88
319.212	107.88
319.441	129.88
319.67	117.88
319.9	102.88
320.129	87.88
320.358	112.88
320.587	112.88
320.816	103.88
321.046	102.88
321.275	105.88
321.504	98.88
321.733	119.88
321.962	88.88
322.191	105.88
322.42	122.88
322.649	126.88
322.878	125.88
323.108	142.88
323.337	146.88
323.566	159.88
323.795	194.88
324.024	250.88
324.253	522.88
324.482	1102.88
324.71	2235.88
324.939	2978.88
325.168	1134.88
325.397	302.88
325.626	186.88
325.855	142.88
326.084	146.88
326.313	150.88
326.542	178.88
326.77	289.88
326.999	560.88
327.228	1160.88
327.457	2180.88
327.686	1787.88
327.914	614.88
328.143	599.88
328.372	788.88
328.6	436.88
328.829	209.88
329.058	210.88
329.287	219.88
329.515	204.88
329.744	284.88
329.972	524.88
330.201	1131.88
330.43	1666.88
330.658	743.88
330.887	315.88
331.115	212.88
331.344	132.88
331.572	145.88
331.801	146.88
332.03	120.88
332.258	117.88
332.486	124.88
332.715	111.88
332.943	117.88
333.172	146.88
333.4	148.88
333.629	164.88
333.857	235.88
334.085	473.88
334.314	1022.88
334.542	2079.88
334.771	1985.88
334.999	514.88
335.227	199.88
335.455	144.88
335.684	129.88
335.912	119.88
336.14	95.88
336.369	105.88
336.597	151.88
336.825	107.88
337.053	102.88
337.281	117.88
337.51	97.88
337.738	111.88
337.966	94.88
338.194	114.88
338.422	116.88
338.65	93.88
338.878	110.88
339.106	91.88
339.334	106.88
339.562	97.88
339.79	99.88
340.018	96.88
340.246	113.88
340.474	112.88
340.702	105.88
340.93	96.88
341.158	90.88
341.386	104.88
341.614	123.88
341.842	103.88
342.07	99.88
342.298	94.88
342.526	98.88
342.754	83.88
342.981	89.88
343.209	100.88
343.437	94.88
343.665	103.88
343.893	84.88
344.12	90.88
344.348	89.88
344.576	107.88
344.804	95.88
345.031	106.88
345.259	103.88
345.487	101.88
345.714	100.88
345.942	106.88
346.17	90.88
346.397	89.88
346.625	86.88
346.853	92.88
347.08	111.88
347.308	99.88
347.535	85.88
347.763	118.88
347.99	107.88
348.218	113.88
348.445	123.88
348.673	112.88
348.9	102.88
349.128	105.88
349.355	87.88
349.583	94.88
349.81	79.88
350.037	81.88
350.265	99.88
350.492	114.88
350.72	103.88
350.947	100.88
351.174	106.88
351.402	122.88
351.629	102.88
351.856	104.88
352.083	112.88
352.311	139.88
352.538	132.88
352.765	127.88
352.992	133.88
353.22	126.88
353.447	122.88
353.674	116.88
353.901	106.88
354.128	98.88
354.355	111.88
354.583	105.88
354.81	94.88
355.037	90.88
355.264	86.88
355.491	100.88
355.718	113.88
355.945	95.88
356.172	93.88
356.399	92.88
356.626	94.88
356.853	86.88
357.08	89.88
357.307	96.88
357.534	78.88
357.761	88.88
357.988	99.88
358.215	98.88
358.441	92.88
358.668	97.88
358.895	89.88
359.122	111.88
359.349	97.88
359.576	107.88
359.802	111.88
360.029	146.88
360.256	146.88
360.483	112.88
360.709	91.88
360.936	96.88
361.163	98.88
361.39	100.88
361.616	117.88
361.843	94.88
362.07	94.88
362.296	116.88
362.523	101.88
362.749	113.88
362.976	90.88
363.203	85.88
363.429	95.88
363.656	106.88
363.882	91.88
364.109	97.88
364.335	100.88
364.562	109.88
364.788	94.88
365.015	96.88
365.241	111.88
365.468	124.88
365.694	136.88
365.92	95.88
366.147	100.88
366.373	92.88
366.599	89.88
366.826	97.88
367.052	90.88
367.278	103.88
367.505	107.88
367.731	96.88
367.957	92.88
368.184	98.88
368.41	108.88
368.636	142.88
368.862	125.88
369.089	117.88
369.315	92.88
369.541	78.88
369.767	87.88
369.993	100.88
370.219	113.88
370.445	94.88
370.672	83.88
370.898	88.88
371.124	100.88
371.35	83.88
371.576	98.88
371.802	80.88
372.028	98.88
372.254	95.88
372.48	97.88
372.706	79.88
372.932	89.88
373.158	99.88
373.384	90.88
373.61	89.88
373.835	104.88
374.061	98.88
374.287	94.88
374.513	93.88
374.739	99.88
374.965	87.88
375.191	84.88
375.416	92.88
375.642	92.88
375.868	89.88
376.094	90.88
376.319	89.88
376.545	99.88
376.771	102.88
376.997	87.88
377.222	100.88
377.448	105.88
377.674	85.88
377.899	92.88
378.125	85.88
378.35	91.88
378.576	101.88
378.802	95.88
379.027	105.88
379.253	87.88
379.478	99.88
379.704	88.88
379.929	89.88
380.155	76.88
380.38	91.88
380.606	87.88
380.831	103.88
381.057	112.88
381.282	90.88
381.507	95.88
381.733	107.88
381.958	94.88
382.184	99.88
382.409	108.88
382.634	93.88
382.86	87.88
383.085	100.88
383.31	94.88
383.535	90.88
383.761	92.88
383.986	96.88
384.211	92.88
384.436	102.88
384.662	95.88
384.887	89.88
385.112	108.88
385.337	108.88
385.562	100.88
385.787	107.88
386.013	115.88
386.238	138.88
386.463	98.88
386.688	107.88
386.913	115.88
387.138	98.88
387.363	110.88
387.588	104.88
387.813	103.88
388.038	78.88
388.263	105.88
388.488	99.88
388.713	96.88
388.938	88.88
389.163	111.88
389.387	91.88
389.612	104.88
389.837	90.88
390.062	68.88
390.287	98.88
390.512	89.88
390.736	88.88
390.961	89.88
391.186	89.88
391.411	97.88
391.636	101.88
391.86	85.88
392.085	90.88
392.31	92.88
392.534	68.88
392.759	87.88
392.984	74.88
393.208	86.88
393.433	84.88
393.658	88.88
393.882	87.88
394.107	71.88
394.331	88.88
394.556	93.88
394.78	85.88
395.005	94.88
395.229	80.88
395.454	90.88
395.678	97.88
395.903	91.88
396.127	103.88
396.352	97.88
396.576	82.88
396.801	81.88
397.025	95.88
397.249	102.88
397.474	85.88
397.698	100.88
397.922	86.88
398.147	95.88
398.371	87.88
398.595	94.88
398.82	96.88
399.044	82.88
399.268	86.88
399.492	97.88
399.717	76.88
399.941	92.88
400.165	97.88
400.389	102.88
400.613	89.88
400.837	74.88
401.062	90.88
401.286	86.88
401.51	95.88
401.734	93.88
401.958	120.88
402.182	142.88
402.406	203.88
402.63	155.88
402.854	107.88
403.078	92.88
403.302	89.88
403.526	74.88
403.75	90.88
403.974	96.88
404.198	91.88
404.422	92.88
404.645	90.88
404.869	116.88
405.093	135.88
405.317	150.88
405.541	138.88
405.765	127.88
405.988	150.88
406.212	209.88
406.436	319.88
406.66	200.88
406.883	130.88
407.107	106.88
407.331	105.88
407.555	115.88
407.778	112.88
408.002	99.88
408.226	98.88
408.449	83.88
408.673	75.88
408.896	113.88
409.12	100.88
409.344	84.88
409.567	87.88
409.791	91.88
410.014	81.88
410.238	90.88
410.461	92.88
410.685	102.88
410.908	99.88
411.132	118.88
411.355	110.88
411.578	94.88
411.802	91.88
412.025	115.88
412.249	108.88
412.472	140.88
412.695	130.88
412.919	105.88
413.142	80.88
413.365	88.88
413.589	92.88
413.812	98.88
414.035	107.88
414.258	105.88
414.482	89.88
414.705	96.88
414.928	95.88
415.151	85.88
415.374	106.88
415.597	91.88
415.821	82.88
416.044	101.88
416.267	87.88
416.49	81.88
416.713	88.88
416.936	79.88
417.159	96.88
417.382	102.88
417.605	119.88
417.828	123.88
418.051	111.88
418.274	90.88
418.497	91.88
418.72	111.88
418.943	99.88
419.166	94.88
419.389	88.88
419.611	97.88
419.834	106.88
420.057	93.88
420.28	90.88
420.503	93.88
420.726	110.88
420.948	80.88
421.171	105.88
421.394	99.88
421.617	93.88
421.839	107.88
422.062	79.88
422.285	89.88
422.507	104.88
422.73	128.88
422.953	107.88
423.175	109.88
423.398	101.88
423.621	99.88
423.843	91.88
424.066	95.88
424.288	82.88
424.511	99.88
424.733	98.88
424.956	132.88
425.178	107.88
425.401	107.88
425.623	125.88
425.846	87.88
426.068	114.88
426.291	102.88
426.513	99.88
426.735	101.88
426.958	117.88
427.18	140.88
427.402	196.88
427.625	259.88
427.847	262.88
428.069	231.88
428.292	138.88
428.514	99.88
428.736	87.88
428.958	82.88
429.181	104.88
429.403	100.88
429.625	95.88
429.847	101.88
430.069	117.88
430.292	103.88
430.514	80.88
430.736	84.88
430.958	83.88
431.18	96.88
431.402	98.88
431.624	87.88
431.846	80.88
432.068	84.88
432.29	104.88
432.512	90.88
432.734	95.88
432.956	98.88
433.178	110.88
433.4	119.88
433.622	94.88
433.844	97.88
434.066	101.88
434.287	91.88
434.509	102.88
434.731	90.88
434.953	95.88
435.175	99.88
435.397	96.88
435.618	93.88
435.84	101.88
436.062	133.88
436.284	132.88
436.505	120.88
436.727	107.88
436.949	107.88
437.17	95.88
437.392	98.88
437.614	90.88
437.835	131.88
438.057	154.88
438.278	124.88
438.5	127.88
438.721	160.88
438.943	107.88
439.165	97.88
439.386	103.88
439.608	101.88
439.829	116.88
440.05	159.88
440.272	193.88
440.493	127.88
440.715	96.88
440.936	103.88
441.158	89.88
441.379	112.88
441.6	102.88
441.822	103.88
442.043	93.88
442.264	126.88
442.486	116.88
442.707	120.88
442.928	127.88
443.149	162.88
443.371	177.88
443.592	128.88
443.813	148.88
444.034	131.88
444.255	98.88
444.476	97.88
444.698	86.88
444.919	102.88
445.14	150.88
445.361	145.88
445.582	160.88
445.803	197.88
446.024	197.88
446.245	189.88
446.466	140.88
446.687	112.88
446.908	81.88
447.129	65.88
447.35	86.88
447.571	97.88
447.792	99.88
448.013	116.88
448.234	134.88
448.455	136.88
448.675	134.88
448.896	141.88
449.117	116.88
449.338	120.88
449.559	145.88
449.779	153.88
450	102.88
450.221	106.88
450.442	86.88
450.662	92.88
450.883	134.88
451.104	148.88
451.324	114.88
451.545	88.88
451.766	95.88
451.986	85.88
452.207	96.88
452.428	100.88
452.648	101.88
452.869	139.88
453.089	147.88
453.31	148.88
453.53	106.88
453.751	110.88
453.971	118.88
454.192	150.88
454.412	107.88
454.633	85.88
454.853	86.88
455.073	76.88
455.294	99.88
455.514	123.88
455.734	104.88
455.955	96.88
456.175	85.88
456.395	74.88
456.616	80.88
456.836	81.88
457.056	82.88
457.276	72.88
457.497	94.88
457.717	94.88
457.937	82.88
458.157	89.88
458.377	94.88
458.598	114.88
458.818	197.88
459.038	244.88
459.258	146.88
459.478	103.88
459.698	100.88
459.918	98.88
460.138	95.88
460.358	98.88
460.578	87.88
460.798	101.88
461.018	97.88
461.238	89.88
461.458	107.88
461.678	95.88
461.898	82.88
462.118	91.88
462.338	91.88
462.558	79.88
462.777	86.88
462.997	109.88
463.217	116.88
463.437	115.88
463.657	111.88
463.876	97.88
464.096	84.88
464.316	101.88
464.536	108.88
464.755	117.88
464.975	145.88
465.195	241.88
465.414	254.88
465.634	108.88
465.854	108.88
466.073	105.88
466.293	99.88
466.512	90.88
466.732	86.88
466.951	85.88
467.171	106.88
467.391	112.88
467.61	155.88
467.829	223.88
468.049	653.88
468.268	1015.88
468.488	265.88
468.707	119.88
468.927	99.88
469.146	95.88
469.365	93.88
469.585	97.88
469.804	113.88
470.023	116.88
470.243	107.88
470.462	130.88
470.681	139.88
470.901	113.88
471.12	116.88
471.339	134.88
471.558	128.88
471.777	186.88
471.997	321.88
472.216	1221.88
472.435	2956.88
472.654	715.88
472.873	192.88
473.092	113.88
473.311	93.88
473.53	89.88
473.749	108.88
473.968	122.88
474.187	125.88
474.406	121.88
474.625	94.88
474.844	94.88
475.063	84.88
475.282	87.88
475.501	103.88
475.72	91.88
475.939	89.88
476.158	91.88
476.377	105.88
476.596	84.88
476.814	101.88
477.033	97.88
477.252	105.88
477.471	101.88
477.69	105.88
477.908	89.88
478.127	99.88
478.346	98.88
478.564	102.88
478.783	107.88
479.002	105.88
479.22	117.88
479.439	136.88
479.658	157.88
479.876	121.88
480.095	128.88
480.313	138.88
480.532	171.88
480.751	305.88
480.969	1100.88
481.188	4814.88
481.406	3016.88
481.624	414.88
481.843	152.88
482.061	115.88
482.28	112.88
482.498	87.88
482.717	104.88
482.935	110.88
483.153	97.88
483.372	98.88
483.59	94.88
483.808	79.88
484.027	109.88
484.245	99.88
484.463	99.88
484.681	100.88
484.9	99.88
485.118	104.88
485.336	104.88
485.554	96.88
485.772	103.88
485.99	103.88
486.209	114.88
486.427	118.88
486.645	138.88
486.863	133.88
487.081	115.88
487.299	109.88
487.517	115.88
487.735	101.88
487.953	99.88
488.171	95.88
488.389	97.88
488.607	103.88
488.825	91.88
489.043	79.88
489.261	92.88
489.479	95.88
489.696	100.88
489.914	86.88
490.132	90.88
490.35	92.88
490.568	83.88
490.786	102.88
491.003	89.88
491.221	91.88
491.439	105.88
491.657	94.88
491.874	106.88
492.092	96.88
492.31	99.88
492.527	107.88
492.745	95.88
492.963	102.88
493.18	92.88
493.398	103.88
493.615	97.88
493.833	100.88
494.05	105.88
494.268	93.88
494.485	96.88
494.703	85.88
494.92	85.88
495.138	102.88
495.355	86.88
495.573	81.88
495.79	91.88
496.008	87.88
496.225	103.88
496.442	92.88
496.66	94.88
496.877	98.88
497.094	76.88
497.312	85.88
497.529	98.88
497.746	101.88
497.963	104.88
498.181	91.88
498.398	91.88
498.615	119.88
498.832	123.88
499.049	92.88
499.267	98.88
499.484	85.88
499.701	80.88
499.918	95.88
500.135	99.88
500.352	106.88
500.569	101.88
500.786	92.88
501.003	97.88
501.22	87.88
501.437	103.88
501.654	99.88
501.871	135.88
502.088	118.88
502.305	111.88
502.522	81.88
502.739	92.88
502.956	113.88
503.172	95.88
503.389	114.88
503.606	124.88
503.823	126.88
504.04	125.88
504.256	95.88
504.473	93.88
504.69	93.88
504.907	101.88
505.123	98.88
505.34	92.88
505.557	100.88
505.773	89.88
505.99	99.88
506.207	100.88
506.423	99.88
506.64	89.88
506.856	100.88
507.073	105.88
507.289	95.88
507.506	117.88
507.722	132.88
507.939	146.88
508.155	110.88
508.372	94.88
508.588	107.88
508.805	103.88
509.021	110.88
509.238	96.88
509.454	127.88
509.67	110.88
509.887	127.88
510.103	156.88
510.319	243.88
510.536	919.88
510.752	3280.88
510.968	929.88
511.184	202.88
511.401	145.88
511.617	111.88
511.833	124.88
512.049	115.88
512.265	114.88
512.481	87.88
512.698	92.88
512.914	111.88
513.13	100.88
513.346	98.88
513.562	114.88
513.778	126.88
513.994	104.88
514.21	123.88
514.426	138.88
514.642	190.88
514.858	161.88
515.074	233.88
515.29	730.88
515.506	2634.88
515.721	975.88
515.937	234.88
516.153	142.88
516.369	131.88
516.585	113.88
516.801	111.88
517.016	107.88
517.232	101.88
517.448	104.88
517.664	102.88
517.879	96.88
518.095	116.88
518.311	112.88
518.527	113.88
518.742	111.88
518.958	95.88
519.173	92.88
519.389	91.88
519.605	123.88
519.82	97.88
520.036	138.88
520.251	169.88
520.467	152.88
520.682	131.88
520.898	138.88
521.113	139.88
521.329	207.88
521.544	304.88
521.76	958.88
521.975	4458.88
522.19	2736.88
522.406	514.88
522.621	176.88
522.836	126.88
523.052	135.88
523.267	108.88
523.482	102.88
523.698	111.88
523.913	146.88
524.128	131.88
524.343	99.88
524.559	99.88
524.774	100.88
524.989	108.88
525.204	110.88
525.419	112.88
525.634	107.88
525.849	93.88
526.064	101.88
526.28	83.88
526.495	83.88
526.71	101.88
526.925	106.88
527.14	90.88
527.355	104.88
527.57	99.88
527.785	96.88
527.999	100.88
528.214	91.88
528.429	107.88
528.644	94.88
528.859	103.88
529.074	100.88
529.289	163.88
529.503	283.88
529.718	136.88
529.933	105.88
530.148	97.88
530.363	98.88
530.577	95.88
530.792	98.88
531.007	96.88
531.221	99.88
531.436	104.88
531.651	103.88
531.865	105.88
532.08	114.88
532.295	109.88
532.509	117.88
532.724	94.88
532.938	98.88
533.153	98.88
533.367	107.88
533.582	101.88
533.796	96.88
534.011	105.88
534.225	103.88
534.44	99.88
534.654	90.88
534.868	103.88
535.083	87.88
535.297	97.88
535.511	120.88
535.726	105.88
535.94	101.88
536.154	103.88
536.369	101.88
536.583	91.88
536.797	87.88
537.011	82.88
537.225	94.88
537.44	93.88
537.654	97.88
537.868	100.88
538.082	88.88
538.296	93.88
538.51	86.88
538.724	93.88
538.938	100.88
539.153	86.88
539.367	123.88
539.581	99.88
539.795	106.88
540.009	85.88
540.222	76.88
540.436	102.88
540.65	84.88
540.864	95.88
541.078	92.88
541.292	106.88
541.506	105.88
541.72	91.88
541.934	80.88
542.147	79.88
542.361	87.88
542.575	99.88
542.789	110.88
543.002	103.88
543.216	105.88
543.43	108.88
543.644	71.88
543.857	86.88
544.071	101.88
544.285	97.88
544.498	98.88
544.712	81.88
544.925	88.88
545.139	116.88
545.352	107.88
545.566	83.88
545.779	97.88
545.993	101.88
546.206	94.88
546.42	88.88
546.633	103.88
546.847	89.88
547.06	97.88
547.274	95.88
547.487	98.88
547.7	96.88
547.914	82.88
548.127	81.88
548.34	97.88
548.554	99.88
548.767	98.88
548.98	83.88
549.193	93.88
549.407	99.88
549.62	93.88
549.833	103.88
550.046	93.88
550.259	92.88
550.473	87.88
550.686	88.88
550.899	88.88
551.112	93.88
551.325	105.88
551.538	102.88
551.751	97.88
551.964	89.88
552.177	93.88
552.39	89.88
552.603	93.88
552.816	83.88
553.029	86.88
553.242	82.88
553.455	113.88
553.667	120.88
553.88	119.88
554.093	108.88
554.306	107.88
554.519	144.88
554.732	110.88
554.944	90.88
555.157	85.88
555.37	87.88
555.583	90.88
555.795	106.88
556.008	101.88
556.221	104.88
556.433	100.88
556.646	99.88
556.859	94.88
557.071	106.88
557.284	98.88
557.496	96.88
557.709	95.88
557.921	98.88
558.134	91.88
558.346	95.88
558.559	91.88
558.771	93.88
558.984	84.88
559.196	97.88
559.409	107.88
559.621	92.88
559.833	88.88
560.046	105.88
560.258	103.88
560.47	151.88
560.683	121.88
560.895	93.88
561.107	102.88
561.32	99.88
561.532	90.88
561.744	111.88
561.956	91.88
562.168	96.88
562.381	97.88
562.593	90.88
562.805	96.88
563.017	86.88
563.229	95.88
563.441	84.88
563.653	85.88
563.865	89.88
564.077	86.88
564.289	94.88
564.501	112.88
564.713	104.88
564.925	108.88
565.137	108.88
565.349	103.88
565.561	83.88
565.773	80.88
565.985	90.88
566.197	90.88
566.408	78.88
566.62	103.88
566.832	102.88
567.044	81.88
567.255	87.88
567.467	87.88
567.679	95.88
567.891	100.88
568.102	106.88
568.314	100.88
568.526	101.88
568.737	91.88
568.949	83.88
569.161	89.88
569.372	93.88
569.584	97.88
569.795	98.88
570.007	108.88
570.218	298.88
570.43	174.88
570.641	99.88
570.853	91.88
571.064	96.88
571.276	92.88
571.487	76.88
571.698	98.88
571.91	101.88
572.121	98.88
572.333	81.88
572.544	79.88
572.755	101.88
572.966	96.88
573.178	93.88
573.389	94.88
573.6	86.88
573.811	80.88
574.023	96.88
574.234	83.88
574.445	88.88
574.656	81.88
574.867	95.88
575.078	89.88
575.289	90.88
575.501	98.88
575.712	99.88
575.923	104.88
576.134	101.88
576.345	89.88
576.556	83.88
576.767	93.88
576.978	98.88
577.188	90.88
577.399	102.88
577.61	115.88
577.821	110.88
578.032	119.88
578.243	326.88
578.454	1026.88
578.665	278.88
578.875	117.88
579.086	74.88
579.297	90.88
579.508	84.88
579.718	97.88
579.929	89.88
580.14	83.88
580.35	86.88
580.561	94.88
580.772	75.88
580.982	89.88
581.193	83.88
581.403	80.88
581.614	87.88
581.825	92.88
582.035	97.88
582.246	88.88
582.456	99.88
582.667	99.88
582.877	89.88
583.087	105.88
583.298	93.88
583.508	87.88
583.719	90.88
583.929	103.88
584.139	87.88
584.35	83.88
584.56	93.88
584.77	104.88
584.981	87.88
585.191	92.88
585.401	84.88
585.611	88.88
585.821	83.88
586.032	89.88
586.242	99.88
586.452	86.88
586.662	89.88
586.872	79.88
587.082	91.88
587.292	83.88
587.502	106.88
587.713	94.88
587.923	83.88
588.133	99.88
588.343	94.88
588.553	89.88
588.762	90.88
588.972	97.88
589.182	87.88
589.392	91.88
589.602	103.88
589.812	85.88
590.022	98.88
590.232	89.88
590.441	94.88
590.651	82.88
590.861	83.88
591.071	80.88
591.281	86.88
591.49	81.88
591.7	91.88
591.91	96.88
592.119	97.88
592.329	90.88
592.539	101.88
592.748	97.88
592.958	86.88
593.167	93.88
593.377	103.88
593.587	100.88
593.796	92.88
594.006	76.88
594.215	82.88
594.424	92.88
594.634	89.88
594.843	94.88
595.053	102.88
595.262	91.88
595.472	102.88
595.681	92.88
595.89	90.88
596.1	97.88
596.309	90.88
596.518	95.88
596.727	74.88
596.937	103.88
597.146	87.88
597.355	90.88
597.564	82.88
597.774	92.88
597.983	93.88
598.192	79.88
598.401	91.88
598.61	89.88
598.819	84.88
599.028	91.88
599.237	106.88
599.446	85.88
599.655	79.88
599.864	87.88
600.073	87.88
600.282	88.88
600.491	95.88
600.7	90.88
600.909	87.88
601.118	104.88
601.327	82.88
601.536	88.88
601.745	89.88
601.953	85.88
602.162	103.88
602.371	87.88
602.58	82.88
602.789	81.88
602.997	88.88
603.206	95.88
603.415	89.88
603.623	87.88
603.832	95.88
604.041	99.88
604.249	88.88
604.458	71.88
604.666	92.88
604.875	81.88
605.084	95.88
605.292	82.88
605.501	88.88
605.709	89.88
605.918	87.88
606.126	89.88
606.334	84.88
606.543	90.88
606.751	98.88
606.96	68.88
607.168	99.88
607.376	75.88
607.585	87.88
607.793	99.88
608.001	79.88
608.21	81.88
608.418	93.88
608.626	93.88
608.834	87.88
609.043	95.88
609.251	93.88
609.459	79.88
609.667	95.88
609.875	94.88
610.083	73.88
610.291	88.88
610.499	82.88
610.707	96.88
610.916	91.88
611.124	92.88
611.332	92.88
611.54	103.88
611.748	83.88
611.955	88.88
612.163	89.88
612.371	84.88
612.579	79.88
612.787	95.88
612.995	96.88
613.203	95.88
613.411	87.88
613.618	82.88
613.826	86.88
614.034	86.88
614.242	93.88
614.449	88.88
614.657	100.88
614.865	80.88
615.072	85.88
615.28	90.88
615.488	94.88
615.695	94.88
615.903	83.88
616.111	91.88
616.318	89.88
616.526	95.88
616.733	87.88
616.941	94.88
617.148	86.88
617.356	83.88
617.563	93.88
617.771	87.88
617.978	90.88
618.185	86.88
618.393	99.88
618.6	90.88
618.807	74.88
619.015	75.88
619.222	82.88
619.429	90.88
619.637	74.88
619.844	86.88
620.051	87.88
620.258	101.88
620.466	89.88
620.673	74.88
620.88	103.88
621.087	79.88
621.294	81.88
621.501	85.88
621.708	95.88
621.915	94.88
622.122	79.88
622.329	82.88
622.536	87.88
622.743	67.88
622.95	93.88
623.157	81.88
623.364	97.88
623.571	83.88
623.778	67.88
623.985	94.88
624.192	73.88
624.399	91.88
624.606	82.88
624.812	86.88
625.019	82.88
625.226	100.88
625.433	84.88
625.639	92.88
625.846	93.88
626.053	85.88
626.259	68.88
626.466	99.88
626.673	81.88
626.879	87.88
627.086	87.88
627.293	92.88
627.499	81.88
627.706	103.88
627.912	87.88
628.119	95.88
628.325	90.88
628.532	88.88
628.738	81.88
628.945	68.88
629.151	85.88
629.357	83.88
629.564	79.88
629.77	87.88
629.976	81.88
630.183	89.88
630.389	85.88
630.595	80.88
630.802	111.88
631.008	102.88
631.214	93.88
631.42	75.88
631.627	101.88
631.833	92.88
632.039	87.88
632.245	90.88
632.451	76.88
632.657	84.88
632.863	91.88
633.069	77.88
633.275	93.88
633.481	75.88
633.688	82.88
633.893	83.88
634.099	76.88
634.305	84.88
634.511	92.88
634.717	90.88
634.923	89.88
635.129	97.88
635.335	94.88
635.541	92.88
635.747	102.88
635.952	120.88
636.158	145.88
636.364	462.88
636.57	390.88
636.775	146.88
636.981	106.88
637.187	96.88
637.392	91.88
637.598	83.88
637.804	85.88
638.009	90.88
638.215	83.88
638.421	86.88
638.626	88.88
638.832	95.88
639.037	83.88
639.243	82.88
639.448	76.88
639.654	92.88
639.859	80.88
640.065	90.88
640.27	100.88
640.475	88.88
640.681	85.88
640.886	89.88
641.091	82.88
641.297	98.88
641.502	80.88
641.707	64.88
641.913	71.88
642.118	96.88
642.323	83.88
642.528	85.88
642.733	89.88
642.939	88.88
643.144	82.88
643.349	73.88
643.554	89.88
643.759	79.88
643.964	90.88
644.169	94.88
644.374	92.88
644.579	91.88
644.784	88.88
644.989	88.88
645.194	79.88
645.399	85.88
645.604	84.88
645.809	88.88
646.014	82.88
646.219	93.88
646.423	84.88
646.628	104.88
646.833	80.88
647.038	75.88
647.243	84.88
647.447	90.88
647.652	88.88
647.857	80.88
648.062	95.88
648.266	80.88
648.471	76.88
648.676	94.88
648.88	97.88
649.085	92.88
649.289	110.88
649.494	106.88
649.698	153.88
649.903	100.88
650.107	89.88
650.312	88.88
650.516	87.88
650.721	82.88
650.925	78.88
651.13	87.88
651.334	91.88
651.539	84.88
651.743	84.88
651.947	85.88
652.152	94.88
652.356	94.88
652.56	98.88
652.764	72.88
652.969	81.88
653.173	82.88
653.377	78.88
653.581	87.88
653.785	83.88
653.99	103.88
654.194	92.88
654.398	80.88
654.602	83.88
654.806	95.88
655.01	107.88
655.214	88.88
655.418	84.88
655.622	102.88
655.826	88.88
656.03	85.88
656.234	101.88
656.438	90.88
656.642	90.88
656.846	85.88
657.049	91.88
657.253	78.88
657.457	88.88
657.661	76.88
657.865	82.88
658.068	81.88
658.272	102.88
658.476	88.88
658.68	89.88
658.883	70.88
659.087	94.88
659.291	81.88
659.494	79.88
659.698	87.88
659.901	83.88
660.105	73.88
660.309	93.88
660.512	103.88
660.716	98.88
660.919	86.88
661.123	87.88
661.326	80.88
661.53	77.88
661.733	84.88
661.936	76.88
662.14	76.88
662.343	84.88
662.546	96.88
662.75	79.88
662.953	78.88
663.156	86.88
663.36	88.88
663.563	71.88
663.766	89.88
663.969	73.88
664.173	88.88
664.376	86.88
664.579	78.88
664.782	80.88
664.985	74.88
665.188	93.88
665.391	99.88
665.594	70.88
665.797	71.88
666	81.88
666.203	76.88
666.406	76.88
666.609	74.88
666.812	90.88
667.015	84.88
667.218	96.88
667.421	83.88
667.624	88.88
667.827	92.88
668.03	96.88
668.232	73.88
668.435	84.88
668.638	75.88
668.841	86.88
669.043	84.88
669.246	92.88
669.449	76.88
669.651	66.88
669.854	83.88
670.057	83.88
670.259	83.88
670.462	79.88
670.665	74.88
670.867	84.88
671.07	94.88
671.272	84.88
671.475	89.88
671.677	91.88
671.88	86.88
672.082	87.88
672.284	82.88
672.487	76.88
672.689	74.88
672.892	85.88
