Data from Circ_2023_H10_HRD10591_00089.txt Node
Date: Wed Jan 03 09:50:48 EST 2024
User: Yrep
Spectrometer: HR+D1059
Trigger mode: 1
Integration Time (sec): 1.000000E-1
Scans to average: 1
Electric dark correction enabled: true
Nonlinearity correction enabled: false
Boxcar width: 0
XAxis mode: Wavelengths
Number of Pixels in Spectrum: 2048
>>>>>Begin Spectral Data<<<<<
223.165	-23.38
223.4	-23.38
223.635	-23.38
223.869	-11.38
224.104	-10.38
224.338	-14.38
224.573	-13.38
224.808	-30.38
225.042	-10.38
225.277	-16.38
225.511	9.62
225.746	-0.38
225.98	3.62
226.215	21.62
226.449	17.62
226.683	10.62
226.918	43.62
227.152	23.62
227.387	19.62
227.621	46.62
227.856	33.62
228.09	48.62
228.324	49.62
228.559	48.62
228.793	37.62
229.027	73.62
229.262	86.62
229.496	64.62
229.73	106.62
229.964	94.62
230.199	98.62
230.433	72.62
230.667	83.62
230.901	66.62
231.136	68.62
231.37	82.62
231.604	68.62
231.838	66.62
232.072	88.62
232.306	74.62
232.541	76.62
232.775	91.62
233.009	72.62
233.243	71.62
233.477	79.62
233.711	80.62
233.945	77.62
234.179	72.62
234.413	71.62
234.647	89.62
234.881	69.62
235.115	73.62
235.349	80.62
235.583	94.62
235.817	72.62
236.051	70.62
236.285	73.62
236.519	62.62
236.753	77.62
236.987	83.62
237.221	92.62
237.455	100.62
237.689	82.62
237.922	77.62
238.156	73.62
238.39	78.62
238.624	76.62
238.858	66.62
239.091	87.62
239.325	67.62
239.559	85.62
239.793	92.62
240.027	89.62
240.26	82.62
240.494	80.62
240.728	80.62
240.961	89.62
241.195	72.62
241.429	86.62
241.662	67.62
241.896	80.62
242.13	78.62
242.363	82.62
242.597	81.62
242.83	79.62
243.064	88.62
243.298	73.62
243.531	81.62
243.765	74.62
243.998	81.62
244.232	93.62
244.465	81.62
244.699	73.62
244.932	77.62
245.166	83.62
245.399	77.62
245.633	76.62
245.866	79.62
246.099	91.62
246.333	78.62
246.566	85.62
246.8	77.62
247.033	76.62
247.266	89.62
247.5	71.62
247.733	83.62
247.966	77.62
248.2	79.62
248.433	85.62
248.666	91.62
248.899	98.62
249.133	94.62
249.366	112.62
249.599	102.62
249.832	97.62
250.066	94.62
250.299	99.62
250.532	95.62
250.765	86.62
250.998	84.62
251.231	87.62
251.465	75.62
251.698	85.62
251.931	88.62
252.164	92.62
252.397	87.62
252.63	79.62
252.863	96.62
253.096	75.62
253.329	71.62
253.562	93.62
253.795	92.62
254.028	81.62
254.261	87.62
254.494	68.62
254.727	86.62
254.96	70.62
255.193	84.62
255.426	80.62
255.659	93.62
255.892	105.62
256.124	118.62
256.357	107.62
256.59	85.62
256.823	94.62
257.056	93.62
257.289	100.62
257.521	81.62
257.754	98.62
257.987	93.62
258.22	92.62
258.452	93.62
258.685	101.62
258.918	81.62
259.151	77.62
259.383	88.62
259.616	84.62
259.849	90.62
260.081	88.62
260.314	87.62
260.547	90.62
260.779	100.62
261.012	123.62
261.244	114.62
261.477	104.62
261.71	103.62
261.942	134.62
262.175	143.62
262.407	102.62
262.64	103.62
262.872	85.62
263.105	73.62
263.337	90.62
263.57	84.62
263.802	90.62
264.035	78.62
264.267	71.62
264.499	81.62
264.732	81.62
264.964	83.62
265.197	86.62
265.429	79.62
265.661	108.62
265.894	83.62
266.126	71.62
266.358	65.62
266.591	86.62
266.823	69.62
267.055	83.62
267.287	93.62
267.52	81.62
267.752	103.62
267.984	96.62
268.216	82.62
268.448	85.62
268.681	93.62
268.913	94.62
269.145	84.62
269.377	82.62
269.609	74.62
269.841	83.62
270.073	84.62
270.306	93.62
270.538	92.62
270.77	92.62
271.002	92.62
271.234	91.62
271.466	99.62
271.698	91.62
271.93	92.62
272.162	85.62
272.394	91.62
272.626	87.62
272.858	101.62
273.09	94.62
273.322	77.62
273.553	79.62
273.785	92.62
274.017	86.62
274.249	80.62
274.481	84.62
274.713	79.62
274.945	100.62
275.176	99.62
275.408	111.62
275.64	139.62
275.872	141.62
276.104	116.62
276.335	109.62
276.567	112.62
276.799	159.62
277.031	213.62
277.262	255.62
277.494	176.62
277.726	116.62
277.957	82.62
278.189	106.62
278.421	86.62
278.652	96.62
278.884	91.62
279.115	77.62
279.347	98.62
279.579	98.62
279.81	165.62
280.042	249.62
280.273	347.62
280.505	231.62
280.736	136.62
280.968	109.62
281.199	81.62
281.431	105.62
281.662	101.62
281.894	91.62
282.125	117.62
282.356	136.62
282.588	152.62
282.819	124.62
283.051	95.62
283.282	79.62
283.513	84.62
283.745	99.62
283.976	84.62
284.207	99.62
284.439	86.62
284.67	85.62
284.901	102.62
285.132	95.62
285.364	92.62
285.595	93.62
285.826	95.62
286.057	92.62
286.288	92.62
286.52	85.62
286.751	89.62
286.982	90.62
287.213	87.62
287.444	72.62
287.675	89.62
287.906	97.62
288.138	84.62
288.369	109.62
288.6	99.62
288.831	85.62
289.062	76.62
289.293	84.62
289.524	89.62
289.755	88.62
289.986	97.62
290.217	100.62
290.448	73.62
290.679	88.62
290.91	91.62
291.141	90.62
291.371	80.62
291.602	83.62
291.833	80.62
292.064	84.62
292.295	87.62
292.526	84.62
292.757	91.62
292.987	77.62
293.218	86.62
293.449	86.62
293.68	86.62
293.91	92.62
294.141	98.62
294.372	95.62
294.603	90.62
294.833	81.62
295.064	87.62
295.295	84.62
295.525	93.62
295.756	109.62
295.987	126.62
296.217	153.62
296.448	143.62
296.679	96.62
296.909	98.62
297.14	75.62
297.37	90.62
297.601	92.62
297.831	93.62
298.062	90.62
298.292	89.62
298.523	91.62
298.753	87.62
298.984	92.62
299.214	71.62
299.445	101.62
299.675	99.62
299.905	98.62
300.136	91.62
300.366	95.62
300.597	85.62
300.827	96.62
301.057	109.62
301.288	115.62
301.518	98.62
301.748	115.62
301.979	112.62
302.209	96.62
302.439	93.62
302.669	95.62
302.9	104.62
303.13	95.62
303.36	102.62
303.59	142.62
303.82	152.62
304.051	115.62
304.281	92.62
304.511	90.62
304.741	81.62
304.971	103.62
305.201	102.62
305.431	96.62
305.661	93.62
305.891	81.62
306.121	90.62
306.352	113.62
306.582	114.62
306.812	108.62
307.042	153.62
307.272	183.62
307.502	213.62
307.731	196.62
307.961	130.62
308.191	82.62
308.421	103.62
308.651	98.62
308.881	107.62
309.111	101.62
309.341	94.62
309.571	98.62
309.8	104.62
310.03	106.62
310.26	92.62
310.49	115.62
310.72	96.62
310.949	100.62
311.179	118.62
311.409	97.62
311.639	98.62
311.868	90.62
312.098	98.62
312.328	98.62
312.557	127.62
312.787	121.62
313.017	123.62
313.246	109.62
313.476	97.62
313.706	94.62
313.935	103.62
314.165	118.62
314.394	112.62
314.624	109.62
314.853	116.62
315.083	109.62
315.312	86.62
315.542	98.62
315.771	86.62
316.001	89.62
316.23	94.62
316.46	88.62
316.689	107.62
316.919	88.62
317.148	95.62
317.377	99.62
317.607	107.62
317.836	87.62
318.065	97.62
318.295	94.62
318.524	90.62
318.753	89.62
318.983	99.62
319.212	100.62
319.441	115.62
319.67	124.62
319.9	108.62
320.129	94.62
320.358	92.62
320.587	83.62
320.816	109.62
321.046	103.62
321.275	119.62
321.504	105.62
321.733	94.62
321.962	96.62
322.191	108.62
322.42	132.62
322.649	132.62
322.878	121.62
323.108	121.62
323.337	141.62
323.566	168.62
323.795	192.62
324.024	266.62
324.253	530.62
324.482	1140.62
324.71	2344.62
324.939	3091.62
325.168	1102.62
325.397	315.62
325.626	182.62
325.855	152.62
326.084	149.62
326.313	162.62
326.542	185.62
326.77	311.62
326.999	626.62
327.228	1263.62
327.457	2261.62
327.686	1839.62
327.914	677.62
328.143	705.62
328.372	940.62
328.6	517.62
328.829	219.62
329.058	210.62
329.287	239.62
329.515	221.62
329.744	337.62
329.972	702.62
330.201	1496.62
330.43	2172.62
330.658	931.62
330.887	343.62
331.115	206.62
331.344	130.62
331.572	128.62
331.801	161.62
332.03	138.62
332.258	108.62
332.486	124.62
332.715	115.62
332.943	124.62
333.172	135.62
333.4	149.62
333.629	182.62
333.857	303.62
334.085	607.62
334.314	1382.62
334.542	2755.62
334.771	2546.62
334.999	624.62
335.227	222.62
335.455	147.62
335.684	126.62
335.912	95.62
336.14	116.62
336.369	114.62
336.597	122.62
336.825	128.62
337.053	97.62
337.281	93.62
337.51	92.62
337.738	97.62
337.966	92.62
338.194	125.62
338.422	110.62
338.65	89.62
338.878	86.62
339.106	83.62
339.334	102.62
339.562	108.62
339.79	100.62
340.018	88.62
340.246	113.62
340.474	107.62
340.702	93.62
340.93	87.62
341.158	94.62
341.386	93.62
341.614	97.62
341.842	84.62
342.07	107.62
342.298	98.62
342.526	93.62
342.754	93.62
342.981	91.62
343.209	83.62
343.437	91.62
343.665	86.62
343.893	93.62
344.12	65.62
344.348	88.62
344.576	100.62
344.804	100.62
345.031	99.62
345.259	101.62
345.487	96.62
345.714	115.62
345.942	93.62
346.17	97.62
346.397	87.62
346.625	84.62
346.853	87.62
347.08	85.62
347.308	87.62
347.535	93.62
347.763	116.62
347.99	99.62
348.218	113.62
348.445	114.62
348.673	102.62
348.9	97.62
349.128	94.62
349.355	78.62
349.583	104.62
349.81	79.62
350.037	105.62
350.265	113.62
350.492	96.62
350.72	98.62
350.947	111.62
351.174	102.62
351.402	107.62
351.629	109.62
351.856	122.62
352.083	112.62
352.311	114.62
352.538	127.62
352.765	131.62
352.992	115.62
353.22	107.62
353.447	94.62
353.674	94.62
353.901	95.62
354.128	96.62
354.355	99.62
354.583	93.62
354.81	92.62
355.037	96.62
355.264	98.62
355.491	89.62
355.718	88.62
355.945	94.62
356.172	93.62
356.399	92.62
356.626	84.62
356.853	86.62
357.08	86.62
357.307	104.62
357.534	101.62
357.761	85.62
357.988	85.62
358.215	88.62
358.441	96.62
358.668	88.62
358.895	72.62
359.122	85.62
359.349	93.62
359.576	91.62
359.802	111.62
360.029	141.62
360.256	125.62
360.483	115.62
360.709	102.62
360.936	92.62
361.163	107.62
361.39	97.62
361.616	94.62
361.843	111.62
362.07	108.62
362.296	113.62
362.523	96.62
362.749	100.62
362.976	99.62
363.203	91.62
363.429	93.62
363.656	84.62
363.882	79.62
364.109	104.62
364.335	87.62
364.562	98.62
364.788	98.62
365.015	100.62
365.241	108.62
365.468	116.62
365.694	116.62
365.92	111.62
366.147	91.62
366.373	99.62
366.599	101.62
366.826	91.62
367.052	98.62
367.278	103.62
367.505	100.62
367.731	108.62
367.957	92.62
368.184	94.62
368.41	123.62
368.636	114.62
368.862	110.62
369.089	99.62
369.315	116.62
369.541	102.62
369.767	91.62
369.993	88.62
370.219	87.62
370.445	86.62
370.672	81.62
370.898	94.62
371.124	84.62
371.35	89.62
371.576	87.62
371.802	90.62
372.028	100.62
372.254	91.62
372.48	94.62
372.706	74.62
372.932	82.62
373.158	85.62
373.384	98.62
373.61	85.62
373.835	79.62
374.061	79.62
374.287	86.62
374.513	103.62
374.739	88.62
374.965	94.62
375.191	78.62
375.416	84.62
375.642	88.62
375.868	89.62
376.094	88.62
376.319	84.62
376.545	61.62
376.771	74.62
376.997	99.62
377.222	79.62
377.448	87.62
377.674	78.62
377.899	86.62
378.125	85.62
378.35	96.62
378.576	83.62
378.802	80.62
379.027	90.62
379.253	97.62
379.478	95.62
379.704	90.62
379.929	88.62
380.155	86.62
380.38	78.62
380.606	93.62
380.831	101.62
381.057	91.62
381.282	84.62
381.507	84.62
381.733	94.62
381.958	91.62
382.184	87.62
382.409	93.62
382.634	94.62
382.86	98.62
383.085	96.62
383.31	88.62
383.535	94.62
383.761	91.62
383.986	98.62
384.211	85.62
384.436	92.62
384.662	82.62
384.887	102.62
385.112	94.62
385.337	98.62
385.562	99.62
385.787	109.62
386.013	102.62
386.238	103.62
386.463	104.62
386.688	104.62
386.913	97.62
387.138	93.62
387.363	80.62
387.588	93.62
387.813	94.62
388.038	88.62
388.263	102.62
388.488	88.62
388.713	84.62
388.938	86.62
389.163	98.62
389.387	84.62
389.612	86.62
389.837	96.62
390.062	86.62
390.287	72.62
390.512	89.62
390.736	99.62
390.961	94.62
391.186	81.62
391.411	93.62
391.636	95.62
391.86	65.62
392.085	90.62
392.31	78.62
392.534	101.62
392.759	87.62
392.984	94.62
393.208	80.62
393.433	80.62
393.658	83.62
393.882	88.62
394.107	72.62
394.331	86.62
394.556	94.62
394.78	105.62
395.005	93.62
395.229	95.62
395.454	87.62
395.678	80.62
395.903	97.62
396.127	83.62
396.352	99.62
396.576	87.62
396.801	99.62
397.025	90.62
397.249	64.62
397.474	98.62
397.698	79.62
397.922	90.62
398.147	82.62
398.371	94.62
398.595	81.62
398.82	87.62
399.044	89.62
399.268	77.62
399.492	86.62
399.717	92.62
399.941	104.62
400.165	98.62
400.389	97.62
400.613	103.62
400.837	88.62
401.062	85.62
401.286	92.62
401.51	94.62
401.734	96.62
401.958	111.62
402.182	145.62
402.406	193.62
402.63	150.62
402.854	98.62
403.078	100.62
403.302	96.62
403.526	82.62
403.75	91.62
403.974	85.62
404.198	84.62
404.422	94.62
404.645	86.62
404.869	114.62
405.093	133.62
405.317	176.62
405.541	168.62
405.765	124.62
405.988	143.62
406.212	208.62
406.436	283.62
406.66	206.62
406.883	128.62
407.107	121.62
407.331	101.62
407.555	118.62
407.778	112.62
408.002	115.62
408.226	103.62
408.449	107.62
408.673	93.62
408.896	96.62
409.12	101.62
409.344	94.62
409.567	87.62
409.791	81.62
410.014	99.62
410.238	85.62
410.461	75.62
410.685	101.62
410.908	107.62
411.132	130.62
411.355	112.62
411.578	102.62
411.802	95.62
412.025	106.62
412.249	111.62
412.472	133.62
412.695	178.62
412.919	129.62
413.142	114.62
413.365	102.62
413.589	88.62
413.812	94.62
414.035	97.62
414.258	108.62
414.482	93.62
414.705	89.62
414.928	104.62
415.151	86.62
415.374	110.62
415.597	80.62
415.821	98.62
416.044	112.62
416.267	95.62
416.49	91.62
416.713	66.62
416.936	92.62
417.159	103.62
417.382	99.62
417.605	119.62
417.828	107.62
418.051	100.62
418.274	95.62
418.497	91.62
418.72	89.62
418.943	82.62
419.166	75.62
419.389	72.62
419.611	110.62
419.834	87.62
420.057	100.62
420.28	99.62
420.503	87.62
420.726	97.62
420.948	94.62
421.171	123.62
421.394	112.62
421.617	97.62
421.839	103.62
422.062	85.62
422.285	96.62
422.507	104.62
422.73	110.62
422.953	97.62
423.175	95.62
423.398	87.62
423.621	98.62
423.843	86.62
424.066	89.62
424.288	99.62
424.511	94.62
424.733	112.62
424.956	135.62
425.178	111.62
425.401	124.62
425.623	109.62
425.846	93.62
426.068	92.62
426.291	100.62
426.513	86.62
426.735	113.62
426.958	97.62
427.18	136.62
427.402	186.62
427.625	300.62
427.847	285.62
428.069	292.62
428.292	161.62
428.514	118.62
428.736	98.62
428.958	96.62
429.181	96.62
429.403	95.62
429.625	84.62
429.847	101.62
430.069	131.62
430.292	100.62
430.514	95.62
430.736	90.62
430.958	99.62
431.18	75.62
431.402	94.62
431.624	79.62
431.846	84.62
432.068	98.62
432.29	95.62
432.512	93.62
432.734	112.62
432.956	95.62
433.178	108.62
433.4	104.62
433.622	90.62
433.844	83.62
434.066	90.62
434.287	92.62
434.509	90.62
434.731	74.62
434.953	92.62
435.175	94.62
435.397	98.62
435.618	98.62
435.84	119.62
436.062	152.62
436.284	147.62
436.505	105.62
436.727	115.62
436.949	93.62
437.17	90.62
437.392	100.62
437.614	101.62
437.835	136.62
438.057	165.62
438.278	142.62
438.5	131.62
438.721	163.62
438.943	128.62
439.165	95.62
439.386	88.62
439.608	97.62
439.829	114.62
440.05	177.62
440.272	219.62
440.493	126.62
440.715	100.62
440.936	94.62
441.158	82.62
441.379	93.62
441.6	105.62
441.822	109.62
442.043	121.62
442.264	132.62
442.486	128.62
442.707	97.62
442.928	123.62
443.149	164.62
443.371	190.62
443.592	149.62
443.813	131.62
444.034	137.62
444.255	83.62
444.476	86.62
444.698	94.62
444.919	86.62
445.14	124.62
445.361	137.62
445.582	143.62
445.803	210.62
446.024	206.62
446.245	176.62
446.466	126.62
446.687	87.62
446.908	99.62
447.129	85.62
447.35	92.62
447.571	101.62
447.792	105.62
448.013	124.62
448.234	137.62
448.455	128.62
448.675	149.62
448.896	168.62
449.117	120.62
449.338	129.62
449.559	150.62
449.779	189.62
450	114.62
450.221	99.62
450.442	94.62
450.662	86.62
450.883	119.62
451.104	144.62
451.324	105.62
451.545	94.62
451.766	89.62
451.986	83.62
452.207	101.62
452.428	95.62
452.648	111.62
452.869	139.62
453.089	137.62
453.31	155.62
453.53	109.62
453.751	108.62
453.971	120.62
454.192	120.62
454.412	104.62
454.633	89.62
454.853	94.62
455.073	92.62
455.294	102.62
455.514	111.62
455.734	103.62
455.955	96.62
456.175	76.62
456.395	80.62
456.616	90.62
456.836	84.62
457.056	81.62
457.276	84.62
457.497	107.62
457.717	91.62
457.937	99.62
458.157	82.62
458.377	112.62
458.598	141.62
458.818	221.62
459.038	235.62
459.258	148.62
459.478	107.62
459.698	84.62
459.918	92.62
460.138	75.62
460.358	98.62
460.578	80.62
460.798	92.62
461.018	82.62
461.238	91.62
461.458	95.62
461.678	84.62
461.898	92.62
462.118	76.62
462.338	96.62
462.558	90.62
462.777	95.62
462.997	99.62
463.217	125.62
463.437	103.62
463.657	99.62
463.876	94.62
464.096	87.62
464.316	93.62
464.536	110.62
464.755	113.62
464.975	123.62
465.195	238.62
465.414	244.62
465.634	114.62
465.854	85.62
466.073	83.62
466.293	96.62
466.512	94.62
466.732	98.62
466.951	96.62
467.171	113.62
467.391	112.62
467.61	162.62
467.829	258.62
468.049	785.62
468.268	1256.62
468.488	293.62
468.707	129.62
468.927	110.62
469.146	112.62
469.365	90.62
469.585	100.62
469.804	101.62
470.023	120.62
470.243	111.62
470.462	127.62
470.681	145.62
470.901	116.62
471.12	94.62
471.339	111.62
471.558	125.62
471.777	178.62
471.997	398.62
472.216	1576.62
472.435	3717.62
472.654	880.62
472.873	208.62
473.092	121.62
473.311	115.62
473.53	89.62
473.749	87.62
473.968	107.62
474.187	138.62
474.406	126.62
474.625	96.62
474.844	95.62
475.063	70.62
475.282	95.62
475.501	86.62
475.72	91.62
475.939	82.62
476.158	84.62
476.377	85.62
476.596	100.62
476.814	99.62
477.033	114.62
477.252	100.62
477.471	98.62
477.69	96.62
477.908	92.62
478.127	93.62
478.346	102.62
478.564	101.62
478.783	115.62
479.002	117.62
479.22	114.62
479.439	120.62
479.658	135.62
479.876	122.62
480.095	134.62
480.313	157.62
480.532	188.62
480.751	379.62
480.969	1384.62
481.188	6205.62
481.406	3800.62
481.624	503.62
481.843	152.62
482.061	133.62
482.28	114.62
482.498	109.62
482.717	99.62
482.935	102.62
483.153	97.62
483.372	98.62
483.59	97.62
483.808	90.62
484.027	91.62
484.245	89.62
484.463	96.62
484.681	103.62
484.9	109.62
485.118	93.62
485.336	98.62
485.554	104.62
485.772	103.62
485.99	98.62
486.209	100.62
486.427	111.62
486.645	127.62
486.863	132.62
487.081	116.62
487.299	88.62
487.517	100.62
487.735	103.62
487.953	88.62
488.171	99.62
488.389	97.62
488.607	108.62
488.825	91.62
489.043	102.62
489.261	80.62
489.479	87.62
489.696	92.62
489.914	84.62
490.132	93.62
490.35	95.62
490.568	91.62
490.786	91.62
491.003	103.62
491.221	94.62
491.439	120.62
491.657	104.62
491.874	92.62
492.092	86.62
492.31	109.62
492.527	119.62
492.745	132.62
492.963	98.62
493.18	77.62
493.398	95.62
493.615	101.62
493.833	94.62
494.05	86.62
494.268	94.62
494.485	97.62
494.703	86.62
494.92	93.62
495.138	84.62
495.355	83.62
495.573	84.62
495.79	91.62
496.008	76.62
496.225	82.62
496.442	94.62
496.66	105.62
496.877	92.62
497.094	107.62
497.312	90.62
497.529	78.62
497.746	105.62
497.963	92.62
498.181	102.62
498.398	107.62
498.615	120.62
498.832	125.62
499.049	113.62
499.267	101.62
499.484	95.62
499.701	101.62
499.918	85.62
500.135	88.62
500.352	107.62
500.569	95.62
500.786	93.62
501.003	103.62
501.22	96.62
501.437	93.62
501.654	98.62
501.871	133.62
502.088	85.62
502.305	80.62
502.522	96.62
502.739	102.62
502.956	89.62
503.172	93.62
503.389	92.62
503.606	135.62
503.823	115.62
504.04	94.62
504.256	104.62
504.473	105.62
504.69	104.62
504.907	100.62
505.123	95.62
505.34	84.62
505.557	95.62
505.773	93.62
505.99	83.62
506.207	108.62
506.423	92.62
506.64	92.62
506.856	87.62
507.073	102.62
507.289	81.62
507.506	104.62
507.722	138.62
507.939	141.62
508.155	117.62
508.372	110.62
508.588	93.62
508.805	100.62
509.021	84.62
509.238	103.62
509.454	108.62
509.67	112.62
509.887	107.62
510.103	123.62
510.319	229.62
510.536	897.62
510.752	3004.62
510.968	865.62
511.184	205.62
511.401	133.62
511.617	133.62
511.833	127.62
512.049	110.62
512.265	103.62
512.481	109.62
512.698	97.62
512.914	99.62
513.13	92.62
513.346	90.62
513.562	99.62
513.778	109.62
513.994	107.62
514.21	103.62
514.426	140.62
514.642	171.62
514.858	164.62
515.074	229.62
515.29	689.62
515.506	2413.62
515.721	915.62
515.937	211.62
516.153	135.62
516.369	127.62
516.585	122.62
516.801	121.62
517.016	127.62
517.232	105.62
517.448	95.62
517.664	92.62
517.879	104.62
518.095	113.62
518.311	124.62
518.527	120.62
518.742	101.62
518.958	91.62
519.173	82.62
519.389	82.62
519.605	100.62
519.82	101.62
520.036	122.62
520.251	155.62
520.467	129.62
520.682	113.62
520.898	121.62
521.113	150.62
521.329	183.62
521.544	313.62
521.76	930.62
521.975	4053.62
522.19	2492.62
522.406	495.62
522.621	177.62
522.836	121.62
523.052	109.62
523.267	99.62
523.482	102.62
523.698	121.62
523.913	141.62
524.128	105.62
524.343	95.62
524.559	91.62
524.774	99.62
524.989	119.62
525.204	132.62
525.419	112.62
525.634	103.62
525.849	86.62
526.064	92.62
526.28	90.62
526.495	84.62
526.71	99.62
526.925	94.62
527.14	88.62
527.355	84.62
527.57	107.62
527.785	88.62
527.999	91.62
528.214	99.62
528.429	96.62
528.644	91.62
528.859	100.62
529.074	109.62
529.289	150.62
529.503	292.62
529.718	115.62
529.933	86.62
530.148	93.62
530.363	98.62
530.577	84.62
530.792	101.62
531.007	98.62
531.221	98.62
531.436	100.62
531.651	97.62
531.865	85.62
532.08	91.62
532.295	99.62
532.509	100.62
532.724	89.62
532.938	92.62
533.153	93.62
533.367	107.62
533.582	91.62
533.796	69.62
534.011	94.62
534.225	91.62
534.44	84.62
534.654	90.62
534.868	104.62
535.083	100.62
535.297	102.62
535.511	110.62
535.726	121.62
535.94	103.62
536.154	99.62
536.369	100.62
536.583	83.62
536.797	109.62
537.011	99.62
537.225	94.62
537.44	90.62
537.654	88.62
537.868	98.62
538.082	104.62
538.296	92.62
538.51	90.62
538.724	86.62
538.938	80.62
539.153	96.62
539.367	136.62
539.581	101.62
539.795	86.62
540.009	89.62
540.222	83.62
540.436	80.62
540.65	93.62
540.864	80.62
541.078	99.62
541.292	72.62
541.506	81.62
541.72	96.62
541.934	100.62
542.147	76.62
542.361	98.62
542.575	92.62
542.789	94.62
543.002	98.62
543.216	89.62
543.43	96.62
543.644	94.62
543.857	91.62
544.071	96.62
544.285	89.62
544.498	95.62
544.712	95.62
544.925	87.62
545.139	89.62
545.352	87.62
545.566	91.62
545.779	94.62
545.993	70.62
546.206	80.62
546.42	99.62
546.633	98.62
546.847	82.62
547.06	95.62
547.274	91.62
547.487	83.62
547.7	95.62
547.914	92.62
548.127	87.62
548.34	88.62
548.554	95.62
548.767	88.62
548.98	90.62
549.193	103.62
549.407	83.62
549.62	92.62
549.833	96.62
550.046	96.62
550.259	92.62
550.473	82.62
550.686	87.62
550.899	95.62
551.112	94.62
551.325	103.62
551.538	113.62
551.751	101.62
551.964	86.62
552.177	83.62
552.39	108.62
552.603	82.62
552.816	82.62
553.029	98.62
553.242	93.62
553.455	99.62
553.667	121.62
553.88	123.62
554.093	108.62
554.306	120.62
554.519	125.62
554.732	110.62
554.944	98.62
555.157	94.62
555.37	99.62
555.583	95.62
555.795	101.62
556.008	91.62
556.221	91.62
556.433	83.62
556.646	96.62
556.859	94.62
557.071	97.62
557.284	95.62
557.496	86.62
557.709	87.62
557.921	86.62
558.134	91.62
558.346	94.62
558.559	100.62
558.771	81.62
558.984	82.62
559.196	97.62
559.409	76.62
559.621	80.62
559.833	103.62
560.046	112.62
560.258	126.62
560.47	168.62
560.683	109.62
560.895	97.62
561.107	103.62
561.32	88.62
561.532	81.62
561.744	99.62
561.956	96.62
562.168	103.62
562.381	105.62
562.593	100.62
562.805	86.62
563.017	85.62
563.229	87.62
563.441	97.62
563.653	77.62
563.865	75.62
564.077	84.62
564.289	93.62
564.501	88.62
564.713	78.62
564.925	84.62
565.137	118.62
565.349	113.62
565.561	84.62
565.773	95.62
565.985	93.62
566.197	85.62
566.408	90.62
566.62	91.62
566.832	82.62
567.044	92.62
567.255	88.62
567.467	76.62
567.679	85.62
567.891	89.62
568.102	76.62
568.314	91.62
568.526	92.62
568.737	91.62
568.949	93.62
569.161	78.62
569.372	90.62
569.584	80.62
569.795	102.62
570.007	113.62
570.218	273.62
570.43	142.62
570.641	77.62
570.853	88.62
571.064	83.62
571.276	92.62
571.487	80.62
571.698	83.62
571.91	85.62
572.121	78.62
572.333	88.62
572.544	84.62
572.755	79.62
572.966	82.62
573.178	80.62
573.389	97.62
573.6	93.62
573.811	80.62
574.023	88.62
574.234	85.62
574.445	76.62
574.656	75.62
574.867	88.62
575.078	89.62
575.289	94.62
575.501	84.62
575.712	96.62
575.923	95.62
576.134	82.62
576.345	92.62
576.556	87.62
576.767	96.62
576.978	90.62
577.188	79.62
577.399	100.62
577.61	99.62
577.821	110.62
578.032	113.62
578.243	293.62
578.454	927.62
578.665	229.62
578.875	105.62
579.086	91.62
579.297	78.62
579.508	94.62
579.718	97.62
579.929	96.62
580.14	88.62
580.35	93.62
580.561	81.62
580.772	93.62
580.982	94.62
581.193	91.62
581.403	87.62
581.614	82.62
581.825	85.62
582.035	93.62
582.246	98.62
582.456	88.62
582.667	88.62
582.877	87.62
583.087	99.62
583.298	84.62
583.508	78.62
583.719	80.62
583.929	103.62
584.139	97.62
584.35	95.62
584.56	92.62
584.77	69.62
584.981	83.62
585.191	78.62
585.401	86.62
585.611	97.62
585.821	92.62
586.032	81.62
586.242	83.62
586.452	79.62
586.662	78.62
586.872	86.62
587.082	83.62
587.292	75.62
587.502	87.62
587.713	78.62
587.923	87.62
588.133	98.62
588.343	89.62
588.553	99.62
588.762	86.62
588.972	93.62
589.182	79.62
589.392	94.62
589.602	97.62
589.812	97.62
590.022	92.62
590.232	90.62
590.441	92.62
590.651	84.62
590.861	69.62
591.071	82.62
591.281	84.62
591.49	88.62
591.7	88.62
591.91	82.62
592.119	86.62
592.329	82.62
592.539	85.62
592.748	83.62
592.958	90.62
593.167	91.62
593.377	84.62
593.587	107.62
593.796	86.62
594.006	83.62
594.215	75.62
594.424	84.62
594.634	87.62
594.843	72.62
595.053	74.62
595.262	87.62
595.472	97.62
595.681	88.62
595.89	88.62
596.1	80.62
596.309	93.62
596.518	77.62
596.727	81.62
596.937	87.62
597.146	95.62
597.355	80.62
597.564	94.62
597.774	85.62
597.983	87.62
598.192	88.62
598.401	78.62
598.61	81.62
598.819	84.62
599.028	84.62
599.237	77.62
599.446	78.62
599.655	91.62
599.864	92.62
600.073	70.62
600.282	86.62
600.491	76.62
600.7	80.62
600.909	86.62
601.118	67.62
601.327	89.62
601.536	98.62
601.745	94.62
601.953	88.62
602.162	81.62
602.371	93.62
602.58	78.62
602.789	92.62
602.997	94.62
603.206	83.62
603.415	86.62
603.623	68.62
603.832	87.62
604.041	84.62
604.249	82.62
604.458	87.62
604.666	75.62
604.875	89.62
605.084	69.62
605.292	82.62
605.501	79.62
605.709	83.62
605.918	79.62
606.126	81.62
606.334	77.62
606.543	98.62
606.751	84.62
606.96	92.62
607.168	90.62
607.376	84.62
607.585	84.62
607.793	94.62
608.001	80.62
608.21	70.62
608.418	77.62
608.626	68.62
608.834	96.62
609.043	96.62
609.251	97.62
609.459	91.62
609.667	74.62
609.875	102.62
610.083	97.62
610.291	87.62
610.499	80.62
610.707	90.62
610.916	79.62
611.124	98.62
611.332	86.62
611.54	90.62
611.748	88.62
611.955	93.62
612.163	78.62
612.371	81.62
612.579	74.62
612.787	87.62
612.995	77.62
613.203	79.62
613.411	92.62
613.618	76.62
613.826	73.62
614.034	64.62
614.242	84.62
614.449	91.62
614.657	80.62
614.865	98.62
615.072	95.62
615.28	78.62
615.488	96.62
615.695	87.62
615.903	95.62
616.111	101.62
616.318	89.62
616.526	97.62
616.733	99.62
616.941	94.62
617.148	67.62
617.356	86.62
617.563	83.62
617.771	85.62
617.978	79.62
618.185	79.62
618.393	83.62
618.6	91.62
618.807	79.62
619.015	77.62
619.222	80.62
619.429	82.62
619.637	77.62
619.844	76.62
620.051	81.62
620.258	84.62
620.466	80.62
620.673	103.62
620.88	89.62
621.087	86.62
621.294	93.62
621.501	81.62
621.708	72.62
621.915	87.62
622.122	91.62
622.329	75.62
622.536	74.62
622.743	83.62
622.95	80.62
623.157	82.62
623.364	79.62
623.571	83.62
623.778	87.62
623.985	91.62
624.192	82.62
624.399	88.62
624.606	98.62
624.812	80.62
625.019	91.62
625.226	88.62
625.433	95.62
625.639	85.62
625.846	81.62
626.053	80.62
626.259	85.62
626.466	70.62
626.673	75.62
626.879	90.62
627.086	109.62
627.293	96.62
627.499	83.62
627.706	71.62
627.912	85.62
628.119	77.62
628.325	72.62
628.532	78.62
628.738	73.62
628.945	74.62
629.151	96.62
629.357	80.62
629.564	83.62
629.77	99.62
629.976	73.62
630.183	77.62
630.389	86.62
630.595	71.62
630.802	86.62
631.008	81.62
631.214	65.62
631.42	90.62
631.627	92.62
631.833	91.62
632.039	86.62
632.245	78.62
632.451	72.62
632.657	78.62
632.863	77.62
633.069	79.62
633.275	84.62
633.481	84.62
633.688	88.62
633.893	82.62
634.099	79.62
634.305	82.62
634.511	89.62
634.717	89.62
634.923	84.62
635.129	84.62
635.335	79.62
635.541	92.62
635.747	99.62
635.952	111.62
636.158	173.62
636.364	513.62
636.57	483.62
636.775	163.62
636.981	114.62
637.187	104.62
637.392	95.62
637.598	79.62
637.804	88.62
638.009	87.62
638.215	97.62
638.421	85.62
638.626	85.62
638.832	79.62
639.037	85.62
639.243	82.62
639.448	65.62
639.654	99.62
639.859	79.62
640.065	84.62
640.27	83.62
640.475	80.62
640.681	72.62
640.886	85.62
641.091	95.62
641.297	96.62
641.502	89.62
641.707	83.62
641.913	89.62
642.118	86.62
642.323	89.62
642.528	79.62
642.733	93.62
642.939	84.62
643.144	97.62
643.349	100.62
643.554	88.62
643.759	82.62
643.964	73.62
644.169	80.62
644.374	75.62
644.579	79.62
644.784	87.62
644.989	79.62
645.194	79.62
645.399	89.62
645.604	90.62
645.809	81.62
646.014	99.62
646.219	88.62
646.423	84.62
646.628	101.62
646.833	87.62
647.038	88.62
647.243	83.62
647.447	79.62
647.652	86.62
647.857	85.62
648.062	86.62
648.266	84.62
648.471	91.62
648.676	95.62
648.88	85.62
649.085	90.62
649.289	83.62
649.494	99.62
649.698	130.62
649.903	116.62
650.107	76.62
650.312	79.62
650.516	75.62
650.721	81.62
650.925	76.62
651.13	79.62
651.334	77.62
651.539	88.62
651.743	80.62
651.947	86.62
652.152	85.62
652.356	81.62
652.56	77.62
652.764	77.62
652.969	88.62
653.173	88.62
653.377	66.62
653.581	72.62
653.785	91.62
653.99	73.62
654.194	80.62
654.398	76.62
654.602	77.62
654.806	93.62
655.01	116.62
655.214	101.62
655.418	79.62
655.622	89.62
655.826	88.62
656.03	89.62
656.234	83.62
656.438	100.62
656.642	98.62
656.846	84.62
657.049	81.62
657.253	78.62
657.457	80.62
657.661	85.62
657.865	75.62
658.068	78.62
658.272	89.62
658.476	79.62
658.68	80.62
658.883	76.62
659.087	82.62
659.291	80.62
659.494	84.62
659.698	78.62
659.901	94.62
660.105	81.62
660.309	61.62
660.512	82.62
660.716	78.62
660.919	92.62
661.123	93.62
661.326	78.62
661.53	89.62
661.733	91.62
661.936	79.62
662.14	75.62
662.343	67.62
662.546	82.62
662.75	64.62
662.953	71.62
663.156	68.62
663.36	91.62
663.563	63.62
663.766	63.62
663.969	81.62
664.173	71.62
664.376	88.62
664.579	72.62
664.782	79.62
664.985	84.62
665.188	84.62
665.391	84.62
665.594	86.62
665.797	84.62
666	70.62
666.203	89.62
666.406	81.62
666.609	80.62
666.812	85.62
667.015	88.62
667.218	92.62
667.421	78.62
667.624	83.62
667.827	76.62
668.03	74.62
668.232	72.62
668.435	82.62
668.638	80.62
668.841	73.62
669.043	79.62
669.246	82.62
669.449	82.62
669.651	74.62
669.854	75.62
670.057	79.62
670.259	87.62
670.462	87.62
670.665	84.62
670.867	80.62
671.07	77.62
671.272	85.62
671.475	80.62
671.677	80.62
671.88	89.62
672.082	82.62
672.284	84.62
672.487	92.62
672.689	80.62
672.892	80.62
