Data from Circ_1997_H10_HRD10591_00075.txt Node
Date: Wed Jan 03 11:29:42 EST 2024
User: Yrep
Spectrometer: HR+D1059
Trigger mode: 1
Integration Time (sec): 1.000000E-1
Scans to average: 1
Electric dark correction enabled: true
Nonlinearity correction enabled: false
Boxcar width: 0
XAxis mode: Wavelengths
Number of Pixels in Spectrum: 2048
>>>>>Begin Spectral Data<<<<<
223.165	-23.44
223.4	-23.44
223.635	-23.44
223.869	-15.44
224.104	-27.44
224.338	-8.44
224.573	-15.44
224.808	-18.44
225.042	1.56
225.277	-0.44
225.511	-10.44
225.746	-4.44
225.98	9.56
226.215	10.56
226.449	25.56
226.683	19.56
226.918	18.56
227.152	38.56
227.387	38.56
227.621	46.56
227.856	56.56
228.09	39.56
228.324	45.56
228.559	37.56
228.793	45.56
229.027	61.56
229.262	75.56
229.496	94.56
229.73	93.56
229.964	87.56
230.199	78.56
230.433	70.56
230.667	86.56
230.901	79.56
231.136	74.56
231.37	86.56
231.604	75.56
231.838	73.56
232.072	78.56
232.306	78.56
232.541	79.56
232.775	80.56
233.009	89.56
233.243	81.56
233.477	78.56
233.711	97.56
233.945	76.56
234.179	68.56
234.413	89.56
234.647	76.56
234.881	72.56
235.115	82.56
235.349	79.56
235.583	69.56
235.817	65.56
236.051	72.56
236.285	79.56
236.519	72.56
236.753	87.56
236.987	85.56
237.221	84.56
237.455	101.56
237.689	76.56
237.922	84.56
238.156	85.56
238.39	64.56
238.624	76.56
238.858	73.56
239.091	72.56
239.325	74.56
239.559	86.56
239.793	77.56
240.027	80.56
240.26	75.56
240.494	89.56
240.728	76.56
240.961	86.56
241.195	87.56
241.429	84.56
241.662	85.56
241.896	81.56
242.13	86.56
242.363	76.56
242.597	72.56
242.83	77.56
243.064	78.56
243.298	87.56
243.531	68.56
243.765	84.56
243.998	80.56
244.232	78.56
244.465	89.56
244.699	81.56
244.932	77.56
245.166	72.56
245.399	70.56
245.633	93.56
245.866	80.56
246.099	79.56
246.333	75.56
246.566	92.56
246.8	82.56
247.033	86.56
247.266	77.56
247.5	84.56
247.733	83.56
247.966	93.56
248.2	82.56
248.433	70.56
248.666	92.56
248.899	77.56
249.133	93.56
249.366	104.56
249.599	104.56
249.832	88.56
250.066	84.56
250.299	96.56
250.532	93.56
250.765	94.56
250.998	89.56
251.231	81.56
251.465	91.56
251.698	89.56
251.931	85.56
252.164	83.56
252.397	75.56
252.63	80.56
252.863	87.56
253.096	82.56
253.329	90.56
253.562	85.56
253.795	92.56
254.028	85.56
254.261	86.56
254.494	67.56
254.727	90.56
254.96	79.56
255.193	86.56
255.426	80.56
255.659	93.56
255.892	93.56
256.124	94.56
256.357	87.56
256.59	76.56
256.823	63.56
257.056	94.56
257.289	84.56
257.521	90.56
257.754	90.56
257.987	88.56
258.22	91.56
258.452	95.56
258.685	99.56
258.918	75.56
259.151	94.56
259.383	84.56
259.616	95.56
259.849	88.56
260.081	95.56
260.314	81.56
260.547	94.56
260.779	112.56
261.012	113.56
261.244	122.56
261.477	105.56
261.71	109.56
261.942	153.56
262.175	152.56
262.407	92.56
262.64	87.56
262.872	81.56
263.105	85.56
263.337	94.56
263.57	90.56
263.802	89.56
264.035	89.56
264.267	79.56
264.499	95.56
264.732	84.56
264.964	80.56
265.197	57.56
265.429	100.56
265.661	78.56
265.894	85.56
266.126	85.56
266.358	79.56
266.591	88.56
266.823	98.56
267.055	94.56
267.287	87.56
267.52	104.56
267.752	81.56
267.984	80.56
268.216	87.56
268.448	84.56
268.681	83.56
268.913	78.56
269.145	97.56
269.377	91.56
269.609	78.56
269.841	80.56
270.073	89.56
270.306	96.56
270.538	96.56
270.77	89.56
271.002	86.56
271.234	106.56
271.466	95.56
271.698	95.56
271.93	96.56
272.162	94.56
272.394	74.56
272.626	90.56
272.858	87.56
273.09	95.56
273.322	93.56
273.553	92.56
273.785	89.56
274.017	90.56
274.249	95.56
274.481	94.56
274.713	90.56
274.945	108.56
275.176	105.56
275.408	114.56
275.64	119.56
275.872	138.56
276.104	116.56
276.335	95.56
276.567	131.56
276.799	173.56
277.031	199.56
277.262	218.56
277.494	162.56
277.726	107.56
277.957	97.56
278.189	82.56
278.421	89.56
278.652	98.56
278.884	84.56
279.115	97.56
279.347	92.56
279.579	106.56
279.81	135.56
280.042	209.56
280.273	316.56
280.505	214.56
280.736	110.56
280.968	90.56
281.199	92.56
281.431	85.56
281.662	89.56
281.894	81.56
282.125	98.56
282.356	154.56
282.588	198.56
282.819	153.56
283.051	94.56
283.282	91.56
283.513	95.56
283.745	82.56
283.976	100.56
284.207	83.56
284.439	83.56
284.67	90.56
284.901	82.56
285.132	82.56
285.364	77.56
285.595	87.56
285.826	96.56
286.057	81.56
286.288	99.56
286.52	78.56
286.751	92.56
286.982	94.56
287.213	85.56
287.444	91.56
287.675	95.56
287.906	99.56
288.138	98.56
288.369	97.56
288.6	91.56
288.831	81.56
289.062	86.56
289.293	83.56
289.524	86.56
289.755	86.56
289.986	82.56
290.217	90.56
290.448	97.56
290.679	92.56
290.91	76.56
291.141	80.56
291.371	77.56
291.602	86.56
291.833	91.56
292.064	100.56
292.295	85.56
292.526	90.56
292.757	103.56
292.987	86.56
293.218	75.56
293.449	84.56
293.68	91.56
293.91	91.56
294.141	86.56
294.372	73.56
294.603	77.56
294.833	81.56
295.064	88.56
295.295	85.56
295.525	72.56
295.756	117.56
295.987	136.56
296.217	196.56
296.448	173.56
296.679	98.56
296.909	80.56
297.14	100.56
297.37	96.56
297.601	93.56
297.831	91.56
298.062	98.56
298.292	88.56
298.523	93.56
298.753	94.56
298.984	98.56
299.214	83.56
299.445	103.56
299.675	105.56
299.905	105.56
300.136	101.56
300.366	82.56
300.597	87.56
300.827	96.56
301.057	108.56
301.288	113.56
301.518	116.56
301.748	107.56
301.979	119.56
302.209	98.56
302.439	108.56
302.669	92.56
302.9	99.56
303.13	102.56
303.36	108.56
303.59	154.56
303.82	148.56
304.051	111.56
304.281	100.56
304.511	94.56
304.741	99.56
304.971	97.56
305.201	91.56
305.431	85.56
305.661	95.56
305.891	75.56
306.121	98.56
306.352	111.56
306.582	133.56
306.812	121.56
307.042	138.56
307.272	180.56
307.502	215.56
307.731	190.56
307.961	125.56
308.191	102.56
308.421	96.56
308.651	94.56
308.881	93.56
309.111	94.56
309.341	104.56
309.571	92.56
309.8	103.56
310.03	112.56
310.26	113.56
310.49	89.56
310.72	116.56
310.949	133.56
311.179	120.56
311.409	105.56
311.639	102.56
311.868	103.56
312.098	104.56
312.328	112.56
312.557	118.56
312.787	138.56
313.017	104.56
313.246	103.56
313.476	84.56
313.706	102.56
313.935	116.56
314.165	115.56
314.394	114.56
314.624	103.56
314.853	111.56
315.083	106.56
315.312	93.56
315.542	80.56
315.771	101.56
316.001	97.56
316.23	104.56
316.46	92.56
316.689	98.56
316.919	100.56
317.148	97.56
317.377	86.56
317.607	114.56
317.836	119.56
318.065	96.56
318.295	85.56
318.524	91.56
318.753	86.56
318.983	98.56
319.212	110.56
319.441	138.56
319.67	128.56
319.9	105.56
320.129	78.56
320.358	92.56
320.587	97.56
320.816	110.56
321.046	117.56
321.275	119.56
321.504	98.56
321.733	97.56
321.962	93.56
322.191	112.56
322.42	121.56
322.649	129.56
322.878	119.56
323.108	120.56
323.337	148.56
323.566	154.56
323.795	201.56
324.024	278.56
324.253	499.56
324.482	1064.56
324.71	2210.56
324.939	2820.56
325.168	1038.56
325.397	306.56
325.626	176.56
325.855	152.56
326.084	150.56
326.313	158.56
326.542	184.56
326.77	274.56
326.999	543.56
327.228	1089.56
327.457	2032.56
327.686	1631.56
327.914	623.56
328.143	671.56
328.372	836.56
328.6	454.56
328.829	230.56
329.058	224.56
329.287	228.56
329.515	198.56
329.744	312.56
329.972	631.56
330.201	1319.56
330.43	1857.56
330.658	812.56
330.887	351.56
331.115	220.56
331.344	123.56
331.572	128.56
331.801	141.56
332.03	140.56
332.258	126.56
332.486	119.56
332.715	118.56
332.943	132.56
333.172	145.56
333.4	136.56
333.629	190.56
333.857	279.56
334.085	557.56
334.314	1198.56
334.542	2337.56
334.771	2101.56
334.999	510.56
335.227	212.56
335.455	128.56
335.684	127.56
335.912	117.56
336.14	115.56
336.369	104.56
336.597	115.56
336.825	108.56
337.053	87.56
337.281	100.56
337.51	92.56
337.738	90.56
337.966	103.56
338.194	105.56
338.422	97.56
338.65	92.56
338.878	92.56
339.106	93.56
339.334	110.56
339.562	102.56
339.79	96.56
340.018	89.56
340.246	97.56
340.474	106.56
340.702	113.56
340.93	87.56
341.158	102.56
341.386	108.56
341.614	112.56
341.842	107.56
342.07	112.56
342.298	94.56
342.526	95.56
342.754	81.56
342.981	106.56
343.209	93.56
343.437	101.56
343.665	80.56
343.893	86.56
344.12	84.56
344.348	92.56
344.576	86.56
344.804	104.56
345.031	106.56
345.259	109.56
345.487	110.56
345.714	88.56
345.942	96.56
346.17	96.56
346.397	89.56
346.625	85.56
346.853	98.56
347.08	99.56
347.308	116.56
347.535	119.56
347.763	110.56
347.99	101.56
348.218	117.56
348.445	115.56
348.673	120.56
348.9	101.56
349.128	103.56
349.355	91.56
349.583	96.56
349.81	109.56
350.037	100.56
350.265	101.56
350.492	95.56
350.72	96.56
350.947	103.56
351.174	124.56
351.402	118.56
351.629	113.56
351.856	126.56
352.083	121.56
352.311	119.56
352.538	129.56
352.765	129.56
352.992	118.56
353.22	133.56
353.447	104.56
353.674	113.56
353.901	98.56
354.128	90.56
354.355	88.56
354.583	97.56
354.81	82.56
355.037	106.56
355.264	81.56
355.491	79.56
355.718	90.56
355.945	94.56
356.172	83.56
356.399	94.56
356.626	98.56
356.853	110.56
357.08	86.56
357.307	91.56
357.534	86.56
357.761	92.56
357.988	91.56
358.215	84.56
358.441	90.56
358.668	102.56
358.895	83.56
359.122	85.56
359.349	83.56
359.576	95.56
359.802	113.56
360.029	158.56
360.256	162.56
360.483	102.56
360.709	103.56
360.936	90.56
361.163	105.56
361.39	117.56
361.616	121.56
361.843	97.56
362.07	112.56
362.296	112.56
362.523	98.56
362.749	106.56
362.976	101.56
363.203	101.56
363.429	87.56
363.656	89.56
363.882	92.56
364.109	93.56
364.335	97.56
364.562	92.56
364.788	95.56
365.015	99.56
365.241	110.56
365.468	120.56
365.694	124.56
365.92	102.56
366.147	100.56
366.373	92.56
366.599	96.56
366.826	91.56
367.052	100.56
367.278	98.56
367.505	93.56
367.731	100.56
367.957	100.56
368.184	102.56
368.41	113.56
368.636	129.56
368.862	143.56
369.089	118.56
369.315	100.56
369.541	92.56
369.767	91.56
369.993	111.56
370.219	87.56
370.445	96.56
370.672	78.56
370.898	88.56
371.124	87.56
371.35	105.56
371.576	87.56
371.802	75.56
372.028	83.56
372.254	88.56
372.48	82.56
372.706	93.56
372.932	71.56
373.158	85.56
373.384	85.56
373.61	92.56
373.835	100.56
374.061	69.56
374.287	71.56
374.513	87.56
374.739	84.56
374.965	82.56
375.191	87.56
375.416	90.56
375.642	86.56
375.868	94.56
376.094	87.56
376.319	96.56
376.545	92.56
376.771	91.56
376.997	79.56
377.222	106.56
377.448	81.56
377.674	115.56
377.899	101.56
378.125	93.56
378.35	72.56
378.576	92.56
378.802	84.56
379.027	90.56
379.253	99.56
379.478	94.56
379.704	89.56
379.929	90.56
380.155	100.56
380.38	89.56
380.606	89.56
380.831	79.56
381.057	91.56
381.282	102.56
381.507	97.56
381.733	87.56
381.958	106.56
382.184	101.56
382.409	105.56
382.634	97.56
382.86	98.56
383.085	93.56
383.31	88.56
383.535	86.56
383.761	93.56
383.986	90.56
384.211	86.56
384.436	87.56
384.662	74.56
384.887	95.56
385.112	101.56
385.337	97.56
385.562	97.56
385.787	105.56
386.013	95.56
386.238	113.56
386.463	117.56
386.688	114.56
386.913	95.56
387.138	85.56
387.363	97.56
387.588	101.56
387.813	109.56
388.038	101.56
388.263	108.56
388.488	101.56
388.713	102.56
388.938	106.56
389.163	101.56
389.387	101.56
389.612	97.56
389.837	99.56
390.062	95.56
390.287	83.56
390.512	97.56
390.736	75.56
390.961	93.56
391.186	97.56
391.411	103.56
391.636	102.56
391.86	91.56
392.085	77.56
392.31	85.56
392.534	94.56
392.759	80.56
392.984	77.56
393.208	81.56
393.433	93.56
393.658	91.56
393.882	82.56
394.107	92.56
394.331	82.56
394.556	101.56
394.78	98.56
395.005	87.56
395.229	80.56
395.454	102.56
395.678	90.56
395.903	90.56
396.127	77.56
396.352	96.56
396.576	95.56
396.801	95.56
397.025	83.56
397.249	91.56
397.474	90.56
397.698	82.56
397.922	105.56
398.147	93.56
398.371	82.56
398.595	89.56
398.82	76.56
399.044	83.56
399.268	72.56
399.492	90.56
399.717	89.56
399.941	83.56
400.165	93.56
400.389	79.56
400.613	101.56
400.837	84.56
401.062	90.56
401.286	98.56
401.51	87.56
401.734	103.56
401.958	124.56
402.182	172.56
402.406	230.56
402.63	153.56
402.854	95.56
403.078	90.56
403.302	101.56
403.526	94.56
403.75	103.56
403.974	83.56
404.198	88.56
404.422	89.56
404.645	93.56
404.869	103.56
405.093	123.56
405.317	159.56
405.541	152.56
405.765	113.56
405.988	135.56
406.212	254.56
406.436	408.56
406.66	252.56
406.883	130.56
407.107	99.56
407.331	104.56
407.555	114.56
407.778	109.56
408.002	103.56
408.226	95.56
408.449	88.56
408.673	98.56
408.896	101.56
409.12	112.56
409.344	87.56
409.567	86.56
409.791	105.56
410.014	95.56
410.238	89.56
410.461	87.56
410.685	101.56
410.908	84.56
411.132	106.56
411.355	109.56
411.578	112.56
411.802	97.56
412.025	97.56
412.249	109.56
412.472	122.56
412.695	136.56
412.919	99.56
413.142	95.56
413.365	98.56
413.589	90.56
413.812	86.56
414.035	89.56
414.258	89.56
414.482	97.56
414.705	87.56
414.928	82.56
415.151	88.56
415.374	89.56
415.597	90.56
415.821	92.56
416.044	95.56
416.267	81.56
416.49	97.56
416.713	82.56
416.936	101.56
417.159	88.56
417.382	104.56
417.605	105.56
417.828	108.56
418.051	106.56
418.274	92.56
418.497	96.56
418.72	74.56
418.943	82.56
419.166	96.56
419.389	90.56
419.611	86.56
419.834	98.56
420.057	102.56
420.28	104.56
420.503	89.56
420.726	86.56
420.948	81.56
421.171	112.56
421.394	104.56
421.617	91.56
421.839	93.56
422.062	78.56
422.285	98.56
422.507	105.56
422.73	107.56
422.953	88.56
423.175	92.56
423.398	87.56
423.621	78.56
423.843	87.56
424.066	79.56
424.288	85.56
424.511	97.56
424.733	120.56
424.956	123.56
425.178	130.56
425.401	111.56
425.623	104.56
425.846	99.56
426.068	97.56
426.291	104.56
426.513	92.56
426.735	95.56
426.958	104.56
427.18	132.56
427.402	179.56
427.625	296.56
427.847	253.56
428.069	198.56
428.292	123.56
428.514	111.56
428.736	85.56
428.958	84.56
429.181	99.56
429.403	89.56
429.625	99.56
429.847	94.56
430.069	118.56
430.292	91.56
430.514	105.56
430.736	75.56
430.958	85.56
431.18	94.56
431.402	97.56
431.624	98.56
431.846	94.56
432.068	77.56
432.29	97.56
432.512	88.56
432.734	81.56
432.956	76.56
433.178	104.56
433.4	100.56
433.622	77.56
433.844	81.56
434.066	81.56
434.287	84.56
434.509	87.56
434.731	93.56
434.953	87.56
435.175	96.56
435.397	98.56
435.618	105.56
435.84	106.56
436.062	141.56
436.284	117.56
436.505	115.56
436.727	104.56
436.949	97.56
437.17	88.56
437.392	101.56
437.614	97.56
437.835	135.56
438.057	164.56
438.278	127.56
438.5	126.56
438.721	152.56
438.943	116.56
439.165	96.56
439.386	96.56
439.608	99.56
439.829	103.56
440.05	154.56
440.272	185.56
440.493	114.56
440.715	103.56
440.936	101.56
441.158	89.56
441.379	79.56
441.6	86.56
441.822	109.56
442.043	97.56
442.264	127.56
442.486	127.56
442.707	105.56
442.928	134.56
443.149	199.56
443.371	191.56
443.592	135.56
443.813	145.56
444.034	135.56
444.255	93.56
444.476	89.56
444.698	95.56
444.919	86.56
445.14	121.56
445.361	132.56
445.582	137.56
445.803	191.56
446.024	186.56
446.245	159.56
446.466	116.56
446.687	94.56
446.908	93.56
447.129	89.56
447.35	92.56
447.571	96.56
447.792	104.56
448.013	111.56
448.234	125.56
448.455	131.56
448.675	154.56
448.896	132.56
449.117	115.56
449.338	116.56
449.559	152.56
449.779	153.56
450	110.56
450.221	79.56
450.442	95.56
450.662	124.56
450.883	144.56
451.104	158.56
451.324	108.56
451.545	108.56
451.766	82.56
451.986	100.56
452.207	104.56
452.428	105.56
452.648	120.56
452.869	123.56
453.089	158.56
453.31	174.56
453.53	100.56
453.751	106.56
453.971	139.56
454.192	160.56
454.412	123.56
454.633	91.56
454.853	88.56
455.073	85.56
455.294	98.56
455.514	102.56
455.734	108.56
455.955	87.56
456.175	84.56
456.395	90.56
456.616	81.56
456.836	87.56
457.056	89.56
457.276	83.56
457.497	89.56
457.717	103.56
457.937	97.56
458.157	109.56
458.377	99.56
458.598	140.56
458.818	249.56
459.038	278.56
459.258	176.56
459.478	90.56
459.698	106.56
459.918	90.56
460.138	89.56
460.358	92.56
460.578	84.56
460.798	96.56
461.018	90.56
461.238	90.56
461.458	83.56
461.678	90.56
461.898	98.56
462.118	104.56
462.338	107.56
462.558	78.56
462.777	77.56
462.997	109.56
463.217	124.56
463.437	89.56
463.657	92.56
463.876	94.56
464.096	103.56
464.316	125.56
464.536	107.56
464.755	106.56
464.975	137.56
465.195	286.56
465.414	274.56
465.634	116.56
465.854	97.56
466.073	104.56
466.293	104.56
466.512	93.56
466.732	90.56
466.951	88.56
467.171	123.56
467.391	119.56
467.61	178.56
467.829	248.56
468.049	753.56
468.268	1086.56
468.488	261.56
468.707	116.56
468.927	92.56
469.146	99.56
469.365	91.56
469.585	95.56
469.804	118.56
470.023	129.56
470.243	117.56
470.462	132.56
470.681	148.56
470.901	105.56
471.12	105.56
471.339	127.56
471.558	131.56
471.777	158.56
471.997	381.56
472.216	1491.56
472.435	3371.56
472.654	735.56
472.873	181.56
473.092	118.56
473.311	96.56
473.53	91.56
473.749	97.56
473.968	116.56
474.187	150.56
474.406	104.56
474.625	105.56
474.844	98.56
475.063	92.56
475.282	98.56
475.501	77.56
475.72	80.56
475.939	80.56
476.158	102.56
476.377	99.56
476.596	101.56
476.814	124.56
477.033	108.56
477.252	96.56
477.471	99.56
477.69	104.56
477.908	101.56
478.127	91.56
478.346	102.56
478.564	96.56
478.783	111.56
479.002	117.56
479.22	113.56
479.439	126.56
479.658	148.56
479.876	122.56
480.095	148.56
480.313	170.56
480.532	174.56
480.751	350.56
480.969	1333.56
481.188	5784.56
481.406	3167.56
481.624	448.56
481.843	145.56
482.061	107.56
482.28	102.56
482.498	94.56
482.717	98.56
482.935	97.56
483.153	94.56
483.372	98.56
483.59	90.56
483.808	95.56
484.027	89.56
484.245	105.56
484.463	100.56
484.681	97.56
484.9	97.56
485.118	100.56
485.336	97.56
485.554	104.56
485.772	104.56
485.99	102.56
486.209	95.56
486.427	122.56
486.645	126.56
486.863	128.56
487.081	97.56
487.299	96.56
487.517	92.56
487.735	87.56
487.953	88.56
488.171	102.56
488.389	106.56
488.607	110.56
488.825	105.56
489.043	96.56
489.261	78.56
489.479	88.56
489.696	82.56
489.914	92.56
490.132	89.56
490.35	82.56
490.568	85.56
490.786	109.56
491.003	98.56
491.221	100.56
491.439	92.56
491.657	90.56
491.874	96.56
492.092	98.56
492.31	107.56
492.527	102.56
492.745	85.56
492.963	91.56
493.18	83.56
493.398	103.56
493.615	90.56
493.833	107.56
494.05	89.56
494.268	100.56
494.485	85.56
494.703	88.56
494.92	101.56
495.138	77.56
495.355	85.56
495.573	89.56
495.79	93.56
496.008	87.56
496.225	104.56
496.442	104.56
496.66	103.56
496.877	97.56
497.094	90.56
497.312	83.56
497.529	86.56
497.746	90.56
497.963	82.56
498.181	99.56
498.398	88.56
498.615	122.56
498.832	108.56
499.049	102.56
499.267	109.56
499.484	105.56
499.701	96.56
499.918	88.56
500.135	96.56
500.352	95.56
500.569	98.56
500.786	95.56
501.003	93.56
501.22	95.56
501.437	105.56
501.654	107.56
501.871	123.56
502.088	95.56
502.305	91.56
502.522	83.56
502.739	84.56
502.956	82.56
503.172	93.56
503.389	91.56
503.606	144.56
503.823	116.56
504.04	95.56
504.256	95.56
504.473	87.56
504.69	106.56
504.907	97.56
505.123	80.56
505.34	90.56
505.557	92.56
505.773	94.56
505.99	95.56
506.207	98.56
506.423	78.56
506.64	84.56
506.856	105.56
507.073	96.56
507.289	109.56
507.506	102.56
507.722	153.56
507.939	146.56
508.155	98.56
508.372	93.56
508.588	98.56
508.805	103.56
509.021	119.56
509.238	93.56
509.454	114.56
509.67	125.56
509.887	121.56
510.103	161.56
510.319	276.56
510.536	1182.56
510.752	4125.56
510.968	1080.56
511.184	232.56
511.401	133.56
511.617	116.56
511.833	117.56
512.049	122.56
512.265	97.56
512.481	105.56
512.698	101.56
512.914	102.56
513.13	98.56
513.346	106.56
513.562	100.56
513.778	97.56
513.994	115.56
514.21	130.56
514.426	160.56
514.642	202.56
514.858	171.56
515.074	268.56
515.29	908.56
515.506	3284.56
515.721	1086.56
515.937	257.56
516.153	164.56
516.369	136.56
516.585	104.56
516.801	110.56
517.016	114.56
517.232	93.56
517.448	93.56
517.664	95.56
517.879	97.56
518.095	121.56
518.311	113.56
518.527	117.56
518.742	110.56
518.958	102.56
519.173	102.56
519.389	91.56
519.605	92.56
519.82	99.56
520.036	127.56
520.251	157.56
520.467	176.56
520.682	128.56
520.898	132.56
521.113	156.56
521.329	200.56
521.544	368.56
521.76	1186.56
521.975	5588.56
522.19	3230.56
522.406	621.56
522.621	208.56
522.836	132.56
523.052	112.56
523.267	105.56
523.482	101.56
523.698	121.56
523.913	168.56
524.128	129.56
524.343	104.56
524.559	105.56
524.774	100.56
524.989	98.56
525.204	126.56
525.419	129.56
525.634	105.56
525.849	100.56
526.064	74.56
526.28	87.56
526.495	95.56
526.71	91.56
526.925	101.56
527.14	86.56
527.355	86.56
527.57	100.56
527.785	95.56
527.999	86.56
528.214	84.56
528.429	112.56
528.644	90.56
528.859	101.56
529.074	102.56
529.289	170.56
529.503	349.56
529.718	133.56
529.933	94.56
530.148	95.56
530.363	102.56
530.577	100.56
530.792	86.56
531.007	101.56
531.221	99.56
531.436	97.56
531.651	101.56
531.865	103.56
532.08	99.56
532.295	88.56
532.509	93.56
532.724	77.56
532.938	99.56
533.153	96.56
533.367	96.56
533.582	86.56
533.796	87.56
534.011	82.56
534.225	89.56
534.44	75.56
534.654	82.56
534.868	95.56
535.083	94.56
535.297	102.56
535.511	119.56
535.726	113.56
535.94	109.56
536.154	111.56
536.369	80.56
536.583	71.56
536.797	88.56
537.011	104.56
537.225	96.56
537.44	86.56
537.654	95.56
537.868	95.56
538.082	94.56
538.296	85.56
538.51	80.56
538.724	84.56
538.938	105.56
539.153	113.56
539.367	133.56
539.581	107.56
539.795	87.56
540.009	89.56
540.222	90.56
540.436	92.56
540.65	96.56
540.864	98.56
541.078	114.56
541.292	111.56
541.506	90.56
541.72	79.56
541.934	82.56
542.147	100.56
542.361	92.56
542.575	83.56
542.789	96.56
543.002	95.56
543.216	82.56
543.43	99.56
543.644	81.56
543.857	98.56
544.071	93.56
544.285	94.56
544.498	92.56
544.712	80.56
544.925	88.56
545.139	79.56
545.352	86.56
545.566	90.56
545.779	84.56
545.993	86.56
546.206	88.56
546.42	90.56
546.633	87.56
546.847	85.56
547.06	90.56
547.274	85.56
547.487	101.56
547.7	81.56
547.914	97.56
548.127	96.56
548.34	100.56
548.554	85.56
548.767	88.56
548.98	89.56
549.193	78.56
549.407	97.56
549.62	86.56
549.833	88.56
550.046	90.56
550.259	84.56
550.473	89.56
550.686	92.56
550.899	78.56
551.112	91.56
551.325	93.56
551.538	109.56
551.751	92.56
551.964	90.56
552.177	82.56
552.39	92.56
552.603	93.56
552.816	86.56
553.029	92.56
553.242	100.56
553.455	115.56
553.667	117.56
553.88	133.56
554.093	98.56
554.306	128.56
554.519	116.56
554.732	101.56
554.944	95.56
555.157	102.56
555.37	97.56
555.583	105.56
555.795	113.56
556.008	82.56
556.221	84.56
556.433	81.56
556.646	101.56
556.859	95.56
557.071	85.56
557.284	80.56
557.496	103.56
557.709	93.56
557.921	94.56
558.134	95.56
558.346	95.56
558.559	88.56
558.771	80.56
558.984	91.56
559.196	92.56
559.409	76.56
559.621	90.56
559.833	84.56
560.046	91.56
560.258	117.56
560.47	148.56
560.683	105.56
560.895	98.56
561.107	93.56
561.32	96.56
561.532	94.56
561.744	106.56
561.956	92.56
562.168	90.56
562.381	97.56
562.593	81.56
562.805	87.56
563.017	84.56
563.229	106.56
563.441	98.56
563.653	92.56
563.865	98.56
564.077	86.56
564.289	85.56
564.501	90.56
564.713	97.56
564.925	94.56
565.137	132.56
565.349	90.56
565.561	87.56
565.773	105.56
565.985	90.56
566.197	94.56
566.408	80.56
566.62	73.56
566.832	90.56
567.044	88.56
567.255	76.56
567.467	92.56
567.679	90.56
567.891	88.56
568.102	96.56
568.314	80.56
568.526	84.56
568.737	94.56
568.949	90.56
569.161	93.56
569.372	82.56
569.584	100.56
569.795	101.56
570.007	147.56
570.218	357.56
570.43	170.56
570.641	97.56
570.853	88.56
571.064	93.56
571.276	114.56
571.487	79.56
571.698	73.56
571.91	100.56
572.121	92.56
572.333	82.56
572.544	104.56
572.755	91.56
572.966	82.56
573.178	92.56
573.389	104.56
573.6	88.56
573.811	100.56
574.023	97.56
574.234	90.56
574.445	89.56
574.656	89.56
574.867	86.56
575.078	101.56
575.289	82.56
575.501	83.56
575.712	104.56
575.923	98.56
576.134	92.56
576.345	85.56
576.556	91.56
576.767	80.56
576.978	91.56
577.188	97.56
577.399	98.56
577.61	98.56
577.821	113.56
578.032	120.56
578.243	393.56
578.454	1276.56
578.665	302.56
578.875	110.56
579.086	98.56
579.297	80.56
579.508	91.56
579.718	96.56
579.929	100.56
580.14	92.56
580.35	77.56
580.561	74.56
580.772	96.56
580.982	96.56
581.193	85.56
581.403	91.56
581.614	80.56
581.825	81.56
582.035	74.56
582.246	102.56
582.456	88.56
582.667	88.56
582.877	87.56
583.087	90.56
583.298	80.56
583.508	79.56
583.719	96.56
583.929	104.56
584.139	104.56
584.35	86.56
584.56	88.56
584.77	81.56
584.981	88.56
585.191	81.56
585.401	100.56
585.611	96.56
585.821	89.56
586.032	95.56
586.242	85.56
586.452	90.56
586.662	83.56
586.872	91.56
587.082	76.56
587.292	93.56
587.502	92.56
587.713	76.56
587.923	90.56
588.133	91.56
588.343	90.56
588.553	92.56
588.762	80.56
588.972	94.56
589.182	121.56
589.392	106.56
589.602	90.56
589.812	96.56
590.022	97.56
590.232	75.56
590.441	84.56
590.651	90.56
590.861	77.56
591.071	85.56
591.281	77.56
591.49	87.56
591.7	81.56
591.91	90.56
592.119	80.56
592.329	78.56
592.539	101.56
592.748	87.56
592.958	85.56
593.167	68.56
593.377	97.56
593.587	79.56
593.796	77.56
594.006	84.56
594.215	88.56
594.424	84.56
594.634	66.56
594.843	74.56
595.053	79.56
595.262	80.56
595.472	104.56
595.681	87.56
595.89	76.56
596.1	79.56
596.309	74.56
596.518	82.56
596.727	96.56
596.937	92.56
597.146	76.56
597.355	70.56
597.564	82.56
597.774	94.56
597.983	77.56
598.192	72.56
598.401	91.56
598.61	75.56
598.819	93.56
599.028	78.56
599.237	86.56
599.446	75.56
599.655	83.56
599.864	97.56
600.073	80.56
600.282	99.56
600.491	91.56
600.7	68.56
600.909	104.56
601.118	76.56
601.327	93.56
601.536	79.56
601.745	89.56
601.953	66.56
602.162	84.56
602.371	98.56
602.58	81.56
602.789	63.56
602.997	89.56
603.206	79.56
603.415	77.56
603.623	94.56
603.832	73.56
604.041	100.56
604.249	83.56
604.458	86.56
604.666	83.56
604.875	92.56
605.084	88.56
605.292	86.56
605.501	86.56
605.709	79.56
605.918	80.56
606.126	91.56
606.334	90.56
606.543	84.56
606.751	85.56
606.96	86.56
607.168	85.56
607.376	90.56
607.585	95.56
607.793	81.56
608.001	94.56
608.21	86.56
608.418	93.56
608.626	77.56
608.834	98.56
609.043	81.56
609.251	89.56
609.459	80.56
609.667	83.56
609.875	70.56
610.083	87.56
610.291	98.56
610.499	90.56
610.707	72.56
610.916	72.56
611.124	82.56
611.332	74.56
611.54	85.56
611.748	87.56
611.955	72.56
612.163	84.56
612.371	85.56
612.579	78.56
612.787	89.56
612.995	81.56
613.203	94.56
613.411	81.56
613.618	96.56
613.826	76.56
614.034	84.56
614.242	92.56
614.449	86.56
614.657	92.56
614.865	107.56
615.072	91.56
615.28	92.56
615.488	82.56
615.695	95.56
615.903	94.56
616.111	89.56
616.318	90.56
616.526	86.56
616.733	87.56
616.941	87.56
617.148	85.56
617.356	86.56
617.563	92.56
617.771	80.56
617.978	88.56
618.185	80.56
618.393	95.56
618.6	76.56
618.807	74.56
619.015	79.56
619.222	86.56
619.429	97.56
619.637	84.56
619.844	80.56
620.051	91.56
620.258	79.56
620.466	87.56
620.673	89.56
620.88	81.56
621.087	76.56
621.294	89.56
621.501	65.56
621.708	78.56
621.915	88.56
622.122	91.56
622.329	84.56
622.536	88.56
622.743	91.56
622.95	65.56
623.157	69.56
623.364	84.56
623.571	81.56
623.778	88.56
623.985	81.56
624.192	107.56
624.399	76.56
624.606	68.56
624.812	71.56
625.019	82.56
625.226	76.56
625.433	86.56
625.639	87.56
625.846	91.56
626.053	78.56
626.259	75.56
626.466	86.56
626.673	89.56
626.879	88.56
627.086	94.56
627.293	89.56
627.499	81.56
627.706	91.56
627.912	84.56
628.119	90.56
628.325	91.56
628.532	71.56
628.738	64.56
628.945	92.56
629.151	78.56
629.357	76.56
629.564	73.56
629.77	79.56
629.976	85.56
630.183	66.56
630.389	78.56
630.595	76.56
630.802	86.56
631.008	85.56
631.214	68.56
631.42	94.56
631.627	92.56
631.833	94.56
632.039	80.56
632.245	86.56
632.451	80.56
632.657	88.56
632.863	71.56
633.069	78.56
633.275	81.56
633.481	77.56
633.688	74.56
633.893	88.56
634.099	78.56
634.305	88.56
634.511	84.56
634.717	86.56
634.923	91.56
635.129	104.56
635.335	88.56
635.541	92.56
635.747	90.56
635.952	101.56
636.158	174.56
636.364	491.56
636.57	392.56
636.775	133.56
636.981	104.56
637.187	87.56
637.392	87.56
637.598	83.56
637.804	87.56
638.009	90.56
638.215	88.56
638.421	95.56
638.626	79.56
638.832	96.56
639.037	66.56
639.243	87.56
639.448	87.56
639.654	86.56
639.859	79.56
640.065	80.56
640.27	87.56
640.475	81.56
640.681	94.56
640.886	88.56
641.091	79.56
641.297	80.56
641.502	101.56
641.707	85.56
641.913	85.56
642.118	103.56
642.323	83.56
642.528	97.56
642.733	69.56
642.939	91.56
643.144	75.56
643.349	92.56
643.554	89.56
643.759	92.56
643.964	87.56
644.169	82.56
644.374	85.56
644.579	82.56
644.784	78.56
644.989	92.56
645.194	87.56
645.399	74.56
645.604	87.56
645.809	78.56
646.014	81.56
646.219	78.56
646.423	84.56
646.628	82.56
646.833	85.56
647.038	79.56
647.243	89.56
647.447	89.56
647.652	78.56
647.857	84.56
648.062	77.56
648.266	86.56
648.471	88.56
648.676	95.56
648.88	94.56
649.085	81.56
649.289	92.56
649.494	101.56
649.698	147.56
649.903	112.56
650.107	82.56
650.312	96.56
650.516	83.56
650.721	84.56
650.925	77.56
651.13	81.56
651.334	90.56
651.539	83.56
651.743	82.56
651.947	72.56
652.152	85.56
652.356	75.56
652.56	82.56
652.764	86.56
652.969	84.56
653.173	95.56
653.377	90.56
653.581	81.56
653.785	68.56
653.99	72.56
654.194	85.56
654.398	77.56
654.602	91.56
654.806	75.56
655.01	108.56
655.214	85.56
655.418	80.56
655.622	75.56
655.826	79.56
656.03	87.56
656.234	93.56
656.438	91.56
656.642	112.56
656.846	87.56
657.049	79.56
657.253	70.56
657.457	78.56
657.661	92.56
657.865	80.56
658.068	78.56
658.272	77.56
658.476	86.56
658.68	76.56
658.883	72.56
659.087	80.56
659.291	76.56
659.494	80.56
659.698	81.56
659.901	73.56
660.105	74.56
660.309	81.56
660.512	81.56
660.716	79.56
660.919	89.56
661.123	81.56
661.326	70.56
661.53	68.56
661.733	81.56
661.936	62.56
662.14	69.56
662.343	79.56
662.546	80.56
662.75	69.56
662.953	78.56
663.156	78.56
663.36	86.56
663.563	95.56
663.766	81.56
663.969	79.56
664.173	75.56
664.376	74.56
664.579	73.56
664.782	72.56
664.985	73.56
665.188	84.56
665.391	72.56
665.594	96.56
665.797	83.56
666	78.56
666.203	72.56
666.406	76.56
666.609	65.56
666.812	77.56
667.015	83.56
667.218	86.56
667.421	83.56
667.624	83.56
667.827	72.56
668.03	79.56
668.232	87.56
668.435	77.56
668.638	104.56
668.841	77.56
669.043	92.56
669.246	86.56
669.449	89.56
669.651	77.56
669.854	77.56
670.057	87.56
670.259	93.56
670.462	73.56
670.665	64.56
670.867	94.56
671.07	82.56
671.272	64.56
671.475	86.56
671.677	77.56
671.88	81.56
672.082	85.56
672.284	73.56
672.487	73.56
672.689	77.56
672.892	76.56
