Data from Circ_1997_H10_HRD10591_00045.txt Node
Date: Wed Jan 03 11:29:36 EST 2024
User: Yrep
Spectrometer: HR+D1059
Trigger mode: 1
Integration Time (sec): 1.000000E-1
Scans to average: 1
Electric dark correction enabled: true
Nonlinearity correction enabled: false
Boxcar width: 0
XAxis mode: Wavelengths
Number of Pixels in Spectrum: 2048
>>>>>Begin Spectral Data<<<<<
223.165	-10.31
223.4	-10.31
223.635	-10.31
223.869	-17.31
224.104	-10.31
224.338	-18.31
224.573	-23.31
224.808	-12.31
225.042	-19.31
225.277	-7.31
225.511	-8.31
225.746	4.69
225.98	9.69
226.215	9.69
226.449	17.69
226.683	33.69
226.918	27.69
227.152	23.69
227.387	41.69
227.621	48.69
227.856	29.69
228.09	52.69
228.324	53.69
228.559	63.69
228.793	171.69
229.027	468.69
229.262	560.69
229.496	661.69
229.73	903.69
229.964	909.69
230.199	612.69
230.433	538.69
230.667	511.69
230.901	488.69
231.136	474.69
231.37	478.69
231.604	485.69
231.838	495.69
232.072	495.69
232.306	500.69
232.541	510.69
232.775	521.69
233.009	519.69
233.243	528.69
233.477	536.69
233.711	527.69
233.945	547.69
234.179	576.69
234.413	547.69
234.647	546.69
234.881	553.69
235.115	591.69
235.349	591.69
235.583	624.69
235.817	654.69
236.051	712.69
236.285	663.69
236.519	683.69
236.753	775.69
236.987	1007.69
237.221	1525.69
237.455	1657.69
237.689	943.69
237.922	814.69
238.156	791.69
238.39	784.69
238.624	728.69
238.858	717.69
239.091	735.69
239.325	745.69
239.559	767.69
239.793	800.69
240.027	854.69
240.26	1046.69
240.494	1100.69
240.728	1041.69
240.961	969.69
241.195	919.69
241.429	876.69
241.662	875.69
241.896	887.69
242.13	885.69
242.363	916.69
242.597	922.69
242.83	979.69
243.064	940.69
243.298	982.69
243.531	961.69
243.765	964.69
243.998	1014.69
244.232	965.69
244.465	1030.69
244.699	1047.69
244.932	1002.69
245.166	1022.69
245.399	1030.69
245.633	1048.69
245.866	1047.69
246.099	1094.69
246.333	1108.69
246.566	1107.69
246.8	1087.69
247.033	1172.69
247.266	1173.69
247.5	1261.69
247.733	1304.69
247.966	1303.69
248.2	1335.69
248.433	1289.69
248.666	1387.69
248.899	1581.69
249.133	1707.69
249.366	1694.69
249.599	1670.69
249.832	1647.69
250.066	1926.69
250.299	2579.69
250.532	3419.69
250.765	3188.69
250.998	2625.69
251.231	2201.69
251.465	1934.69
251.698	1775.69
251.931	1716.69
252.164	1683.69
252.397	1682.69
252.63	1705.69
252.863	1811.69
253.096	1930.69
253.329	1939.69
253.562	1823.69
253.795	1793.69
254.028	1804.69
254.261	1950.69
254.494	2182.69
254.727	2522.69
254.96	2607.69
255.193	2432.69
255.426	2564.69
255.659	3142.69
255.892	4795.69
256.124	6194.69
256.357	4947.69
256.59	3487.69
256.823	2824.69
257.056	2466.69
257.289	2318.69
257.521	2196.69
257.754	2125.69
257.987	1999.69
258.22	1960.69
258.452	1953.69
258.685	1958.69
258.918	1943.69
259.151	1962.69
259.383	1997.69
259.616	2020.69
259.849	2093.69
260.081	2228.69
260.314	2419.69
260.547	2278.69
260.779	2112.69
261.012	2079.69
261.244	2092.69
261.477	2015.69
261.71	2047.69
261.942	2092.69
262.175	2123.69
262.407	2037.69
262.64	1943.69
262.872	1937.69
263.105	1956.69
263.337	1926.69
263.57	1907.69
263.802	1954.69
264.035	1961.69
264.267	1971.69
264.499	1929.69
264.732	1946.69
264.964	1964.69
265.197	1974.69
265.429	1970.69
265.661	1984.69
265.894	1988.69
266.126	2079.69
266.358	2064.69
266.591	2098.69
266.823	2148.69
267.055	2149.69
267.287	2136.69
267.52	2095.69
267.752	2119.69
267.984	2138.69
268.216	2183.69
268.448	2212.69
268.681	2291.69
268.913	2454.69
269.145	2603.69
269.377	2577.69
269.609	2503.69
269.841	2505.69
270.073	2595.69
270.306	2921.69
270.538	3041.69
270.77	2833.69
271.002	2697.69
271.234	2695.69
271.466	2960.69
271.698	3018.69
271.93	3038.69
272.162	3009.69
272.394	2908.69
272.626	2743.69
272.858	2639.69
273.09	2583.69
273.322	2587.69
273.553	2596.69
273.785	2595.69
274.017	2586.69
274.249	2649.69
274.481	2641.69
274.713	2728.69
274.945	2743.69
275.176	2795.69
275.408	2809.69
275.64	2873.69
275.872	2924.69
276.104	2963.69
276.335	2942.69
276.567	3111.69
276.799	3413.69
277.031	3797.69
277.262	4044.69
277.494	3735.69
277.726	3395.69
277.957	3206.69
278.189	3113.69
278.421	3037.69
278.652	2957.69
278.884	2976.69
279.115	2975.69
279.347	3033.69
279.579	3111.69
279.81	3260.69
280.042	3633.69
280.273	3954.69
280.505	3743.69
280.736	3322.69
280.968	3196.69
281.199	3104.69
281.431	3052.69
281.662	3079.69
281.894	3052.69
282.125	3106.69
282.356	3307.69
282.588	3404.69
282.819	3232.69
283.051	3052.69
283.282	3027.69
283.513	3058.69
283.745	3094.69
283.976	3132.69
284.207	3082.69
284.439	3077.69
284.67	3040.69
284.901	3056.69
285.132	3042.69
285.364	3045.69
285.595	3072.69
285.826	3104.69
286.057	3122.69
286.288	3159.69
286.52	3132.69
286.751	3155.69
286.982	3143.69
287.213	3166.69
287.444	3179.69
287.675	3306.69
287.906	3366.69
288.138	3432.69
288.369	3373.69
288.6	3323.69
288.831	3301.69
289.062	3296.69
289.293	3239.69
289.524	3288.69
289.755	3267.69
289.986	3229.69
290.217	3240.69
290.448	3222.69
290.679	3175.69
290.91	3193.69
291.141	3269.69
291.371	3284.69
291.602	3167.69
291.833	3168.69
292.064	3204.69
292.295	3245.69
292.526	3227.69
292.757	3232.69
292.987	3166.69
293.218	3196.69
293.449	3203.69
293.68	3232.69
293.91	3221.69
294.141	3233.69
294.372	3194.69
294.603	3250.69
294.833	3241.69
295.064	3233.69
295.295	3326.69
295.525	3270.69
295.756	3309.69
295.987	3440.69
296.217	3691.69
296.448	3607.69
296.679	3357.69
296.909	3309.69
297.14	3277.69
297.37	3428.69
297.601	3389.69
297.831	3423.69
298.062	3389.69
298.292	3516.69
298.523	3539.69
298.753	3525.69
298.984	3465.69
299.214	3519.69
299.445	3495.69
299.675	3526.69
299.905	3555.69
300.136	3572.69
300.366	3575.69
300.597	3581.69
300.827	3772.69
301.057	3754.69
301.288	3832.69
301.518	3760.69
301.748	3850.69
301.979	3972.69
302.209	3895.69
302.439	3869.69
302.669	3849.69
302.9	3822.69
303.13	3789.69
303.36	3918.69
303.59	4051.69
303.82	4115.69
304.051	4016.69
304.281	3821.69
304.511	3685.69
304.741	3768.69
304.971	3709.69
305.201	3692.69
305.431	3787.69
305.661	3724.69
305.891	3702.69
306.121	3695.69
306.352	3789.69
306.582	3786.69
306.812	3753.69
307.042	3909.69
307.272	4117.69
307.502	4301.69
307.731	4217.69
307.961	3978.69
308.191	3810.69
308.421	3782.69
308.651	3852.69
308.881	3791.69
309.111	3863.69
309.341	3903.69
309.571	3970.69
309.8	4065.69
310.03	4133.69
310.26	4173.69
310.49	4171.69
310.72	4293.69
310.949	4504.69
311.179	4384.69
311.409	4160.69
311.639	4259.69
311.868	4280.69
312.098	4259.69
312.328	4375.69
312.557	4578.69
312.787	4672.69
313.017	4489.69
313.246	4393.69
313.476	4256.69
313.706	4325.69
313.935	4411.69
314.165	4551.69
314.394	4564.69
314.624	4511.69
314.853	4376.69
315.083	4299.69
315.312	4287.69
315.542	4168.69
315.771	4204.69
316.001	4205.69
316.23	4203.69
316.46	4197.69
316.689	4343.69
316.919	4334.69
317.148	4400.69
317.377	4399.69
317.607	4375.69
317.836	4299.69
318.065	4235.69
318.295	4255.69
318.524	4263.69
318.753	4244.69
318.983	4296.69
319.212	4249.69
319.441	4367.69
319.67	4362.69
319.9	4282.69
320.129	4326.69
320.358	4375.69
320.587	4411.69
320.816	4474.69
321.046	4556.69
321.275	4544.69
321.504	4526.69
321.733	4627.69
321.962	4627.69
322.191	4822.69
322.42	4939.69
322.649	5080.69
322.878	5078.69
323.108	5313.69
323.337	5620.69
323.566	5837.69
323.795	6217.69
324.024	7033.69
324.253	9477.69
324.482	13945.69
324.71	15617.69
324.939	15617.69
325.168	14896.69
325.397	8040.69
325.626	6601.69
325.855	6194.69
326.084	6088.69
326.313	6134.69
326.542	6500.69
326.77	7419.69
326.999	9612.69
327.228	13777.69
327.457	15617.69
327.686	15617.69
327.914	12731.69
328.143	11894.69
328.372	12705.69
328.6	10165.69
328.829	8397.69
329.058	8634.69
329.287	8792.69
329.515	8967.69
329.744	10316.69
329.972	13346.69
330.201	15617.69
330.43	15617.69
330.658	14416.69
330.887	10686.69
331.115	8865.69
331.344	7552.69
331.572	7283.69
331.801	7312.69
332.03	7155.69
332.258	7157.69
332.486	7059.69
332.715	7341.69
332.943	7678.69
333.172	8165.69
333.4	8809.69
333.629	9721.69
333.857	11645.69
334.085	14205.69
334.314	15617.69
334.542	15617.69
334.771	15617.69
334.999	13953.69
335.227	9809.69
335.455	8343.69
335.684	7620.69
335.912	7168.69
336.14	6789.69
336.369	6576.69
336.597	6624.69
336.825	6371.69
337.053	6117.69
337.281	5949.69
337.51	5835.69
337.738	5797.69
337.966	5684.69
338.194	5678.69
338.422	5547.69
338.65	5478.69
338.878	5429.69
339.106	5333.69
339.334	5375.69
339.562	5206.69
339.79	5187.69
340.018	5125.69
340.246	5196.69
340.474	5223.69
340.702	5185.69
340.93	5124.69
341.158	5096.69
341.386	5084.69
341.614	5070.69
341.842	5037.69
342.07	4943.69
342.298	4976.69
342.526	4879.69
342.754	4898.69
342.981	4904.69
343.209	5074.69
343.437	5206.69
343.665	5534.69
343.893	5739.69
344.12	5831.69
344.348	5565.69
344.576	5343.69
344.804	5313.69
345.031	5339.69
345.259	5276.69
345.487	5113.69
345.714	4980.69
345.942	4843.69
346.17	4886.69
346.397	4784.69
346.625	4800.69
346.853	4748.69
347.08	4741.69
347.308	4871.69
347.535	4974.69
347.763	4971.69
347.99	4920.69
348.218	5003.69
348.445	4982.69
348.673	4855.69
348.9	4695.69
349.128	4615.69
349.355	4630.69
349.583	4593.69
349.81	4637.69
350.037	4622.69
350.265	4585.69
350.492	4633.69
350.72	4637.69
350.947	4731.69
351.174	4881.69
351.402	4912.69
351.629	4769.69
351.856	4863.69
352.083	4868.69
352.311	4957.69
352.538	4969.69
352.765	4922.69
352.992	4782.69
353.22	4764.69
353.447	4701.69
353.674	4645.69
353.901	4459.69
354.128	4455.69
354.355	4480.69
354.583	4474.69
354.81	4483.69
355.037	4451.69
355.264	4455.69
355.491	4460.69
355.718	4428.69
355.945	4419.69
356.172	4404.69
356.399	4442.69
356.626	4347.69
356.853	4484.69
357.08	4443.69
357.307	4436.69
357.534	4452.69
357.761	4451.69
357.988	4526.69
358.215	4407.69
358.441	4475.69
358.668	4579.69
358.895	4570.69
359.122	4595.69
359.349	4700.69
359.576	4840.69
359.802	5158.69
360.029	5472.69
360.256	5374.69
360.483	5082.69
360.709	4743.69
360.936	4739.69
361.163	4798.69
361.39	4847.69
361.616	4835.69
361.843	4776.69
362.07	4798.69
362.296	4769.69
362.523	4796.69
362.749	4744.69
362.976	4695.69
363.203	4606.69
363.429	4576.69
363.656	4628.69
363.882	4597.69
364.109	4561.69
364.335	4615.69
364.562	4603.69
364.788	4510.69
365.015	4577.69
365.241	4587.69
365.468	4657.69
365.694	4655.69
365.92	4645.69
366.147	4620.69
366.373	4599.69
366.599	4533.69
366.826	4530.69
367.052	4561.69
367.278	4571.69
367.505	4663.69
367.731	4609.69
367.957	4606.69
368.184	4654.69
368.41	4722.69
368.636	4825.69
368.862	4823.69
369.089	4708.69
369.315	4663.69
369.541	4653.69
369.767	4671.69
369.993	4724.69
370.219	4763.69
370.445	4673.69
370.672	4765.69
370.898	4762.69
371.124	4763.69
371.35	4813.69
371.576	4764.69
371.802	4758.69
372.028	4798.69
372.254	4821.69
372.48	4875.69
372.706	4946.69
372.932	4958.69
373.158	4846.69
373.384	4848.69
373.61	4836.69
373.835	4820.69
374.061	4883.69
374.287	4916.69
374.513	4984.69
374.739	5063.69
374.965	5272.69
375.191	5175.69
375.416	5039.69
375.642	4914.69
375.868	4933.69
376.094	4873.69
376.319	4813.69
376.545	4811.69
376.771	4736.69
376.997	4749.69
377.222	4727.69
377.448	4699.69
377.674	4741.69
377.899	4683.69
378.125	4718.69
378.35	4636.69
378.576	4647.69
378.802	4616.69
379.027	4741.69
379.253	4694.69
379.478	4664.69
379.704	4756.69
379.929	4746.69
380.155	4765.69
380.38	4697.69
380.606	4780.69
380.831	4768.69
381.057	4744.69
381.282	4755.69
381.507	4819.69
381.733	4781.69
381.958	4891.69
382.184	4871.69
382.409	5020.69
382.634	4970.69
382.86	5015.69
383.085	5037.69
383.31	5175.69
383.535	5120.69
383.761	5254.69
383.986	5344.69
384.211	5379.69
384.436	5445.69
384.662	5523.69
384.887	5668.69
385.112	5583.69
385.337	5721.69
385.562	5679.69
385.787	5757.69
386.013	5781.69
386.238	5941.69
386.463	5796.69
386.688	5766.69
386.913	5627.69
387.138	5589.69
387.363	5655.69
387.588	5591.69
387.813	5647.69
388.038	5611.69
388.263	5666.69
388.488	5693.69
388.713	5599.69
388.938	5602.69
389.163	5572.69
389.387	5582.69
389.612	5535.69
389.837	5575.69
390.062	5566.69
390.287	5535.69
390.512	5527.69
390.736	5681.69
390.961	5729.69
391.186	5875.69
391.411	5957.69
391.636	6061.69
391.86	6207.69
392.085	6354.69
392.31	6195.69
392.534	6120.69
392.759	5937.69
392.984	5836.69
393.208	5811.69
393.433	5875.69
393.658	5746.69
393.882	5796.69
394.107	5860.69
394.331	5927.69
394.556	5904.69
394.78	5896.69
395.005	6055.69
395.229	6039.69
395.454	6278.69
395.678	6328.69
395.903	6391.69
396.127	6378.69
396.352	6249.69
396.576	6059.69
396.801	6012.69
397.025	6083.69
397.249	6215.69
397.474	6415.69
397.698	6386.69
397.922	6516.69
398.147	6686.69
398.371	6783.69
398.595	6908.69
398.82	7220.69
399.044	7839.69
399.268	8487.69
399.492	9686.69
399.717	10286.69
399.941	10070.69
400.165	9501.69
400.389	8743.69
400.613	8025.69
400.837	7440.69
401.062	7310.69
401.286	7237.69
401.51	7195.69
401.734	7129.69
401.958	7283.69
402.182	7483.69
402.406	7621.69
402.63	7612.69
402.854	7658.69
403.078	7907.69
403.302	7934.69
403.526	8055.69
403.75	8114.69
403.974	8288.69
404.198	8348.69
404.422	8487.69
404.645	8745.69
404.869	9001.69
405.093	9715.69
405.317	10407.69
405.541	10214.69
405.765	9051.69
405.988	8649.69
406.212	8613.69
406.436	8697.69
406.66	8773.69
406.883	8580.69
407.107	9186.69
407.331	9738.69
407.555	10291.69
407.778	9820.69
408.002	9064.69
408.226	8663.69
408.449	8596.69
408.673	8396.69
408.896	8499.69
409.12	8831.69
409.344	8148.69
409.567	7808.69
409.791	7800.69
410.014	7749.69
410.238	7627.69
410.461	7785.69
410.685	7709.69
410.908	7862.69
411.132	8123.69
411.355	8179.69
411.578	7825.69
411.802	7779.69
412.025	8169.69
412.249	8740.69
412.472	9430.69
412.695	10277.69
412.919	9365.69
413.142	8712.69
413.365	8247.69
413.589	7935.69
413.812	7547.69
414.035	7476.69
414.258	7482.69
414.482	7404.69
414.705	7402.69
414.928	7262.69
415.151	7165.69
415.374	7218.69
415.597	7085.69
415.821	7094.69
416.044	7135.69
416.267	7117.69
416.49	6945.69
416.713	6958.69
416.936	7014.69
417.159	7138.69
417.382	7418.69
417.605	7542.69
417.828	7753.69
418.051	7578.69
418.274	7248.69
418.497	7154.69
418.72	7347.69
418.943	7357.69
419.166	7748.69
419.389	8149.69
419.611	8265.69
419.834	8340.69
420.057	8557.69
420.28	9022.69
420.503	8677.69
420.726	8321.69
420.948	8153.69
421.171	8377.69
421.394	8049.69
421.617	7510.69
421.839	7375.69
422.062	7453.69
422.285	7588.69
422.507	8260.69
422.73	8760.69
422.953	8069.69
423.175	7692.69
423.398	7743.69
423.621	7737.69
423.843	7974.69
424.066	7934.69
424.288	7726.69
424.511	7963.69
424.733	8589.69
424.956	9069.69
425.178	8493.69
425.401	8650.69
425.623	8533.69
425.846	7416.69
426.068	7291.69
426.291	7232.69
426.513	7233.69
426.735	7418.69
426.958	7895.69
427.18	8884.69
427.402	10490.69
427.625	11133.69
427.847	10519.69
428.069	10292.69
428.292	8396.69
428.514	7294.69
428.736	6878.69
428.958	6834.69
429.181	6539.69
429.403	6448.69
429.625	6661.69
429.847	7005.69
430.069	7632.69
430.292	7029.69
430.514	6426.69
430.736	6419.69
430.958	6379.69
431.18	6266.69
431.402	6230.69
431.624	6177.69
431.846	6260.69
432.068	6291.69
432.29	6403.69
432.512	6244.69
432.734	6451.69
432.956	6346.69
433.178	6559.69
433.4	6482.69
433.622	6296.69
433.844	6339.69
434.066	6367.69
434.287	6398.69
434.509	6590.69
434.731	6893.69
434.953	7033.69
435.175	7161.69
435.397	7219.69
435.618	7174.69
435.84	7683.69
436.062	8744.69
436.284	8554.69
436.505	7098.69
436.727	6836.69
436.949	6533.69
437.17	6291.69
437.392	6388.69
437.614	6603.69
437.835	7069.69
438.057	8231.69
438.278	8880.69
438.5	8704.69
438.721	9718.69
438.943	8353.69
439.165	6970.69
439.386	6750.69
439.608	6845.69
439.829	7050.69
440.05	7613.69
440.272	8103.69
440.493	7110.69
440.715	6721.69
440.936	6627.69
441.158	6651.69
441.379	6829.69
441.6	7181.69
441.822	7463.69
442.043	7947.69
442.264	8897.69
442.486	8467.69
442.707	7441.69
442.928	7399.69
443.149	7749.69
443.371	7983.69
443.592	8494.69
443.813	9651.69
444.034	9395.69
444.255	8094.69
444.476	7992.69
444.698	8094.69
444.919	8199.69
445.14	8051.69
445.361	8012.69
445.582	8243.69
445.803	9289.69
446.024	10043.69
446.245	9475.69
446.466	8256.69
446.687	7091.69
446.908	6592.69
447.129	6331.69
447.35	6223.69
447.571	6147.69
447.792	6034.69
448.013	6221.69
448.234	6387.69
448.455	7189.69
448.675	8671.69
448.896	9035.69
449.117	7372.69
449.338	7724.69
449.559	9213.69
449.779	9342.69
450	7032.69
450.221	6338.69
450.442	6105.69
450.662	5985.69
450.883	6277.69
451.104	6355.69
451.324	6107.69
451.545	5926.69
451.766	5763.69
451.986	5643.69
452.207	5629.69
452.428	5494.69
452.648	5563.69
452.869	5677.69
453.089	5707.69
453.31	5794.69
453.53	5625.69
453.751	5500.69
453.971	5613.69
454.192	5865.69
454.412	5531.69
454.633	5481.69
454.853	5432.69
455.073	5487.69
455.294	5924.69
455.514	6529.69
455.734	5944.69
455.955	5341.69
456.175	5155.69
456.395	5099.69
456.616	5150.69
456.836	5165.69
457.056	5230.69
457.276	5128.69
457.497	5231.69
457.717	5176.69
457.937	5368.69
458.157	5408.69
458.377	5467.69
458.598	6051.69
458.818	6998.69
459.038	7906.69
459.258	7559.69
459.478	6583.69
459.698	6430.69
459.918	6491.69
460.138	6644.69
460.358	6904.69
460.578	6925.69
460.798	7006.69
461.018	7043.69
461.238	6844.69
461.458	6776.69
461.678	6806.69
461.898	6999.69
462.118	7012.69
462.338	7317.69
462.558	7561.69
462.777	7815.69
462.997	8463.69
463.217	8953.69
463.437	8643.69
463.657	8128.69
463.876	7832.69
464.096	7862.69
464.316	7945.69
464.536	7977.69
464.755	7683.69
464.975	7789.69
465.195	8254.69
465.414	8485.69
465.634	7204.69
465.854	6734.69
466.073	6421.69
466.293	6183.69
466.512	5919.69
466.732	5931.69
466.951	5897.69
467.171	5987.69
467.391	6170.69
467.61	6338.69
467.829	6829.69
468.049	8651.69
468.268	10631.69
468.488	7795.69
468.707	6663.69
468.927	6303.69
469.146	6070.69
469.365	6138.69
469.585	6059.69
469.804	6200.69
470.023	6459.69
470.243	6341.69
470.462	6447.69
470.681	6680.69
470.901	6493.69
471.12	6430.69
471.339	6345.69
471.558	6433.69
471.777	6711.69
471.997	7736.69
472.216	12114.69
472.435	15617.69
472.654	13558.69
472.873	9052.69
473.092	7776.69
473.311	7105.69
473.53	6816.69
473.749	6686.69
473.968	7161.69
474.187	8305.69
474.406	7585.69
474.625	6372.69
474.844	6179.69
475.063	6046.69
475.282	6091.69
475.501	6040.69
475.72	6060.69
475.939	6108.69
476.158	6084.69
476.377	6111.69
476.596	6151.69
476.814	6347.69
477.033	6424.69
477.252	6430.69
477.471	6523.69
477.69	6618.69
477.908	6704.69
478.127	6849.69
478.346	6950.69
478.564	6953.69
478.783	7260.69
479.002	7423.69
479.22	7484.69
479.439	7623.69
479.658	7887.69
479.876	8058.69
480.095	8331.69
480.313	8968.69
480.532	9163.69
480.751	10188.69
480.969	13900.69
481.188	15617.69
481.406	15617.69
481.624	14903.69
481.843	11697.69
482.061	10051.69
482.28	9169.69
482.498	8615.69
482.717	8155.69
482.935	7997.69
483.153	7778.69
483.372	7703.69
483.59	7583.69
483.808	7384.69
484.027	7422.69
484.245	7413.69
484.463	7311.69
484.681	7444.69
484.9	7503.69
485.118	7465.69
485.336	7452.69
485.554	7631.69
485.772	7549.69
485.99	7591.69
486.209	7682.69
486.427	7562.69
486.645	7740.69
486.863	7890.69
487.081	7829.69
487.299	7628.69
487.517	7731.69
487.735	7655.69
487.953	7553.69
488.171	7667.69
488.389	7660.69
488.607	7712.69
488.825	7787.69
489.043	7881.69
489.261	7924.69
489.479	7983.69
489.696	8092.69
489.914	8392.69
490.132	8442.69
490.35	8771.69
490.568	8796.69
490.786	9204.69
491.003	9624.69
491.221	10191.69
491.439	10937.69
491.657	10805.69
491.874	10896.69
492.092	11068.69
492.31	11259.69
492.527	11770.69
492.745	12058.69
492.963	11848.69
493.18	11575.69
493.398	11341.69
493.615	11180.69
493.833	10805.69
494.05	10688.69
494.268	10401.69
494.485	10273.69
494.703	10004.69
494.92	9995.69
495.138	9781.69
495.355	9705.69
495.573	9657.69
495.79	9586.69
496.008	9531.69
496.225	9413.69
496.442	9331.69
496.66	9356.69
496.877	9379.69
497.094	9349.69
497.312	9489.69
497.529	9697.69
497.746	9799.69
497.963	10096.69
498.181	10451.69
498.398	10637.69
498.615	11021.69
498.832	11519.69
499.049	11844.69
499.267	12423.69
499.484	13064.69
499.701	13731.69
499.918	14291.69
500.135	14999.69
500.352	15584.69
500.569	15617.69
500.786	15617.69
501.003	15425.69
501.22	14781.69
501.437	14164.69
501.654	13525.69
501.871	12867.69
502.088	12008.69
502.305	11377.69
502.522	10859.69
502.739	10465.69
502.956	9972.69
503.172	9573.69
503.389	9470.69
503.606	9404.69
503.823	9205.69
504.04	9160.69
504.256	9135.69
504.473	9214.69
504.69	9233.69
504.907	9050.69
505.123	8617.69
505.34	8376.69
505.557	8213.69
505.773	8058.69
505.99	7987.69
506.207	7967.69
506.423	7854.69
506.64	7680.69
506.856	7599.69
507.073	7535.69
507.289	7544.69
507.506	7481.69
507.722	7732.69
507.939	7679.69
508.155	7383.69
508.372	7178.69
508.588	7127.69
508.805	7140.69
509.021	7237.69
509.238	7438.69
509.454	7336.69
509.67	7152.69
509.887	6945.69
510.103	7083.69
510.319	7260.69
510.536	8960.69
510.752	13379.69
510.968	8847.69
511.184	7129.69
511.401	7294.69
511.617	7776.69
511.833	8863.69
512.049	8792.69
512.265	8009.69
512.481	7667.69
512.698	7258.69
512.914	7167.69
513.13	7025.69
513.346	6931.69
513.562	6853.69
513.778	6887.69
513.994	6953.69
514.21	6984.69
514.426	7366.69
514.642	7909.69
514.858	7977.69
515.074	8539.69
515.29	10550.69
515.506	14019.69
515.721	10112.69
515.937	8112.69
516.153	7831.69
516.369	7585.69
516.585	7590.69
516.801	7737.69
517.016	7851.69
517.232	8054.69
517.448	8367.69
517.664	8478.69
517.879	8437.69
518.095	8400.69
518.311	8224.69
518.527	8020.69
518.742	7711.69
518.958	7479.69
519.173	7251.69
519.389	7162.69
519.605	7068.69
519.82	7010.69
520.036	7173.69
520.251	7389.69
520.467	7441.69
520.682	7385.69
520.898	7360.69
521.113	7623.69
521.329	8051.69
521.544	9154.69
521.76	12087.69
521.975	15617.69
522.19	14366.69
522.406	8581.69
522.621	7205.69
522.836	6685.69
523.052	6407.69
523.267	6245.69
523.482	6048.69
523.698	6013.69
523.913	5988.69
524.128	5903.69
524.343	5711.69
524.559	5769.69
524.774	5642.69
524.989	5625.69
525.204	5761.69
525.419	5755.69
525.634	5638.69
525.849	5603.69
526.064	5488.69
526.28	5409.69
526.495	5450.69
526.71	5409.69
526.925	5415.69
527.14	5368.69
527.355	5268.69
527.57	5296.69
527.785	5307.69
527.999	5298.69
528.214	5324.69
528.429	5309.69
528.644	5398.69
528.859	5353.69
529.074	5464.69
529.289	5706.69
529.503	6806.69
529.718	6081.69
529.933	5651.69
530.148	5527.69
530.363	5451.69
530.577	5395.69
530.792	5241.69
531.007	5281.69
531.221	5323.69
531.436	5221.69
531.651	5292.69
531.865	5319.69
532.08	5235.69
532.295	5228.69
532.509	5230.69
532.724	5185.69
532.938	5236.69
533.153	5228.69
533.367	5193.69
533.582	5180.69
533.796	5173.69
534.011	5140.69
534.225	5154.69
534.44	5076.69
534.654	5167.69
534.868	5067.69
535.083	5100.69
535.297	5105.69
535.511	5143.69
535.726	5207.69
535.94	5218.69
536.154	5068.69
536.369	4979.69
536.583	4903.69
536.797	4916.69
537.011	4889.69
537.225	4858.69
537.44	4805.69
537.654	4867.69
537.868	4841.69
538.082	4851.69
538.296	4837.69
538.51	4895.69
538.724	4837.69
538.938	4782.69
539.153	4815.69
539.367	4968.69
539.581	4860.69
539.795	4840.69
540.009	4775.69
540.222	4725.69
540.436	4828.69
540.65	4825.69
540.864	4840.69
541.078	4863.69
541.292	4749.69
541.506	4722.69
541.72	4635.69
541.934	4566.69
542.147	4629.69
542.361	4510.69
542.575	4569.69
542.789	4604.69
543.002	4668.69
543.216	4714.69
543.43	4725.69
543.644	4668.69
543.857	4653.69
544.071	4729.69
544.285	4694.69
544.498	4657.69
544.712	4654.69
544.925	4699.69
545.139	4681.69
545.352	4679.69
545.566	4622.69
545.779	4659.69
545.993	4647.69
546.206	4662.69
546.42	4608.69
546.633	4621.69
546.847	4606.69
547.06	4637.69
547.274	4657.69
547.487	4540.69
547.7	4653.69
547.914	4604.69
548.127	4653.69
548.34	4601.69
548.554	4637.69
548.767	4625.69
548.98	4695.69
549.193	4697.69
549.407	4659.69
549.62	4677.69
549.833	4720.69
550.046	4633.69
550.259	4664.69
550.473	4553.69
550.686	4574.69
550.899	4597.69
551.112	4533.69
551.325	4494.69
551.538	4610.69
551.751	4559.69
551.964	4578.69
552.177	4652.69
552.39	4716.69
552.603	4779.69
552.816	4850.69
553.029	4976.69
553.242	4971.69
553.455	5098.69
553.667	5183.69
553.88	5133.69
554.093	4967.69
554.306	4973.69
554.519	4767.69
554.732	4687.69
554.944	4575.69
555.157	4520.69
555.37	4392.69
555.583	4338.69
555.795	4303.69
556.008	4234.69
556.221	4144.69
556.433	4081.69
556.646	4019.69
556.859	4051.69
557.071	3962.69
557.284	3967.69
557.496	3907.69
557.709	3938.69
557.921	3870.69
558.134	3797.69
558.346	3870.69
558.559	3829.69
558.771	3860.69
558.984	3831.69
559.196	3749.69
559.409	3708.69
559.621	3732.69
559.833	3783.69
560.046	3760.69
560.258	3863.69
560.47	3879.69
560.683	3849.69
560.895	3771.69
561.107	3711.69
561.32	3752.69
561.532	3747.69
561.744	3776.69
561.956	3720.69
562.168	3733.69
562.381	3715.69
562.593	3707.69
562.805	3799.69
563.017	3767.69
563.229	3792.69
563.441	3739.69
563.653	3808.69
563.865	3807.69
564.077	3849.69
564.289	3883.69
564.501	3902.69
564.713	4001.69
564.925	4121.69
565.137	4242.69
565.349	4209.69
565.561	4339.69
565.773	4468.69
565.985	4712.69
566.197	4871.69
566.408	5165.69
566.62	5573.69
566.832	5891.69
567.044	5900.69
567.255	5881.69
567.467	6044.69
567.679	6352.69
567.891	6738.69
568.102	6681.69
568.314	6290.69
568.526	5685.69
568.737	5350.69
568.949	4952.69
569.161	4661.69
569.372	4366.69
569.584	4165.69
569.795	4037.69
570.007	3956.69
570.218	4286.69
570.43	3910.69
570.641	3720.69
570.853	3788.69
571.064	3776.69
571.276	3757.69
571.487	3591.69
571.698	3525.69
571.91	3388.69
572.121	3385.69
572.333	3280.69
572.544	3163.69
572.755	3156.69
572.966	3125.69
573.178	3147.69
573.389	3107.69
573.6	3038.69
573.811	3057.69
574.023	2995.69
574.234	2980.69
574.445	2906.69
574.656	3012.69
574.867	3000.69
575.078	2915.69
575.289	2933.69
575.501	2914.69
575.712	2877.69
575.923	2863.69
576.134	2862.69
576.345	2834.69
576.556	2800.69
576.767	2822.69
576.978	2796.69
577.188	2751.69
577.399	2728.69
577.61	2717.69
577.821	2776.69
578.032	2739.69
578.243	3144.69
578.454	4620.69
578.665	3053.69
578.875	2629.69
579.086	2580.69
579.297	2577.69
579.508	2570.69
579.718	2542.69
579.929	2495.69
580.14	2560.69
580.35	2536.69
580.561	2520.69
580.772	2495.69
580.982	2476.69
581.193	2456.69
581.403	2460.69
581.614	2461.69
581.825	2457.69
582.035	2442.69
582.246	2452.69
582.456	2442.69
582.667	2436.69
582.877	2442.69
583.087	2435.69
583.298	2365.69
583.508	2332.69
583.719	2398.69
583.929	2362.69
584.139	2379.69
584.35	2345.69
584.56	2327.69
584.77	2354.69
584.981	2368.69
585.191	2366.69
585.401	2349.69
585.611	2297.69
585.821	2358.69
586.032	2336.69
586.242	2359.69
586.452	2304.69
586.662	2259.69
586.872	2317.69
587.082	2312.69
587.292	2286.69
587.502	2311.69
587.713	2279.69
587.923	2273.69
588.133	2249.69
588.343	2288.69
588.553	2288.69
588.762	2301.69
588.972	2374.69
589.182	2448.69
589.392	2415.69
589.602	2640.69
589.812	2543.69
590.022	2332.69
590.232	2289.69
590.441	2325.69
590.651	2339.69
590.861	2295.69
591.071	2368.69
591.281	2359.69
591.49	2362.69
591.7	2444.69
591.91	2483.69
592.119	2508.69
592.329	2573.69
592.539	2683.69
592.748	2702.69
592.958	2794.69
593.167	2863.69
593.377	2859.69
593.587	2907.69
593.796	2843.69
594.006	2934.69
594.215	2916.69
594.424	2832.69
594.634	2818.69
594.843	2697.69
595.053	2651.69
595.262	2548.69
595.472	2433.69
595.681	2379.69
595.89	2340.69
596.1	2279.69
596.309	2222.69
596.518	2183.69
596.727	2170.69
596.937	2163.69
597.146	2101.69
597.355	2078.69
597.564	2056.69
597.774	2075.69
597.983	2067.69
598.192	1995.69
598.401	2037.69
598.61	2002.69
598.819	1952.69
599.028	1984.69
599.237	1964.69
599.446	1969.69
599.655	1919.69
599.864	1953.69
600.073	1903.69
600.282	1920.69
600.491	1888.69
600.7	1956.69
600.909	1942.69
601.118	1929.69
601.327	1867.69
601.536	1947.69
601.745	1921.69
601.953	1857.69
602.162	1907.69
602.371	1897.69
602.58	1886.69
602.789	1875.69
602.997	1892.69
603.206	1856.69
603.415	1886.69
603.623	1877.69
603.832	1856.69
604.041	1817.69
604.249	1785.69
604.458	1807.69
604.666	1797.69
604.875	1796.69
605.084	1796.69
605.292	1759.69
605.501	1770.69
605.709	1750.69
605.918	1763.69
606.126	1727.69
606.334	1705.69
606.543	1760.69
606.751	1744.69
606.96	1720.69
607.168	1682.69
607.376	1757.69
607.585	1763.69
607.793	1734.69
608.001	1755.69
608.21	1736.69
608.418	1689.69
608.626	1756.69
608.834	1739.69
609.043	1721.69
609.251	1731.69
609.459	1689.69
609.667	1712.69
609.875	1710.69
610.083	1777.69
610.291	1759.69
610.499	1781.69
610.707	1760.69
610.916	1725.69
611.124	1748.69
611.332	1747.69
611.54	1710.69
611.748	1668.69
611.955	1680.69
612.163	1646.69
612.371	1681.69
612.579	1667.69
612.787	1657.69
612.995	1645.69
613.203	1622.69
613.411	1625.69
613.618	1607.69
613.826	1609.69
614.034	1611.69
614.242	1584.69
614.449	1593.69
614.657	1604.69
614.865	1615.69
615.072	1637.69
615.28	1628.69
615.488	1573.69
615.695	1591.69
615.903	1599.69
616.111	1605.69
616.318	1620.69
616.526	1603.69
616.733	1610.69
616.941	1587.69
617.148	1625.69
617.356	1587.69
617.563	1577.69
617.771	1546.69
617.978	1513.69
618.185	1544.69
618.393	1510.69
618.6	1544.69
618.807	1523.69
619.015	1561.69
619.222	1498.69
619.429	1515.69
619.637	1484.69
619.844	1518.69
620.051	1516.69
620.258	1441.69
620.466	1437.69
620.673	1369.69
620.88	1385.69
621.087	1387.69
621.294	1400.69
621.501	1447.69
621.708	1471.69
621.915	1428.69
622.122	1399.69
622.329	1375.69
622.536	1381.69
622.743	1348.69
622.95	1348.69
623.157	1379.69
623.364	1335.69
623.571	1336.69
623.778	1311.69
623.985	1300.69
624.192	1287.69
624.399	1300.69
624.606	1300.69
624.812	1257.69
625.019	1301.69
625.226	1289.69
625.433	1268.69
625.639	1277.69
625.846	1244.69
626.053	1239.69
626.259	1263.69
626.466	1270.69
626.673	1246.69
626.879	1252.69
627.086	1240.69
627.293	1241.69
627.499	1215.69
627.706	1222.69
627.912	1211.69
628.119	1239.69
628.325	1209.69
628.532	1192.69
628.738	1208.69
628.945	1180.69
629.151	1177.69
629.357	1126.69
629.564	1152.69
629.77	1178.69
629.976	1142.69
630.183	1148.69
630.389	1175.69
630.595	1140.69
630.802	1107.69
631.008	1085.69
631.214	1115.69
631.42	1113.69
631.627	1074.69
631.833	1116.69
632.039	1075.69
632.245	1055.69
632.451	1070.69
632.657	1093.69
632.863	1055.69
633.069	1073.69
633.275	1053.69
633.481	1071.69
633.688	1070.69
633.893	1069.69
634.099	1063.69
634.305	1071.69
634.511	1077.69
634.717	1080.69
634.923	1069.69
635.129	1068.69
635.335	1094.69
635.541	1132.69
635.747	1156.69
635.952	1258.69
636.158	1413.69
636.364	2203.69
636.57	2393.69
636.775	1796.69
636.981	1515.69
637.187	1349.69
637.392	1265.69
637.598	1204.69
637.804	1171.69
638.009	1147.69
638.215	1113.69
638.421	1077.69
638.626	1042.69
638.832	1051.69
639.037	992.69
639.243	1007.69
639.448	1011.69
639.654	978.69
639.859	958.69
640.065	944.69
640.27	936.69
640.475	936.69
640.681	960.69
640.886	942.69
641.091	919.69
641.297	915.69
641.502	894.69
641.707	935.69
641.913	901.69
642.118	899.69
642.323	884.69
642.528	835.69
642.733	874.69
642.939	860.69
643.144	870.69
643.349	835.69
643.554	833.69
643.759	844.69
643.964	804.69
644.169	818.69
644.374	845.69
644.579	865.69
644.784	846.69
644.989	847.69
645.194	831.69
645.399	832.69
645.604	852.69
645.809	843.69
646.014	817.69
646.219	826.69
646.423	855.69
646.628	857.69
646.833	847.69
647.038	844.69
647.243	839.69
647.447	839.69
647.652	863.69
647.857	871.69
648.062	885.69
648.266	879.69
648.471	907.69
648.676	919.69
648.88	942.69
649.085	889.69
649.289	901.69
649.494	983.69
649.698	1199.69
649.903	987.69
650.107	848.69
650.312	781.69
650.516	763.69
650.721	732.69
650.925	733.69
651.13	706.69
651.334	680.69
651.539	673.69
651.743	663.69
651.947	663.69
652.152	644.69
652.356	626.69
652.56	619.69
652.764	608.69
652.969	603.69
653.173	586.69
653.377	567.69
653.581	545.69
653.785	537.69
653.99	584.69
654.194	533.69
654.398	529.69
654.602	532.69
654.806	574.69
655.01	666.69
655.214	564.69
655.418	522.69
655.622	520.69
655.826	492.69
656.03	499.69
656.234	537.69
656.438	574.69
656.642	545.69
656.846	509.69
657.049	465.69
657.253	434.69
657.457	401.69
657.661	351.69
657.865	358.69
658.068	338.69
658.272	313.69
658.476	293.69
658.68	273.69
658.883	270.69
659.087	245.69
659.291	257.69
659.494	236.69
659.698	222.69
659.901	212.69
660.105	217.69
660.309	206.69
660.512	193.69
660.716	191.69
660.919	194.69
661.123	180.69
661.326	164.69
661.53	145.69
661.733	141.69
661.936	137.69
662.14	127.69
662.343	116.69
662.546	120.69
662.75	110.69
662.953	113.69
663.156	116.69
663.36	106.69
663.563	95.69
663.766	79.69
663.969	90.69
664.173	85.69
664.376	84.69
664.579	103.69
664.782	84.69
664.985	73.69
665.188	80.69
665.391	75.69
665.594	81.69
665.797	63.69
666	74.69
666.203	79.69
666.406	74.69
666.609	81.69
666.812	91.69
667.015	81.69
667.218	83.69
667.421	85.69
667.624	87.69
667.827	86.69
668.03	82.69
668.232	76.69
668.435	79.69
668.638	76.69
668.841	79.69
669.043	90.69
669.246	97.69
669.449	79.69
669.651	77.69
669.854	91.69
670.057	87.69
670.259	73.69
670.462	65.69
670.665	76.69
670.867	83.69
671.07	85.69
671.272	84.69
671.475	78.69
671.677	77.69
671.88	86.69
672.082	63.69
672.284	83.69
672.487	78.69
672.689	69.69
672.892	75.69
