Data from Circ_1997_H10_HRD10591_00100.txt Node
Date: Wed Jan 03 11:29:47 EST 2024
User: Yrep
Spectrometer: HR+D1059
Trigger mode: 1
Integration Time (sec): 1.000000E-1
Scans to average: 1
Electric dark correction enabled: true
Nonlinearity correction enabled: false
Boxcar width: 0
XAxis mode: Wavelengths
Number of Pixels in Spectrum: 2048
>>>>>Begin Spectral Data<<<<<
223.165	-11.81
223.4	-11.81
223.635	-11.81
223.869	-16.81
224.104	-25.81
224.338	-12.81
224.573	-13.81
224.808	-3.81
225.042	-8.81
225.277	-4.81
225.511	5.19
225.746	14.19
225.98	8.19
226.215	-3.81
226.449	8.19
226.683	20.19
226.918	10.19
227.152	36.19
227.387	32.19
227.621	20.19
227.856	42.19
228.09	44.19
228.324	56.19
228.559	53.19
228.793	70.19
229.027	60.19
229.262	58.19
229.496	101.19
229.73	107.19
229.964	109.19
230.199	77.19
230.433	75.19
230.667	81.19
230.901	73.19
231.136	63.19
231.37	76.19
231.604	73.19
231.838	88.19
232.072	98.19
232.306	87.19
232.541	82.19
232.775	69.19
233.009	81.19
233.243	87.19
233.477	80.19
233.711	90.19
233.945	66.19
234.179	77.19
234.413	65.19
234.647	79.19
234.881	86.19
235.115	62.19
235.349	70.19
235.583	84.19
235.817	71.19
236.051	80.19
236.285	76.19
236.519	74.19
236.753	74.19
236.987	89.19
237.221	89.19
237.455	104.19
237.689	80.19
237.922	75.19
238.156	94.19
238.39	65.19
238.624	78.19
238.858	89.19
239.091	82.19
239.325	91.19
239.559	89.19
239.793	71.19
240.027	76.19
240.26	79.19
240.494	89.19
240.728	85.19
240.961	75.19
241.195	76.19
241.429	60.19
241.662	78.19
241.896	77.19
242.13	80.19
242.363	77.19
242.597	81.19
242.83	72.19
243.064	85.19
243.298	84.19
243.531	70.19
243.765	90.19
243.998	77.19
244.232	86.19
244.465	93.19
244.699	90.19
244.932	77.19
245.166	102.19
245.399	83.19
245.633	63.19
245.866	61.19
246.099	91.19
246.333	77.19
246.566	87.19
246.8	72.19
247.033	74.19
247.266	85.19
247.5	83.19
247.733	71.19
247.966	79.19
248.2	86.19
248.433	90.19
248.666	79.19
248.899	86.19
249.133	104.19
249.366	120.19
249.599	111.19
249.832	82.19
250.066	86.19
250.299	94.19
250.532	84.19
250.765	83.19
250.998	83.19
251.231	83.19
251.465	89.19
251.698	84.19
251.931	80.19
252.164	84.19
252.397	78.19
252.63	84.19
252.863	72.19
253.096	65.19
253.329	62.19
253.562	73.19
253.795	70.19
254.028	80.19
254.261	64.19
254.494	89.19
254.727	90.19
254.96	94.19
255.193	104.19
255.426	81.19
255.659	87.19
255.892	95.19
256.124	106.19
256.357	98.19
256.59	97.19
256.823	95.19
257.056	84.19
257.289	90.19
257.521	95.19
257.754	94.19
257.987	70.19
258.22	88.19
258.452	99.19
258.685	88.19
258.918	87.19
259.151	74.19
259.383	84.19
259.616	74.19
259.849	69.19
260.081	104.19
260.314	95.19
260.547	112.19
260.779	105.19
261.012	127.19
261.244	112.19
261.477	104.19
261.71	115.19
261.942	134.19
262.175	172.19
262.407	89.19
262.64	88.19
262.872	80.19
263.105	84.19
263.337	86.19
263.57	91.19
263.802	86.19
264.035	78.19
264.267	77.19
264.499	87.19
264.732	82.19
264.964	69.19
265.197	90.19
265.429	73.19
265.661	74.19
265.894	85.19
266.126	96.19
266.358	88.19
266.591	74.19
266.823	88.19
267.055	76.19
267.287	85.19
267.52	69.19
267.752	70.19
267.984	89.19
268.216	82.19
268.448	67.19
268.681	93.19
268.913	81.19
269.145	85.19
269.377	88.19
269.609	92.19
269.841	96.19
270.073	94.19
270.306	96.19
270.538	83.19
270.77	93.19
271.002	73.19
271.234	85.19
271.466	107.19
271.698	87.19
271.93	97.19
272.162	96.19
272.394	97.19
272.626	79.19
272.858	90.19
273.09	101.19
273.322	78.19
273.553	86.19
273.785	78.19
274.017	75.19
274.249	95.19
274.481	95.19
274.713	88.19
274.945	96.19
275.176	94.19
275.408	109.19
275.64	114.19
275.872	158.19
276.104	112.19
276.335	118.19
276.567	133.19
276.799	176.19
277.031	224.19
277.262	253.19
277.494	189.19
277.726	108.19
277.957	94.19
278.189	93.19
278.421	84.19
278.652	94.19
278.884	89.19
279.115	98.19
279.347	95.19
279.579	109.19
279.81	167.19
280.042	252.19
280.273	384.19
280.505	268.19
280.736	123.19
280.968	96.19
281.199	105.19
281.431	104.19
281.662	103.19
281.894	113.19
282.125	109.19
282.356	159.19
282.588	198.19
282.819	152.19
283.051	102.19
283.282	84.19
283.513	91.19
283.745	81.19
283.976	85.19
284.207	97.19
284.439	95.19
284.67	94.19
284.901	97.19
285.132	95.19
285.364	81.19
285.595	90.19
285.826	76.19
286.057	99.19
286.288	86.19
286.52	79.19
286.751	81.19
286.982	96.19
287.213	82.19
287.444	80.19
287.675	99.19
287.906	95.19
288.138	92.19
288.369	93.19
288.6	97.19
288.831	86.19
289.062	96.19
289.293	97.19
289.524	88.19
289.755	69.19
289.986	87.19
290.217	86.19
290.448	104.19
290.679	90.19
290.91	93.19
291.141	98.19
291.371	89.19
291.602	92.19
291.833	92.19
292.064	85.19
292.295	89.19
292.526	96.19
292.757	86.19
292.987	95.19
293.218	86.19
293.449	104.19
293.68	72.19
293.91	73.19
294.141	87.19
294.372	86.19
294.603	97.19
294.833	109.19
295.064	82.19
295.295	98.19
295.525	97.19
295.756	105.19
295.987	138.19
296.217	182.19
296.448	153.19
296.679	85.19
296.909	96.19
297.14	90.19
297.37	82.19
297.601	85.19
297.831	95.19
298.062	111.19
298.292	91.19
298.523	88.19
298.753	94.19
298.984	96.19
299.214	92.19
299.445	93.19
299.675	89.19
299.905	107.19
300.136	93.19
300.366	86.19
300.597	98.19
300.827	106.19
301.057	106.19
301.288	123.19
301.518	124.19
301.748	91.19
301.979	114.19
302.209	109.19
302.439	110.19
302.669	89.19
302.9	72.19
303.13	96.19
303.36	103.19
303.59	138.19
303.82	166.19
304.051	114.19
304.281	98.19
304.511	98.19
304.741	88.19
304.971	95.19
305.201	95.19
305.431	106.19
305.661	87.19
305.891	104.19
306.121	96.19
306.352	129.19
306.582	135.19
306.812	112.19
307.042	149.19
307.272	214.19
307.502	238.19
307.731	209.19
307.961	150.19
308.191	106.19
308.421	100.19
308.651	106.19
308.881	101.19
309.111	104.19
309.341	77.19
309.571	111.19
309.8	104.19
310.03	105.19
310.26	103.19
310.49	98.19
310.72	110.19
310.949	133.19
311.179	124.19
311.409	87.19
311.639	118.19
311.868	109.19
312.098	106.19
312.328	116.19
312.557	118.19
312.787	141.19
313.017	122.19
313.246	99.19
313.476	106.19
313.706	87.19
313.935	114.19
314.165	119.19
314.394	121.19
314.624	115.19
314.853	105.19
315.083	109.19
315.312	92.19
315.542	90.19
315.771	91.19
316.001	98.19
316.23	95.19
316.46	89.19
316.689	103.19
316.919	108.19
317.148	113.19
317.377	114.19
317.607	94.19
317.836	104.19
318.065	88.19
318.295	100.19
318.524	104.19
318.753	97.19
318.983	101.19
319.212	110.19
319.441	125.19
319.67	134.19
319.9	97.19
320.129	98.19
320.358	100.19
320.587	111.19
320.816	103.19
321.046	112.19
321.275	127.19
321.504	75.19
321.733	86.19
321.962	105.19
322.191	117.19
322.42	126.19
322.649	134.19
322.878	134.19
323.108	148.19
323.337	157.19
323.566	180.19
323.795	217.19
324.024	287.19
324.253	598.19
324.482	1351.19
324.71	2800.19
324.939	3620.19
325.168	1287.19
325.397	341.19
325.626	219.19
325.855	159.19
326.084	161.19
326.313	164.19
326.542	194.19
326.77	311.19
326.999	656.19
327.228	1404.19
327.457	2616.19
327.686	2021.19
327.914	723.19
328.143	782.19
328.372	1071.19
328.6	559.19
328.829	252.19
329.058	249.19
329.287	266.19
329.515	236.19
329.744	369.19
329.972	745.19
330.201	1604.19
330.43	2361.19
330.658	985.19
330.887	404.19
331.115	252.19
331.344	128.19
331.572	121.19
331.801	146.19
332.03	137.19
332.258	127.19
332.486	110.19
332.715	104.19
332.943	132.19
333.172	151.19
333.4	167.19
333.629	202.19
333.857	328.19
334.085	680.19
334.314	1505.19
334.542	3016.19
334.771	2670.19
334.999	656.19
335.227	222.19
335.455	127.19
335.684	124.19
335.912	110.19
336.14	110.19
336.369	110.19
336.597	126.19
336.825	112.19
337.053	120.19
337.281	99.19
337.51	103.19
337.738	113.19
337.966	114.19
338.194	119.19
338.422	102.19
338.65	97.19
338.878	95.19
339.106	107.19
339.334	92.19
339.562	94.19
339.79	75.19
340.018	107.19
340.246	114.19
340.474	103.19
340.702	112.19
340.93	102.19
341.158	98.19
341.386	111.19
341.614	112.19
341.842	102.19
342.07	111.19
342.298	95.19
342.526	102.19
342.754	91.19
342.981	111.19
343.209	96.19
343.437	102.19
343.665	103.19
343.893	83.19
344.12	96.19
344.348	97.19
344.576	88.19
344.804	107.19
345.031	117.19
345.259	106.19
345.487	102.19
345.714	103.19
345.942	88.19
346.17	93.19
346.397	103.19
346.625	108.19
346.853	109.19
347.08	85.19
347.308	109.19
347.535	115.19
347.763	114.19
347.99	97.19
348.218	133.19
348.445	121.19
348.673	110.19
348.9	102.19
349.128	103.19
349.355	100.19
349.583	96.19
349.81	103.19
350.037	88.19
350.265	93.19
350.492	109.19
350.72	116.19
350.947	110.19
351.174	126.19
351.402	149.19
351.629	104.19
351.856	111.19
352.083	120.19
352.311	117.19
352.538	144.19
352.765	123.19
352.992	126.19
353.22	122.19
353.447	114.19
353.674	113.19
353.901	105.19
354.128	103.19
354.355	95.19
354.583	88.19
354.81	113.19
355.037	90.19
355.264	97.19
355.491	94.19
355.718	83.19
355.945	84.19
356.172	91.19
356.399	94.19
356.626	96.19
356.853	86.19
357.08	88.19
357.307	93.19
357.534	82.19
357.761	74.19
357.988	88.19
358.215	97.19
358.441	90.19
358.668	96.19
358.895	97.19
359.122	86.19
359.349	96.19
359.576	103.19
359.802	131.19
360.029	164.19
360.256	162.19
360.483	114.19
360.709	114.19
360.936	106.19
361.163	101.19
361.39	132.19
361.616	107.19
361.843	109.19
362.07	117.19
362.296	127.19
362.523	96.19
362.749	101.19
362.976	94.19
363.203	97.19
363.429	88.19
363.656	105.19
363.882	91.19
364.109	96.19
364.335	104.19
364.562	100.19
364.788	94.19
365.015	89.19
365.241	93.19
365.468	122.19
365.694	128.19
365.92	119.19
366.147	98.19
366.373	96.19
366.599	90.19
366.826	102.19
367.052	96.19
367.278	95.19
367.505	93.19
367.731	97.19
367.957	104.19
368.184	102.19
368.41	117.19
368.636	145.19
368.862	140.19
369.089	127.19
369.315	120.19
369.541	105.19
369.767	104.19
369.993	101.19
370.219	94.19
370.445	82.19
370.672	94.19
370.898	89.19
371.124	78.19
371.35	77.19
371.576	88.19
371.802	78.19
372.028	91.19
372.254	88.19
372.48	86.19
372.706	91.19
372.932	93.19
373.158	90.19
373.384	88.19
373.61	77.19
373.835	95.19
374.061	103.19
374.287	96.19
374.513	95.19
374.739	88.19
374.965	90.19
375.191	80.19
375.416	79.19
375.642	85.19
375.868	89.19
376.094	99.19
376.319	98.19
376.545	80.19
376.771	97.19
376.997	85.19
377.222	82.19
377.448	94.19
377.674	81.19
377.899	72.19
378.125	91.19
378.35	78.19
378.576	83.19
378.802	84.19
379.027	86.19
379.253	86.19
379.478	84.19
379.704	92.19
379.929	85.19
380.155	84.19
380.38	106.19
380.606	90.19
380.831	93.19
381.057	104.19
381.282	92.19
381.507	84.19
381.733	104.19
381.958	90.19
382.184	92.19
382.409	93.19
382.634	114.19
382.86	94.19
383.085	105.19
383.31	92.19
383.535	98.19
383.761	82.19
383.986	91.19
384.211	92.19
384.436	83.19
384.662	87.19
384.887	89.19
385.112	103.19
385.337	88.19
385.562	95.19
385.787	87.19
386.013	110.19
386.238	125.19
386.463	96.19
386.688	102.19
386.913	97.19
387.138	85.19
387.363	86.19
387.588	92.19
387.813	100.19
388.038	98.19
388.263	98.19
388.488	98.19
388.713	101.19
388.938	94.19
389.163	94.19
389.387	103.19
389.612	93.19
389.837	89.19
390.062	93.19
390.287	91.19
390.512	88.19
390.736	92.19
390.961	69.19
391.186	96.19
391.411	86.19
391.636	87.19
391.86	84.19
392.085	79.19
392.31	74.19
392.534	91.19
392.759	81.19
392.984	94.19
393.208	73.19
393.433	91.19
393.658	82.19
393.882	84.19
394.107	95.19
394.331	82.19
394.556	97.19
394.78	80.19
395.005	93.19
395.229	89.19
395.454	93.19
395.678	84.19
395.903	90.19
396.127	89.19
396.352	86.19
396.576	84.19
396.801	90.19
397.025	80.19
397.249	94.19
397.474	88.19
397.698	92.19
397.922	91.19
398.147	89.19
398.371	93.19
398.595	88.19
398.82	84.19
399.044	86.19
399.268	78.19
399.492	92.19
399.717	86.19
399.941	92.19
400.165	89.19
400.389	98.19
400.613	86.19
400.837	78.19
401.062	81.19
401.286	96.19
401.51	100.19
401.734	96.19
401.958	116.19
402.182	193.19
402.406	221.19
402.63	177.19
402.854	123.19
403.078	95.19
403.302	94.19
403.526	102.19
403.75	84.19
403.974	103.19
404.198	94.19
404.422	97.19
404.645	102.19
404.869	108.19
405.093	112.19
405.317	160.19
405.541	161.19
405.765	126.19
405.988	154.19
406.212	273.19
406.436	393.19
406.66	250.19
406.883	128.19
407.107	133.19
407.331	94.19
407.555	129.19
407.778	114.19
408.002	98.19
408.226	94.19
408.449	92.19
408.673	102.19
408.896	96.19
409.12	91.19
409.344	104.19
409.567	86.19
409.791	82.19
410.014	91.19
410.238	113.19
410.461	102.19
410.685	93.19
410.908	96.19
411.132	108.19
411.355	100.19
411.578	90.19
411.802	95.19
412.025	96.19
412.249	118.19
412.472	146.19
412.695	154.19
412.919	107.19
413.142	92.19
413.365	87.19
413.589	94.19
413.812	90.19
414.035	85.19
414.258	82.19
414.482	99.19
414.705	88.19
414.928	84.19
415.151	83.19
415.374	93.19
415.597	96.19
415.821	89.19
416.044	86.19
416.267	86.19
416.49	86.19
416.713	83.19
416.936	92.19
417.159	108.19
417.382	96.19
417.605	113.19
417.828	116.19
418.051	115.19
418.274	96.19
418.497	90.19
418.72	89.19
418.943	80.19
419.166	90.19
419.389	86.19
419.611	86.19
419.834	106.19
420.057	97.19
420.28	99.19
420.503	103.19
420.726	94.19
420.948	90.19
421.171	103.19
421.394	104.19
421.617	90.19
421.839	105.19
422.062	97.19
422.285	88.19
422.507	92.19
422.73	109.19
422.953	90.19
423.175	80.19
423.398	102.19
423.621	94.19
423.843	95.19
424.066	86.19
424.288	96.19
424.511	106.19
424.733	117.19
424.956	119.19
425.178	121.19
425.401	97.19
425.623	113.19
425.846	88.19
426.068	113.19
426.291	107.19
426.513	95.19
426.735	92.19
426.958	102.19
427.18	135.19
427.402	226.19
427.625	308.19
427.847	306.19
428.069	282.19
428.292	160.19
428.514	113.19
428.736	102.19
428.958	96.19
429.181	98.19
429.403	90.19
429.625	100.19
429.847	101.19
430.069	110.19
430.292	91.19
430.514	89.19
430.736	88.19
430.958	82.19
431.18	90.19
431.402	91.19
431.624	70.19
431.846	105.19
432.068	92.19
432.29	96.19
432.512	90.19
432.734	82.19
432.956	90.19
433.178	116.19
433.4	115.19
433.622	109.19
433.844	88.19
434.066	93.19
434.287	86.19
434.509	90.19
434.731	91.19
434.953	93.19
435.175	94.19
435.397	93.19
435.618	98.19
435.84	104.19
436.062	160.19
436.284	152.19
436.505	129.19
436.727	109.19
436.949	85.19
437.17	96.19
437.392	106.19
437.614	106.19
437.835	131.19
438.057	180.19
438.278	157.19
438.5	119.19
438.721	141.19
438.943	101.19
439.165	109.19
439.386	93.19
439.608	95.19
439.829	108.19
440.05	178.19
440.272	240.19
440.493	128.19
440.715	95.19
440.936	80.19
441.158	91.19
441.379	82.19
441.6	109.19
441.822	103.19
442.043	114.19
442.264	125.19
442.486	125.19
442.707	107.19
442.928	141.19
443.149	216.19
443.371	221.19
443.592	151.19
443.813	146.19
444.034	136.19
444.255	102.19
444.476	85.19
444.698	90.19
444.919	95.19
445.14	141.19
445.361	140.19
445.582	163.19
445.803	216.19
446.024	207.19
446.245	196.19
446.466	158.19
446.687	113.19
446.908	98.19
447.129	93.19
447.35	87.19
447.571	102.19
447.792	98.19
448.013	127.19
448.234	134.19
448.455	121.19
448.675	160.19
448.896	148.19
449.117	116.19
449.338	104.19
449.559	166.19
449.779	170.19
450	110.19
450.221	94.19
450.442	112.19
450.662	110.19
450.883	158.19
451.104	166.19
451.324	108.19
451.545	96.19
451.766	93.19
451.986	91.19
452.207	98.19
452.428	95.19
452.648	108.19
452.869	152.19
453.089	159.19
453.31	168.19
453.53	103.19
453.751	102.19
453.971	119.19
454.192	170.19
454.412	84.19
454.633	90.19
454.853	90.19
455.073	93.19
455.294	106.19
455.514	111.19
455.734	96.19
455.955	84.19
456.175	83.19
456.395	85.19
456.616	79.19
456.836	84.19
457.056	92.19
457.276	73.19
457.497	80.19
457.717	85.19
457.937	93.19
458.157	106.19
458.377	118.19
458.598	161.19
458.818	265.19
459.038	300.19
459.258	162.19
459.478	102.19
459.698	92.19
459.918	87.19
460.138	91.19
460.358	84.19
460.578	97.19
460.798	111.19
461.018	101.19
461.238	93.19
461.458	95.19
461.678	77.19
461.898	93.19
462.118	97.19
462.338	82.19
462.558	86.19
462.777	88.19
462.997	112.19
463.217	113.19
463.437	111.19
463.657	100.19
463.876	96.19
464.096	97.19
464.316	110.19
464.536	107.19
464.755	105.19
464.975	143.19
465.195	294.19
465.414	288.19
465.634	115.19
465.854	97.19
466.073	86.19
466.293	97.19
466.512	86.19
466.732	105.19
466.951	87.19
467.171	116.19
467.391	119.19
467.61	182.19
467.829	306.19
468.049	874.19
468.268	1338.19
468.488	311.19
468.707	119.19
468.927	110.19
469.146	123.19
469.365	99.19
469.585	107.19
469.804	133.19
470.023	149.19
470.243	109.19
470.462	125.19
470.681	171.19
470.901	109.19
471.12	102.19
471.339	121.19
471.558	151.19
471.777	196.19
471.997	446.19
472.216	1774.19
472.435	4122.19
472.654	884.19
472.873	208.19
473.092	123.19
473.311	97.19
473.53	104.19
473.749	99.19
473.968	106.19
474.187	146.19
474.406	125.19
474.625	91.19
474.844	95.19
475.063	102.19
475.282	104.19
475.501	104.19
475.72	88.19
475.939	81.19
476.158	80.19
476.377	92.19
476.596	98.19
476.814	94.19
477.033	115.19
477.252	110.19
477.471	104.19
477.69	92.19
477.908	110.19
478.127	93.19
478.346	96.19
478.564	96.19
478.783	124.19
479.002	110.19
479.22	111.19
479.439	146.19
479.658	161.19
479.876	154.19
480.095	143.19
480.313	175.19
480.532	214.19
480.751	410.19
480.969	1578.19
481.188	6978.19
481.406	3856.19
481.624	508.19
481.843	174.19
482.061	129.19
482.28	106.19
482.498	100.19
482.717	101.19
482.935	81.19
483.153	98.19
483.372	86.19
483.59	91.19
483.808	97.19
484.027	106.19
484.245	106.19
484.463	90.19
484.681	90.19
484.9	87.19
485.118	95.19
485.336	90.19
485.554	108.19
485.772	103.19
485.99	98.19
486.209	88.19
486.427	105.19
486.645	135.19
486.863	142.19
487.081	117.19
487.299	122.19
487.517	88.19
487.735	95.19
487.953	81.19
488.171	90.19
488.389	100.19
488.607	129.19
488.825	96.19
489.043	85.19
489.261	80.19
489.479	89.19
489.696	89.19
489.914	93.19
490.132	89.19
490.35	92.19
490.568	90.19
490.786	89.19
491.003	90.19
491.221	93.19
491.439	105.19
491.657	97.19
491.874	105.19
492.092	100.19
492.31	100.19
492.527	116.19
492.745	117.19
492.963	92.19
493.18	98.19
493.398	93.19
493.615	99.19
493.833	100.19
494.05	92.19
494.268	94.19
494.485	100.19
494.703	91.19
494.92	100.19
495.138	91.19
495.355	88.19
495.573	98.19
495.79	89.19
496.008	89.19
496.225	88.19
496.442	91.19
496.66	106.19
496.877	99.19
497.094	98.19
497.312	79.19
497.529	111.19
497.746	106.19
497.963	90.19
498.181	104.19
498.398	98.19
498.615	125.19
498.832	109.19
499.049	102.19
499.267	96.19
499.484	82.19
499.701	78.19
499.918	97.19
500.135	90.19
500.352	105.19
500.569	103.19
500.786	104.19
501.003	85.19
501.22	70.19
501.437	106.19
501.654	93.19
501.871	128.19
502.088	103.19
502.305	83.19
502.522	89.19
502.739	81.19
502.956	81.19
503.172	107.19
503.389	117.19
503.606	153.19
503.823	121.19
504.04	91.19
504.256	94.19
504.473	91.19
504.69	95.19
504.907	95.19
505.123	90.19
505.34	90.19
505.557	87.19
505.773	104.19
505.99	107.19
506.207	87.19
506.423	78.19
506.64	94.19
506.856	93.19
507.073	89.19
507.289	113.19
507.506	109.19
507.722	138.19
507.939	144.19
508.155	105.19
508.372	113.19
508.588	107.19
508.805	105.19
509.021	108.19
509.238	104.19
509.454	116.19
509.67	123.19
509.887	125.19
510.103	162.19
510.319	262.19
510.536	1159.19
510.752	4213.19
510.968	1128.19
511.184	215.19
511.401	137.19
511.617	125.19
511.833	132.19
512.049	92.19
512.265	96.19
512.481	108.19
512.698	80.19
512.914	96.19
513.13	89.19
513.346	119.19
513.562	98.19
513.778	122.19
513.994	107.19
514.21	124.19
514.426	178.19
514.642	232.19
514.858	202.19
515.074	284.19
515.29	972.19
515.506	3565.19
515.721	1196.19
515.937	271.19
516.153	146.19
516.369	118.19
516.585	117.19
516.801	127.19
517.016	93.19
517.232	106.19
517.448	96.19
517.664	102.19
517.879	98.19
518.095	103.19
518.311	114.19
518.527	116.19
518.742	103.19
518.958	116.19
519.173	114.19
519.389	95.19
519.605	105.19
519.82	108.19
520.036	133.19
520.251	172.19
520.467	138.19
520.682	120.19
520.898	132.19
521.113	170.19
521.329	225.19
521.544	397.19
521.76	1282.19
521.975	6106.19
522.19	3513.19
522.406	644.19
522.621	188.19
522.836	141.19
523.052	108.19
523.267	113.19
523.482	111.19
523.698	116.19
523.913	167.19
524.128	126.19
524.343	102.19
524.559	103.19
524.774	97.19
524.989	109.19
525.204	149.19
525.419	113.19
525.634	88.19
525.849	88.19
526.064	97.19
526.28	96.19
526.495	93.19
526.71	83.19
526.925	89.19
527.14	104.19
527.355	95.19
527.57	93.19
527.785	86.19
527.999	92.19
528.214	82.19
528.429	100.19
528.644	101.19
528.859	104.19
529.074	111.19
529.289	179.19
529.503	358.19
529.718	146.19
529.933	98.19
530.148	88.19
530.363	95.19
530.577	81.19
530.792	95.19
531.007	79.19
531.221	85.19
531.436	75.19
531.651	90.19
531.865	93.19
532.08	93.19
532.295	96.19
532.509	95.19
532.724	98.19
532.938	96.19
533.153	101.19
533.367	88.19
533.582	80.19
533.796	78.19
534.011	90.19
534.225	84.19
534.44	98.19
534.654	93.19
534.868	97.19
535.083	82.19
535.297	103.19
535.511	125.19
535.726	120.19
535.94	92.19
536.154	111.19
536.369	91.19
536.583	111.19
536.797	89.19
537.011	97.19
537.225	92.19
537.44	96.19
537.654	89.19
537.868	84.19
538.082	94.19
538.296	90.19
538.51	80.19
538.724	73.19
538.938	93.19
539.153	101.19
539.367	140.19
539.581	84.19
539.795	91.19
540.009	80.19
540.222	91.19
540.436	95.19
540.65	89.19
540.864	97.19
541.078	109.19
541.292	88.19
541.506	105.19
541.72	79.19
541.934	80.19
542.147	97.19
542.361	92.19
542.575	82.19
542.789	87.19
543.002	96.19
543.216	103.19
543.43	126.19
543.644	101.19
543.857	78.19
544.071	93.19
544.285	101.19
544.498	87.19
544.712	85.19
544.925	82.19
545.139	91.19
545.352	74.19
545.566	92.19
545.779	71.19
545.993	88.19
546.206	77.19
546.42	82.19
546.633	74.19
546.847	97.19
547.06	79.19
547.274	86.19
547.487	96.19
547.7	81.19
547.914	90.19
548.127	93.19
548.34	74.19
548.554	90.19
548.767	76.19
548.98	93.19
549.193	87.19
549.407	88.19
549.62	77.19
549.833	77.19
550.046	90.19
550.259	83.19
550.473	85.19
550.686	89.19
550.899	93.19
551.112	96.19
551.325	103.19
551.538	124.19
551.751	97.19
551.964	93.19
552.177	82.19
552.39	82.19
552.603	101.19
552.816	97.19
553.029	94.19
553.242	95.19
553.455	104.19
553.667	124.19
553.88	148.19
554.093	98.19
554.306	133.19
554.519	144.19
554.732	113.19
554.944	105.19
555.157	94.19
555.37	110.19
555.583	98.19
555.795	104.19
556.008	93.19
556.221	92.19
556.433	82.19
556.646	106.19
556.859	93.19
557.071	78.19
557.284	91.19
557.496	92.19
557.709	92.19
557.921	92.19
558.134	80.19
558.346	100.19
558.559	108.19
558.771	80.19
558.984	75.19
559.196	92.19
559.409	76.19
559.621	90.19
559.833	76.19
560.046	83.19
560.258	116.19
560.47	176.19
560.683	110.19
560.895	103.19
561.107	83.19
561.32	82.19
561.532	95.19
561.744	103.19
561.956	81.19
562.168	87.19
562.381	96.19
562.593	82.19
562.805	81.19
563.017	96.19
563.229	89.19
563.441	95.19
563.653	77.19
563.865	79.19
564.077	90.19
564.289	92.19
564.501	92.19
564.713	94.19
564.925	93.19
565.137	118.19
565.349	103.19
565.561	94.19
565.773	75.19
565.985	89.19
566.197	86.19
566.408	95.19
566.62	86.19
566.832	98.19
567.044	94.19
567.255	96.19
567.467	98.19
567.679	87.19
567.891	86.19
568.102	93.19
568.314	98.19
568.526	82.19
568.737	87.19
568.949	93.19
569.161	88.19
569.372	94.19
569.584	94.19
569.795	99.19
570.007	134.19
570.218	362.19
570.43	169.19
570.641	98.19
570.853	87.19
571.064	95.19
571.276	97.19
571.487	88.19
571.698	77.19
571.91	89.19
572.121	81.19
572.333	95.19
572.544	82.19
572.755	93.19
572.966	83.19
573.178	90.19
573.389	100.19
573.6	92.19
573.811	85.19
574.023	98.19
574.234	98.19
574.445	88.19
574.656	82.19
574.867	90.19
575.078	94.19
575.289	93.19
575.501	87.19
575.712	86.19
575.923	98.19
576.134	79.19
576.345	87.19
576.556	107.19
576.767	92.19
576.978	84.19
577.188	88.19
577.399	92.19
577.61	117.19
577.821	111.19
578.032	134.19
578.243	389.19
578.454	1270.19
578.665	313.19
578.875	106.19
579.086	89.19
579.297	80.19
579.508	93.19
579.718	87.19
579.929	92.19
580.14	89.19
580.35	77.19
580.561	72.19
580.772	84.19
580.982	93.19
581.193	95.19
581.403	90.19
581.614	89.19
581.825	76.19
582.035	74.19
582.246	88.19
582.456	90.19
582.667	80.19
582.877	91.19
583.087	65.19
583.298	87.19
583.508	90.19
583.719	94.19
583.929	82.19
584.139	86.19
584.35	66.19
584.56	86.19
584.77	87.19
584.981	91.19
585.191	89.19
585.401	84.19
585.611	94.19
585.821	88.19
586.032	78.19
586.242	85.19
586.452	79.19
586.662	66.19
586.872	90.19
587.082	94.19
587.292	76.19
587.502	95.19
587.713	88.19
587.923	76.19
588.133	92.19
588.343	70.19
588.553	94.19
588.762	95.19
588.972	96.19
589.182	107.19
589.392	91.19
589.602	100.19
589.812	108.19
590.022	94.19
590.232	87.19
590.441	87.19
590.651	93.19
590.861	84.19
591.071	78.19
591.281	86.19
591.49	83.19
591.7	85.19
591.91	92.19
592.119	87.19
592.329	86.19
592.539	102.19
592.748	98.19
592.958	72.19
593.167	84.19
593.377	88.19
593.587	95.19
593.796	98.19
594.006	98.19
594.215	78.19
594.424	91.19
594.634	83.19
594.843	114.19
595.053	79.19
595.262	81.19
595.472	96.19
595.681	97.19
595.89	102.19
596.1	76.19
596.309	79.19
596.518	79.19
596.727	90.19
596.937	93.19
597.146	84.19
597.355	89.19
597.564	92.19
597.774	77.19
597.983	93.19
598.192	91.19
598.401	91.19
598.61	72.19
598.819	86.19
599.028	90.19
599.237	96.19
599.446	79.19
599.655	89.19
599.864	71.19
600.073	92.19
600.282	74.19
600.491	84.19
600.7	79.19
600.909	81.19
601.118	84.19
601.327	80.19
601.536	78.19
601.745	93.19
601.953	93.19
602.162	93.19
602.371	85.19
602.58	91.19
602.789	87.19
602.997	79.19
603.206	85.19
603.415	81.19
603.623	86.19
603.832	100.19
604.041	82.19
604.249	83.19
604.458	97.19
604.666	79.19
604.875	86.19
605.084	91.19
605.292	89.19
605.501	94.19
605.709	87.19
605.918	89.19
606.126	81.19
606.334	94.19
606.543	85.19
606.751	70.19
606.96	91.19
607.168	98.19
607.376	97.19
607.585	92.19
607.793	82.19
608.001	81.19
608.21	87.19
608.418	89.19
608.626	70.19
608.834	96.19
609.043	92.19
609.251	83.19
609.459	86.19
609.667	80.19
609.875	84.19
610.083	74.19
610.291	88.19
610.499	83.19
610.707	83.19
610.916	78.19
611.124	86.19
611.332	93.19
611.54	87.19
611.748	88.19
611.955	92.19
612.163	86.19
612.371	89.19
612.579	90.19
612.787	84.19
612.995	93.19
613.203	73.19
613.411	96.19
613.618	80.19
613.826	76.19
614.034	76.19
614.242	65.19
614.449	61.19
614.657	92.19
614.865	75.19
615.072	84.19
615.28	96.19
615.488	96.19
615.695	80.19
615.903	82.19
616.111	100.19
616.318	78.19
616.526	84.19
616.733	84.19
616.941	75.19
617.148	80.19
617.356	82.19
617.563	85.19
617.771	87.19
617.978	81.19
618.185	94.19
618.393	92.19
618.6	86.19
618.807	79.19
619.015	82.19
619.222	85.19
619.429	89.19
619.637	91.19
619.844	81.19
620.051	65.19
620.258	80.19
620.466	88.19
620.673	89.19
620.88	88.19
621.087	98.19
621.294	79.19
621.501	86.19
621.708	72.19
621.915	92.19
622.122	81.19
622.329	87.19
622.536	79.19
622.743	86.19
622.95	90.19
623.157	73.19
623.364	91.19
623.571	93.19
623.778	85.19
623.985	93.19
624.192	96.19
624.399	97.19
624.606	79.19
624.812	88.19
625.019	90.19
625.226	89.19
625.433	75.19
625.639	79.19
625.846	84.19
626.053	82.19
626.259	86.19
626.466	85.19
626.673	90.19
626.879	90.19
627.086	73.19
627.293	89.19
627.499	87.19
627.706	71.19
627.912	78.19
628.119	82.19
628.325	94.19
628.532	87.19
628.738	82.19
628.945	70.19
629.151	90.19
629.357	81.19
629.564	72.19
629.77	77.19
629.976	76.19
630.183	89.19
630.389	78.19
630.595	89.19
630.802	78.19
631.008	93.19
631.214	85.19
631.42	80.19
631.627	80.19
631.833	96.19
632.039	92.19
632.245	80.19
632.451	86.19
632.657	84.19
632.863	80.19
633.069	76.19
633.275	93.19
633.481	88.19
633.688	89.19
633.893	63.19
634.099	83.19
634.305	81.19
634.511	77.19
634.717	84.19
634.923	89.19
635.129	80.19
635.335	102.19
635.541	99.19
635.747	113.19
635.952	111.19
636.158	167.19
636.364	568.19
636.57	498.19
636.775	176.19
636.981	106.19
637.187	101.19
637.392	78.19
637.598	84.19
637.804	80.19
638.009	79.19
638.215	88.19
638.421	95.19
638.626	71.19
638.832	76.19
639.037	84.19
639.243	79.19
639.448	84.19
639.654	79.19
639.859	82.19
640.065	69.19
640.27	80.19
640.475	73.19
640.681	72.19
640.886	82.19
641.091	89.19
641.297	85.19
641.502	78.19
641.707	87.19
641.913	85.19
642.118	79.19
642.323	84.19
642.528	89.19
642.733	79.19
642.939	75.19
643.144	84.19
643.349	76.19
643.554	78.19
643.759	86.19
643.964	75.19
644.169	81.19
644.374	75.19
644.579	74.19
644.784	86.19
644.989	79.19
645.194	72.19
645.399	93.19
645.604	93.19
645.809	82.19
646.014	83.19
646.219	88.19
646.423	95.19
646.628	77.19
646.833	78.19
647.038	78.19
647.243	83.19
647.447	82.19
647.652	82.19
647.857	80.19
648.062	94.19
648.266	75.19
648.471	86.19
648.676	90.19
648.88	84.19
649.085	95.19
649.289	86.19
649.494	109.19
649.698	162.19
649.903	105.19
650.107	97.19
650.312	79.19
650.516	85.19
650.721	72.19
650.925	95.19
651.13	85.19
651.334	66.19
651.539	83.19
651.743	92.19
651.947	87.19
652.152	88.19
652.356	74.19
652.56	85.19
652.764	77.19
652.969	85.19
653.173	78.19
653.377	76.19
653.581	81.19
653.785	85.19
653.99	79.19
654.194	77.19
654.398	79.19
654.602	69.19
654.806	83.19
655.01	113.19
655.214	90.19
655.418	76.19
655.622	86.19
655.826	93.19
656.03	90.19
656.234	84.19
656.438	105.19
656.642	100.19
656.846	96.19
657.049	87.19
657.253	85.19
657.457	87.19
657.661	82.19
657.865	84.19
658.068	74.19
658.272	76.19
658.476	79.19
658.68	79.19
658.883	82.19
659.087	96.19
659.291	82.19
659.494	78.19
659.698	81.19
659.901	77.19
660.105	66.19
660.309	79.19
660.512	76.19
660.716	71.19
660.919	79.19
661.123	82.19
661.326	83.19
661.53	84.19
661.733	85.19
661.936	80.19
662.14	90.19
662.343	87.19
662.546	81.19
662.75	85.19
662.953	71.19
663.156	73.19
663.36	78.19
663.563	78.19
663.766	79.19
663.969	94.19
664.173	72.19
664.376	74.19
664.579	85.19
664.782	80.19
664.985	74.19
665.188	90.19
665.391	85.19
665.594	79.19
665.797	81.19
666	85.19
666.203	80.19
666.406	72.19
666.609	82.19
666.812	79.19
667.015	68.19
667.218	96.19
667.421	71.19
667.624	78.19
667.827	81.19
668.03	85.19
668.232	79.19
668.435	82.19
668.638	95.19
668.841	80.19
669.043	80.19
669.246	74.19
669.449	88.19
669.651	72.19
669.854	84.19
670.057	74.19
670.259	82.19
670.462	69.19
670.665	83.19
670.867	85.19
671.07	86.19
671.272	75.19
671.475	69.19
671.677	84.19
671.88	57.19
672.082	73.19
672.284	85.19
672.487	60.19
672.689	76.19
672.892	86.19
