Data from Circ_1997_H10_HRD10591_00099.txt Node
Date: Wed Jan 03 11:29:47 EST 2024
User: Yrep
Spectrometer: HR+D1059
Trigger mode: 1
Integration Time (sec): 1.000000E-1
Scans to average: 1
Electric dark correction enabled: true
Nonlinearity correction enabled: false
Boxcar width: 0
XAxis mode: Wavelengths
Number of Pixels in Spectrum: 2048
>>>>>Begin Spectral Data<<<<<
223.165	-19.5
223.4	-19.5
223.635	-19.5
223.869	-21.5
224.104	-26.5
224.338	-20.5
224.573	-6.5
224.808	-19.5
225.042	-12.5
225.277	-1.5
225.511	3.5
225.746	2.5
225.98	7.5
226.215	16.5
226.449	22.5
226.683	22.5
226.918	20.5
227.152	32.5
227.387	23.5
227.621	27.5
227.856	35.5
228.09	38.5
228.324	42.5
228.559	52.5
228.793	66.5
229.027	58.5
229.262	81.5
229.496	74.5
229.73	103.5
229.964	91.5
230.199	74.5
230.433	67.5
230.667	75.5
230.901	86.5
231.136	86.5
231.37	86.5
231.604	74.5
231.838	73.5
232.072	73.5
232.306	92.5
232.541	80.5
232.775	74.5
233.009	84.5
233.243	81.5
233.477	91.5
233.711	75.5
233.945	79.5
234.179	78.5
234.413	87.5
234.647	81.5
234.881	83.5
235.115	87.5
235.349	103.5
235.583	89.5
235.817	81.5
236.051	85.5
236.285	87.5
236.519	90.5
236.753	87.5
236.987	93.5
237.221	97.5
237.455	95.5
237.689	81.5
237.922	74.5
238.156	88.5
238.39	91.5
238.624	77.5
238.858	75.5
239.091	92.5
239.325	91.5
239.559	76.5
239.793	97.5
240.027	96.5
240.26	77.5
240.494	81.5
240.728	70.5
240.961	82.5
241.195	100.5
241.429	75.5
241.662	84.5
241.896	78.5
242.13	88.5
242.363	79.5
242.597	88.5
242.83	86.5
243.064	89.5
243.298	81.5
243.531	78.5
243.765	84.5
243.998	90.5
244.232	84.5
244.465	87.5
244.699	82.5
244.932	72.5
245.166	79.5
245.399	104.5
245.633	80.5
245.866	81.5
246.099	70.5
246.333	76.5
246.566	67.5
246.8	82.5
247.033	80.5
247.266	84.5
247.5	78.5
247.733	72.5
247.966	89.5
248.2	83.5
248.433	72.5
248.666	80.5
248.899	91.5
249.133	103.5
249.366	108.5
249.599	116.5
249.832	75.5
250.066	92.5
250.299	98.5
250.532	101.5
250.765	81.5
250.998	97.5
251.231	86.5
251.465	83.5
251.698	81.5
251.931	88.5
252.164	86.5
252.397	103.5
252.63	76.5
252.863	73.5
253.096	78.5
253.329	96.5
253.562	78.5
253.795	60.5
254.028	92.5
254.261	79.5
254.494	72.5
254.727	71.5
254.96	88.5
255.193	84.5
255.426	85.5
255.659	78.5
255.892	100.5
256.124	115.5
256.357	94.5
256.59	93.5
256.823	98.5
257.056	86.5
257.289	80.5
257.521	75.5
257.754	92.5
257.987	104.5
258.22	98.5
258.452	94.5
258.685	91.5
258.918	88.5
259.151	80.5
259.383	91.5
259.616	92.5
259.849	80.5
260.081	83.5
260.314	95.5
260.547	84.5
260.779	106.5
261.012	116.5
261.244	124.5
261.477	105.5
261.71	106.5
261.942	147.5
262.175	173.5
262.407	94.5
262.64	86.5
262.872	89.5
263.105	67.5
263.337	78.5
263.57	82.5
263.802	90.5
264.035	97.5
264.267	80.5
264.499	74.5
264.732	87.5
264.964	70.5
265.197	89.5
265.429	78.5
265.661	85.5
265.894	96.5
266.126	79.5
266.358	86.5
266.591	97.5
266.823	94.5
267.055	87.5
267.287	79.5
267.52	78.5
267.752	81.5
267.984	87.5
268.216	85.5
268.448	83.5
268.681	92.5
268.913	91.5
269.145	93.5
269.377	89.5
269.609	84.5
269.841	76.5
270.073	87.5
270.306	92.5
270.538	93.5
270.77	100.5
271.002	99.5
271.234	88.5
271.466	106.5
271.698	98.5
271.93	78.5
272.162	80.5
272.394	76.5
272.626	86.5
272.858	72.5
273.09	106.5
273.322	94.5
273.553	75.5
273.785	75.5
274.017	90.5
274.249	86.5
274.481	88.5
274.713	99.5
274.945	84.5
275.176	102.5
275.408	88.5
275.64	117.5
275.872	126.5
276.104	103.5
276.335	106.5
276.567	110.5
276.799	166.5
277.031	202.5
277.262	225.5
277.494	163.5
277.726	103.5
277.957	91.5
278.189	96.5
278.421	80.5
278.652	97.5
278.884	82.5
279.115	82.5
279.347	91.5
279.579	103.5
279.81	151.5
280.042	250.5
280.273	319.5
280.505	204.5
280.736	124.5
280.968	102.5
281.199	84.5
281.431	85.5
281.662	91.5
281.894	100.5
282.125	107.5
282.356	144.5
282.588	176.5
282.819	153.5
283.051	92.5
283.282	75.5
283.513	87.5
283.745	83.5
283.976	86.5
284.207	91.5
284.439	73.5
284.67	77.5
284.901	81.5
285.132	101.5
285.364	94.5
285.595	94.5
285.826	96.5
286.057	100.5
286.288	90.5
286.52	95.5
286.751	98.5
286.982	77.5
287.213	81.5
287.444	84.5
287.675	85.5
287.906	87.5
288.138	97.5
288.369	93.5
288.6	95.5
288.831	102.5
289.062	90.5
289.293	89.5
289.524	97.5
289.755	96.5
289.986	98.5
290.217	93.5
290.448	89.5
290.679	86.5
290.91	94.5
291.141	98.5
291.371	88.5
291.602	83.5
291.833	84.5
292.064	102.5
292.295	94.5
292.526	90.5
292.757	99.5
292.987	104.5
293.218	106.5
293.449	87.5
293.68	85.5
293.91	90.5
294.141	85.5
294.372	96.5
294.603	102.5
294.833	93.5
295.064	90.5
295.295	90.5
295.525	102.5
295.756	106.5
295.987	141.5
296.217	171.5
296.448	150.5
296.679	94.5
296.909	87.5
297.14	100.5
297.37	91.5
297.601	92.5
297.831	97.5
298.062	95.5
298.292	97.5
298.523	95.5
298.753	95.5
298.984	81.5
299.214	97.5
299.445	106.5
299.675	95.5
299.905	101.5
300.136	87.5
300.366	97.5
300.597	96.5
300.827	98.5
301.057	91.5
301.288	117.5
301.518	110.5
301.748	98.5
301.979	116.5
302.209	103.5
302.439	101.5
302.669	97.5
302.9	87.5
303.13	98.5
303.36	112.5
303.59	142.5
303.82	166.5
304.051	110.5
304.281	92.5
304.511	88.5
304.741	97.5
304.971	86.5
305.201	100.5
305.431	94.5
305.661	88.5
305.891	107.5
306.121	109.5
306.352	118.5
306.582	122.5
306.812	127.5
307.042	127.5
307.272	178.5
307.502	200.5
307.731	191.5
307.961	158.5
308.191	107.5
308.421	80.5
308.651	100.5
308.881	86.5
309.111	89.5
309.341	104.5
309.571	100.5
309.8	105.5
310.03	108.5
310.26	117.5
310.49	107.5
310.72	110.5
310.949	117.5
311.179	108.5
311.409	94.5
311.639	94.5
311.868	107.5
312.098	110.5
312.328	132.5
312.557	124.5
312.787	140.5
313.017	138.5
313.246	97.5
313.476	88.5
313.706	92.5
313.935	113.5
314.165	116.5
314.394	116.5
314.624	146.5
314.853	126.5
315.083	80.5
315.312	98.5
315.542	97.5
315.771	105.5
316.001	106.5
316.23	103.5
316.46	98.5
316.689	91.5
316.919	99.5
317.148	91.5
317.377	108.5
317.607	104.5
317.836	100.5
318.065	104.5
318.295	97.5
318.524	91.5
318.753	99.5
318.983	105.5
319.212	112.5
319.441	123.5
319.67	127.5
319.9	92.5
320.129	94.5
320.358	93.5
320.587	91.5
320.816	109.5
321.046	98.5
321.275	119.5
321.504	108.5
321.733	106.5
321.962	109.5
322.191	102.5
322.42	114.5
322.649	120.5
322.878	121.5
323.108	143.5
323.337	162.5
323.566	167.5
323.795	202.5
324.024	232.5
324.253	474.5
324.482	1026.5
324.71	2104.5
324.939	2714.5
325.168	993.5
325.397	281.5
325.626	169.5
325.855	145.5
326.084	137.5
326.313	160.5
326.542	179.5
326.77	272.5
326.999	521.5
327.228	1056.5
327.457	1979.5
327.686	1592.5
327.914	590.5
328.143	677.5
328.372	861.5
328.6	464.5
328.829	216.5
329.058	221.5
329.287	225.5
329.515	204.5
329.744	317.5
329.972	643.5
330.201	1313.5
330.43	1919.5
330.658	823.5
330.887	361.5
331.115	222.5
331.344	140.5
331.572	131.5
331.801	148.5
332.03	140.5
332.258	131.5
332.486	125.5
332.715	118.5
332.943	117.5
333.172	120.5
333.4	132.5
333.629	173.5
333.857	282.5
334.085	562.5
334.314	1226.5
334.542	2423.5
334.771	2144.5
334.999	539.5
335.227	207.5
335.455	127.5
335.684	129.5
335.912	108.5
336.14	106.5
336.369	94.5
336.597	120.5
336.825	120.5
337.053	112.5
337.281	90.5
337.51	106.5
337.738	99.5
337.966	105.5
338.194	116.5
338.422	105.5
338.65	102.5
338.878	97.5
339.106	102.5
339.334	104.5
339.562	101.5
339.79	102.5
340.018	108.5
340.246	102.5
340.474	107.5
340.702	106.5
340.93	101.5
341.158	96.5
341.386	109.5
341.614	114.5
341.842	103.5
342.07	107.5
342.298	100.5
342.526	102.5
342.754	100.5
342.981	92.5
343.209	89.5
343.437	94.5
343.665	96.5
343.893	93.5
344.12	106.5
344.348	92.5
344.576	89.5
344.804	108.5
345.031	115.5
345.259	122.5
345.487	95.5
345.714	102.5
345.942	90.5
346.17	103.5
346.397	100.5
346.625	106.5
346.853	94.5
347.08	90.5
347.308	93.5
347.535	110.5
347.763	114.5
347.99	95.5
348.218	104.5
348.445	134.5
348.673	130.5
348.9	99.5
349.128	117.5
349.355	99.5
349.583	96.5
349.81	97.5
350.037	82.5
350.265	117.5
350.492	88.5
350.72	95.5
350.947	96.5
351.174	131.5
351.402	139.5
351.629	119.5
351.856	116.5
352.083	134.5
352.311	138.5
352.538	137.5
352.765	123.5
352.992	133.5
353.22	108.5
353.447	106.5
353.674	102.5
353.901	95.5
354.128	93.5
354.355	103.5
354.583	97.5
354.81	101.5
355.037	98.5
355.264	93.5
355.491	119.5
355.718	93.5
355.945	102.5
356.172	82.5
356.399	86.5
356.626	100.5
356.853	101.5
357.08	107.5
357.307	99.5
357.534	89.5
357.761	86.5
357.988	91.5
358.215	91.5
358.441	98.5
358.668	97.5
358.895	94.5
359.122	90.5
359.349	94.5
359.576	101.5
359.802	115.5
360.029	150.5
360.256	165.5
360.483	120.5
360.709	98.5
360.936	94.5
361.163	104.5
361.39	106.5
361.616	116.5
361.843	111.5
362.07	109.5
362.296	113.5
362.523	98.5
362.749	102.5
362.976	96.5
363.203	88.5
363.429	90.5
363.656	88.5
363.882	103.5
364.109	98.5
364.335	88.5
364.562	92.5
364.788	95.5
365.015	107.5
365.241	107.5
365.468	130.5
365.694	130.5
365.92	111.5
366.147	115.5
366.373	100.5
366.599	89.5
366.826	103.5
367.052	87.5
367.278	99.5
367.505	79.5
367.731	102.5
367.957	100.5
368.184	103.5
368.41	110.5
368.636	114.5
368.862	123.5
369.089	122.5
369.315	103.5
369.541	96.5
369.767	100.5
369.993	109.5
370.219	114.5
370.445	83.5
370.672	90.5
370.898	91.5
371.124	100.5
371.35	99.5
371.576	89.5
371.802	98.5
372.028	93.5
372.254	98.5
372.48	83.5
372.706	98.5
372.932	98.5
373.158	86.5
373.384	84.5
373.61	86.5
373.835	86.5
374.061	103.5
374.287	94.5
374.513	93.5
374.739	88.5
374.965	88.5
375.191	103.5
375.416	92.5
375.642	80.5
375.868	97.5
376.094	85.5
376.319	93.5
376.545	92.5
376.771	78.5
376.997	75.5
377.222	90.5
377.448	84.5
377.674	92.5
377.899	88.5
378.125	95.5
378.35	94.5
378.576	87.5
378.802	80.5
379.027	79.5
379.253	98.5
379.478	92.5
379.704	96.5
379.929	100.5
380.155	90.5
380.38	93.5
380.606	82.5
380.831	100.5
381.057	93.5
381.282	92.5
381.507	97.5
381.733	91.5
381.958	82.5
382.184	103.5
382.409	90.5
382.634	110.5
382.86	98.5
383.085	93.5
383.31	95.5
383.535	93.5
383.761	84.5
383.986	100.5
384.211	100.5
384.436	104.5
384.662	94.5
384.887	88.5
385.112	114.5
385.337	100.5
385.562	102.5
385.787	92.5
386.013	102.5
386.238	112.5
386.463	110.5
386.688	114.5
386.913	89.5
387.138	94.5
387.363	108.5
387.588	112.5
387.813	114.5
388.038	93.5
388.263	108.5
388.488	104.5
388.713	104.5
388.938	92.5
389.163	96.5
389.387	92.5
389.612	90.5
389.837	93.5
390.062	98.5
390.287	84.5
390.512	97.5
390.736	101.5
390.961	94.5
391.186	95.5
391.411	104.5
391.636	104.5
391.86	93.5
392.085	80.5
392.31	90.5
392.534	91.5
392.759	98.5
392.984	72.5
393.208	97.5
393.433	93.5
393.658	82.5
393.882	101.5
394.107	79.5
394.331	89.5
394.556	87.5
394.78	104.5
395.005	99.5
395.229	72.5
395.454	94.5
395.678	85.5
395.903	80.5
396.127	82.5
396.352	93.5
396.576	93.5
396.801	89.5
397.025	88.5
397.249	88.5
397.474	103.5
397.698	85.5
397.922	89.5
398.147	107.5
398.371	87.5
398.595	89.5
398.82	83.5
399.044	81.5
399.268	90.5
399.492	90.5
399.717	88.5
399.941	97.5
400.165	100.5
400.389	104.5
400.613	78.5
400.837	72.5
401.062	90.5
401.286	94.5
401.51	89.5
401.734	97.5
401.958	115.5
402.182	148.5
402.406	202.5
402.63	163.5
402.854	98.5
403.078	106.5
403.302	82.5
403.526	100.5
403.75	102.5
403.974	110.5
404.198	86.5
404.422	90.5
404.645	96.5
404.869	110.5
405.093	116.5
405.317	152.5
405.541	138.5
405.765	121.5
405.988	160.5
406.212	233.5
406.436	333.5
406.66	205.5
406.883	150.5
407.107	111.5
407.331	112.5
407.555	134.5
407.778	108.5
408.002	108.5
408.226	96.5
408.449	90.5
408.673	92.5
408.896	91.5
409.12	91.5
409.344	93.5
409.567	82.5
409.791	83.5
410.014	91.5
410.238	90.5
410.461	99.5
410.685	98.5
410.908	102.5
411.132	109.5
411.355	113.5
411.578	94.5
411.802	91.5
412.025	94.5
412.249	107.5
412.472	123.5
412.695	134.5
412.919	120.5
413.142	101.5
413.365	76.5
413.589	89.5
413.812	95.5
414.035	96.5
414.258	94.5
414.482	86.5
414.705	109.5
414.928	93.5
415.151	108.5
415.374	86.5
415.597	92.5
415.821	101.5
416.044	90.5
416.267	103.5
416.49	86.5
416.713	96.5
416.936	89.5
417.159	108.5
417.382	103.5
417.605	102.5
417.828	120.5
418.051	110.5
418.274	96.5
418.497	77.5
418.72	78.5
418.943	89.5
419.166	101.5
419.389	110.5
419.611	98.5
419.834	89.5
420.057	98.5
420.28	114.5
420.503	91.5
420.726	80.5
420.948	91.5
421.171	98.5
421.394	111.5
421.617	90.5
421.839	89.5
422.062	86.5
422.285	98.5
422.507	114.5
422.73	110.5
422.953	100.5
423.175	91.5
423.398	109.5
423.621	87.5
423.843	99.5
424.066	86.5
424.288	93.5
424.511	97.5
424.733	112.5
424.956	133.5
425.178	121.5
425.401	101.5
425.623	130.5
425.846	88.5
426.068	113.5
426.291	109.5
426.513	95.5
426.735	86.5
426.958	101.5
427.18	128.5
427.402	186.5
427.625	282.5
427.847	254.5
428.069	233.5
428.292	123.5
428.514	102.5
428.736	97.5
428.958	90.5
429.181	90.5
429.403	95.5
429.625	88.5
429.847	96.5
430.069	115.5
430.292	99.5
430.514	97.5
430.736	77.5
430.958	79.5
431.18	87.5
431.402	89.5
431.624	96.5
431.846	94.5
432.068	89.5
432.29	86.5
432.512	102.5
432.734	83.5
432.956	97.5
433.178	94.5
433.4	92.5
433.622	98.5
433.844	92.5
434.066	98.5
434.287	91.5
434.509	100.5
434.731	80.5
434.953	88.5
435.175	94.5
435.397	95.5
435.618	95.5
435.84	116.5
436.062	124.5
436.284	139.5
436.505	117.5
436.727	96.5
436.949	95.5
437.17	90.5
437.392	83.5
437.614	104.5
437.835	124.5
438.057	157.5
438.278	139.5
438.5	140.5
438.721	140.5
438.943	96.5
439.165	92.5
439.386	92.5
439.608	99.5
439.829	99.5
440.05	152.5
440.272	198.5
440.493	113.5
440.715	106.5
440.936	99.5
441.158	100.5
441.379	90.5
441.6	103.5
441.822	119.5
442.043	121.5
442.264	125.5
442.486	118.5
442.707	103.5
442.928	124.5
443.149	190.5
443.371	181.5
443.592	140.5
443.813	130.5
444.034	128.5
444.255	98.5
444.476	92.5
444.698	80.5
444.919	84.5
445.14	142.5
445.361	141.5
445.582	130.5
445.803	195.5
446.024	191.5
446.245	182.5
446.466	142.5
446.687	84.5
446.908	88.5
447.129	98.5
447.35	88.5
447.571	96.5
447.792	116.5
448.013	99.5
448.234	128.5
448.455	129.5
448.675	146.5
448.896	135.5
449.117	95.5
449.338	111.5
449.559	151.5
449.779	160.5
450	104.5
450.221	90.5
450.442	88.5
450.662	111.5
450.883	120.5
451.104	132.5
451.324	106.5
451.545	94.5
451.766	92.5
451.986	89.5
452.207	96.5
452.428	100.5
452.648	118.5
452.869	128.5
453.089	151.5
453.31	154.5
453.53	105.5
453.751	107.5
453.971	139.5
454.192	153.5
454.412	117.5
454.633	76.5
454.853	85.5
455.073	100.5
455.294	103.5
455.514	114.5
455.734	101.5
455.955	82.5
456.175	91.5
456.395	83.5
456.616	87.5
456.836	85.5
457.056	78.5
457.276	100.5
457.497	86.5
457.717	92.5
457.937	89.5
458.157	91.5
458.377	106.5
458.598	129.5
458.818	233.5
459.038	281.5
459.258	164.5
459.478	116.5
459.698	76.5
459.918	107.5
460.138	92.5
460.358	74.5
460.578	78.5
460.798	95.5
461.018	90.5
461.238	111.5
461.458	76.5
461.678	87.5
461.898	106.5
462.118	103.5
462.338	93.5
462.558	94.5
462.777	93.5
462.997	87.5
463.217	107.5
463.437	99.5
463.657	94.5
463.876	97.5
464.096	74.5
464.316	94.5
464.536	106.5
464.755	108.5
464.975	124.5
465.195	253.5
465.414	281.5
465.634	116.5
465.854	104.5
466.073	112.5
466.293	89.5
466.512	97.5
466.732	94.5
466.951	97.5
467.171	107.5
467.391	125.5
467.61	191.5
467.829	265.5
468.049	761.5
468.268	1109.5
468.488	266.5
468.707	137.5
468.927	96.5
469.146	103.5
469.365	105.5
469.585	110.5
469.804	117.5
470.023	104.5
470.243	99.5
470.462	130.5
470.681	155.5
470.901	105.5
471.12	112.5
471.339	129.5
471.558	136.5
471.777	183.5
471.997	365.5
472.216	1507.5
472.435	3352.5
472.654	739.5
472.873	176.5
473.092	139.5
473.311	113.5
473.53	93.5
473.749	106.5
473.968	103.5
474.187	127.5
474.406	109.5
474.625	107.5
474.844	96.5
475.063	91.5
475.282	96.5
475.501	93.5
475.72	103.5
475.939	88.5
476.158	95.5
476.377	106.5
476.596	99.5
476.814	101.5
477.033	89.5
477.252	97.5
477.471	99.5
477.69	83.5
477.908	94.5
478.127	108.5
478.346	94.5
478.564	101.5
478.783	123.5
479.002	105.5
479.22	118.5
479.439	130.5
479.658	128.5
479.876	150.5
480.095	128.5
480.313	162.5
480.532	180.5
480.751	353.5
480.969	1348.5
481.188	5834.5
481.406	3213.5
481.624	434.5
481.843	146.5
482.061	115.5
482.28	106.5
482.498	110.5
482.717	104.5
482.935	88.5
483.153	88.5
483.372	102.5
483.59	106.5
483.808	106.5
484.027	94.5
484.245	89.5
484.463	110.5
484.681	112.5
484.9	86.5
485.118	108.5
485.336	104.5
485.554	98.5
485.772	109.5
485.99	106.5
486.209	95.5
486.427	115.5
486.645	134.5
486.863	128.5
487.081	108.5
487.299	95.5
487.517	94.5
487.735	93.5
487.953	86.5
488.171	102.5
488.389	98.5
488.607	106.5
488.825	90.5
489.043	96.5
489.261	95.5
489.479	80.5
489.696	95.5
489.914	90.5
490.132	90.5
490.35	97.5
490.568	89.5
490.786	75.5
491.003	107.5
491.221	88.5
491.439	106.5
491.657	100.5
491.874	98.5
492.092	110.5
492.31	84.5
492.527	107.5
492.745	100.5
492.963	91.5
493.18	101.5
493.398	87.5
493.615	103.5
493.833	93.5
494.05	96.5
494.268	103.5
494.485	79.5
494.703	107.5
494.92	86.5
495.138	79.5
495.355	108.5
495.573	92.5
495.79	91.5
496.008	90.5
496.225	91.5
496.442	91.5
496.66	105.5
496.877	81.5
497.094	98.5
497.312	86.5
497.529	89.5
497.746	100.5
497.963	98.5
498.181	105.5
498.398	109.5
498.615	128.5
498.832	105.5
499.049	108.5
499.267	87.5
499.484	102.5
499.701	95.5
499.918	86.5
500.135	92.5
500.352	84.5
500.569	109.5
500.786	97.5
501.003	111.5
501.22	98.5
501.437	99.5
501.654	98.5
501.871	144.5
502.088	103.5
502.305	96.5
502.522	88.5
502.739	92.5
502.956	84.5
503.172	105.5
503.389	105.5
503.606	150.5
503.823	111.5
504.04	103.5
504.256	96.5
504.473	99.5
504.69	111.5
504.907	98.5
505.123	106.5
505.34	92.5
505.557	101.5
505.773	104.5
505.99	88.5
506.207	92.5
506.423	90.5
506.64	87.5
506.856	87.5
507.073	90.5
507.289	111.5
507.506	116.5
507.722	155.5
507.939	141.5
508.155	108.5
508.372	95.5
508.588	95.5
508.805	104.5
509.021	102.5
509.238	98.5
509.454	86.5
509.67	110.5
509.887	113.5
510.103	152.5
510.319	269.5
510.536	1026.5
510.752	3704.5
510.968	966.5
511.184	209.5
511.401	139.5
511.617	126.5
511.833	109.5
512.049	107.5
512.265	89.5
512.481	110.5
512.698	89.5
512.914	96.5
513.13	94.5
513.346	82.5
513.562	91.5
513.778	106.5
513.994	107.5
514.21	132.5
514.426	154.5
514.642	175.5
514.858	180.5
515.074	256.5
515.29	811.5
515.506	2917.5
515.721	1014.5
515.937	234.5
516.153	143.5
516.369	114.5
516.585	112.5
516.801	112.5
517.016	113.5
517.232	99.5
517.448	108.5
517.664	109.5
517.879	101.5
518.095	110.5
518.311	123.5
518.527	116.5
518.742	103.5
518.958	108.5
519.173	105.5
519.389	96.5
519.605	94.5
519.82	108.5
520.036	136.5
520.251	162.5
520.467	146.5
520.682	115.5
520.898	121.5
521.113	146.5
521.329	191.5
521.544	340.5
521.76	1076.5
521.975	5023.5
522.19	2879.5
522.406	574.5
522.621	182.5
522.836	124.5
523.052	119.5
523.267	113.5
523.482	109.5
523.698	111.5
523.913	163.5
524.128	130.5
524.343	98.5
524.559	96.5
524.774	91.5
524.989	93.5
525.204	120.5
525.419	134.5
525.634	82.5
525.849	105.5
526.064	106.5
526.28	102.5
526.495	109.5
526.71	97.5
526.925	91.5
527.14	83.5
527.355	100.5
527.57	78.5
527.785	112.5
527.999	102.5
528.214	100.5
528.429	99.5
528.644	103.5
528.859	106.5
529.074	103.5
529.289	164.5
529.503	280.5
529.718	129.5
529.933	86.5
530.148	94.5
530.363	109.5
530.577	96.5
530.792	80.5
531.007	100.5
531.221	106.5
531.436	107.5
531.651	91.5
531.865	86.5
532.08	109.5
532.295	95.5
532.509	98.5
532.724	86.5
532.938	104.5
533.153	98.5
533.367	120.5
533.582	82.5
533.796	97.5
534.011	99.5
534.225	90.5
534.44	88.5
534.654	96.5
534.868	92.5
535.083	97.5
535.297	104.5
535.511	126.5
535.726	112.5
535.94	120.5
536.154	111.5
536.369	88.5
536.583	91.5
536.797	104.5
537.011	83.5
537.225	92.5
537.44	98.5
537.654	91.5
537.868	90.5
538.082	100.5
538.296	94.5
538.51	90.5
538.724	97.5
538.938	85.5
539.153	118.5
539.367	119.5
539.581	111.5
539.795	107.5
540.009	103.5
540.222	91.5
540.436	93.5
540.65	118.5
540.864	104.5
541.078	110.5
541.292	85.5
541.506	96.5
541.72	92.5
541.934	96.5
542.147	89.5
542.361	92.5
542.575	78.5
542.789	84.5
543.002	98.5
543.216	118.5
543.43	117.5
543.644	82.5
543.857	99.5
544.071	93.5
544.285	93.5
544.498	94.5
544.712	88.5
544.925	94.5
545.139	95.5
545.352	93.5
545.566	97.5
545.779	95.5
545.993	83.5
546.206	90.5
546.42	103.5
546.633	85.5
546.847	95.5
547.06	86.5
547.274	83.5
547.487	92.5
547.7	83.5
547.914	75.5
548.127	81.5
548.34	91.5
548.554	105.5
548.767	86.5
548.98	90.5
549.193	87.5
549.407	86.5
549.62	82.5
549.833	82.5
550.046	83.5
550.259	88.5
550.473	86.5
550.686	112.5
550.899	90.5
551.112	79.5
551.325	94.5
551.538	98.5
551.751	107.5
551.964	93.5
552.177	96.5
552.39	97.5
552.603	100.5
552.816	90.5
553.029	97.5
553.242	92.5
553.455	115.5
553.667	121.5
553.88	101.5
554.093	99.5
554.306	110.5
554.519	129.5
554.732	102.5
554.944	91.5
555.157	98.5
555.37	86.5
555.583	86.5
555.795	102.5
556.008	99.5
556.221	91.5
556.433	102.5
556.646	99.5
556.859	104.5
557.071	92.5
557.284	86.5
557.496	91.5
557.709	98.5
557.921	95.5
558.134	97.5
558.346	98.5
558.559	92.5
558.771	99.5
558.984	95.5
559.196	84.5
559.409	89.5
559.621	91.5
559.833	100.5
560.046	100.5
560.258	127.5
560.47	152.5
560.683	109.5
560.895	99.5
561.107	89.5
561.32	96.5
561.532	84.5
561.744	83.5
561.956	95.5
562.168	99.5
562.381	102.5
562.593	91.5
562.805	94.5
563.017	89.5
563.229	85.5
563.441	100.5
563.653	80.5
563.865	88.5
564.077	95.5
564.289	96.5
564.501	88.5
564.713	77.5
564.925	107.5
565.137	123.5
565.349	95.5
565.561	82.5
565.773	88.5
565.985	90.5
566.197	95.5
566.408	94.5
566.62	70.5
566.832	85.5
567.044	85.5
567.255	89.5
567.467	104.5
567.679	102.5
567.891	89.5
568.102	80.5
568.314	98.5
568.526	92.5
568.737	90.5
568.949	98.5
569.161	90.5
569.372	84.5
569.584	87.5
569.795	91.5
570.007	126.5
570.218	332.5
570.43	176.5
570.641	92.5
570.853	90.5
571.064	90.5
571.276	92.5
571.487	85.5
571.698	84.5
571.91	101.5
572.121	77.5
572.333	108.5
572.544	76.5
572.755	81.5
572.966	97.5
573.178	88.5
573.389	91.5
573.6	104.5
573.811	89.5
574.023	85.5
574.234	96.5
574.445	101.5
574.656	82.5
574.867	91.5
575.078	93.5
575.289	92.5
575.501	95.5
575.712	102.5
575.923	90.5
576.134	95.5
576.345	102.5
576.556	92.5
576.767	91.5
576.978	111.5
577.188	100.5
577.399	105.5
577.61	88.5
577.821	108.5
578.032	121.5
578.243	357.5
578.454	1110.5
578.665	282.5
578.875	106.5
579.086	106.5
579.297	94.5
579.508	100.5
579.718	87.5
579.929	84.5
580.14	82.5
580.35	93.5
580.561	101.5
580.772	86.5
580.982	78.5
581.193	98.5
581.403	94.5
581.614	80.5
581.825	90.5
582.035	100.5
582.246	106.5
582.456	93.5
582.667	87.5
582.877	90.5
583.087	81.5
583.298	91.5
583.508	94.5
583.719	88.5
583.929	97.5
584.139	83.5
584.35	89.5
584.56	92.5
584.77	88.5
584.981	94.5
585.191	89.5
585.401	78.5
585.611	86.5
585.821	89.5
586.032	84.5
586.242	83.5
586.452	94.5
586.662	87.5
586.872	94.5
587.082	83.5
587.292	83.5
587.502	85.5
587.713	94.5
587.923	102.5
588.133	96.5
588.343	89.5
588.553	91.5
588.762	87.5
588.972	94.5
589.182	113.5
589.392	87.5
589.602	107.5
589.812	100.5
590.022	97.5
590.232	66.5
590.441	77.5
590.651	79.5
590.861	79.5
591.071	85.5
591.281	97.5
591.49	92.5
591.7	100.5
591.91	95.5
592.119	89.5
592.329	99.5
592.539	97.5
592.748	93.5
592.958	99.5
593.167	89.5
593.377	82.5
593.587	87.5
593.796	79.5
594.006	83.5
594.215	90.5
594.424	96.5
594.634	91.5
594.843	96.5
595.053	77.5
595.262	72.5
595.472	91.5
595.681	88.5
595.89	89.5
596.1	92.5
596.309	95.5
596.518	89.5
596.727	102.5
596.937	102.5
597.146	87.5
597.355	83.5
597.564	93.5
597.774	96.5
597.983	90.5
598.192	86.5
598.401	78.5
598.61	104.5
598.819	94.5
599.028	90.5
599.237	102.5
599.446	84.5
599.655	90.5
599.864	100.5
600.073	87.5
600.282	95.5
600.491	90.5
600.7	69.5
600.909	77.5
601.118	92.5
601.327	89.5
601.536	76.5
601.745	101.5
601.953	86.5
602.162	86.5
602.371	99.5
602.58	76.5
602.789	97.5
602.997	102.5
603.206	94.5
603.415	99.5
603.623	87.5
603.832	89.5
604.041	91.5
604.249	93.5
604.458	93.5
604.666	91.5
604.875	96.5
605.084	78.5
605.292	85.5
605.501	86.5
605.709	91.5
605.918	82.5
606.126	94.5
606.334	93.5
606.543	80.5
606.751	88.5
606.96	89.5
607.168	89.5
607.376	96.5
607.585	92.5
607.793	96.5
608.001	90.5
608.21	94.5
608.418	99.5
608.626	80.5
608.834	89.5
609.043	76.5
609.251	83.5
609.459	95.5
609.667	95.5
609.875	83.5
610.083	82.5
610.291	75.5
610.499	96.5
610.707	76.5
610.916	88.5
611.124	95.5
611.332	76.5
611.54	83.5
611.748	79.5
611.955	86.5
612.163	81.5
612.371	83.5
612.579	100.5
612.787	83.5
612.995	98.5
613.203	108.5
613.411	83.5
613.618	67.5
613.826	100.5
614.034	86.5
614.242	80.5
614.449	82.5
614.657	97.5
614.865	79.5
615.072	80.5
615.28	93.5
615.488	89.5
615.695	93.5
615.903	105.5
616.111	91.5
616.318	111.5
616.526	96.5
616.733	91.5
616.941	114.5
617.148	84.5
617.356	67.5
617.563	86.5
617.771	68.5
617.978	72.5
618.185	85.5
618.393	98.5
618.6	97.5
618.807	91.5
619.015	90.5
619.222	79.5
619.429	95.5
619.637	70.5
619.844	74.5
620.051	94.5
620.258	80.5
620.466	79.5
620.673	89.5
620.88	89.5
621.087	76.5
621.294	89.5
621.501	83.5
621.708	79.5
621.915	78.5
622.122	92.5
622.329	91.5
622.536	84.5
622.743	80.5
622.95	94.5
623.157	75.5
623.364	68.5
623.571	89.5
623.778	92.5
623.985	98.5
624.192	93.5
624.399	92.5
624.606	91.5
624.812	81.5
625.019	71.5
625.226	98.5
625.433	82.5
625.639	75.5
625.846	94.5
626.053	91.5
626.259	89.5
626.466	76.5
626.673	99.5
626.879	89.5
627.086	89.5
627.293	84.5
627.499	91.5
627.706	82.5
627.912	81.5
628.119	80.5
628.325	91.5
628.532	74.5
628.738	86.5
628.945	89.5
629.151	84.5
629.357	72.5
629.564	89.5
629.77	96.5
629.976	104.5
630.183	76.5
630.389	89.5
630.595	91.5
630.802	106.5
631.008	89.5
631.214	103.5
631.42	76.5
631.627	92.5
631.833	72.5
632.039	78.5
632.245	75.5
632.451	90.5
632.657	75.5
632.863	93.5
633.069	100.5
633.275	100.5
633.481	89.5
633.688	83.5
633.893	103.5
634.099	86.5
634.305	97.5
634.511	95.5
634.717	97.5
634.923	91.5
635.129	84.5
635.335	93.5
635.541	73.5
635.747	105.5
635.952	109.5
636.158	160.5
636.364	484.5
636.57	407.5
636.775	154.5
636.981	113.5
637.187	104.5
637.392	78.5
637.598	92.5
637.804	84.5
638.009	90.5
638.215	90.5
638.421	91.5
638.626	91.5
638.832	86.5
639.037	83.5
639.243	85.5
639.448	88.5
639.654	91.5
639.859	87.5
640.065	93.5
640.27	82.5
640.475	74.5
640.681	80.5
640.886	92.5
641.091	72.5
641.297	79.5
641.502	79.5
641.707	82.5
641.913	99.5
642.118	92.5
642.323	90.5
642.528	90.5
642.733	79.5
642.939	79.5
643.144	91.5
643.349	107.5
643.554	101.5
643.759	97.5
643.964	93.5
644.169	78.5
644.374	77.5
644.579	85.5
644.784	86.5
644.989	84.5
645.194	85.5
645.399	87.5
645.604	84.5
645.809	82.5
646.014	95.5
646.219	82.5
646.423	98.5
646.628	85.5
646.833	87.5
647.038	92.5
647.243	77.5
647.447	92.5
647.652	80.5
647.857	93.5
648.062	83.5
648.266	92.5
648.471	85.5
648.676	89.5
648.88	105.5
649.085	107.5
649.289	94.5
649.494	127.5
649.698	152.5
649.903	109.5
650.107	95.5
650.312	99.5
650.516	82.5
650.721	81.5
650.925	83.5
651.13	89.5
651.334	70.5
651.539	91.5
651.743	79.5
651.947	100.5
652.152	98.5
652.356	89.5
652.56	98.5
652.764	75.5
652.969	82.5
653.173	92.5
653.377	87.5
653.581	90.5
653.785	81.5
653.99	86.5
654.194	80.5
654.398	79.5
654.602	97.5
654.806	109.5
655.01	104.5
655.214	83.5
655.418	98.5
655.622	80.5
655.826	100.5
656.03	83.5
656.234	86.5
656.438	94.5
656.642	109.5
656.846	92.5
657.049	75.5
657.253	91.5
657.457	71.5
657.661	98.5
657.865	95.5
658.068	93.5
658.272	73.5
658.476	91.5
658.68	76.5
658.883	82.5
659.087	73.5
659.291	76.5
659.494	83.5
659.698	94.5
659.901	81.5
660.105	82.5
660.309	83.5
660.512	68.5
660.716	75.5
660.919	82.5
661.123	89.5
661.326	74.5
661.53	70.5
661.733	83.5
661.936	92.5
662.14	80.5
662.343	72.5
662.546	88.5
662.75	83.5
662.953	84.5
663.156	66.5
663.36	85.5
663.563	84.5
663.766	81.5
663.969	91.5
664.173	74.5
664.376	89.5
664.579	92.5
664.782	80.5
664.985	89.5
665.188	76.5
665.391	87.5
665.594	86.5
665.797	76.5
666	75.5
666.203	76.5
666.406	68.5
666.609	88.5
666.812	82.5
667.015	86.5
667.218	74.5
667.421	71.5
667.624	90.5
667.827	82.5
668.03	84.5
668.232	79.5
668.435	73.5
668.638	75.5
668.841	88.5
669.043	80.5
669.246	79.5
669.449	75.5
669.651	83.5
669.854	86.5
670.057	90.5
670.259	70.5
670.462	89.5
670.665	78.5
670.867	81.5
671.07	82.5
671.272	75.5
671.475	80.5
671.677	86.5
671.88	81.5
672.082	79.5
672.284	90.5
672.487	90.5
672.689	76.5
672.892	63.5
