Data from Circ_1997_H10_HRD10591_00064.txt Node
Date: Wed Jan 03 11:29:40 EST 2024
User: Yrep
Spectrometer: HR+D1059
Trigger mode: 1
Integration Time (sec): 1.000000E-1
Scans to average: 1
Electric dark correction enabled: true
Nonlinearity correction enabled: false
Boxcar width: 0
XAxis mode: Wavelengths
Number of Pixels in Spectrum: 2048
>>>>>Begin Spectral Data<<<<<
223.165	-23.69
223.4	-23.69
223.635	-23.69
223.869	-15.69
224.104	-22.69
224.338	-18.69
224.573	-1.69
224.808	-13.69
225.042	-4.69
225.277	4.31
225.511	7.31
225.746	-0.69
225.98	7.31
226.215	-9.69
226.449	8.31
226.683	33.31
226.918	22.31
227.152	28.31
227.387	25.31
227.621	44.31
227.856	65.31
228.09	60.31
228.324	36.31
228.559	45.31
228.793	51.31
229.027	60.31
229.262	74.31
229.496	88.31
229.73	92.31
229.964	103.31
230.199	75.31
230.433	65.31
230.667	77.31
230.901	80.31
231.136	62.31
231.37	82.31
231.604	90.31
231.838	90.31
232.072	79.31
232.306	78.31
232.541	74.31
232.775	77.31
233.009	86.31
233.243	82.31
233.477	83.31
233.711	89.31
233.945	71.31
234.179	80.31
234.413	89.31
234.647	82.31
234.881	72.31
235.115	83.31
235.349	76.31
235.583	78.31
235.817	89.31
236.051	82.31
236.285	75.31
236.519	85.31
236.753	88.31
236.987	79.31
237.221	81.31
237.455	116.31
237.689	86.31
237.922	88.31
238.156	91.31
238.39	73.31
238.624	68.31
238.858	74.31
239.091	77.31
239.325	97.31
239.559	90.31
239.793	73.31
240.027	86.31
240.26	91.31
240.494	79.31
240.728	70.31
240.961	77.31
241.195	88.31
241.429	76.31
241.662	68.31
241.896	78.31
242.13	76.31
242.363	77.31
242.597	68.31
242.83	80.31
243.064	82.31
243.298	93.31
243.531	78.31
243.765	74.31
243.998	84.31
244.232	81.31
244.465	89.31
244.699	73.31
244.932	84.31
245.166	93.31
245.399	73.31
245.633	80.31
245.866	84.31
246.099	84.31
246.333	83.31
246.566	80.31
246.8	76.31
247.033	73.31
247.266	80.31
247.5	84.31
247.733	84.31
247.966	76.31
248.2	81.31
248.433	82.31
248.666	82.31
248.899	80.31
249.133	79.31
249.366	114.31
249.599	114.31
249.832	87.31
250.066	84.31
250.299	71.31
250.532	72.31
250.765	60.31
250.998	62.31
251.231	78.31
251.465	89.31
251.698	90.31
251.931	87.31
252.164	81.31
252.397	83.31
252.63	77.31
252.863	74.31
253.096	75.31
253.329	66.31
253.562	80.31
253.795	84.31
254.028	76.31
254.261	87.31
254.494	83.31
254.727	87.31
254.96	76.31
255.193	86.31
255.426	92.31
255.659	86.31
255.892	90.31
256.124	95.31
256.357	79.31
256.59	77.31
256.823	89.31
257.056	87.31
257.289	100.31
257.521	90.31
257.754	91.31
257.987	92.31
258.22	92.31
258.452	103.31
258.685	98.31
258.918	93.31
259.151	87.31
259.383	82.31
259.616	87.31
259.849	96.31
260.081	82.31
260.314	78.31
260.547	95.31
260.779	81.31
261.012	96.31
261.244	118.31
261.477	98.31
261.71	103.31
261.942	134.31
262.175	138.31
262.407	101.31
262.64	91.31
262.872	92.31
263.105	80.31
263.337	80.31
263.57	85.31
263.802	85.31
264.035	87.31
264.267	89.31
264.499	76.31
264.732	88.31
264.964	86.31
265.197	86.31
265.429	80.31
265.661	64.31
265.894	84.31
266.126	78.31
266.358	77.31
266.591	87.31
266.823	82.31
267.055	65.31
267.287	89.31
267.52	80.31
267.752	94.31
267.984	81.31
268.216	77.31
268.448	77.31
268.681	99.31
268.913	73.31
269.145	88.31
269.377	86.31
269.609	89.31
269.841	95.31
270.073	84.31
270.306	87.31
270.538	92.31
270.77	83.31
271.002	78.31
271.234	90.31
271.466	90.31
271.698	95.31
271.93	94.31
272.162	93.31
272.394	95.31
272.626	79.31
272.858	77.31
273.09	80.31
273.322	71.31
273.553	96.31
273.785	64.31
274.017	76.31
274.249	85.31
274.481	64.31
274.713	81.31
274.945	90.31
275.176	90.31
275.408	88.31
275.64	117.31
275.872	128.31
276.104	111.31
276.335	97.31
276.567	121.31
276.799	150.31
277.031	177.31
277.262	210.31
277.494	148.31
277.726	94.31
277.957	77.31
278.189	96.31
278.421	81.31
278.652	91.31
278.884	93.31
279.115	89.31
279.347	88.31
279.579	101.31
279.81	132.31
280.042	189.31
280.273	270.31
280.505	190.31
280.736	98.31
280.968	94.31
281.199	96.31
281.431	92.31
281.662	74.31
281.894	92.31
282.125	88.31
282.356	138.31
282.588	188.31
282.819	138.31
283.051	100.31
283.282	83.31
283.513	92.31
283.745	98.31
283.976	90.31
284.207	89.31
284.439	83.31
284.67	90.31
284.901	78.31
285.132	85.31
285.364	91.31
285.595	87.31
285.826	84.31
286.057	87.31
286.288	63.31
286.52	86.31
286.751	92.31
286.982	79.31
287.213	95.31
287.444	89.31
287.675	84.31
287.906	90.31
288.138	87.31
288.369	94.31
288.6	88.31
288.831	80.31
289.062	77.31
289.293	90.31
289.524	89.31
289.755	78.31
289.986	93.31
290.217	91.31
290.448	85.31
290.679	85.31
290.91	102.31
291.141	98.31
291.371	90.31
291.602	90.31
291.833	78.31
292.064	83.31
292.295	98.31
292.526	108.31
292.757	102.31
292.987	88.31
293.218	84.31
293.449	82.31
293.68	84.31
293.91	95.31
294.141	97.31
294.372	104.31
294.603	76.31
294.833	73.31
295.064	91.31
295.295	97.31
295.525	100.31
295.756	117.31
295.987	129.31
296.217	177.31
296.448	129.31
296.679	98.31
296.909	93.31
297.14	96.31
297.37	92.31
297.601	94.31
297.831	92.31
298.062	89.31
298.292	92.31
298.523	92.31
298.753	90.31
298.984	104.31
299.214	82.31
299.445	93.31
299.675	87.31
299.905	99.31
300.136	84.31
300.366	98.31
300.597	88.31
300.827	92.31
301.057	114.31
301.288	109.31
301.518	108.31
301.748	101.31
301.979	119.31
302.209	106.31
302.439	92.31
302.669	96.31
302.9	98.31
303.13	89.31
303.36	95.31
303.59	129.31
303.82	166.31
304.051	117.31
304.281	92.31
304.511	88.31
304.741	95.31
304.971	93.31
305.201	100.31
305.431	93.31
305.661	97.31
305.891	98.31
306.121	110.31
306.352	108.31
306.582	113.31
306.812	98.31
307.042	127.31
307.272	171.31
307.502	187.31
307.731	184.31
307.961	119.31
308.191	94.31
308.421	98.31
308.651	96.31
308.881	102.31
309.111	85.31
309.341	95.31
309.571	110.31
309.8	118.31
310.03	95.31
310.26	102.31
310.49	100.31
310.72	106.31
310.949	112.31
311.179	122.31
311.409	105.31
311.639	109.31
311.868	118.31
312.098	90.31
312.328	110.31
312.557	128.31
312.787	135.31
313.017	125.31
313.246	101.31
313.476	96.31
313.706	98.31
313.935	98.31
314.165	107.31
314.394	117.31
314.624	95.31
314.853	108.31
315.083	86.31
315.312	83.31
315.542	95.31
315.771	97.31
316.001	77.31
316.23	98.31
316.46	94.31
316.689	91.31
316.919	85.31
317.148	103.31
317.377	95.31
317.607	89.31
317.836	97.31
318.065	88.31
318.295	81.31
318.524	82.31
318.753	94.31
318.983	105.31
319.212	113.31
319.441	114.31
319.67	121.31
319.9	107.31
320.129	92.31
320.358	88.31
320.587	99.31
320.816	117.31
321.046	104.31
321.275	104.31
321.504	90.31
321.733	85.31
321.962	91.31
322.191	113.31
322.42	126.31
322.649	114.31
322.878	120.31
323.108	138.31
323.337	144.31
323.566	162.31
323.795	176.31
324.024	251.31
324.253	505.31
324.482	1005.31
324.71	2078.31
324.939	2706.31
325.168	989.31
325.397	280.31
325.626	160.31
325.855	138.31
326.084	126.31
326.313	143.31
326.542	171.31
326.77	256.31
326.999	514.31
327.228	1086.31
327.457	1973.31
327.686	1558.31
327.914	580.31
328.143	576.31
328.372	726.31
328.6	384.31
328.829	191.31
329.058	191.31
329.287	203.31
329.515	180.31
329.744	266.31
329.972	569.31
330.201	1127.31
330.43	1601.31
330.658	687.31
330.887	320.31
331.115	188.31
331.344	133.31
331.572	124.31
331.801	112.31
332.03	127.31
332.258	123.31
332.486	113.31
332.715	108.31
332.943	109.31
333.172	119.31
333.4	148.31
333.629	163.31
333.857	265.31
334.085	489.31
334.314	1048.31
334.542	2086.31
334.771	1864.31
334.999	481.31
335.227	183.31
335.455	117.31
335.684	109.31
335.912	104.31
336.14	111.31
336.369	122.31
336.597	114.31
336.825	126.31
337.053	103.31
337.281	96.31
337.51	88.31
337.738	96.31
337.966	104.31
338.194	108.31
338.422	96.31
338.65	104.31
338.878	83.31
339.106	93.31
339.334	91.31
339.562	78.31
339.79	94.31
340.018	90.31
340.246	97.31
340.474	113.31
340.702	104.31
340.93	84.31
341.158	104.31
341.386	95.31
341.614	101.31
341.842	102.31
342.07	101.31
342.298	88.31
342.526	94.31
342.754	89.31
342.981	96.31
343.209	94.31
343.437	100.31
343.665	93.31
343.893	81.31
344.12	98.31
344.348	94.31
344.576	97.31
344.804	102.31
345.031	102.31
345.259	106.31
345.487	90.31
345.714	95.31
345.942	102.31
346.17	108.31
346.397	91.31
346.625	89.31
346.853	80.31
347.08	91.31
347.308	101.31
347.535	111.31
347.763	134.31
347.99	98.31
348.218	118.31
348.445	109.31
348.673	130.31
348.9	99.31
349.128	104.31
349.355	82.31
349.583	97.31
349.81	90.31
350.037	86.31
350.265	84.31
350.492	94.31
350.72	88.31
350.947	102.31
351.174	116.31
351.402	124.31
351.629	119.31
351.856	108.31
352.083	104.31
352.311	119.31
352.538	132.31
352.765	102.31
352.992	118.31
353.22	121.31
353.447	111.31
353.674	100.31
353.901	101.31
354.128	95.31
354.355	84.31
354.583	83.31
354.81	92.31
355.037	91.31
355.264	97.31
355.491	89.31
355.718	87.31
355.945	92.31
356.172	96.31
356.399	88.31
356.626	98.31
356.853	82.31
357.08	98.31
357.307	89.31
357.534	92.31
357.761	88.31
357.988	97.31
358.215	81.31
358.441	82.31
358.668	87.31
358.895	84.31
359.122	84.31
359.349	91.31
359.576	79.31
359.802	112.31
360.029	158.31
360.256	136.31
360.483	96.31
360.709	96.31
360.936	88.31
361.163	103.31
361.39	110.31
361.616	105.31
361.843	92.31
362.07	102.31
362.296	103.31
362.523	103.31
362.749	91.31
362.976	87.31
363.203	92.31
363.429	86.31
363.656	82.31
363.882	90.31
364.109	76.31
364.335	93.31
364.562	81.31
364.788	91.31
365.015	107.31
365.241	98.31
365.468	116.31
365.694	125.31
365.92	97.31
366.147	85.31
366.373	97.31
366.599	88.31
366.826	93.31
367.052	98.31
367.278	102.31
367.505	97.31
367.731	90.31
367.957	99.31
368.184	88.31
368.41	111.31
368.636	122.31
368.862	130.31
369.089	125.31
369.315	83.31
369.541	89.31
369.767	94.31
369.993	73.31
370.219	91.31
370.445	90.31
370.672	88.31
370.898	87.31
371.124	88.31
371.35	82.31
371.576	84.31
371.802	93.31
372.028	81.31
372.254	79.31
372.48	83.31
372.706	88.31
372.932	80.31
373.158	105.31
373.384	79.31
373.61	78.31
373.835	86.31
374.061	78.31
374.287	96.31
374.513	92.31
374.739	110.31
374.965	94.31
375.191	91.31
375.416	80.31
375.642	100.31
375.868	96.31
376.094	97.31
376.319	88.31
376.545	104.31
376.771	94.31
376.997	84.31
377.222	101.31
377.448	95.31
377.674	87.31
377.899	86.31
378.125	73.31
378.35	96.31
378.576	102.31
378.802	77.31
379.027	92.31
379.253	74.31
379.478	99.31
379.704	84.31
379.929	79.31
380.155	86.31
380.38	80.31
380.606	93.31
380.831	90.31
381.057	84.31
381.282	86.31
381.507	93.31
381.733	84.31
381.958	85.31
382.184	93.31
382.409	90.31
382.634	102.31
382.86	98.31
383.085	92.31
383.31	89.31
383.535	98.31
383.761	93.31
383.986	86.31
384.211	94.31
384.436	91.31
384.662	90.31
384.887	103.31
385.112	98.31
385.337	108.31
385.562	97.31
385.787	111.31
386.013	107.31
386.238	112.31
386.463	105.31
386.688	94.31
386.913	87.31
387.138	93.31
387.363	98.31
387.588	93.31
387.813	92.31
388.038	74.31
388.263	105.31
388.488	89.31
388.713	98.31
388.938	104.31
389.163	112.31
389.387	81.31
389.612	91.31
389.837	97.31
390.062	92.31
390.287	88.31
390.512	88.31
390.736	78.31
390.961	93.31
391.186	90.31
391.411	93.31
391.636	102.31
391.86	107.31
392.085	89.31
392.31	87.31
392.534	86.31
392.759	76.31
392.984	96.31
393.208	88.31
393.433	92.31
393.658	84.31
393.882	92.31
394.107	84.31
394.331	84.31
394.556	93.31
394.78	80.31
395.005	84.31
395.229	68.31
395.454	95.31
395.678	84.31
395.903	85.31
396.127	88.31
396.352	96.31
396.576	88.31
396.801	84.31
397.025	90.31
397.249	89.31
397.474	84.31
397.698	92.31
397.922	91.31
398.147	84.31
398.371	94.31
398.595	74.31
398.82	74.31
399.044	67.31
399.268	93.31
399.492	74.31
399.717	97.31
399.941	97.31
400.165	92.31
400.389	88.31
400.613	89.31
400.837	78.31
401.062	86.31
401.286	88.31
401.51	89.31
401.734	88.31
401.958	118.31
402.182	143.31
402.406	196.31
402.63	135.31
402.854	108.31
403.078	89.31
403.302	79.31
403.526	98.31
403.75	84.31
403.974	102.31
404.198	83.31
404.422	80.31
404.645	81.31
404.869	84.31
405.093	105.31
405.317	142.31
405.541	152.31
405.765	128.31
405.988	153.31
406.212	232.31
406.436	332.31
406.66	212.31
406.883	114.31
407.107	102.31
407.331	104.31
407.555	106.31
407.778	109.31
408.002	86.31
408.226	83.31
408.449	84.31
408.673	99.31
408.896	93.31
409.12	106.31
409.344	86.31
409.567	96.31
409.791	90.31
410.014	97.31
410.238	94.31
410.461	94.31
410.685	99.31
410.908	96.31
411.132	119.31
411.355	106.31
411.578	105.31
411.802	90.31
412.025	79.31
412.249	89.31
412.472	120.31
412.695	147.31
412.919	112.31
413.142	86.31
413.365	88.31
413.589	93.31
413.812	87.31
414.035	89.31
414.258	90.31
414.482	97.31
414.705	95.31
414.928	93.31
415.151	78.31
415.374	93.31
415.597	100.31
415.821	87.31
416.044	84.31
416.267	80.31
416.49	82.31
416.713	86.31
416.936	94.31
417.159	96.31
417.382	111.31
417.605	97.31
417.828	124.31
418.051	92.31
418.274	81.31
418.497	87.31
418.72	88.31
418.943	85.31
419.166	84.31
419.389	84.31
419.611	88.31
419.834	83.31
420.057	78.31
420.28	87.31
420.503	94.31
420.726	94.31
420.948	108.31
421.171	113.31
421.394	97.31
421.617	85.31
421.839	86.31
422.062	94.31
422.285	80.31
422.507	108.31
422.73	104.31
422.953	89.31
423.175	93.31
423.398	72.31
423.621	90.31
423.843	80.31
424.066	73.31
424.288	76.31
424.511	88.31
424.733	98.31
424.956	125.31
425.178	114.31
425.401	108.31
425.623	105.31
425.846	119.31
426.068	93.31
426.291	96.31
426.513	105.31
426.735	87.31
426.958	105.31
427.18	127.31
427.402	200.31
427.625	277.31
427.847	241.31
428.069	215.31
428.292	130.31
428.514	90.31
428.736	85.31
428.958	70.31
429.181	88.31
429.403	79.31
429.625	76.31
429.847	96.31
430.069	132.31
430.292	95.31
430.514	94.31
430.736	88.31
430.958	93.31
431.18	95.31
431.402	96.31
431.624	89.31
431.846	96.31
432.068	81.31
432.29	79.31
432.512	93.31
432.734	73.31
432.956	93.31
433.178	93.31
433.4	92.31
433.622	86.31
433.844	92.31
434.066	89.31
434.287	89.31
434.509	88.31
434.731	94.31
434.953	91.31
435.175	90.31
435.397	101.31
435.618	107.31
435.84	113.31
436.062	145.31
436.284	135.31
436.505	110.31
436.727	109.31
436.949	106.31
437.17	78.31
437.392	88.31
437.614	105.31
437.835	128.31
438.057	163.31
438.278	134.31
438.5	134.31
438.721	142.31
438.943	118.31
439.165	95.31
439.386	94.31
439.608	90.31
439.829	110.31
440.05	150.31
440.272	187.31
440.493	107.31
440.715	90.31
440.936	82.31
441.158	89.31
441.379	89.31
441.6	83.31
441.822	118.31
442.043	109.31
442.264	125.31
442.486	111.31
442.707	109.31
442.928	122.31
443.149	172.31
443.371	183.31
443.592	133.31
443.813	134.31
444.034	120.31
444.255	94.31
444.476	79.31
444.698	96.31
444.919	95.31
445.14	124.31
445.361	148.31
445.582	156.31
445.803	201.31
446.024	191.31
446.245	174.31
446.466	125.31
446.687	92.31
446.908	87.31
447.129	96.31
447.35	96.31
447.571	89.31
447.792	95.31
448.013	113.31
448.234	135.31
448.455	124.31
448.675	136.31
448.896	154.31
449.117	125.31
449.338	125.31
449.559	155.31
449.779	155.31
450	88.31
450.221	104.31
450.442	99.31
450.662	94.31
450.883	125.31
451.104	127.31
451.324	104.31
451.545	81.31
451.766	92.31
451.986	89.31
452.207	108.31
452.428	111.31
452.648	100.31
452.869	138.31
453.089	134.31
453.31	148.31
453.53	103.31
453.751	94.31
453.971	127.31
454.192	157.31
454.412	107.31
454.633	88.31
454.853	89.31
455.073	88.31
455.294	94.31
455.514	118.31
455.734	89.31
455.955	83.31
456.175	75.31
456.395	88.31
456.616	86.31
456.836	92.31
457.056	88.31
457.276	83.31
457.497	78.31
457.717	110.31
457.937	95.31
458.157	92.31
458.377	100.31
458.598	129.31
458.818	227.31
459.038	225.31
459.258	160.31
459.478	104.31
459.698	97.31
459.918	101.31
460.138	102.31
460.358	103.31
460.578	105.31
460.798	85.31
461.018	94.31
461.238	97.31
461.458	92.31
461.678	97.31
461.898	88.31
462.118	86.31
462.338	93.31
462.558	81.31
462.777	101.31
462.997	105.31
463.217	101.31
463.437	99.31
463.657	92.31
463.876	88.31
464.096	98.31
464.316	123.31
464.536	100.31
464.755	86.31
464.975	139.31
465.195	238.31
465.414	230.31
465.634	112.31
465.854	102.31
466.073	102.31
466.293	100.31
466.512	89.31
466.732	92.31
466.951	98.31
467.171	109.31
467.391	110.31
467.61	165.31
467.829	219.31
468.049	647.31
468.268	915.31
468.488	233.31
468.707	116.31
468.927	86.31
469.146	90.31
469.365	98.31
469.585	116.31
469.804	101.31
470.023	110.31
470.243	94.31
470.462	123.31
470.681	157.31
470.901	114.31
471.12	102.31
471.339	114.31
471.558	126.31
471.777	172.31
471.997	340.31
472.216	1296.31
472.435	2806.31
472.654	642.31
472.873	176.31
473.092	119.31
473.311	97.31
473.53	96.31
473.749	107.31
473.968	99.31
474.187	136.31
474.406	121.31
474.625	93.31
474.844	99.31
475.063	80.31
475.282	87.31
475.501	101.31
475.72	81.31
475.939	73.31
476.158	86.31
476.377	97.31
476.596	104.31
476.814	96.31
477.033	92.31
477.252	94.31
477.471	99.31
477.69	105.31
477.908	102.31
478.127	107.31
478.346	116.31
478.564	105.31
478.783	110.31
479.002	107.31
479.22	100.31
479.439	121.31
479.658	138.31
479.876	118.31
480.095	116.31
480.313	140.31
480.532	191.31
480.751	324.31
480.969	1202.31
481.188	5102.31
481.406	2756.31
481.624	388.31
481.843	140.31
482.061	100.31
482.28	111.31
482.498	106.31
482.717	87.31
482.935	90.31
483.153	95.31
483.372	81.31
483.59	105.31
483.808	105.31
484.027	108.31
484.245	95.31
484.463	100.31
484.681	103.31
484.9	96.31
485.118	92.31
485.336	95.31
485.554	101.31
485.772	87.31
485.99	107.31
486.209	93.31
486.427	112.31
486.645	113.31
486.863	133.31
487.081	110.31
487.299	101.31
487.517	89.31
487.735	101.31
487.953	91.31
488.171	97.31
488.389	108.31
488.607	106.31
488.825	96.31
489.043	81.31
489.261	89.31
489.479	76.31
489.696	118.31
489.914	86.31
490.132	97.31
490.35	93.31
490.568	94.31
490.786	98.31
491.003	93.31
491.221	109.31
491.439	90.31
491.657	100.31
491.874	97.31
492.092	102.31
492.31	90.31
492.527	93.31
492.745	94.31
492.963	104.31
493.18	81.31
493.398	85.31
493.615	93.31
493.833	95.31
494.05	92.31
494.268	84.31
494.485	92.31
494.703	91.31
494.92	93.31
495.138	97.31
495.355	78.31
495.573	89.31
495.79	80.31
496.008	71.31
496.225	98.31
496.442	102.31
496.66	95.31
496.877	88.31
497.094	80.31
497.312	83.31
497.529	101.31
497.746	106.31
497.963	95.31
498.181	106.31
498.398	99.31
498.615	116.31
498.832	105.31
499.049	86.31
499.267	82.31
499.484	102.31
499.701	70.31
499.918	96.31
500.135	80.31
500.352	83.31
500.569	98.31
500.786	94.31
501.003	76.31
501.22	74.31
501.437	108.31
501.654	96.31
501.871	119.31
502.088	100.31
502.305	86.31
502.522	97.31
502.739	89.31
502.956	81.31
503.172	90.31
503.389	99.31
503.606	122.31
503.823	107.31
504.04	102.31
504.256	88.31
504.473	105.31
504.69	96.31
504.907	78.31
505.123	86.31
505.34	94.31
505.557	96.31
505.773	91.31
505.99	96.31
506.207	81.31
506.423	105.31
506.64	89.31
506.856	88.31
507.073	92.31
507.289	101.31
507.506	94.31
507.722	128.31
507.939	136.31
508.155	97.31
508.372	82.31
508.588	97.31
508.805	104.31
509.021	98.31
509.238	91.31
509.454	111.31
509.67	109.31
509.887	99.31
510.103	150.31
510.319	266.31
510.536	1009.31
510.752	3547.31
510.968	908.31
511.184	186.31
511.401	132.31
511.617	116.31
511.833	105.31
512.049	106.31
512.265	81.31
512.481	89.31
512.698	100.31
512.914	93.31
513.13	96.31
513.346	92.31
513.562	111.31
513.778	107.31
513.994	109.31
514.21	124.31
514.426	152.31
514.642	192.31
514.858	168.31
515.074	244.31
515.29	792.31
515.506	2768.31
515.721	918.31
515.937	217.31
516.153	126.31
516.369	104.31
516.585	119.31
516.801	95.31
517.016	94.31
517.232	102.31
517.448	103.31
517.664	89.31
517.879	91.31
518.095	110.31
518.311	103.31
518.527	103.31
518.742	88.31
518.958	98.31
519.173	93.31
519.389	96.31
519.605	101.31
519.82	113.31
520.036	121.31
520.251	150.31
520.467	148.31
520.682	129.31
520.898	134.31
521.113	143.31
521.329	202.31
521.544	328.31
521.76	1026.31
521.975	4711.31
522.19	2680.31
522.406	530.31
522.621	162.31
522.836	101.31
523.052	118.31
523.267	108.31
523.482	113.31
523.698	116.31
523.913	130.31
524.128	120.31
524.343	104.31
524.559	107.31
524.774	90.31
524.989	97.31
525.204	119.31
525.419	116.31
525.634	73.31
525.849	91.31
526.064	86.31
526.28	88.31
526.495	94.31
526.71	92.31
526.925	87.31
527.14	97.31
527.355	91.31
527.57	80.31
527.785	86.31
527.999	90.31
528.214	82.31
528.429	100.31
528.644	96.31
528.859	88.31
529.074	97.31
529.289	157.31
529.503	287.31
529.718	130.31
529.933	79.31
530.148	88.31
530.363	105.31
530.577	106.31
530.792	86.31
531.007	105.31
531.221	102.31
531.436	89.31
531.651	82.31
531.865	83.31
532.08	95.31
532.295	93.31
532.509	89.31
532.724	99.31
532.938	100.31
533.153	84.31
533.367	103.31
533.582	107.31
533.796	87.31
534.011	92.31
534.225	95.31
534.44	86.31
534.654	91.31
534.868	88.31
535.083	90.31
535.297	92.31
535.511	115.31
535.726	119.31
535.94	98.31
536.154	93.31
536.369	93.31
536.583	79.31
536.797	80.31
537.011	85.31
537.225	88.31
537.44	88.31
537.654	91.31
537.868	92.31
538.082	104.31
538.296	88.31
538.51	96.31
538.724	90.31
538.938	105.31
539.153	102.31
539.367	125.31
539.581	90.31
539.795	98.31
540.009	86.31
540.222	91.31
540.436	81.31
540.65	87.31
540.864	92.31
541.078	89.31
541.292	74.31
541.506	92.31
541.72	87.31
541.934	93.31
542.147	85.31
542.361	97.31
542.575	87.31
542.789	79.31
543.002	99.31
543.216	96.31
543.43	103.31
543.644	101.31
543.857	96.31
544.071	79.31
544.285	91.31
544.498	89.31
544.712	79.31
544.925	80.31
545.139	81.31
545.352	91.31
545.566	87.31
545.779	88.31
545.993	96.31
546.206	88.31
546.42	102.31
546.633	94.31
546.847	113.31
547.06	88.31
547.274	97.31
547.487	84.31
547.7	81.31
547.914	103.31
548.127	90.31
548.34	95.31
548.554	95.31
548.767	94.31
548.98	91.31
549.193	86.31
549.407	91.31
549.62	81.31
549.833	93.31
550.046	81.31
550.259	86.31
550.473	96.31
550.686	84.31
550.899	90.31
551.112	93.31
551.325	85.31
551.538	105.31
551.751	102.31
551.964	88.31
552.177	97.31
552.39	96.31
552.603	94.31
552.816	85.31
553.029	86.31
553.242	108.31
553.455	108.31
553.667	125.31
553.88	129.31
554.093	104.31
554.306	117.31
554.519	120.31
554.732	90.31
554.944	98.31
555.157	93.31
555.37	103.31
555.583	88.31
555.795	102.31
556.008	93.31
556.221	96.31
556.433	82.31
556.646	95.31
556.859	103.31
557.071	90.31
557.284	90.31
557.496	96.31
557.709	92.31
557.921	98.31
558.134	78.31
558.346	84.31
558.559	78.31
558.771	99.31
558.984	76.31
559.196	98.31
559.409	101.31
559.621	92.31
559.833	102.31
560.046	97.31
560.258	110.31
560.47	129.31
560.683	113.31
560.895	97.31
561.107	80.31
561.32	102.31
561.532	86.31
561.744	98.31
561.956	89.31
562.168	109.31
562.381	109.31
562.593	91.31
562.805	91.31
563.017	82.31
563.229	94.31
563.441	98.31
563.653	96.31
563.865	76.31
564.077	91.31
564.289	90.31
564.501	97.31
564.713	98.31
564.925	96.31
565.137	111.31
565.349	101.31
565.561	86.31
565.773	85.31
565.985	76.31
566.197	89.31
566.408	76.31
566.62	87.31
566.832	81.31
567.044	87.31
567.255	99.31
567.467	88.31
567.679	72.31
567.891	93.31
568.102	80.31
568.314	85.31
568.526	85.31
568.737	96.31
568.949	85.31
569.161	73.31
569.372	83.31
569.584	84.31
569.795	102.31
570.007	122.31
570.218	303.31
570.43	155.31
570.641	104.31
570.853	71.31
571.064	84.31
571.276	81.31
571.487	84.31
571.698	84.31
571.91	92.31
572.121	76.31
572.333	70.31
572.544	85.31
572.755	74.31
572.966	93.31
573.178	106.31
573.389	99.31
573.6	81.31
573.811	94.31
574.023	106.31
574.234	91.31
574.445	96.31
574.656	94.31
574.867	84.31
575.078	91.31
575.289	91.31
575.501	95.31
575.712	86.31
575.923	80.31
576.134	89.31
576.345	84.31
576.556	92.31
576.767	93.31
576.978	91.31
577.188	80.31
577.399	93.31
577.61	96.31
577.821	96.31
578.032	127.31
578.243	356.31
578.454	1049.31
578.665	284.31
578.875	102.31
579.086	94.31
579.297	84.31
579.508	81.31
579.718	86.31
579.929	97.31
580.14	97.31
580.35	79.31
580.561	91.31
580.772	99.31
580.982	79.31
581.193	88.31
581.403	82.31
581.614	91.31
581.825	70.31
582.035	91.31
582.246	83.31
582.456	78.31
582.667	72.31
582.877	78.31
583.087	77.31
583.298	85.31
583.508	76.31
583.719	88.31
583.929	94.31
584.139	101.31
584.35	80.31
584.56	83.31
584.77	88.31
584.981	89.31
585.191	91.31
585.401	85.31
585.611	98.31
585.821	87.31
586.032	88.31
586.242	87.31
586.452	72.31
586.662	77.31
586.872	89.31
587.082	81.31
587.292	92.31
587.502	89.31
587.713	88.31
587.923	85.31
588.133	102.31
588.343	75.31
588.553	94.31
588.762	96.31
588.972	98.31
589.182	113.31
589.392	111.31
589.602	97.31
589.812	106.31
590.022	103.31
590.232	87.31
590.441	73.31
590.651	88.31
590.861	81.31
591.071	94.31
591.281	79.31
591.49	84.31
591.7	87.31
591.91	87.31
592.119	88.31
592.329	87.31
592.539	102.31
592.748	93.31
592.958	90.31
593.167	90.31
593.377	94.31
593.587	94.31
593.796	87.31
594.006	81.31
594.215	93.31
594.424	98.31
594.634	87.31
594.843	65.31
595.053	87.31
595.262	88.31
595.472	84.31
595.681	90.31
595.89	71.31
596.1	84.31
596.309	85.31
596.518	92.31
596.727	88.31
596.937	91.31
597.146	82.31
597.355	98.31
597.564	82.31
597.774	94.31
597.983	90.31
598.192	99.31
598.401	84.31
598.61	82.31
598.819	100.31
599.028	89.31
599.237	94.31
599.446	114.31
599.655	89.31
599.864	97.31
600.073	85.31
600.282	92.31
600.491	88.31
600.7	90.31
600.909	77.31
601.118	96.31
601.327	102.31
601.536	78.31
601.745	78.31
601.953	94.31
602.162	86.31
602.371	73.31
602.58	96.31
602.789	82.31
602.997	78.31
603.206	74.31
603.415	85.31
603.623	88.31
603.832	84.31
604.041	97.31
604.249	90.31
604.458	89.31
604.666	90.31
604.875	89.31
605.084	82.31
605.292	75.31
605.501	79.31
605.709	85.31
605.918	79.31
606.126	79.31
606.334	85.31
606.543	93.31
606.751	90.31
606.96	81.31
607.168	86.31
607.376	94.31
607.585	93.31
607.793	90.31
608.001	71.31
608.21	79.31
608.418	92.31
608.626	86.31
608.834	85.31
609.043	93.31
609.251	97.31
609.459	88.31
609.667	78.31
609.875	96.31
610.083	87.31
610.291	88.31
610.499	91.31
610.707	93.31
610.916	88.31
611.124	89.31
611.332	87.31
611.54	87.31
611.748	76.31
611.955	86.31
612.163	88.31
612.371	77.31
612.579	78.31
612.787	78.31
612.995	76.31
613.203	80.31
613.411	80.31
613.618	77.31
613.826	86.31
614.034	75.31
614.242	88.31
614.449	84.31
614.657	98.31
614.865	82.31
615.072	85.31
615.28	96.31
615.488	107.31
615.695	98.31
615.903	101.31
616.111	81.31
616.318	78.31
616.526	93.31
616.733	83.31
616.941	95.31
617.148	102.31
617.356	84.31
617.563	76.31
617.771	94.31
617.978	77.31
618.185	92.31
618.393	82.31
618.6	88.31
618.807	98.31
619.015	99.31
619.222	74.31
619.429	74.31
619.637	74.31
619.844	61.31
620.051	85.31
620.258	89.31
620.466	82.31
620.673	81.31
620.88	76.31
621.087	88.31
621.294	83.31
621.501	72.31
621.708	72.31
621.915	81.31
622.122	74.31
622.329	91.31
622.536	81.31
622.743	83.31
622.95	81.31
623.157	76.31
623.364	84.31
623.571	81.31
623.778	98.31
623.985	66.31
624.192	85.31
624.399	78.31
624.606	95.31
624.812	89.31
625.019	89.31
625.226	88.31
625.433	85.31
625.639	90.31
625.846	86.31
626.053	95.31
626.259	88.31
626.466	90.31
626.673	70.31
626.879	77.31
627.086	77.31
627.293	93.31
627.499	77.31
627.706	90.31
627.912	83.31
628.119	71.31
628.325	89.31
628.532	72.31
628.738	90.31
628.945	71.31
629.151	87.31
629.357	98.31
629.564	79.31
629.77	88.31
629.976	80.31
630.183	85.31
630.389	89.31
630.595	83.31
630.802	85.31
631.008	73.31
631.214	83.31
631.42	56.31
631.627	92.31
631.833	93.31
632.039	72.31
632.245	80.31
632.451	77.31
632.657	95.31
632.863	82.31
633.069	78.31
633.275	81.31
633.481	83.31
633.688	79.31
633.893	74.31
634.099	82.31
634.305	97.31
634.511	80.31
634.717	89.31
634.923	82.31
635.129	87.31
635.335	84.31
635.541	94.31
635.747	88.31
635.952	92.31
636.158	128.31
636.364	422.31
636.57	351.31
636.775	138.31
636.981	94.31
637.187	95.31
637.392	81.31
637.598	85.31
637.804	76.31
638.009	82.31
638.215	92.31
638.421	95.31
638.626	89.31
638.832	78.31
639.037	90.31
639.243	90.31
639.448	87.31
639.654	72.31
639.859	64.31
640.065	87.31
640.27	86.31
640.475	78.31
640.681	82.31
640.886	89.31
641.091	80.31
641.297	79.31
641.502	73.31
641.707	75.31
641.913	92.31
642.118	72.31
642.323	99.31
642.528	92.31
642.733	85.31
642.939	91.31
643.144	74.31
643.349	91.31
643.554	81.31
643.759	92.31
643.964	81.31
644.169	82.31
644.374	81.31
644.579	75.31
644.784	89.31
644.989	93.31
645.194	77.31
645.399	93.31
645.604	79.31
645.809	88.31
646.014	78.31
646.219	87.31
646.423	86.31
646.628	86.31
646.833	85.31
647.038	89.31
647.243	72.31
647.447	87.31
647.652	80.31
647.857	82.31
648.062	101.31
648.266	77.31
648.471	84.31
648.676	87.31
648.88	83.31
649.085	89.31
649.289	92.31
649.494	107.31
649.698	150.31
649.903	106.31
650.107	71.31
650.312	72.31
650.516	91.31
650.721	90.31
650.925	83.31
651.13	78.31
651.334	80.31
651.539	75.31
651.743	72.31
651.947	79.31
652.152	82.31
652.356	79.31
652.56	89.31
652.764	74.31
652.969	77.31
653.173	90.31
653.377	74.31
653.581	80.31
653.785	73.31
653.99	78.31
654.194	82.31
654.398	80.31
654.602	86.31
654.806	92.31
655.01	98.31
655.214	89.31
655.418	69.31
655.622	63.31
655.826	78.31
656.03	76.31
656.234	93.31
656.438	108.31
656.642	97.31
656.846	92.31
657.049	76.31
657.253	77.31
657.457	82.31
657.661	69.31
657.865	72.31
658.068	75.31
658.272	71.31
658.476	75.31
658.68	74.31
658.883	87.31
659.087	89.31
659.291	76.31
659.494	78.31
659.698	73.31
659.901	79.31
660.105	73.31
660.309	82.31
660.512	83.31
660.716	74.31
660.919	87.31
661.123	89.31
661.326	88.31
661.53	84.31
661.733	71.31
661.936	66.31
662.14	77.31
662.343	88.31
662.546	67.31
662.75	97.31
662.953	76.31
663.156	63.31
663.36	82.31
663.563	77.31
663.766	76.31
663.969	82.31
664.173	85.31
664.376	78.31
664.579	81.31
664.782	69.31
664.985	78.31
665.188	73.31
665.391	74.31
665.594	60.31
665.797	77.31
666	69.31
666.203	77.31
666.406	89.31
666.609	76.31
666.812	82.31
667.015	85.31
667.218	80.31
667.421	72.31
667.624	74.31
667.827	84.31
668.03	86.31
668.232	79.31
668.435	74.31
668.638	86.31
668.841	88.31
669.043	85.31
669.246	83.31
669.449	74.31
669.651	79.31
669.854	83.31
670.057	77.31
670.259	84.31
670.462	82.31
670.665	73.31
670.867	79.31
671.07	68.31
671.272	58.31
671.475	89.31
671.677	77.31
671.88	73.31
672.082	76.31
672.284	81.31
672.487	68.31
672.689	101.31
672.892	86.31
