Data from Foil_3_HRD10591_00011.txt Node
Date: Wed Nov 05 16:18:48 EST 2025
User: Yrep
Spectrometer: HR+D1059
Trigger mode: 1
Integration Time (sec): 1.000000E-1
Scans to average: 1
Electric dark correction enabled: true
Nonlinearity correction enabled: false
Boxcar width: 0
XAxis mode: Wavelengths
Number of Pixels in Spectrum: 2048
>>>>>Begin Spectral Data<<<<<
223.165	-15.12
223.4	-15.12
223.635	-15.12
223.869	-24.12
224.104	-12.12
224.338	-18.12
224.573	-24.12
224.808	-13.12
225.042	0.88
225.277	-12.12
225.511	-5.12
225.746	8.88
225.98	3.88
226.215	8.88
226.449	14.88
226.683	28.88
226.918	23.88
227.152	33.88
227.387	21.88
227.621	43.88
227.856	49.88
228.09	61.88
228.324	52.88
228.559	49.88
228.793	55.88
229.027	64.88
229.262	58.88
229.496	57.88
229.73	71.88
229.964	58.88
230.199	92.88
230.433	76.88
230.667	73.88
230.901	87.88
231.136	73.88
231.37	79.88
231.604	74.88
231.838	84.88
232.072	83.88
232.306	87.88
232.541	69.88
232.775	82.88
233.009	72.88
233.243	74.88
233.477	93.88
233.711	78.88
233.945	89.88
234.179	77.88
234.413	80.88
234.647	86.88
234.881	75.88
235.115	82.88
235.349	83.88
235.583	75.88
235.817	91.88
236.051	61.88
236.285	73.88
236.519	85.88
236.753	67.88
236.987	92.88
237.221	75.88
237.455	81.88
237.689	89.88
237.922	79.88
238.156	65.88
238.39	69.88
238.624	64.88
238.858	69.88
239.091	66.88
239.325	73.88
239.559	61.88
239.793	79.88
240.027	78.88
240.26	85.88
240.494	64.88
240.728	79.88
240.961	74.88
241.195	73.88
241.429	77.88
241.662	83.88
241.896	65.88
242.13	71.88
242.363	82.88
242.597	77.88
242.83	91.88
243.064	85.88
243.298	86.88
243.531	65.88
243.765	82.88
243.998	67.88
244.232	73.88
244.465	59.88
244.699	81.88
244.932	67.88
245.166	75.88
245.399	76.88
245.633	77.88
245.866	62.88
246.099	74.88
246.333	71.88
246.566	78.88
246.8	75.88
247.033	76.88
247.266	65.88
247.5	68.88
247.733	62.88
247.966	74.88
248.2	74.88
248.433	62.88
248.666	73.88
248.899	73.88
249.133	82.88
249.366	96.88
249.599	69.88
249.832	75.88
250.066	76.88
250.299	79.88
250.532	68.88
250.765	79.88
250.998	87.88
251.231	83.88
251.465	81.88
251.698	77.88
251.931	73.88
252.164	86.88
252.397	75.88
252.63	72.88
252.863	81.88
253.096	69.88
253.329	76.88
253.562	87.88
253.795	91.88
254.028	76.88
254.261	70.88
254.494	63.88
254.727	84.88
254.96	81.88
255.193	79.88
255.426	81.88
255.659	83.88
255.892	87.88
256.124	76.88
256.357	67.88
256.59	91.88
256.823	77.88
257.056	85.88
257.289	97.88
257.521	84.88
257.754	87.88
257.987	78.88
258.22	73.88
258.452	79.88
258.685	67.88
258.918	79.88
259.151	82.88
259.383	81.88
259.616	80.88
259.849	97.88
260.081	84.88
260.314	68.88
260.547	80.88
260.779	66.88
261.012	73.88
261.244	90.88
261.477	82.88
261.71	74.88
261.942	77.88
262.175	87.88
262.407	85.88
262.64	71.88
262.872	74.88
263.105	78.88
263.337	72.88
263.57	78.88
263.802	73.88
264.035	77.88
264.267	78.88
264.499	75.88
264.732	78.88
264.964	87.88
265.197	94.88
265.429	87.88
265.661	81.88
265.894	81.88
266.126	80.88
266.358	86.88
266.591	93.88
266.823	77.88
267.055	76.88
267.287	75.88
267.52	86.88
267.752	83.88
267.984	86.88
268.216	77.88
268.448	90.88
268.681	89.88
268.913	77.88
269.145	74.88
269.377	86.88
269.609	71.88
269.841	79.88
270.073	81.88
270.306	87.88
270.538	68.88
270.77	79.88
271.002	81.88
271.234	69.88
271.466	71.88
271.698	78.88
271.93	80.88
272.162	83.88
272.394	81.88
272.626	84.88
272.858	90.88
273.09	78.88
273.322	81.88
273.553	69.88
273.785	80.88
274.017	81.88
274.249	75.88
274.481	71.88
274.713	85.88
274.945	73.88
275.176	75.88
275.408	72.88
275.64	72.88
275.872	65.88
276.104	86.88
276.335	92.88
276.567	83.88
276.799	74.88
277.031	70.88
277.262	81.88
277.494	85.88
277.726	68.88
277.957	81.88
278.189	77.88
278.421	63.88
278.652	71.88
278.884	90.88
279.115	73.88
279.347	93.88
279.579	67.88
279.81	84.88
280.042	77.88
280.273	92.88
280.505	84.88
280.736	85.88
280.968	92.88
281.199	91.88
281.431	83.88
281.662	72.88
281.894	68.88
282.125	87.88
282.356	74.88
282.588	96.88
282.819	79.88
283.051	73.88
283.282	78.88
283.513	87.88
283.745	86.88
283.976	87.88
284.207	73.88
284.439	81.88
284.67	99.88
284.901	81.88
285.132	66.88
285.364	69.88
285.595	85.88
285.826	89.88
286.057	90.88
286.288	76.88
286.52	72.88
286.751	76.88
286.982	83.88
287.213	85.88
287.444	89.88
287.675	74.88
287.906	72.88
288.138	67.88
288.369	84.88
288.6	89.88
288.831	98.88
289.062	81.88
289.293	86.88
289.524	83.88
289.755	87.88
289.986	78.88
290.217	82.88
290.448	77.88
290.679	72.88
290.91	71.88
291.141	80.88
291.371	87.88
291.602	78.88
291.833	81.88
292.064	83.88
292.295	80.88
292.526	69.88
292.757	77.88
292.987	85.88
293.218	80.88
293.449	77.88
293.68	81.88
293.91	85.88
294.141	92.88
294.372	80.88
294.603	86.88
294.833	88.88
295.064	79.88
295.295	65.88
295.525	90.88
295.756	77.88
295.987	83.88
296.217	88.88
296.448	93.88
296.679	85.88
296.909	74.88
297.14	77.88
297.37	86.88
297.601	81.88
297.831	87.88
298.062	91.88
298.292	80.88
298.523	96.88
298.753	87.88
298.984	77.88
299.214	72.88
299.445	79.88
299.675	82.88
299.905	79.88
300.136	74.88
300.366	83.88
300.597	77.88
300.827	78.88
301.057	79.88
301.288	92.88
301.518	81.88
301.748	80.88
301.979	102.88
302.209	87.88
302.439	79.88
302.669	76.88
302.9	73.88
303.13	78.88
303.36	101.88
303.59	92.88
303.82	81.88
304.051	69.88
304.281	84.88
304.511	91.88
304.741	63.88
304.971	85.88
305.201	85.88
305.431	94.88
305.661	77.88
305.891	72.88
306.121	77.88
306.352	78.88
306.582	69.88
306.812	94.88
307.042	62.88
307.272	84.88
307.502	80.88
307.731	101.88
307.961	109.88
308.191	136.88
308.421	140.88
308.651	131.88
308.881	99.88
309.111	126.88
309.341	151.88
309.571	143.88
309.8	95.88
310.03	90.88
310.26	70.88
310.49	81.88
310.72	87.88
310.949	81.88
311.179	82.88
311.409	81.88
311.639	84.88
311.868	92.88
312.098	83.88
312.328	84.88
312.557	93.88
312.787	93.88
313.017	79.88
313.246	78.88
313.476	92.88
313.706	75.88
313.935	69.88
314.165	85.88
314.394	88.88
314.624	87.88
314.853	78.88
315.083	81.88
315.312	68.88
315.542	83.88
315.771	83.88
316.001	82.88
316.23	72.88
316.46	80.88
316.689	78.88
316.919	76.88
317.148	80.88
317.377	83.88
317.607	85.88
317.836	65.88
318.065	82.88
318.295	94.88
318.524	89.88
318.753	71.88
318.983	77.88
319.212	79.88
319.441	83.88
319.67	73.88
319.9	95.88
320.129	75.88
320.358	84.88
320.587	77.88
320.816	72.88
321.046	78.88
321.275	84.88
321.504	87.88
321.733	92.88
321.962	82.88
322.191	91.88
322.42	83.88
322.649	96.88
322.878	81.88
323.108	81.88
323.337	85.88
323.566	78.88
323.795	66.88
324.024	77.88
324.253	72.88
324.482	79.88
324.71	97.88
324.939	85.88
325.168	86.88
325.397	73.88
325.626	87.88
325.855	73.88
326.084	83.88
326.313	85.88
326.542	85.88
326.77	85.88
326.999	86.88
327.228	91.88
327.457	97.88
327.686	89.88
327.914	93.88
328.143	79.88
328.372	66.88
328.6	73.88
328.829	79.88
329.058	79.88
329.287	86.88
329.515	69.88
329.744	78.88
329.972	73.88
330.201	78.88
330.43	71.88
330.658	78.88
330.887	77.88
331.115	83.88
331.344	90.88
331.572	93.88
331.801	87.88
332.03	87.88
332.258	90.88
332.486	85.88
332.715	96.88
332.943	82.88
333.172	63.88
333.4	88.88
333.629	71.88
333.857	91.88
334.085	72.88
334.314	84.88
334.542	80.88
334.771	62.88
334.999	77.88
335.227	86.88
335.455	80.88
335.684	93.88
335.912	91.88
336.14	84.88
336.369	69.88
336.597	80.88
336.825	77.88
337.053	77.88
337.281	79.88
337.51	89.88
337.738	75.88
337.966	75.88
338.194	91.88
338.422	89.88
338.65	83.88
338.878	78.88
339.106	76.88
339.334	88.88
339.562	82.88
339.79	72.88
340.018	94.88
340.246	79.88
340.474	71.88
340.702	75.88
340.93	85.88
341.158	76.88
341.386	82.88
341.614	89.88
341.842	81.88
342.07	71.88
342.298	84.88
342.526	65.88
342.754	85.88
342.981	83.88
343.209	82.88
343.437	92.88
343.665	92.88
343.893	76.88
344.12	95.88
344.348	89.88
344.576	85.88
344.804	79.88
345.031	93.88
345.259	69.88
345.487	90.88
345.714	89.88
345.942	85.88
346.17	73.88
346.397	85.88
346.625	69.88
346.853	74.88
347.08	77.88
347.308	74.88
347.535	85.88
347.763	74.88
347.99	88.88
348.218	100.88
348.445	93.88
348.673	77.88
348.9	82.88
349.128	85.88
349.355	75.88
349.583	77.88
349.81	78.88
350.037	86.88
350.265	69.88
350.492	94.88
350.72	76.88
350.947	83.88
351.174	81.88
351.402	78.88
351.629	75.88
351.856	97.88
352.083	73.88
352.311	94.88
352.538	73.88
352.765	72.88
352.992	92.88
353.22	96.88
353.447	78.88
353.674	96.88
353.901	85.88
354.128	85.88
354.355	80.88
354.583	76.88
354.81	85.88
355.037	83.88
355.264	90.88
355.491	88.88
355.718	99.88
355.945	85.88
356.172	71.88
356.399	80.88
356.626	67.88
356.853	73.88
357.08	78.88
357.307	77.88
357.534	80.88
357.761	88.88
357.988	82.88
358.215	86.88
358.441	87.88
358.668	70.88
358.895	70.88
359.122	86.88
359.349	79.88
359.576	85.88
359.802	83.88
360.029	73.88
360.256	75.88
360.483	75.88
360.709	78.88
360.936	87.88
361.163	75.88
361.39	94.88
361.616	92.88
361.843	75.88
362.07	75.88
362.296	69.88
362.523	77.88
362.749	102.88
362.976	85.88
363.203	85.88
363.429	89.88
363.656	76.88
363.882	69.88
364.109	85.88
364.335	90.88
364.562	81.88
364.788	76.88
365.015	80.88
365.241	77.88
365.468	88.88
365.694	95.88
365.92	77.88
366.147	83.88
366.373	71.88
366.599	83.88
366.826	82.88
367.052	84.88
367.278	87.88
367.505	77.88
367.731	88.88
367.957	79.88
368.184	80.88
368.41	75.88
368.636	100.88
368.862	100.88
369.089	74.88
369.315	74.88
369.541	69.88
369.767	88.88
369.993	84.88
370.219	86.88
370.445	105.88
370.672	83.88
370.898	87.88
371.124	89.88
371.35	85.88
371.576	73.88
371.802	69.88
372.028	76.88
372.254	90.88
372.48	74.88
372.706	81.88
372.932	75.88
373.158	79.88
373.384	90.88
373.61	86.88
373.835	80.88
374.061	83.88
374.287	79.88
374.513	79.88
374.739	77.88
374.965	86.88
375.191	83.88
375.416	76.88
375.642	83.88
375.868	87.88
376.094	75.88
376.319	79.88
376.545	90.88
376.771	87.88
376.997	80.88
377.222	88.88
377.448	78.88
377.674	77.88
377.899	78.88
378.125	83.88
378.35	65.88
378.576	74.88
378.802	67.88
379.027	71.88
379.253	89.88
379.478	73.88
379.704	94.88
379.929	83.88
380.155	81.88
380.38	91.88
380.606	86.88
380.831	84.88
381.057	81.88
381.282	86.88
381.507	84.88
381.733	75.88
381.958	84.88
382.184	76.88
382.409	75.88
382.634	90.88
382.86	82.88
383.085	85.88
383.31	81.88
383.535	97.88
383.761	75.88
383.986	89.88
384.211	71.88
384.436	89.88
384.662	76.88
384.887	86.88
385.112	75.88
385.337	87.88
385.562	89.88
385.787	76.88
386.013	95.88
386.238	89.88
386.463	83.88
386.688	115.88
386.913	98.88
387.138	84.88
387.363	92.88
387.588	84.88
387.813	92.88
388.038	92.88
388.263	78.88
388.488	78.88
388.713	73.88
388.938	59.88
389.163	77.88
389.387	85.88
389.612	79.88
389.837	83.88
390.062	78.88
390.287	76.88
390.512	89.88
390.736	80.88
390.961	92.88
391.186	90.88
391.411	73.88
391.636	94.88
391.86	94.88
392.085	96.88
392.31	95.88
392.534	77.88
392.759	85.88
392.984	76.88
393.208	93.88
393.433	93.88
393.658	102.88
393.882	102.88
394.107	147.88
394.331	218.88
394.556	244.88
394.78	144.88
395.005	106.88
395.229	93.88
395.454	87.88
395.678	122.88
395.903	181.88
396.127	274.88
396.352	284.88
396.576	138.88
396.801	85.88
397.025	97.88
397.249	81.88
397.474	95.88
397.698	85.88
397.922	94.88
398.147	91.88
398.371	86.88
398.595	98.88
398.82	88.88
399.044	88.88
399.268	91.88
399.492	78.88
399.717	86.88
399.941	73.88
400.165	105.88
400.389	70.88
400.613	77.88
400.837	80.88
401.062	86.88
401.286	88.88
401.51	93.88
401.734	85.88
401.958	91.88
402.182	89.88
402.406	71.88
402.63	92.88
402.854	98.88
403.078	92.88
403.302	80.88
403.526	82.88
403.75	92.88
403.974	85.88
404.198	92.88
404.422	78.88
404.645	89.88
404.869	85.88
405.093	87.88
405.317	95.88
405.541	71.88
405.765	91.88
405.988	96.88
406.212	100.88
406.436	85.88
406.66	89.88
406.883	88.88
407.107	101.88
407.331	79.88
407.555	88.88
407.778	85.88
408.002	91.88
408.226	85.88
408.449	57.88
408.673	94.88
408.896	105.88
409.12	98.88
409.344	95.88
409.567	90.88
409.791	98.88
410.014	93.88
410.238	85.88
410.461	75.88
410.685	82.88
410.908	89.88
411.132	83.88
411.355	99.88
411.578	85.88
411.802	86.88
412.025	89.88
412.249	96.88
412.472	75.88
412.695	109.88
412.919	91.88
413.142	91.88
413.365	82.88
413.589	100.88
413.812	89.88
414.035	79.88
414.258	95.88
414.482	108.88
414.705	106.88
414.928	82.88
415.151	92.88
415.374	93.88
415.597	95.88
415.821	97.88
416.044	104.88
416.267	100.88
416.49	106.88
416.713	83.88
416.936	81.88
417.159	86.88
417.382	83.88
417.605	85.88
417.828	84.88
418.051	83.88
418.274	101.88
418.497	101.88
418.72	85.88
418.943	94.88
419.166	98.88
419.389	118.88
419.611	92.88
419.834	86.88
420.057	91.88
420.28	89.88
420.503	97.88
420.726	85.88
420.948	84.88
421.171	89.88
421.394	88.88
421.617	94.88
421.839	101.88
422.062	96.88
422.285	87.88
422.507	81.88
422.73	86.88
422.953	81.88
423.175	85.88
423.398	85.88
423.621	85.88
423.843	93.88
424.066	95.88
424.288	93.88
424.511	85.88
424.733	78.88
424.956	100.88
425.178	82.88
425.401	89.88
425.623	82.88
425.846	99.88
426.068	71.88
426.291	76.88
426.513	96.88
426.735	86.88
426.958	96.88
427.18	90.88
427.402	103.88
427.625	110.88
427.847	94.88
428.069	93.88
428.292	90.88
428.514	79.88
428.736	101.88
428.958	104.88
429.181	98.88
429.403	100.88
429.625	89.88
429.847	97.88
430.069	91.88
430.292	84.88
430.514	88.88
430.736	76.88
430.958	86.88
431.18	92.88
431.402	79.88
431.624	79.88
431.846	95.88
432.068	65.88
432.29	99.88
432.512	85.88
432.734	80.88
432.956	89.88
433.178	90.88
433.4	87.88
433.622	103.88
433.844	83.88
434.066	79.88
434.287	91.88
434.509	105.88
434.731	85.88
434.953	71.88
435.175	101.88
435.397	101.88
435.618	84.88
435.84	104.88
436.062	73.88
436.284	78.88
436.505	95.88
436.727	95.88
436.949	84.88
437.17	92.88
437.392	79.88
437.614	103.88
437.835	96.88
438.057	87.88
438.278	98.88
438.5	91.88
438.721	91.88
438.943	70.88
439.165	81.88
439.386	100.88
439.608	122.88
439.829	107.88
440.05	101.88
440.272	102.88
440.493	103.88
440.715	93.88
440.936	93.88
441.158	109.88
441.379	90.88
441.6	92.88
441.822	110.88
442.043	86.88
442.264	101.88
442.486	92.88
442.707	97.88
442.928	83.88
443.149	88.88
443.371	94.88
443.592	94.88
443.813	104.88
444.034	107.88
444.255	102.88
444.476	97.88
444.698	97.88
444.919	85.88
445.14	167.88
445.361	128.88
445.582	102.88
445.803	106.88
446.024	108.88
446.245	103.88
446.466	101.88
446.687	95.88
446.908	98.88
447.129	97.88
447.35	93.88
447.571	94.88
447.792	85.88
448.013	92.88
448.234	80.88
448.455	91.88
448.675	100.88
448.896	102.88
449.117	95.88
449.338	94.88
449.559	82.88
449.779	93.88
450	94.88
450.221	86.88
450.442	91.88
450.662	102.88
450.883	80.88
451.104	103.88
451.324	100.88
451.545	95.88
451.766	122.88
451.986	90.88
452.207	86.88
452.428	91.88
452.648	101.88
452.869	92.88
453.089	101.88
453.31	69.88
453.53	68.88
453.751	73.88
453.971	75.88
454.192	85.88
454.412	85.88
454.633	85.88
454.853	90.88
455.073	98.88
455.294	91.88
455.514	101.88
455.734	94.88
455.955	81.88
456.175	82.88
456.395	91.88
456.616	91.88
456.836	84.88
457.056	81.88
457.276	79.88
457.497	68.88
457.717	71.88
457.937	81.88
458.157	99.88
458.377	92.88
458.598	85.88
458.818	91.88
459.038	86.88
459.258	80.88
459.478	82.88
459.698	83.88
459.918	82.88
460.138	92.88
460.358	87.88
460.578	98.88
460.798	99.88
461.018	93.88
461.238	94.88
461.458	84.88
461.678	77.88
461.898	93.88
462.118	97.88
462.338	99.88
462.558	89.88
462.777	92.88
462.997	85.88
463.217	79.88
463.437	86.88
463.657	83.88
463.876	98.88
464.096	87.88
464.316	95.88
464.536	94.88
464.755	88.88
464.975	104.88
465.195	105.88
465.414	91.88
465.634	91.88
465.854	85.88
466.073	104.88
466.293	106.88
466.512	101.88
466.732	100.88
466.951	107.88
467.171	108.88
467.391	116.88
467.61	99.88
467.829	97.88
468.049	97.88
468.268	91.88
468.488	116.88
468.707	93.88
468.927	102.88
469.146	79.88
469.365	93.88
469.585	86.88
469.804	109.88
470.023	103.88
470.243	100.88
470.462	89.88
470.681	104.88
470.901	81.88
471.12	97.88
471.339	100.88
471.558	95.88
471.777	98.88
471.997	107.88
472.216	86.88
472.435	80.88
472.654	91.88
472.873	95.88
473.092	90.88
473.311	91.88
473.53	91.88
473.749	102.88
473.968	101.88
474.187	98.88
474.406	103.88
474.625	103.88
474.844	116.88
475.063	94.88
475.282	107.88
475.501	101.88
475.72	91.88
475.939	83.88
476.158	86.88
476.377	91.88
476.596	85.88
476.814	97.88
477.033	82.88
477.252	105.88
477.471	93.88
477.69	94.88
477.908	105.88
478.127	103.88
478.346	93.88
478.564	93.88
478.783	97.88
479.002	94.88
479.22	89.88
479.439	97.88
479.658	97.88
479.876	81.88
480.095	94.88
480.313	87.88
480.532	89.88
480.751	89.88
480.969	73.88
481.188	90.88
481.406	74.88
481.624	80.88
481.843	74.88
482.061	96.88
482.28	88.88
482.498	89.88
482.717	78.88
482.935	100.88
483.153	92.88
483.372	96.88
483.59	102.88
483.808	90.88
484.027	98.88
484.245	89.88
484.463	87.88
484.681	102.88
484.9	98.88
485.118	95.88
485.336	97.88
485.554	84.88
485.772	82.88
485.99	71.88
486.209	78.88
486.427	109.88
486.645	82.88
486.863	110.88
487.081	100.88
487.299	80.88
487.517	99.88
487.735	91.88
487.953	121.88
488.171	109.88
488.389	94.88
488.607	98.88
488.825	85.88
489.043	99.88
489.261	99.88
489.479	88.88
489.696	96.88
489.914	89.88
490.132	98.88
490.35	77.88
490.568	119.88
490.786	116.88
491.003	116.88
491.221	104.88
491.439	101.88
491.657	123.88
491.874	126.88
492.092	142.88
492.31	122.88
492.527	113.88
492.745	116.88
492.963	102.88
493.18	126.88
493.398	121.88
493.615	106.88
493.833	125.88
494.05	121.88
494.268	122.88
494.485	113.88
494.703	122.88
494.92	115.88
495.138	100.88
495.355	109.88
495.573	125.88
495.79	92.88
496.008	108.88
496.225	111.88
496.442	111.88
496.66	116.88
496.877	103.88
497.094	108.88
497.312	96.88
497.529	93.88
497.746	89.88
497.963	102.88
498.181	89.88
498.398	92.88
498.615	94.88
498.832	76.88
499.049	85.88
499.267	83.88
499.484	85.88
499.701	102.88
499.918	102.88
500.135	91.88
500.352	85.88
500.569	104.88
500.786	87.88
501.003	85.88
501.22	101.88
501.437	107.88
501.654	100.88
501.871	106.88
502.088	95.88
502.305	97.88
502.522	99.88
502.739	94.88
502.956	86.88
503.172	97.88
503.389	99.88
503.606	91.88
503.823	87.88
504.04	104.88
504.256	94.88
504.473	93.88
504.69	88.88
504.907	95.88
505.123	99.88
505.34	85.88
505.557	93.88
505.773	85.88
505.99	97.88
506.207	107.88
506.423	96.88
506.64	91.88
506.856	85.88
507.073	93.88
507.289	99.88
507.506	97.88
507.722	83.88
507.939	91.88
508.155	88.88
508.372	90.88
508.588	90.88
508.805	76.88
509.021	85.88
509.238	95.88
509.454	82.88
509.67	85.88
509.887	82.88
510.103	99.88
510.319	89.88
510.536	94.88
510.752	81.88
510.968	73.88
511.184	80.88
511.401	67.88
511.617	80.88
511.833	83.88
512.049	87.88
512.265	85.88
512.481	88.88
512.698	93.88
512.914	83.88
513.13	75.88
513.346	91.88
513.562	89.88
513.778	104.88
513.994	92.88
514.21	84.88
514.426	78.88
514.642	85.88
514.858	87.88
515.074	90.88
515.29	95.88
515.506	82.88
515.721	85.88
515.937	91.88
516.153	84.88
516.369	69.88
516.585	87.88
516.801	87.88
517.016	91.88
517.232	80.88
517.448	91.88
517.664	65.88
517.879	83.88
518.095	84.88
518.311	81.88
518.527	64.88
518.742	84.88
518.958	69.88
519.173	91.88
519.389	90.88
519.605	73.88
519.82	78.88
520.036	90.88
520.251	94.88
520.467	86.88
520.682	99.88
520.898	75.88
521.113	96.88
521.329	87.88
521.544	73.88
521.76	85.88
521.975	85.88
522.19	93.88
522.406	92.88
522.621	91.88
522.836	100.88
523.052	89.88
523.267	82.88
523.482	90.88
523.698	90.88
523.913	84.88
524.128	93.88
524.343	81.88
524.559	94.88
524.774	65.88
524.989	81.88
525.204	88.88
525.419	99.88
525.634	94.88
525.849	88.88
526.064	89.88
526.28	87.88
526.495	85.88
526.71	81.88
526.925	83.88
527.14	78.88
527.355	103.88
527.57	77.88
527.785	74.88
527.999	88.88
528.214	67.88
528.429	81.88
528.644	83.88
528.859	76.88
529.074	85.88
529.289	83.88
529.503	103.88
529.718	94.88
529.933	87.88
530.148	90.88
530.363	83.88
530.577	77.88
530.792	75.88
531.007	86.88
531.221	71.88
531.436	97.88
531.651	73.88
531.865	83.88
532.08	74.88
532.295	76.88
532.509	86.88
532.724	85.88
532.938	71.88
533.153	80.88
533.367	92.88
533.582	92.88
533.796	78.88
534.011	81.88
534.225	87.88
534.44	82.88
534.654	85.88
534.868	88.88
535.083	85.88
535.297	81.88
535.511	85.88
535.726	94.88
535.94	86.88
536.154	89.88
536.369	79.88
536.583	97.88
536.797	89.88
537.011	93.88
537.225	74.88
537.44	89.88
537.654	89.88
537.868	76.88
538.082	83.88
538.296	106.88
538.51	90.88
538.724	87.88
538.938	91.88
539.153	90.88
539.367	92.88
539.581	88.88
539.795	84.88
540.009	87.88
540.222	89.88
540.436	95.88
540.65	93.88
540.864	92.88
541.078	104.88
541.292	97.88
541.506	89.88
541.72	94.88
541.934	100.88
542.147	108.88
542.361	102.88
542.575	94.88
542.789	98.88
543.002	83.88
543.216	99.88
543.43	98.88
543.644	107.88
543.857	83.88
544.071	114.88
544.285	101.88
544.498	101.88
544.712	107.88
544.925	107.88
545.139	111.88
545.352	105.88
545.566	113.88
545.779	116.88
545.993	93.88
546.206	97.88
546.42	105.88
546.633	98.88
546.847	116.88
547.06	118.88
547.274	97.88
547.487	110.88
547.7	108.88
547.914	106.88
548.127	106.88
548.34	112.88
548.554	104.88
548.767	105.88
548.98	117.88
549.193	115.88
549.407	109.88
549.62	110.88
549.833	110.88
550.046	99.88
550.259	100.88
550.473	101.88
550.686	102.88
550.899	92.88
551.112	107.88
551.325	109.88
551.538	106.88
551.751	88.88
551.964	105.88
552.177	91.88
552.39	95.88
552.603	110.88
552.816	103.88
553.029	97.88
553.242	109.88
553.455	105.88
553.667	111.88
553.88	121.88
554.093	96.88
554.306	89.88
554.519	96.88
554.732	102.88
554.944	102.88
555.157	105.88
555.37	101.88
555.583	97.88
555.795	109.88
556.008	102.88
556.221	105.88
556.433	96.88
556.646	105.88
556.859	114.88
557.071	93.88
557.284	99.88
557.496	104.88
557.709	104.88
557.921	91.88
558.134	92.88
558.346	107.88
558.559	97.88
558.771	102.88
558.984	99.88
559.196	98.88
559.409	93.88
559.621	97.88
559.833	101.88
560.046	77.88
560.258	107.88
560.47	106.88
560.683	106.88
560.895	96.88
561.107	104.88
561.32	97.88
561.532	97.88
561.744	93.88
561.956	94.88
562.168	99.88
562.381	92.88
562.593	97.88
562.805	91.88
563.017	91.88
563.229	99.88
563.441	81.88
563.653	82.88
563.865	86.88
564.077	101.88
564.289	87.88
564.501	99.88
564.713	82.88
564.925	104.88
565.137	98.88
565.349	88.88
565.561	80.88
565.773	93.88
565.985	85.88
566.197	103.88
566.408	101.88
566.62	92.88
566.832	95.88
567.044	93.88
567.255	98.88
567.467	101.88
567.679	97.88
567.891	90.88
568.102	85.88
568.314	84.88
568.526	91.88
568.737	87.88
568.949	92.88
569.161	100.88
569.372	84.88
569.584	93.88
569.795	79.88
570.007	76.88
570.218	77.88
570.43	93.88
570.641	95.88
570.853	78.88
571.064	86.88
571.276	85.88
571.487	79.88
571.698	91.88
571.91	88.88
572.121	101.88
572.333	86.88
572.544	88.88
572.755	89.88
572.966	90.88
573.178	85.88
573.389	97.88
573.6	83.88
573.811	81.88
574.023	83.88
574.234	89.88
574.445	97.88
574.656	79.88
574.867	77.88
575.078	84.88
575.289	90.88
575.501	91.88
575.712	96.88
575.923	78.88
576.134	78.88
576.345	76.88
576.556	92.88
576.767	90.88
576.978	87.88
577.188	85.88
577.399	89.88
577.61	87.88
577.821	88.88
578.032	77.88
578.243	81.88
578.454	81.88
578.665	95.88
578.875	78.88
579.086	77.88
579.297	80.88
579.508	77.88
579.718	81.88
579.929	78.88
580.14	83.88
580.35	97.88
580.561	80.88
580.772	71.88
580.982	81.88
581.193	85.88
581.403	82.88
581.614	79.88
581.825	80.88
582.035	83.88
582.246	94.88
582.456	89.88
582.667	82.88
582.877	87.88
583.087	67.88
583.298	80.88
583.508	81.88
583.719	87.88
583.929	83.88
584.139	89.88
584.35	78.88
584.56	85.88
584.77	88.88
584.981	71.88
585.191	87.88
585.401	77.88
585.611	75.88
585.821	77.88
586.032	90.88
586.242	80.88
586.452	77.88
586.662	77.88
586.872	71.88
587.082	96.88
587.292	73.88
587.502	80.88
587.713	73.88
587.923	70.88
588.133	87.88
588.343	73.88
588.553	77.88
588.762	76.88
588.972	85.88
589.182	97.88
589.392	84.88
589.602	73.88
589.812	85.88
590.022	76.88
590.232	75.88
590.441	73.88
590.651	68.88
590.861	89.88
591.071	79.88
591.281	79.88
591.49	86.88
591.7	83.88
591.91	89.88
592.119	75.88
592.329	86.88
592.539	94.88
592.748	85.88
592.958	89.88
593.167	92.88
593.377	78.88
593.587	84.88
593.796	86.88
594.006	78.88
594.215	86.88
594.424	104.88
594.634	84.88
594.843	85.88
595.053	82.88
595.262	89.88
595.472	80.88
595.681	82.88
595.89	92.88
596.1	79.88
596.309	60.88
596.518	89.88
596.727	90.88
596.937	89.88
597.146	84.88
597.355	77.88
597.564	77.88
597.774	75.88
597.983	90.88
598.192	87.88
598.401	89.88
598.61	90.88
598.819	87.88
599.028	69.88
599.237	84.88
599.446	85.88
599.655	79.88
599.864	86.88
600.073	84.88
600.282	80.88
600.491	91.88
600.7	80.88
600.909	87.88
601.118	89.88
601.327	77.88
601.536	81.88
601.745	96.88
601.953	85.88
602.162	84.88
602.371	84.88
602.58	78.88
602.789	90.88
602.997	87.88
603.206	105.88
603.415	98.88
603.623	93.88
603.832	95.88
604.041	88.88
604.249	82.88
604.458	83.88
604.666	75.88
604.875	91.88
605.084	87.88
605.292	74.88
605.501	79.88
605.709	101.88
605.918	77.88
606.126	94.88
606.334	91.88
606.543	102.88
606.751	77.88
606.96	86.88
607.168	94.88
607.376	82.88
607.585	85.88
607.793	85.88
608.001	82.88
608.21	93.88
608.418	93.88
608.626	93.88
608.834	98.88
609.043	89.88
609.251	96.88
609.459	88.88
609.667	70.88
609.875	90.88
610.083	85.88
610.291	96.88
610.499	81.88
610.707	95.88
610.916	116.88
611.124	97.88
611.332	77.88
611.54	83.88
611.748	86.88
611.955	81.88
612.163	95.88
612.371	91.88
612.579	81.88
612.787	82.88
612.995	85.88
613.203	82.88
613.411	94.88
613.618	98.88
613.826	89.88
614.034	93.88
614.242	93.88
614.449	89.88
614.657	91.88
614.865	101.88
615.072	82.88
615.28	90.88
615.488	75.88
615.695	88.88
615.903	81.88
616.111	84.88
616.318	97.88
616.526	103.88
616.733	95.88
616.941	96.88
617.148	101.88
617.356	90.88
617.563	88.88
617.771	97.88
617.978	78.88
618.185	106.88
618.393	87.88
618.6	94.88
618.807	107.88
619.015	97.88
619.222	77.88
619.429	79.88
619.637	93.88
619.844	92.88
620.051	90.88
620.258	92.88
620.466	101.88
620.673	81.88
620.88	81.88
621.087	90.88
621.294	93.88
621.501	81.88
621.708	74.88
621.915	87.88
622.122	87.88
622.329	93.88
622.536	100.88
622.743	100.88
622.95	98.88
623.157	95.88
623.364	95.88
623.571	99.88
623.778	92.88
623.985	101.88
624.192	101.88
624.399	105.88
624.606	80.88
624.812	89.88
625.019	91.88
625.226	91.88
625.433	97.88
625.639	81.88
625.846	87.88
626.053	80.88
626.259	94.88
626.466	80.88
626.673	79.88
626.879	73.88
627.086	82.88
627.293	93.88
627.499	76.88
627.706	107.88
627.912	91.88
628.119	85.88
628.325	97.88
628.532	90.88
628.738	85.88
628.945	86.88
629.151	85.88
629.357	95.88
629.564	97.88
629.77	101.88
629.976	83.88
630.183	83.88
630.389	90.88
630.595	87.88
630.802	86.88
631.008	93.88
631.214	105.88
631.42	95.88
631.627	85.88
631.833	89.88
632.039	79.88
632.245	83.88
632.451	78.88
632.657	91.88
632.863	103.88
633.069	82.88
633.275	91.88
633.481	99.88
633.688	97.88
633.893	84.88
634.099	82.88
634.305	93.88
634.511	73.88
634.717	69.88
634.923	85.88
635.129	82.88
635.335	74.88
635.541	77.88
635.747	87.88
635.952	70.88
636.158	80.88
636.364	97.88
636.57	85.88
636.775	84.88
636.981	88.88
637.187	98.88
637.392	89.88
637.598	93.88
637.804	74.88
638.009	87.88
638.215	81.88
638.421	85.88
638.626	78.88
638.832	77.88
639.037	76.88
639.243	87.88
639.448	86.88
639.654	90.88
639.859	85.88
640.065	92.88
640.27	95.88
640.475	86.88
640.681	71.88
640.886	87.88
641.091	87.88
641.297	85.88
641.502	78.88
641.707	81.88
641.913	93.88
642.118	105.88
642.323	83.88
642.528	76.88
642.733	93.88
642.939	79.88
643.144	90.88
643.349	92.88
643.554	93.88
643.759	98.88
643.964	80.88
644.169	72.88
644.374	85.88
644.579	93.88
644.784	82.88
644.989	85.88
645.194	96.88
645.399	80.88
645.604	80.88
645.809	72.88
646.014	89.88
646.219	75.88
646.423	74.88
646.628	84.88
646.833	87.88
647.038	85.88
647.243	87.88
647.447	84.88
647.652	81.88
647.857	88.88
648.062	98.88
648.266	77.88
648.471	91.88
648.676	90.88
648.88	93.88
649.085	83.88
649.289	85.88
649.494	75.88
649.698	88.88
649.903	87.88
650.107	88.88
650.312	89.88
650.516	82.88
650.721	92.88
650.925	89.88
651.13	93.88
651.334	79.88
651.539	87.88
651.743	87.88
651.947	80.88
652.152	71.88
652.356	88.88
652.56	89.88
652.764	85.88
652.969	97.88
653.173	73.88
653.377	97.88
653.581	83.88
653.785	105.88
653.99	80.88
654.194	90.88
654.398	94.88
654.602	73.88
654.806	83.88
655.01	74.88
655.214	75.88
655.418	85.88
655.622	86.88
655.826	88.88
656.03	73.88
656.234	83.88
656.438	86.88
656.642	62.88
656.846	75.88
657.049	80.88
657.253	90.88
657.457	86.88
657.661	78.88
657.865	89.88
658.068	76.88
658.272	77.88
658.476	86.88
658.68	83.88
658.883	76.88
659.087	77.88
659.291	78.88
659.494	76.88
659.698	94.88
659.901	82.88
660.105	87.88
660.309	70.88
660.512	70.88
660.716	79.88
660.919	88.88
661.123	85.88
661.326	70.88
661.53	82.88
661.733	62.88
661.936	80.88
662.14	93.88
662.343	79.88
662.546	74.88
662.75	84.88
662.953	76.88
663.156	72.88
663.36	69.88
663.563	59.88
663.766	79.88
663.969	86.88
664.173	81.88
664.376	69.88
664.579	78.88
664.782	74.88
664.985	69.88
665.188	73.88
665.391	79.88
665.594	66.88
665.797	82.88
666	85.88
666.203	93.88
666.406	78.88
666.609	85.88
666.812	73.88
667.015	65.88
667.218	87.88
667.421	78.88
667.624	79.88
667.827	85.88
668.03	77.88
668.232	83.88
668.435	86.88
668.638	85.88
668.841	75.88
669.043	89.88
669.246	60.88
669.449	86.88
669.651	99.88
669.854	75.88
670.057	73.88
670.259	79.88
670.462	77.88
670.665	85.88
670.867	84.88
671.07	95.88
671.272	80.88
671.475	101.88
671.677	77.88
671.88	80.88
672.082	85.88
672.284	80.88
672.487	81.88
672.689	70.88
672.892	75.88
