Data from Cut_Leaves_75_3_HRD10591_00020.txt Node
Date: Wed Dec 03 14:25:52 EST 2025
User: Yrep
Spectrometer: HR+D1059
Trigger mode: 1
Integration Time (sec): 1.000000E-1
Scans to average: 1
Electric dark correction enabled: true
Nonlinearity correction enabled: false
Boxcar width: 0
XAxis mode: Wavelengths
Number of Pixels in Spectrum: 2048
>>>>>Begin Spectral Data<<<<<
223.165	-14
223.4	-14
223.635	-14
223.869	-13
224.104	-14
224.338	-7
224.573	-22
224.808	-16
225.042	-10
225.277	2
225.511	-3
225.746	-3
225.98	2
226.215	12
226.449	18
226.683	10
226.918	30
227.152	28
227.387	36
227.621	32
227.856	53
228.09	46
228.324	46
228.559	45
228.793	58
229.027	51
229.262	69
229.496	68
229.73	70
229.964	76
230.199	72
230.433	79
230.667	76
230.901	80
231.136	67
231.37	70
231.604	89
231.838	88
232.072	70
232.306	92
232.541	79
232.775	75
233.009	89
233.243	72
233.477	86
233.711	80
233.945	81
234.179	73
234.413	75
234.647	80
234.881	83
235.115	78
235.349	66
235.583	76
235.817	68
236.051	77
236.285	82
236.519	79
236.753	62
236.987	58
237.221	67
237.455	79
237.689	69
237.922	81
238.156	71
238.39	60
238.624	88
238.858	70
239.091	67
239.325	68
239.559	60
239.793	73
240.027	75
240.26	73
240.494	78
240.728	80
240.961	72
241.195	78
241.429	71
241.662	82
241.896	83
242.13	61
242.363	64
242.597	72
242.83	72
243.064	82
243.298	91
243.531	88
243.765	60
243.998	63
244.232	91
244.465	65
244.699	78
244.932	86
245.166	73
245.399	77
245.633	84
245.866	75
246.099	80
246.333	84
246.566	87
246.8	76
247.033	78
247.266	87
247.5	73
247.733	66
247.966	70
248.2	74
248.433	73
248.666	79
248.899	86
249.133	77
249.366	75
249.599	81
249.832	77
250.066	76
250.299	87
250.532	78
250.765	86
250.998	65
251.231	86
251.465	70
251.698	77
251.931	67
252.164	78
252.397	66
252.63	88
252.863	82
253.096	62
253.329	81
253.562	69
253.795	79
254.028	74
254.261	90
254.494	76
254.727	78
254.96	83
255.193	89
255.426	68
255.659	66
255.892	68
256.124	76
256.357	72
256.59	76
256.823	74
257.056	66
257.289	74
257.521	74
257.754	69
257.987	68
258.22	80
258.452	80
258.685	74
258.918	93
259.151	70
259.383	78
259.616	79
259.849	74
260.081	79
260.314	75
260.547	73
260.779	92
261.012	83
261.244	82
261.477	91
261.71	71
261.942	86
262.175	67
262.407	83
262.64	74
262.872	75
263.105	84
263.337	75
263.57	76
263.802	84
264.035	81
264.267	80
264.499	87
264.732	76
264.964	81
265.197	60
265.429	82
265.661	74
265.894	76
266.126	81
266.358	78
266.591	79
266.823	69
267.055	83
267.287	75
267.52	88
267.752	81
267.984	83
268.216	71
268.448	84
268.681	83
268.913	81
269.145	92
269.377	80
269.609	79
269.841	69
270.073	79
270.306	90
270.538	91
270.77	83
271.002	90
271.234	85
271.466	83
271.698	86
271.93	76
272.162	77
272.394	74
272.626	90
272.858	88
273.09	80
273.322	87
273.553	77
273.785	81
274.017	72
274.249	86
274.481	80
274.713	70
274.945	83
275.176	80
275.408	94
275.64	75
275.872	63
276.104	82
276.335	73
276.567	75
276.799	89
277.031	79
277.262	83
277.494	90
277.726	88
277.957	80
278.189	66
278.421	67
278.652	90
278.884	96
279.115	93
279.347	82
279.579	80
279.81	67
280.042	87
280.273	80
280.505	79
280.736	93
280.968	75
281.199	72
281.431	94
281.662	83
281.894	95
282.125	82
282.356	91
282.588	79
282.819	77
283.051	78
283.282	81
283.513	83
283.745	80
283.976	68
284.207	73
284.439	76
284.67	96
284.901	87
285.132	83
285.364	73
285.595	80
285.826	86
286.057	78
286.288	86
286.52	66
286.751	94
286.982	90
287.213	80
287.444	79
287.675	80
287.906	88
288.138	83
288.369	82
288.6	92
288.831	70
289.062	81
289.293	76
289.524	94
289.755	78
289.986	74
290.217	90
290.448	71
290.679	83
290.91	89
291.141	90
291.371	88
291.602	66
291.833	80
292.064	69
292.295	83
292.526	82
292.757	76
292.987	79
293.218	79
293.449	89
293.68	79
293.91	81
294.141	76
294.372	82
294.603	83
294.833	80
295.064	74
295.295	78
295.525	81
295.756	75
295.987	92
296.217	68
296.448	75
296.679	71
296.909	96
297.14	91
297.37	83
297.601	64
297.831	68
298.062	88
298.292	74
298.523	93
298.753	60
298.984	73
299.214	79
299.445	80
299.675	77
299.905	66
300.136	91
300.366	75
300.597	88
300.827	81
301.057	75
301.288	85
301.518	96
301.748	82
301.979	100
302.209	91
302.439	80
302.669	74
302.9	67
303.13	93
303.36	59
303.59	74
303.82	76
304.051	79
304.281	79
304.511	92
304.741	80
304.971	76
305.201	93
305.431	80
305.661	90
305.891	74
306.121	72
306.352	78
306.582	82
306.812	80
307.042	90
307.272	79
307.502	94
307.731	95
307.961	94
308.191	74
308.421	80
308.651	100
308.881	82
309.111	83
309.341	75
309.571	80
309.8	94
310.03	76
310.26	80
310.49	87
310.72	73
310.949	84
311.179	88
311.409	88
311.639	95
311.868	91
312.098	102
312.328	94
312.557	79
312.787	75
313.017	78
313.246	86
313.476	74
313.706	70
313.935	93
314.165	78
314.394	70
314.624	78
314.853	91
315.083	84
315.312	79
315.542	90
315.771	86
316.001	88
316.23	71
316.46	86
316.689	89
316.919	89
317.148	87
317.377	79
317.607	79
317.836	82
318.065	68
318.295	87
318.524	70
318.753	90
318.983	71
319.212	94
319.441	71
319.67	91
319.9	86
320.129	65
320.358	87
320.587	82
320.816	75
321.046	80
321.275	82
321.504	81
321.733	79
321.962	78
322.191	81
322.42	80
322.649	88
322.878	83
323.108	80
323.337	69
323.566	94
323.795	76
324.024	78
324.253	79
324.482	79
324.71	69
324.939	95
325.168	65
325.397	72
325.626	78
325.855	74
326.084	90
326.313	83
326.542	68
326.77	67
326.999	69
327.228	83
327.457	86
327.686	96
327.914	92
328.143	79
328.372	84
328.6	81
328.829	91
329.058	75
329.287	75
329.515	76
329.744	80
329.972	89
330.201	81
330.43	89
330.658	98
330.887	78
331.115	82
331.344	91
331.572	83
331.801	74
332.03	79
332.258	68
332.486	77
332.715	73
332.943	68
333.172	91
333.4	86
333.629	88
333.857	78
334.085	89
334.314	73
334.542	84
334.771	94
334.999	80
335.227	90
335.455	84
335.684	98
335.912	91
336.14	78
336.369	86
336.597	86
336.825	95
337.053	76
337.281	79
337.51	93
337.738	89
337.966	90
338.194	74
338.422	80
338.65	76
338.878	92
339.106	76
339.334	84
339.562	76
339.79	78
340.018	77
340.246	71
340.474	82
340.702	83
340.93	77
341.158	76
341.386	70
341.614	94
341.842	78
342.07	83
342.298	82
342.526	80
342.754	90
342.981	84
343.209	66
343.437	92
343.665	67
343.893	76
344.12	72
344.348	86
344.576	78
344.804	82
345.031	67
345.259	86
345.487	76
345.714	82
345.942	76
346.17	81
346.397	84
346.625	72
346.853	79
347.08	78
347.308	78
347.535	66
347.763	72
347.99	90
348.218	73
348.445	64
348.673	79
348.9	86
349.128	77
349.355	83
349.583	82
349.81	83
350.037	73
350.265	73
350.492	70
350.72	70
350.947	78
351.174	94
351.402	86
351.629	93
351.856	61
352.083	76
352.311	74
352.538	72
352.765	92
352.992	87
353.22	71
353.447	80
353.674	80
353.901	83
354.128	63
354.355	72
354.583	78
354.81	81
355.037	89
355.264	85
355.491	83
355.718	73
355.945	88
356.172	66
356.399	78
356.626	92
356.853	68
357.08	87
357.307	97
357.534	80
357.761	79
357.988	99
358.215	79
358.441	79
358.668	76
358.895	67
359.122	73
359.349	64
359.576	84
359.802	64
360.029	82
360.256	81
360.483	80
360.709	89
360.936	81
361.163	87
361.39	96
361.616	76
361.843	86
362.07	80
362.296	86
362.523	76
362.749	77
362.976	74
363.203	82
363.429	80
363.656	90
363.882	98
364.109	70
364.335	82
364.562	73
364.788	90
365.015	70
365.241	66
365.468	79
365.694	71
365.92	79
366.147	70
366.373	74
366.599	83
366.826	90
367.052	76
367.278	89
367.505	77
367.731	89
367.957	78
368.184	87
368.41	66
368.636	96
368.862	83
369.089	78
369.315	80
369.541	83
369.767	79
369.993	81
370.219	107
370.445	74
370.672	71
370.898	73
371.124	84
371.35	101
371.576	78
371.802	66
372.028	74
372.254	83
372.48	60
372.706	75
372.932	69
373.158	82
373.384	70
373.61	65
373.835	98
374.061	78
374.287	73
374.513	80
374.739	79
374.965	82
375.191	89
375.416	86
375.642	75
375.868	80
376.094	96
376.319	75
376.545	82
376.771	75
376.997	80
377.222	80
377.448	92
377.674	84
377.899	81
378.125	86
378.35	82
378.576	79
378.802	86
379.027	77
379.253	93
379.478	89
379.704	80
379.929	82
380.155	72
380.38	88
380.606	75
380.831	86
381.057	94
381.282	94
381.507	91
381.733	93
381.958	83
382.184	72
382.409	81
382.634	76
382.86	78
383.085	103
383.31	104
383.535	86
383.761	84
383.986	76
384.211	89
384.436	75
384.662	80
384.887	73
385.112	83
385.337	78
385.562	74
385.787	77
386.013	75
386.238	60
386.463	86
386.688	92
386.913	81
387.138	90
387.363	103
387.588	76
387.813	76
388.038	74
388.263	81
388.488	87
388.713	81
388.938	81
389.163	77
389.387	91
389.612	88
389.837	71
390.062	69
390.287	77
390.512	75
390.736	82
390.961	76
391.186	79
391.411	72
391.636	64
391.86	59
392.085	79
392.31	85
392.534	72
392.759	91
392.984	95
393.208	71
393.433	95
393.658	76
393.882	70
394.107	79
394.331	84
394.556	67
394.78	82
395.005	84
395.229	70
395.454	97
395.678	73
395.903	80
396.127	79
396.352	79
396.576	75
396.801	84
397.025	83
397.249	81
397.474	86
397.698	75
397.922	75
398.147	76
398.371	75
398.595	93
398.82	69
399.044	80
399.268	89
399.492	86
399.717	89
399.941	77
400.165	81
400.389	73
400.613	70
400.837	82
401.062	75
401.286	68
401.51	67
401.734	74
401.958	72
402.182	78
402.406	75
402.63	73
402.854	92
403.078	74
403.302	81
403.526	85
403.75	75
403.974	60
404.198	77
404.422	83
404.645	80
404.869	80
405.093	77
405.317	87
405.541	80
405.765	71
405.988	73
406.212	72
406.436	84
406.66	92
406.883	68
407.107	77
407.331	76
407.555	88
407.778	72
408.002	72
408.226	67
408.449	74
408.673	96
408.896	84
409.12	86
409.344	64
409.567	74
409.791	84
410.014	78
410.238	75
410.461	86
410.685	73
410.908	79
411.132	86
411.355	83
411.578	79
411.802	92
412.025	78
412.249	74
412.472	88
412.695	78
412.919	74
413.142	89
413.365	83
413.589	78
413.812	64
414.035	84
414.258	74
414.482	74
414.705	79
414.928	78
415.151	79
415.374	68
415.597	63
415.821	62
416.044	74
416.267	87
416.49	78
416.713	89
416.936	63
417.159	91
417.382	71
417.605	70
417.828	64
418.051	71
418.274	78
418.497	81
418.72	75
418.943	82
419.166	75
419.389	94
419.611	78
419.834	66
420.057	86
420.28	79
420.503	82
420.726	87
420.948	74
421.171	74
421.394	78
421.617	84
421.839	86
422.062	92
422.285	93
422.507	100
422.73	116
422.953	99
423.175	79
423.398	67
423.621	81
423.843	84
424.066	85
424.288	80
424.511	80
424.733	84
424.956	87
425.178	81
425.401	72
425.623	66
425.846	68
426.068	81
426.291	81
426.513	73
426.735	89
426.958	87
427.18	81
427.402	77
427.625	71
427.847	84
428.069	86
428.292	66
428.514	82
428.736	95
428.958	87
429.181	67
429.403	57
429.625	89
429.847	82
430.069	92
430.292	98
430.514	82
430.736	81
430.958	76
431.18	81
431.402	76
431.624	73
431.846	74
432.068	85
432.29	78
432.512	80
432.734	65
432.956	78
433.178	67
433.4	83
433.622	66
433.844	78
434.066	77
434.287	78
434.509	80
434.731	82
434.953	69
435.175	72
435.397	78
435.618	76
435.84	76
436.062	79
436.284	74
436.505	78
436.727	72
436.949	73
437.17	76
437.392	80
437.614	64
437.835	79
438.057	90
438.278	76
438.5	92
438.721	69
438.943	64
439.165	89
439.386	68
439.608	83
439.829	82
440.05	82
440.272	80
440.493	82
440.715	83
440.936	74
441.158	80
441.379	76
441.6	73
441.822	77
442.043	92
442.264	79
442.486	77
442.707	92
442.928	92
443.149	77
443.371	69
443.592	91
443.813	83
444.034	83
444.255	82
444.476	78
444.698	84
444.919	80
445.14	138
445.361	108
445.582	73
445.803	84
446.024	70
446.245	82
446.466	82
446.687	87
446.908	81
447.129	91
447.35	79
447.571	95
447.792	66
448.013	74
448.234	83
448.455	83
448.675	74
448.896	67
449.117	72
449.338	90
449.559	62
449.779	72
450	71
450.221	90
450.442	77
450.662	79
450.883	73
451.104	79
451.324	78
451.545	58
451.766	86
451.986	76
452.207	82
452.428	82
452.648	67
452.869	93
453.089	90
453.31	76
453.53	83
453.751	79
453.971	79
454.192	79
454.412	75
454.633	78
454.853	74
455.073	67
455.294	77
455.514	89
455.734	77
455.955	74
456.175	79
456.395	73
456.616	86
456.836	81
457.056	58
457.276	78
457.497	80
457.717	75
457.937	84
458.157	79
458.377	74
458.598	72
458.818	84
459.038	76
459.258	74
459.478	72
459.698	89
459.918	91
460.138	82
460.358	74
460.578	61
460.798	77
461.018	86
461.238	78
461.458	68
461.678	87
461.898	83
462.118	71
462.338	84
462.558	81
462.777	86
462.997	68
463.217	76
463.437	73
463.657	72
463.876	70
464.096	73
464.316	83
464.536	73
464.755	76
464.975	80
465.195	72
465.414	91
465.634	94
465.854	90
466.073	90
466.293	91
466.512	87
466.732	64
466.951	79
467.171	83
467.391	83
467.61	79
467.829	86
468.049	62
468.268	89
468.488	84
468.707	76
468.927	72
469.146	76
469.365	76
469.585	82
469.804	75
470.023	80
470.243	90
470.462	78
470.681	79
470.901	74
471.12	73
471.339	88
471.558	83
471.777	68
471.997	68
472.216	62
472.435	82
472.654	88
472.873	80
473.092	88
473.311	96
473.53	77
473.749	74
473.968	70
474.187	85
474.406	67
474.625	73
474.844	90
475.063	88
475.282	73
475.501	83
475.72	83
475.939	90
476.158	82
476.377	75
476.596	85
476.814	78
477.033	86
477.252	78
477.471	62
477.69	78
477.908	63
478.127	84
478.346	99
478.564	80
478.783	73
479.002	92
479.22	95
479.439	75
479.658	81
479.876	73
480.095	75
480.313	83
480.532	88
480.751	79
480.969	83
481.188	98
481.406	83
481.624	95
481.843	87
482.061	86
482.28	89
482.498	91
482.717	98
482.935	81
483.153	79
483.372	86
483.59	90
483.808	88
484.027	72
484.245	65
484.463	79
484.681	90
484.9	99
485.118	84
485.336	88
485.554	80
485.772	70
485.99	76
486.209	89
486.427	74
486.645	91
486.863	91
487.081	71
487.299	73
487.517	79
487.735	80
487.953	74
488.171	82
488.389	89
488.607	66
488.825	88
489.043	82
489.261	94
489.479	90
489.696	88
489.914	88
490.132	93
490.35	89
490.568	72
490.786	90
491.003	89
491.221	82
491.439	74
491.657	89
491.874	92
492.092	84
492.31	80
492.527	79
492.745	87
492.963	92
493.18	88
493.398	92
493.615	69
493.833	83
494.05	84
494.268	92
494.485	80
494.703	81
494.92	88
495.138	81
495.355	74
495.573	74
495.79	89
496.008	90
496.225	83
496.442	66
496.66	83
496.877	83
497.094	82
497.312	78
497.529	70
497.746	80
497.963	72
498.181	86
498.398	78
498.615	87
498.832	86
499.049	67
499.267	90
499.484	82
499.701	79
499.918	90
500.135	62
500.352	82
500.569	83
500.786	88
501.003	92
501.22	79
501.437	78
501.654	80
501.871	74
502.088	75
502.305	78
502.522	77
502.739	82
502.956	82
503.172	75
503.389	88
503.606	76
503.823	88
504.04	82
504.256	80
504.473	72
504.69	75
504.907	89
505.123	86
505.34	88
505.557	81
505.773	88
505.99	78
506.207	86
506.423	86
506.64	65
506.856	77
507.073	83
507.289	78
507.506	90
507.722	95
507.939	88
508.155	90
508.372	90
508.588	78
508.805	74
509.021	82
509.238	82
509.454	83
509.67	84
509.887	82
510.103	80
510.319	72
510.536	77
510.752	67
510.968	86
511.184	84
511.401	78
511.617	102
511.833	78
512.049	77
512.265	65
512.481	70
512.698	74
512.914	84
513.13	83
513.346	95
513.562	83
513.778	74
513.994	86
514.21	72
514.426	80
514.642	72
514.858	80
515.074	68
515.29	84
515.506	79
515.721	66
515.937	68
516.153	76
516.369	77
516.585	71
516.801	93
517.016	82
517.232	94
517.448	95
517.664	84
517.879	88
518.095	67
518.311	94
518.527	96
518.742	93
518.958	77
519.173	81
519.389	87
519.605	81
519.82	94
520.036	79
520.251	68
520.467	86
520.682	72
520.898	80
521.113	95
521.329	70
521.544	76
521.76	87
521.975	87
522.19	70
522.406	88
522.621	87
522.836	80
523.052	94
523.267	77
523.482	90
523.698	90
523.913	88
524.128	81
524.343	92
524.559	89
524.774	89
524.989	83
525.204	94
525.419	75
525.634	66
525.849	84
526.064	88
526.28	94
526.495	97
526.71	81
526.925	68
527.14	72
527.355	97
527.57	91
527.785	81
527.999	81
528.214	84
528.429	76
528.644	90
528.859	91
529.074	84
529.289	86
529.503	74
529.718	88
529.933	88
530.148	87
530.363	79
530.577	65
530.792	80
531.007	76
531.221	74
531.436	81
531.651	86
531.865	79
532.08	79
532.295	100
532.509	75
532.724	80
532.938	78
533.153	77
533.367	69
533.582	70
533.796	75
534.011	81
534.225	77
534.44	67
534.654	91
534.868	73
535.083	78
535.297	68
535.511	94
535.726	76
535.94	78
536.154	88
536.369	83
536.583	78
536.797	80
537.011	99
537.225	95
537.44	83
537.654	82
537.868	88
538.082	83
538.296	89
538.51	86
538.724	80
538.938	104
539.153	90
539.367	82
539.581	91
539.795	90
540.009	90
540.222	79
540.436	72
540.65	80
540.864	85
541.078	77
541.292	78
541.506	90
541.72	101
541.934	90
542.147	68
542.361	83
542.575	98
542.789	81
543.002	79
543.216	98
543.43	78
543.644	76
543.857	94
544.071	78
544.285	85
544.498	84
544.712	77
544.925	78
545.139	88
545.352	79
545.566	81
545.779	88
545.993	97
546.206	91
546.42	86
546.633	72
546.847	77
547.06	70
547.274	83
547.487	80
547.7	88
547.914	84
548.127	91
548.34	76
548.554	97
548.767	90
548.98	86
549.193	87
549.407	92
549.62	92
549.833	86
550.046	78
550.259	93
550.473	91
550.686	96
550.899	94
551.112	95
551.325	92
551.538	97
551.751	104
551.964	90
552.177	99
552.39	104
552.603	98
552.816	107
553.029	102
553.242	98
553.455	102
553.667	102
553.88	102
554.093	97
554.306	110
554.519	102
554.732	117
554.944	99
555.157	94
555.37	99
555.583	106
555.795	96
556.008	100
556.221	99
556.433	104
556.646	98
556.859	94
557.071	92
557.284	89
557.496	95
557.709	94
557.921	83
558.134	87
558.346	84
558.559	84
558.771	91
558.984	96
559.196	86
559.409	102
559.621	103
559.833	107
560.046	81
560.258	71
560.47	93
560.683	104
560.895	97
561.107	98
561.32	91
561.532	75
561.744	90
561.956	103
562.168	98
562.381	92
562.593	77
562.805	86
563.017	92
563.229	73
563.441	79
563.653	76
563.865	89
564.077	80
564.289	84
564.501	71
564.713	74
564.925	94
565.137	74
565.349	84
565.561	88
565.773	92
565.985	80
566.197	96
566.408	96
566.62	77
566.832	66
567.044	77
567.255	97
567.467	90
567.679	90
567.891	76
568.102	82
568.314	90
568.526	84
568.737	81
568.949	78
569.161	82
569.372	72
569.584	79
569.795	86
570.007	97
570.218	97
570.43	95
570.641	74
570.853	75
571.064	71
571.276	93
571.487	87
571.698	83
571.91	81
572.121	88
572.333	78
572.544	66
572.755	84
572.966	76
573.178	76
573.389	66
573.6	98
573.811	81
574.023	80
574.234	87
574.445	88
574.656	76
574.867	74
575.078	83
575.289	89
575.501	94
575.712	86
575.923	72
576.134	76
576.345	87
576.556	72
576.767	90
576.978	90
577.188	77
577.399	85
577.61	94
577.821	77
578.032	84
578.243	81
578.454	84
578.665	78
578.875	76
579.086	90
579.297	71
579.508	98
579.718	75
579.929	98
580.14	87
580.35	82
580.561	86
580.772	81
580.982	75
581.193	88
581.403	81
581.614	73
581.825	79
582.035	95
582.246	99
582.456	74
582.667	83
582.877	73
583.087	91
583.298	96
583.508	76
583.719	90
583.929	89
584.139	90
584.35	83
584.56	92
584.77	85
584.981	94
585.191	80
585.401	82
585.611	83
585.821	104
586.032	98
586.242	75
586.452	86
586.662	82
586.872	79
587.082	85
587.292	73
587.502	94
587.713	95
587.923	81
588.133	93
588.343	87
588.553	90
588.762	108
588.972	146
589.182	270
589.392	183
589.602	157
589.812	241
590.022	132
590.232	108
590.441	95
590.651	78
590.861	76
591.071	82
591.281	84
591.49	95
591.7	88
591.91	94
592.119	100
592.329	96
592.539	80
592.748	86
592.958	94
593.167	78
593.377	100
593.587	82
593.796	94
594.006	75
594.215	86
594.424	92
594.634	75
594.843	99
595.053	77
595.262	93
595.472	86
595.681	88
595.89	96
596.1	79
596.309	84
596.518	98
596.727	87
596.937	90
597.146	78
597.355	75
597.564	97
597.774	90
597.983	109
598.192	81
598.401	78
598.61	90
598.819	81
599.028	87
599.237	92
599.446	96
599.655	89
599.864	111
600.073	78
600.282	87
600.491	80
600.7	87
600.909	94
601.118	90
601.327	88
601.536	91
601.745	106
601.953	80
602.162	94
602.371	75
602.58	92
602.789	92
602.997	91
603.206	93
603.415	96
603.623	102
603.832	74
604.041	99
604.249	88
604.458	108
604.666	96
604.875	90
605.084	93
605.292	94
605.501	93
605.709	95
605.918	91
606.126	94
606.334	100
606.543	87
606.751	95
606.96	95
607.168	85
607.376	107
607.585	86
607.793	78
608.001	82
608.21	108
608.418	96
608.626	90
608.834	91
609.043	92
609.251	89
609.459	85
609.667	87
609.875	92
610.083	92
610.291	86
610.499	82
610.707	83
610.916	80
611.124	81
611.332	91
611.54	92
611.748	88
611.955	103
612.163	87
612.371	106
612.579	102
612.787	97
612.995	90
613.203	88
613.411	99
613.618	98
613.826	97
614.034	97
614.242	94
614.449	90
614.657	92
614.865	88
615.072	97
615.28	105
615.488	92
615.695	97
615.903	92
616.111	100
616.318	120
616.526	114
616.733	104
616.941	101
617.148	110
617.356	112
617.563	100
617.771	110
617.978	94
618.185	89
618.393	84
618.6	117
618.807	108
619.015	99
619.222	90
619.429	101
619.637	110
619.844	103
620.051	107
620.258	103
620.466	93
620.673	111
620.88	95
621.087	109
621.294	116
621.501	105
621.708	102
621.915	111
622.122	110
622.329	101
622.536	104
622.743	104
622.95	102
623.157	85
623.364	112
623.571	96
623.778	99
623.985	83
624.192	87
624.399	90
624.606	103
624.812	102
625.019	101
625.226	95
625.433	81
625.639	104
625.846	80
626.053	96
626.259	97
626.466	78
626.673	94
626.879	96
627.086	89
627.293	90
627.499	89
627.706	88
627.912	99
628.119	88
628.325	104
628.532	90
628.738	90
628.945	96
629.151	83
629.357	86
629.564	84
629.77	70
629.976	79
630.183	86
630.389	75
630.595	82
630.802	90
631.008	69
631.214	72
631.42	87
631.627	82
631.833	76
632.039	88
632.245	93
632.451	91
632.657	86
632.863	86
633.069	86
633.275	78
633.481	94
633.688	77
633.893	72
634.099	87
634.305	82
634.511	81
634.717	71
634.923	77
635.129	70
635.335	77
635.541	91
635.747	78
635.952	80
636.158	84
636.364	79
636.57	66
636.775	83
636.981	88
637.187	81
637.392	73
637.598	82
637.804	82
638.009	83
638.215	77
638.421	75
638.626	71
638.832	92
639.037	86
639.243	87
639.448	100
639.654	83
639.859	72
640.065	83
640.27	94
640.475	79
640.681	81
640.886	64
641.091	87
641.297	94
641.502	86
641.707	72
641.913	87
642.118	84
642.323	89
642.528	77
642.733	74
642.939	77
643.144	90
643.349	90
643.554	75
643.759	82
643.964	86
644.169	90
644.374	84
644.579	90
644.784	77
644.989	85
645.194	95
645.399	88
645.604	86
645.809	94
646.014	76
646.219	78
646.423	91
646.628	95
646.833	87
647.038	81
647.243	86
647.447	75
647.652	80
647.857	75
648.062	85
648.266	86
648.471	86
648.676	94
648.88	67
649.085	73
649.289	73
649.494	71
649.698	86
649.903	92
650.107	84
650.312	65
650.516	82
650.721	84
650.925	78
651.13	77
651.334	84
651.539	84
651.743	86
651.947	101
652.152	94
652.356	95
652.56	102
652.764	72
652.969	79
653.173	74
653.377	78
653.581	74
653.785	81
653.99	84
654.194	84
654.398	97
654.602	70
654.806	91
655.01	86
655.214	81
655.418	81
655.622	83
655.826	78
656.03	82
656.234	90
656.438	83
656.642	83
656.846	78
657.049	81
657.253	78
657.457	70
657.661	70
657.865	79
658.068	74
658.272	73
658.476	90
658.68	72
658.883	76
659.087	75
659.291	73
659.494	74
659.698	87
659.901	64
660.105	69
660.309	84
660.512	83
660.716	78
660.919	83
661.123	81
661.326	72
661.53	83
661.733	75
661.936	80
662.14	75
662.343	62
662.546	80
662.75	74
662.953	97
663.156	93
663.36	81
663.563	72
663.766	88
663.969	86
664.173	72
664.376	82
664.579	86
664.782	89
664.985	82
665.188	70
665.391	74
665.594	72
665.797	77
666	76
666.203	71
666.406	78
666.609	78
666.812	81
667.015	93
667.218	86
667.421	90
667.624	86
667.827	87
668.03	77
668.232	90
668.435	68
668.638	94
668.841	92
669.043	96
669.246	78
669.449	82
669.651	97
669.854	78
670.057	85
670.259	88
670.462	76
670.665	84
670.867	82
671.07	87
671.272	86
671.475	76
671.677	86
671.88	73
672.082	78
672.284	83
672.487	74
672.689	66
672.892	83
