Data from Cut_Leaves_75_3_HRD10591_00012.txt Node
Date: Wed Dec 03 14:25:48 EST 2025
User: Yrep
Spectrometer: HR+D1059
Trigger mode: 1
Integration Time (sec): 1.000000E-1
Scans to average: 1
Electric dark correction enabled: true
Nonlinearity correction enabled: false
Boxcar width: 0
XAxis mode: Wavelengths
Number of Pixels in Spectrum: 2048
>>>>>Begin Spectral Data<<<<<
223.165	-27.25
223.4	-27.25
223.635	-27.25
223.869	-12.25
224.104	-17.25
224.338	-15.25
224.573	-17.25
224.808	-18.25
225.042	-14.25
225.277	-6.25
225.511	-3.25
225.746	3.75
225.98	-0.25
226.215	3.75
226.449	21.75
226.683	36.75
226.918	33.75
227.152	31.75
227.387	31.75
227.621	44.75
227.856	40.75
228.09	52.75
228.324	43.75
228.559	39.75
228.793	57.75
229.027	57.75
229.262	63.75
229.496	67.75
229.73	63.75
229.964	57.75
230.199	82.75
230.433	76.75
230.667	82.75
230.901	66.75
231.136	78.75
231.37	74.75
231.604	91.75
231.838	71.75
232.072	78.75
232.306	78.75
232.541	85.75
232.775	71.75
233.009	81.75
233.243	89.75
233.477	78.75
233.711	79.75
233.945	63.75
234.179	81.75
234.413	76.75
234.647	83.75
234.881	76.75
235.115	64.75
235.349	73.75
235.583	71.75
235.817	84.75
236.051	85.75
236.285	72.75
236.519	77.75
236.753	89.75
236.987	89.75
237.221	69.75
237.455	63.75
237.689	61.75
237.922	68.75
238.156	82.75
238.39	74.75
238.624	89.75
238.858	68.75
239.091	91.75
239.325	75.75
239.559	79.75
239.793	74.75
240.027	95.75
240.26	72.75
240.494	76.75
240.728	64.75
240.961	89.75
241.195	80.75
241.429	75.75
241.662	84.75
241.896	67.75
242.13	72.75
242.363	83.75
242.597	77.75
242.83	73.75
243.064	77.75
243.298	83.75
243.531	91.75
243.765	68.75
243.998	78.75
244.232	80.75
244.465	65.75
244.699	84.75
244.932	87.75
245.166	76.75
245.399	68.75
245.633	82.75
245.866	72.75
246.099	76.75
246.333	73.75
246.566	69.75
246.8	71.75
247.033	67.75
247.266	77.75
247.5	83.75
247.733	67.75
247.966	72.75
248.2	63.75
248.433	78.75
248.666	67.75
248.899	85.75
249.133	71.75
249.366	89.75
249.599	93.75
249.832	82.75
250.066	81.75
250.299	70.75
250.532	80.75
250.765	88.75
250.998	60.75
251.231	78.75
251.465	79.75
251.698	90.75
251.931	77.75
252.164	75.75
252.397	80.75
252.63	72.75
252.863	70.75
253.096	87.75
253.329	74.75
253.562	84.75
253.795	87.75
254.028	72.75
254.261	69.75
254.494	79.75
254.727	77.75
254.96	83.75
255.193	76.75
255.426	76.75
255.659	83.75
255.892	92.75
256.124	75.75
256.357	74.75
256.59	88.75
256.823	70.75
257.056	92.75
257.289	76.75
257.521	85.75
257.754	88.75
257.987	73.75
258.22	84.75
258.452	87.75
258.685	95.75
258.918	65.75
259.151	83.75
259.383	92.75
259.616	83.75
259.849	87.75
260.081	84.75
260.314	58.75
260.547	71.75
260.779	72.75
261.012	83.75
261.244	76.75
261.477	86.75
261.71	81.75
261.942	77.75
262.175	77.75
262.407	79.75
262.64	83.75
262.872	81.75
263.105	83.75
263.337	88.75
263.57	84.75
263.802	74.75
264.035	92.75
264.267	83.75
264.499	90.75
264.732	71.75
264.964	70.75
265.197	79.75
265.429	84.75
265.661	76.75
265.894	80.75
266.126	83.75
266.358	87.75
266.591	89.75
266.823	83.75
267.055	87.75
267.287	78.75
267.52	84.75
267.752	73.75
267.984	84.75
268.216	94.75
268.448	88.75
268.681	98.75
268.913	88.75
269.145	81.75
269.377	79.75
269.609	78.75
269.841	96.75
270.073	96.75
270.306	94.75
270.538	88.75
270.77	78.75
271.002	78.75
271.234	82.75
271.466	75.75
271.698	74.75
271.93	84.75
272.162	86.75
272.394	78.75
272.626	96.75
272.858	89.75
273.09	76.75
273.322	83.75
273.553	75.75
273.785	83.75
274.017	88.75
274.249	93.75
274.481	99.75
274.713	84.75
274.945	89.75
275.176	84.75
275.408	76.75
275.64	74.75
275.872	85.75
276.104	83.75
276.335	95.75
276.567	64.75
276.799	77.75
277.031	87.75
277.262	77.75
277.494	80.75
277.726	89.75
277.957	96.75
278.189	80.75
278.421	90.75
278.652	79.75
278.884	67.75
279.115	83.75
279.347	79.75
279.579	84.75
279.81	89.75
280.042	89.75
280.273	88.75
280.505	85.75
280.736	91.75
280.968	81.75
281.199	73.75
281.431	83.75
281.662	76.75
281.894	96.75
282.125	83.75
282.356	84.75
282.588	78.75
282.819	74.75
283.051	83.75
283.282	84.75
283.513	83.75
283.745	80.75
283.976	92.75
284.207	78.75
284.439	87.75
284.67	78.75
284.901	93.75
285.132	77.75
285.364	78.75
285.595	89.75
285.826	80.75
286.057	87.75
286.288	76.75
286.52	91.75
286.751	100.75
286.982	84.75
287.213	78.75
287.444	68.75
287.675	77.75
287.906	79.75
288.138	74.75
288.369	95.75
288.6	89.75
288.831	81.75
289.062	93.75
289.293	75.75
289.524	79.75
289.755	89.75
289.986	80.75
290.217	80.75
290.448	83.75
290.679	78.75
290.91	89.75
291.141	77.75
291.371	87.75
291.602	88.75
291.833	84.75
292.064	77.75
292.295	82.75
292.526	80.75
292.757	84.75
292.987	72.75
293.218	82.75
293.449	76.75
293.68	74.75
293.91	94.75
294.141	81.75
294.372	81.75
294.603	83.75
294.833	89.75
295.064	84.75
295.295	77.75
295.525	88.75
295.756	79.75
295.987	95.75
296.217	81.75
296.448	83.75
296.679	93.75
296.909	93.75
297.14	74.75
297.37	92.75
297.601	68.75
297.831	79.75
298.062	87.75
298.292	84.75
298.523	91.75
298.753	71.75
298.984	84.75
299.214	78.75
299.445	84.75
299.675	95.75
299.905	85.75
300.136	91.75
300.366	91.75
300.597	83.75
300.827	87.75
301.057	89.75
301.288	95.75
301.518	86.75
301.748	73.75
301.979	103.75
302.209	91.75
302.439	100.75
302.669	103.75
302.9	80.75
303.13	75.75
303.36	79.75
303.59	94.75
303.82	68.75
304.051	67.75
304.281	91.75
304.511	85.75
304.741	72.75
304.971	86.75
305.201	71.75
305.431	82.75
305.661	77.75
305.891	75.75
306.121	75.75
306.352	99.75
306.582	87.75
306.812	67.75
307.042	76.75
307.272	85.75
307.502	88.75
307.731	80.75
307.961	84.75
308.191	94.75
308.421	84.75
308.651	80.75
308.881	87.75
309.111	84.75
309.341	103.75
309.571	82.75
309.8	77.75
310.03	72.75
310.26	81.75
310.49	109.75
310.72	82.75
310.949	69.75
311.179	82.75
311.409	89.75
311.639	93.75
311.868	87.75
312.098	75.75
312.328	87.75
312.557	80.75
312.787	96.75
313.017	89.75
313.246	84.75
313.476	93.75
313.706	77.75
313.935	94.75
314.165	90.75
314.394	91.75
314.624	89.75
314.853	99.75
315.083	98.75
315.312	83.75
315.542	71.75
315.771	82.75
316.001	91.75
316.23	87.75
316.46	92.75
316.689	75.75
316.919	112.75
317.148	77.75
317.377	83.75
317.607	71.75
317.836	80.75
318.065	86.75
318.295	80.75
318.524	77.75
318.753	82.75
318.983	72.75
319.212	71.75
319.441	69.75
319.67	83.75
319.9	71.75
320.129	90.75
320.358	76.75
320.587	100.75
320.816	97.75
321.046	87.75
321.275	75.75
321.504	78.75
321.733	89.75
321.962	83.75
322.191	81.75
322.42	82.75
322.649	85.75
322.878	98.75
323.108	96.75
323.337	96.75
323.566	85.75
323.795	85.75
324.024	82.75
324.253	81.75
324.482	81.75
324.71	80.75
324.939	80.75
325.168	100.75
325.397	68.75
325.626	78.75
325.855	87.75
326.084	87.75
326.313	89.75
326.542	76.75
326.77	93.75
326.999	84.75
327.228	93.75
327.457	96.75
327.686	93.75
327.914	98.75
328.143	74.75
328.372	95.75
328.6	96.75
328.829	91.75
329.058	89.75
329.287	75.75
329.515	79.75
329.744	97.75
329.972	84.75
330.201	85.75
330.43	83.75
330.658	83.75
330.887	87.75
331.115	75.75
331.344	77.75
331.572	91.75
331.801	82.75
332.03	78.75
332.258	84.75
332.486	85.75
332.715	82.75
332.943	68.75
333.172	90.75
333.4	91.75
333.629	79.75
333.857	100.75
334.085	93.75
334.314	72.75
334.542	83.75
334.771	74.75
334.999	96.75
335.227	94.75
335.455	78.75
335.684	87.75
335.912	90.75
336.14	83.75
336.369	74.75
336.597	91.75
336.825	90.75
337.053	102.75
337.281	83.75
337.51	76.75
337.738	87.75
337.966	77.75
338.194	84.75
338.422	85.75
338.65	84.75
338.878	95.75
339.106	75.75
339.334	76.75
339.562	88.75
339.79	78.75
340.018	94.75
340.246	88.75
340.474	68.75
340.702	95.75
340.93	95.75
341.158	83.75
341.386	87.75
341.614	79.75
341.842	64.75
342.07	77.75
342.298	86.75
342.526	84.75
342.754	89.75
342.981	80.75
343.209	76.75
343.437	85.75
343.665	88.75
343.893	91.75
344.12	87.75
344.348	75.75
344.576	77.75
344.804	84.75
345.031	88.75
345.259	63.75
345.487	99.75
345.714	75.75
345.942	85.75
346.17	91.75
346.397	88.75
346.625	90.75
346.853	84.75
347.08	81.75
347.308	75.75
347.535	75.75
347.763	74.75
347.99	74.75
348.218	88.75
348.445	83.75
348.673	80.75
348.9	94.75
349.128	109.75
349.355	81.75
349.583	89.75
349.81	87.75
350.037	83.75
350.265	84.75
350.492	85.75
350.72	103.75
350.947	83.75
351.174	87.75
351.402	79.75
351.629	77.75
351.856	74.75
352.083	70.75
352.311	79.75
352.538	93.75
352.765	87.75
352.992	81.75
353.22	81.75
353.447	89.75
353.674	90.75
353.901	76.75
354.128	82.75
354.355	69.75
354.583	75.75
354.81	69.75
355.037	76.75
355.264	96.75
355.491	73.75
355.718	95.75
355.945	82.75
356.172	79.75
356.399	82.75
356.626	100.75
356.853	81.75
357.08	80.75
357.307	80.75
357.534	83.75
357.761	77.75
357.988	76.75
358.215	83.75
358.441	74.75
358.668	78.75
358.895	78.75
359.122	90.75
359.349	89.75
359.576	68.75
359.802	79.75
360.029	76.75
360.256	82.75
360.483	79.75
360.709	94.75
360.936	100.75
361.163	93.75
361.39	84.75
361.616	73.75
361.843	71.75
362.07	81.75
362.296	76.75
362.523	80.75
362.749	79.75
362.976	91.75
363.203	76.75
363.429	90.75
363.656	79.75
363.882	71.75
364.109	79.75
364.335	83.75
364.562	88.75
364.788	95.75
365.015	76.75
365.241	93.75
365.468	78.75
365.694	74.75
365.92	74.75
366.147	88.75
366.373	84.75
366.599	82.75
366.826	96.75
367.052	69.75
367.278	84.75
367.505	84.75
367.731	90.75
367.957	90.75
368.184	89.75
368.41	99.75
368.636	88.75
368.862	77.75
369.089	96.75
369.315	76.75
369.541	84.75
369.767	82.75
369.993	72.75
370.219	83.75
370.445	92.75
370.672	82.75
370.898	83.75
371.124	67.75
371.35	87.75
371.576	81.75
371.802	84.75
372.028	87.75
372.254	87.75
372.48	79.75
372.706	79.75
372.932	82.75
373.158	92.75
373.384	68.75
373.61	87.75
373.835	54.75
374.061	81.75
374.287	80.75
374.513	84.75
374.739	69.75
374.965	81.75
375.191	77.75
375.416	80.75
375.642	84.75
375.868	92.75
376.094	93.75
376.319	69.75
376.545	87.75
376.771	86.75
376.997	78.75
377.222	81.75
377.448	75.75
377.674	76.75
377.899	76.75
378.125	83.75
378.35	94.75
378.576	81.75
378.802	66.75
379.027	80.75
379.253	87.75
379.478	89.75
379.704	85.75
379.929	75.75
380.155	70.75
380.38	76.75
380.606	89.75
380.831	96.75
381.057	87.75
381.282	73.75
381.507	78.75
381.733	78.75
381.958	74.75
382.184	72.75
382.409	91.75
382.634	79.75
382.86	74.75
383.085	90.75
383.31	78.75
383.535	84.75
383.761	69.75
383.986	93.75
384.211	82.75
384.436	91.75
384.662	100.75
384.887	93.75
385.112	90.75
385.337	63.75
385.562	79.75
385.787	76.75
386.013	92.75
386.238	84.75
386.463	73.75
386.688	94.75
386.913	81.75
387.138	83.75
387.363	78.75
387.588	81.75
387.813	77.75
388.038	80.75
388.263	94.75
388.488	79.75
388.713	76.75
388.938	79.75
389.163	73.75
389.387	77.75
389.612	85.75
389.837	78.75
390.062	87.75
390.287	87.75
390.512	81.75
390.736	87.75
390.961	89.75
391.186	83.75
391.411	85.75
391.636	83.75
391.86	82.75
392.085	81.75
392.31	92.75
392.534	74.75
392.759	68.75
392.984	86.75
393.208	80.75
393.433	84.75
393.658	73.75
393.882	77.75
394.107	85.75
394.331	83.75
394.556	93.75
394.78	89.75
395.005	70.75
395.229	85.75
395.454	81.75
395.678	88.75
395.903	91.75
396.127	87.75
396.352	82.75
396.576	88.75
396.801	89.75
397.025	94.75
397.249	82.75
397.474	91.75
397.698	74.75
397.922	85.75
398.147	90.75
398.371	88.75
398.595	75.75
398.82	69.75
399.044	92.75
399.268	84.75
399.492	74.75
399.717	87.75
399.941	78.75
400.165	88.75
400.389	64.75
400.613	88.75
400.837	79.75
401.062	71.75
401.286	77.75
401.51	84.75
401.734	80.75
401.958	84.75
402.182	74.75
402.406	70.75
402.63	75.75
402.854	77.75
403.078	68.75
403.302	74.75
403.526	78.75
403.75	87.75
403.974	91.75
404.198	98.75
404.422	84.75
404.645	80.75
404.869	74.75
405.093	87.75
405.317	67.75
405.541	76.75
405.765	74.75
405.988	75.75
406.212	76.75
406.436	73.75
406.66	90.75
406.883	81.75
407.107	70.75
407.331	84.75
407.555	82.75
407.778	72.75
408.002	81.75
408.226	81.75
408.449	71.75
408.673	71.75
408.896	68.75
409.12	83.75
409.344	82.75
409.567	81.75
409.791	82.75
410.014	84.75
410.238	81.75
410.461	89.75
410.685	69.75
410.908	69.75
411.132	81.75
411.355	94.75
411.578	87.75
411.802	92.75
412.025	75.75
412.249	81.75
412.472	78.75
412.695	84.75
412.919	71.75
413.142	80.75
413.365	89.75
413.589	75.75
413.812	71.75
414.035	76.75
414.258	73.75
414.482	91.75
414.705	75.75
414.928	81.75
415.151	80.75
415.374	90.75
415.597	89.75
415.821	74.75
416.044	78.75
416.267	87.75
416.49	81.75
416.713	84.75
416.936	82.75
417.159	84.75
417.382	83.75
417.605	68.75
417.828	71.75
418.051	92.75
418.274	75.75
418.497	73.75
418.72	68.75
418.943	84.75
419.166	79.75
419.389	74.75
419.611	70.75
419.834	71.75
420.057	83.75
420.28	79.75
420.503	69.75
420.726	85.75
420.948	82.75
421.171	72.75
421.394	76.75
421.617	83.75
421.839	68.75
422.062	77.75
422.285	80.75
422.507	91.75
422.73	91.75
422.953	81.75
423.175	77.75
423.398	97.75
423.621	92.75
423.843	66.75
424.066	76.75
424.288	70.75
424.511	74.75
424.733	79.75
424.956	78.75
425.178	81.75
425.401	83.75
425.623	83.75
425.846	93.75
426.068	87.75
426.291	68.75
426.513	72.75
426.735	80.75
426.958	83.75
427.18	86.75
427.402	79.75
427.625	81.75
427.847	74.75
428.069	76.75
428.292	79.75
428.514	84.75
428.736	76.75
428.958	87.75
429.181	75.75
429.403	78.75
429.625	67.75
429.847	79.75
430.069	82.75
430.292	78.75
430.514	82.75
430.736	62.75
430.958	75.75
431.18	70.75
431.402	89.75
431.624	87.75
431.846	77.75
432.068	80.75
432.29	86.75
432.512	86.75
432.734	93.75
432.956	83.75
433.178	77.75
433.4	60.75
433.622	88.75
433.844	84.75
434.066	70.75
434.287	75.75
434.509	76.75
434.731	82.75
434.953	67.75
435.175	79.75
435.397	84.75
435.618	74.75
435.84	69.75
436.062	84.75
436.284	69.75
436.505	80.75
436.727	85.75
436.949	72.75
437.17	84.75
437.392	90.75
437.614	93.75
437.835	71.75
438.057	82.75
438.278	89.75
438.5	79.75
438.721	69.75
438.943	92.75
439.165	84.75
439.386	79.75
439.608	81.75
439.829	85.75
440.05	82.75
440.272	73.75
440.493	82.75
440.715	79.75
440.936	91.75
441.158	72.75
441.379	75.75
441.6	82.75
441.822	81.75
442.043	92.75
442.264	76.75
442.486	76.75
442.707	73.75
442.928	66.75
443.149	90.75
443.371	93.75
443.592	84.75
443.813	73.75
444.034	73.75
444.255	95.75
444.476	92.75
444.698	80.75
444.919	85.75
445.14	184.75
445.361	111.75
445.582	100.75
445.803	74.75
446.024	80.75
446.245	87.75
446.466	75.75
446.687	71.75
446.908	77.75
447.129	85.75
447.35	76.75
447.571	81.75
447.792	75.75
448.013	64.75
448.234	67.75
448.455	71.75
448.675	83.75
448.896	79.75
449.117	83.75
449.338	73.75
449.559	72.75
449.779	89.75
450	78.75
450.221	85.75
450.442	70.75
450.662	77.75
450.883	71.75
451.104	87.75
451.324	69.75
451.545	85.75
451.766	72.75
451.986	68.75
452.207	83.75
452.428	84.75
452.648	80.75
452.869	88.75
453.089	72.75
453.31	96.75
453.53	76.75
453.751	81.75
453.971	71.75
454.192	88.75
454.412	78.75
454.633	82.75
454.853	82.75
455.073	82.75
455.294	89.75
455.514	85.75
455.734	80.75
455.955	72.75
456.175	74.75
456.395	76.75
456.616	78.75
456.836	73.75
457.056	75.75
457.276	78.75
457.497	79.75
457.717	80.75
457.937	82.75
458.157	96.75
458.377	89.75
458.598	69.75
458.818	79.75
459.038	90.75
459.258	77.75
459.478	78.75
459.698	80.75
459.918	84.75
460.138	90.75
460.358	84.75
460.578	78.75
460.798	81.75
461.018	71.75
461.238	88.75
461.458	79.75
461.678	96.75
461.898	78.75
462.118	87.75
462.338	71.75
462.558	79.75
462.777	84.75
462.997	95.75
463.217	78.75
463.437	82.75
463.657	82.75
463.876	88.75
464.096	86.75
464.316	87.75
464.536	77.75
464.755	77.75
464.975	75.75
465.195	80.75
465.414	74.75
465.634	84.75
465.854	86.75
466.073	71.75
466.293	80.75
466.512	76.75
466.732	81.75
466.951	74.75
467.171	83.75
467.391	83.75
467.61	71.75
467.829	78.75
468.049	69.75
468.268	77.75
468.488	83.75
468.707	76.75
468.927	76.75
469.146	78.75
469.365	84.75
469.585	80.75
469.804	75.75
470.023	73.75
470.243	75.75
470.462	72.75
470.681	82.75
470.901	68.75
471.12	81.75
471.339	73.75
471.558	70.75
471.777	87.75
471.997	81.75
472.216	70.75
472.435	77.75
472.654	83.75
472.873	79.75
473.092	76.75
473.311	82.75
473.53	71.75
473.749	96.75
473.968	75.75
474.187	88.75
474.406	87.75
474.625	79.75
474.844	76.75
475.063	96.75
475.282	84.75
475.501	92.75
475.72	90.75
475.939	82.75
476.158	66.75
476.377	78.75
476.596	77.75
476.814	77.75
477.033	94.75
477.252	97.75
477.471	72.75
477.69	84.75
477.908	69.75
478.127	74.75
478.346	77.75
478.564	84.75
478.783	74.75
479.002	71.75
479.22	95.75
479.439	84.75
479.658	78.75
479.876	80.75
480.095	87.75
480.313	79.75
480.532	82.75
480.751	92.75
480.969	73.75
481.188	88.75
481.406	83.75
481.624	79.75
481.843	79.75
482.061	80.75
482.28	76.75
482.498	82.75
482.717	93.75
482.935	78.75
483.153	86.75
483.372	80.75
483.59	88.75
483.808	77.75
484.027	78.75
484.245	79.75
484.463	88.75
484.681	73.75
484.9	75.75
485.118	92.75
485.336	81.75
485.554	84.75
485.772	72.75
485.99	75.75
486.209	79.75
486.427	92.75
486.645	77.75
486.863	71.75
487.081	82.75
487.299	67.75
487.517	92.75
487.735	82.75
487.953	83.75
488.171	80.75
488.389	68.75
488.607	79.75
488.825	72.75
489.043	76.75
489.261	79.75
489.479	91.75
489.696	77.75
489.914	78.75
490.132	84.75
490.35	74.75
490.568	79.75
490.786	79.75
491.003	75.75
491.221	80.75
491.439	90.75
491.657	91.75
491.874	82.75
492.092	77.75
492.31	71.75
492.527	78.75
492.745	93.75
492.963	79.75
493.18	90.75
493.398	81.75
493.615	87.75
493.833	83.75
494.05	77.75
494.268	91.75
494.485	95.75
494.703	81.75
494.92	89.75
495.138	89.75
495.355	88.75
495.573	83.75
495.79	73.75
496.008	77.75
496.225	89.75
496.442	63.75
496.66	90.75
496.877	70.75
497.094	86.75
497.312	93.75
497.529	90.75
497.746	91.75
497.963	83.75
498.181	83.75
498.398	80.75
498.615	75.75
498.832	75.75
499.049	77.75
499.267	81.75
499.484	93.75
499.701	82.75
499.918	82.75
500.135	91.75
500.352	84.75
500.569	79.75
500.786	85.75
501.003	84.75
501.22	100.75
501.437	90.75
501.654	85.75
501.871	79.75
502.088	90.75
502.305	81.75
502.522	98.75
502.739	83.75
502.956	89.75
503.172	85.75
503.389	80.75
503.606	80.75
503.823	85.75
504.04	90.75
504.256	95.75
504.473	87.75
504.69	90.75
504.907	104.75
505.123	82.75
505.34	79.75
505.557	78.75
505.773	75.75
505.99	76.75
506.207	71.75
506.423	73.75
506.64	76.75
506.856	75.75
507.073	80.75
507.289	78.75
507.506	80.75
507.722	91.75
507.939	72.75
508.155	78.75
508.372	85.75
508.588	95.75
508.805	99.75
509.021	77.75
509.238	80.75
509.454	89.75
509.67	60.75
509.887	74.75
510.103	79.75
510.319	84.75
510.536	89.75
510.752	89.75
510.968	76.75
511.184	87.75
511.401	66.75
511.617	83.75
511.833	95.75
512.049	88.75
512.265	82.75
512.481	83.75
512.698	87.75
512.914	84.75
513.13	82.75
513.346	73.75
513.562	72.75
513.778	91.75
513.994	66.75
514.21	88.75
514.426	71.75
514.642	85.75
514.858	78.75
515.074	80.75
515.29	76.75
515.506	88.75
515.721	88.75
515.937	91.75
516.153	87.75
516.369	70.75
516.585	76.75
516.801	80.75
517.016	88.75
517.232	82.75
517.448	91.75
517.664	75.75
517.879	81.75
518.095	97.75
518.311	79.75
518.527	83.75
518.742	83.75
518.958	89.75
519.173	89.75
519.389	75.75
519.605	87.75
519.82	89.75
520.036	82.75
520.251	82.75
520.467	75.75
520.682	75.75
520.898	58.75
521.113	67.75
521.329	80.75
521.544	86.75
521.76	91.75
521.975	79.75
522.19	88.75
522.406	79.75
522.621	76.75
522.836	87.75
523.052	86.75
523.267	80.75
523.482	79.75
523.698	86.75
523.913	84.75
524.128	80.75
524.343	79.75
524.559	85.75
524.774	74.75
524.989	84.75
525.204	78.75
525.419	84.75
525.634	75.75
525.849	87.75
526.064	75.75
526.28	80.75
526.495	81.75
526.71	84.75
526.925	88.75
527.14	98.75
527.355	76.75
527.57	73.75
527.785	71.75
527.999	74.75
528.214	71.75
528.429	91.75
528.644	91.75
528.859	89.75
529.074	89.75
529.289	90.75
529.503	96.75
529.718	87.75
529.933	90.75
530.148	70.75
530.363	92.75
530.577	79.75
530.792	89.75
531.007	90.75
531.221	73.75
531.436	81.75
531.651	95.75
531.865	84.75
532.08	88.75
532.295	79.75
532.509	76.75
532.724	99.75
532.938	81.75
533.153	83.75
533.367	94.75
533.582	72.75
533.796	71.75
534.011	60.75
534.225	72.75
534.44	97.75
534.654	99.75
534.868	84.75
535.083	97.75
535.297	84.75
535.511	82.75
535.726	90.75
535.94	77.75
536.154	85.75
536.369	78.75
536.583	84.75
536.797	93.75
537.011	96.75
537.225	91.75
537.44	88.75
537.654	76.75
537.868	74.75
538.082	76.75
538.296	101.75
538.51	87.75
538.724	81.75
538.938	87.75
539.153	84.75
539.367	82.75
539.581	74.75
539.795	78.75
540.009	92.75
540.222	89.75
540.436	67.75
540.65	78.75
540.864	86.75
541.078	85.75
541.292	77.75
541.506	79.75
541.72	97.75
541.934	83.75
542.147	98.75
542.361	92.75
542.575	90.75
542.789	99.75
543.002	88.75
543.216	95.75
543.43	95.75
543.644	76.75
543.857	87.75
544.071	85.75
544.285	67.75
544.498	97.75
544.712	89.75
544.925	84.75
545.139	88.75
545.352	89.75
545.566	83.75
545.779	75.75
545.993	99.75
546.206	82.75
546.42	81.75
546.633	81.75
546.847	80.75
547.06	76.75
547.274	91.75
547.487	75.75
547.7	91.75
547.914	91.75
548.127	90.75
548.34	92.75
548.554	89.75
548.767	90.75
548.98	84.75
549.193	105.75
549.407	100.75
549.62	93.75
549.833	91.75
550.046	95.75
550.259	81.75
550.473	94.75
550.686	82.75
550.899	82.75
551.112	90.75
551.325	89.75
551.538	85.75
551.751	106.75
551.964	112.75
552.177	95.75
552.39	96.75
552.603	102.75
552.816	96.75
553.029	105.75
553.242	94.75
553.455	109.75
553.667	109.75
553.88	105.75
554.093	93.75
554.306	99.75
554.519	95.75
554.732	100.75
554.944	107.75
555.157	99.75
555.37	112.75
555.583	108.75
555.795	104.75
556.008	91.75
556.221	97.75
556.433	88.75
556.646	107.75
556.859	94.75
557.071	97.75
557.284	79.75
557.496	91.75
557.709	88.75
557.921	83.75
558.134	87.75
558.346	90.75
558.559	66.75
558.771	85.75
558.984	93.75
559.196	104.75
559.409	103.75
559.621	91.75
559.833	84.75
560.046	101.75
560.258	81.75
560.47	97.75
560.683	76.75
560.895	93.75
561.107	96.75
561.32	69.75
561.532	92.75
561.744	93.75
561.956	87.75
562.168	77.75
562.381	88.75
562.593	78.75
562.805	76.75
563.017	81.75
563.229	96.75
563.441	78.75
563.653	73.75
563.865	68.75
564.077	87.75
564.289	79.75
564.501	81.75
564.713	98.75
564.925	91.75
565.137	76.75
565.349	101.75
565.561	97.75
565.773	88.75
565.985	85.75
566.197	64.75
566.408	83.75
566.62	89.75
566.832	84.75
567.044	92.75
567.255	74.75
567.467	87.75
567.679	73.75
567.891	71.75
568.102	90.75
568.314	87.75
568.526	91.75
568.737	75.75
568.949	69.75
569.161	68.75
569.372	84.75
569.584	84.75
569.795	80.75
570.007	89.75
570.218	75.75
570.43	94.75
570.641	71.75
570.853	85.75
571.064	87.75
571.276	75.75
571.487	65.75
571.698	81.75
571.91	96.75
572.121	89.75
572.333	88.75
572.544	92.75
572.755	96.75
572.966	88.75
573.178	75.75
573.389	95.75
573.6	81.75
573.811	93.75
574.023	77.75
574.234	76.75
574.445	78.75
574.656	95.75
574.867	76.75
575.078	84.75
575.289	79.75
575.501	81.75
575.712	91.75
575.923	97.75
576.134	81.75
576.345	82.75
576.556	78.75
576.767	88.75
576.978	84.75
577.188	80.75
577.399	81.75
577.61	81.75
577.821	85.75
578.032	88.75
578.243	84.75
578.454	82.75
578.665	93.75
578.875	89.75
579.086	93.75
579.297	79.75
579.508	97.75
579.718	81.75
579.929	101.75
580.14	91.75
580.35	75.75
580.561	97.75
580.772	97.75
580.982	78.75
581.193	83.75
581.403	88.75
581.614	81.75
581.825	79.75
582.035	77.75
582.246	87.75
582.456	91.75
582.667	81.75
582.877	84.75
583.087	82.75
583.298	92.75
583.508	82.75
583.719	80.75
583.929	73.75
584.139	80.75
584.35	74.75
584.56	90.75
584.77	100.75
584.981	76.75
585.191	86.75
585.401	86.75
585.611	73.75
585.821	94.75
586.032	91.75
586.242	88.75
586.452	85.75
586.662	79.75
586.872	96.75
587.082	80.75
587.292	98.75
587.502	97.75
587.713	77.75
587.923	89.75
588.133	90.75
588.343	81.75
588.553	83.75
588.762	105.75
588.972	135.75
589.182	237.75
589.392	166.75
589.602	155.75
589.812	223.75
590.022	127.75
590.232	96.75
590.441	97.75
590.651	91.75
590.861	90.75
591.071	86.75
591.281	97.75
591.49	98.75
591.7	81.75
591.91	97.75
592.119	82.75
592.329	76.75
592.539	80.75
592.748	93.75
592.958	91.75
593.167	105.75
593.377	99.75
593.587	104.75
593.796	101.75
594.006	99.75
594.215	100.75
594.424	90.75
594.634	83.75
594.843	80.75
595.053	85.75
595.262	87.75
595.472	92.75
595.681	87.75
595.89	86.75
596.1	89.75
596.309	83.75
596.518	87.75
596.727	80.75
596.937	80.75
597.146	91.75
597.355	82.75
597.564	87.75
597.774	89.75
597.983	89.75
598.192	98.75
598.401	87.75
598.61	81.75
598.819	92.75
599.028	79.75
599.237	79.75
599.446	88.75
599.655	89.75
599.864	84.75
600.073	103.75
600.282	83.75
600.491	99.75
600.7	97.75
600.909	87.75
601.118	86.75
601.327	87.75
601.536	79.75
601.745	83.75
601.953	96.75
602.162	94.75
602.371	98.75
602.58	91.75
602.789	99.75
602.997	83.75
603.206	92.75
603.415	88.75
603.623	103.75
603.832	103.75
604.041	87.75
604.249	93.75
604.458	80.75
604.666	109.75
604.875	95.75
605.084	92.75
605.292	82.75
605.501	80.75
605.709	91.75
605.918	83.75
606.126	91.75
606.334	103.75
606.543	94.75
606.751	89.75
606.96	93.75
607.168	84.75
607.376	83.75
607.585	105.75
607.793	82.75
608.001	80.75
608.21	103.75
608.418	83.75
608.626	95.75
608.834	87.75
609.043	97.75
609.251	87.75
609.459	82.75
609.667	94.75
609.875	102.75
610.083	86.75
610.291	79.75
610.499	93.75
610.707	100.75
610.916	87.75
611.124	88.75
611.332	86.75
611.54	95.75
611.748	87.75
611.955	91.75
612.163	85.75
612.371	90.75
612.579	97.75
612.787	88.75
612.995	94.75
613.203	100.75
613.411	101.75
613.618	81.75
613.826	89.75
614.034	84.75
614.242	95.75
614.449	101.75
614.657	94.75
614.865	105.75
615.072	95.75
615.28	103.75
615.488	92.75
615.695	93.75
615.903	109.75
616.111	108.75
616.318	119.75
616.526	119.75
616.733	97.75
616.941	92.75
617.148	103.75
617.356	105.75
617.563	91.75
617.771	97.75
617.978	115.75
618.185	109.75
618.393	117.75
618.6	90.75
618.807	91.75
619.015	107.75
619.222	105.75
619.429	106.75
619.637	114.75
619.844	96.75
620.051	105.75
620.258	106.75
620.466	108.75
620.673	111.75
620.88	127.75
621.087	95.75
621.294	102.75
621.501	94.75
621.708	97.75
621.915	104.75
622.122	103.75
622.329	120.75
622.536	89.75
622.743	95.75
622.95	104.75
623.157	80.75
623.364	105.75
623.571	104.75
623.778	109.75
623.985	93.75
624.192	113.75
624.399	96.75
624.606	107.75
624.812	95.75
625.019	88.75
625.226	79.75
625.433	102.75
625.639	110.75
625.846	99.75
626.053	91.75
626.259	91.75
626.466	87.75
626.673	80.75
626.879	79.75
627.086	96.75
627.293	94.75
627.499	89.75
627.706	98.75
627.912	83.75
628.119	81.75
628.325	84.75
628.532	74.75
628.738	95.75
628.945	81.75
629.151	87.75
629.357	84.75
629.564	85.75
629.77	95.75
629.976	89.75
630.183	88.75
630.389	79.75
630.595	96.75
630.802	87.75
631.008	74.75
631.214	98.75
631.42	95.75
631.627	95.75
631.833	63.75
632.039	90.75
632.245	97.75
632.451	83.75
632.657	97.75
632.863	98.75
633.069	80.75
633.275	91.75
633.481	91.75
633.688	79.75
633.893	87.75
634.099	72.75
634.305	77.75
634.511	78.75
634.717	78.75
634.923	95.75
635.129	100.75
635.335	87.75
635.541	74.75
635.747	81.75
635.952	85.75
636.158	80.75
636.364	73.75
636.57	72.75
636.775	81.75
636.981	98.75
637.187	93.75
637.392	71.75
637.598	100.75
637.804	99.75
638.009	84.75
638.215	81.75
638.421	82.75
638.626	79.75
638.832	76.75
639.037	79.75
639.243	76.75
639.448	75.75
639.654	77.75
639.859	97.75
640.065	74.75
640.27	100.75
640.475	88.75
640.681	78.75
640.886	88.75
641.091	80.75
641.297	101.75
641.502	89.75
641.707	92.75
641.913	74.75
642.118	80.75
642.323	85.75
642.528	81.75
642.733	76.75
642.939	95.75
643.144	84.75
643.349	97.75
643.554	92.75
643.759	83.75
643.964	89.75
644.169	93.75
644.374	77.75
644.579	84.75
644.784	87.75
644.989	73.75
645.194	104.75
645.399	93.75
645.604	89.75
645.809	71.75
646.014	87.75
646.219	77.75
646.423	87.75
646.628	81.75
646.833	89.75
647.038	78.75
647.243	76.75
647.447	81.75
647.652	78.75
647.857	92.75
648.062	82.75
648.266	87.75
648.471	85.75
648.676	82.75
648.88	77.75
649.085	89.75
649.289	70.75
649.494	88.75
649.698	92.75
649.903	89.75
650.107	71.75
650.312	82.75
650.516	79.75
650.721	87.75
650.925	83.75
651.13	65.75
651.334	90.75
651.539	82.75
651.743	78.75
651.947	70.75
652.152	85.75
652.356	84.75
652.56	66.75
652.764	89.75
652.969	72.75
653.173	90.75
653.377	81.75
653.581	75.75
653.785	89.75
653.99	79.75
654.194	74.75
654.398	88.75
654.602	79.75
654.806	81.75
655.01	91.75
655.214	81.75
655.418	74.75
655.622	91.75
655.826	77.75
656.03	79.75
656.234	70.75
656.438	97.75
656.642	87.75
656.846	62.75
657.049	84.75
657.253	74.75
657.457	77.75
657.661	81.75
657.865	73.75
658.068	91.75
658.272	87.75
658.476	89.75
658.68	76.75
658.883	83.75
659.087	71.75
659.291	90.75
659.494	90.75
659.698	87.75
659.901	66.75
660.105	76.75
660.309	77.75
660.512	91.75
660.716	77.75
660.919	75.75
661.123	80.75
661.326	88.75
661.53	83.75
661.733	77.75
661.936	81.75
662.14	69.75
662.343	88.75
662.546	79.75
662.75	77.75
662.953	78.75
663.156	87.75
663.36	89.75
663.563	71.75
663.766	95.75
663.969	89.75
664.173	98.75
664.376	87.75
664.579	97.75
664.782	87.75
664.985	81.75
665.188	72.75
665.391	88.75
665.594	68.75
665.797	94.75
666	82.75
666.203	79.75
666.406	74.75
666.609	82.75
666.812	82.75
667.015	87.75
667.218	71.75
667.421	88.75
667.624	92.75
667.827	71.75
668.03	68.75
668.232	81.75
668.435	77.75
668.638	83.75
668.841	91.75
669.043	88.75
669.246	78.75
669.449	83.75
669.651	68.75
669.854	89.75
670.057	93.75
670.259	79.75
670.462	94.75
670.665	87.75
670.867	77.75
671.07	87.75
671.272	94.75
671.475	100.75
671.677	78.75
671.88	97.75
672.082	92.75
672.284	68.75
672.487	88.75
672.689	83.75
672.892	89.75
