Data from Cut_Leaves_75_3_HRD10591_00011.txt Node
Date: Wed Dec 03 14:25:48 EST 2025
User: Yrep
Spectrometer: HR+D1059
Trigger mode: 1
Integration Time (sec): 1.000000E-1
Scans to average: 1
Electric dark correction enabled: true
Nonlinearity correction enabled: false
Boxcar width: 0
XAxis mode: Wavelengths
Number of Pixels in Spectrum: 2048
>>>>>Begin Spectral Data<<<<<
223.165	-16.31
223.4	-16.31
223.635	-16.31
223.869	-21.31
224.104	-21.31
224.338	-18.31
224.573	-21.31
224.808	-5.31
225.042	-0.31
225.277	-13.31
225.511	2.69
225.746	9.69
225.98	7.69
226.215	11.69
226.449	13.69
226.683	15.69
226.918	36.69
227.152	19.69
227.387	33.69
227.621	44.69
227.856	47.69
228.09	55.69
228.324	53.69
228.559	78.69
228.793	48.69
229.027	53.69
229.262	60.69
229.496	71.69
229.73	59.69
229.964	71.69
230.199	74.69
230.433	76.69
230.667	84.69
230.901	78.69
231.136	82.69
231.37	65.69
231.604	77.69
231.838	79.69
232.072	73.69
232.306	89.69
232.541	80.69
232.775	90.69
233.009	89.69
233.243	71.69
233.477	83.69
233.711	76.69
233.945	86.69
234.179	91.69
234.413	91.69
234.647	79.69
234.881	74.69
235.115	84.69
235.349	72.69
235.583	76.69
235.817	76.69
236.051	75.69
236.285	79.69
236.519	77.69
236.753	86.69
236.987	73.69
237.221	76.69
237.455	78.69
237.689	68.69
237.922	72.69
238.156	73.69
238.39	72.69
238.624	89.69
238.858	77.69
239.091	69.69
239.325	72.69
239.559	70.69
239.793	70.69
240.027	78.69
240.26	88.69
240.494	81.69
240.728	81.69
240.961	72.69
241.195	83.69
241.429	65.69
241.662	63.69
241.896	62.69
242.13	61.69
242.363	81.69
242.597	54.69
242.83	73.69
243.064	75.69
243.298	68.69
243.531	73.69
243.765	73.69
243.998	62.69
244.232	71.69
244.465	80.69
244.699	77.69
244.932	85.69
245.166	83.69
245.399	81.69
245.633	79.69
245.866	68.69
246.099	71.69
246.333	63.69
246.566	68.69
246.8	66.69
247.033	91.69
247.266	71.69
247.5	89.69
247.733	73.69
247.966	73.69
248.2	85.69
248.433	85.69
248.666	72.69
248.899	67.69
249.133	78.69
249.366	76.69
249.599	77.69
249.832	80.69
250.066	70.69
250.299	66.69
250.532	81.69
250.765	65.69
250.998	68.69
251.231	85.69
251.465	78.69
251.698	89.69
251.931	71.69
252.164	67.69
252.397	79.69
252.63	68.69
252.863	79.69
253.096	94.69
253.329	86.69
253.562	81.69
253.795	76.69
254.028	72.69
254.261	82.69
254.494	83.69
254.727	79.69
254.96	82.69
255.193	76.69
255.426	78.69
255.659	77.69
255.892	87.69
256.124	71.69
256.357	80.69
256.59	74.69
256.823	80.69
257.056	92.69
257.289	76.69
257.521	79.69
257.754	83.69
257.987	78.69
258.22	93.69
258.452	73.69
258.685	87.69
258.918	80.69
259.151	77.69
259.383	91.69
259.616	78.69
259.849	77.69
260.081	72.69
260.314	90.69
260.547	80.69
260.779	87.69
261.012	77.69
261.244	67.69
261.477	80.69
261.71	80.69
261.942	74.69
262.175	72.69
262.407	74.69
262.64	74.69
262.872	79.69
263.105	76.69
263.337	75.69
263.57	79.69
263.802	82.69
264.035	95.69
264.267	77.69
264.499	69.69
264.732	72.69
264.964	68.69
265.197	80.69
265.429	84.69
265.661	79.69
265.894	75.69
266.126	72.69
266.358	74.69
266.591	74.69
266.823	67.69
267.055	80.69
267.287	75.69
267.52	79.69
267.752	74.69
267.984	91.69
268.216	93.69
268.448	87.69
268.681	102.69
268.913	83.69
269.145	83.69
269.377	85.69
269.609	90.69
269.841	79.69
270.073	84.69
270.306	78.69
270.538	81.69
270.77	69.69
271.002	71.69
271.234	97.69
271.466	75.69
271.698	67.69
271.93	80.69
272.162	71.69
272.394	78.69
272.626	85.69
272.858	87.69
273.09	91.69
273.322	71.69
273.553	93.69
273.785	89.69
274.017	92.69
274.249	93.69
274.481	71.69
274.713	87.69
274.945	81.69
275.176	89.69
275.408	91.69
275.64	82.69
275.872	87.69
276.104	85.69
276.335	84.69
276.567	79.69
276.799	100.69
277.031	71.69
277.262	91.69
277.494	89.69
277.726	98.69
277.957	79.69
278.189	81.69
278.421	71.69
278.652	78.69
278.884	77.69
279.115	91.69
279.347	63.69
279.579	78.69
279.81	100.69
280.042	83.69
280.273	92.69
280.505	81.69
280.736	83.69
280.968	85.69
281.199	84.69
281.431	75.69
281.662	74.69
281.894	75.69
282.125	88.69
282.356	84.69
282.588	84.69
282.819	92.69
283.051	80.69
283.282	89.69
283.513	69.69
283.745	83.69
283.976	87.69
284.207	98.69
284.439	73.69
284.67	101.69
284.901	82.69
285.132	90.69
285.364	89.69
285.595	87.69
285.826	85.69
286.057	82.69
286.288	100.69
286.52	87.69
286.751	80.69
286.982	88.69
287.213	87.69
287.444	74.69
287.675	77.69
287.906	74.69
288.138	84.69
288.369	88.69
288.6	79.69
288.831	70.69
289.062	78.69
289.293	93.69
289.524	79.69
289.755	81.69
289.986	77.69
290.217	87.69
290.448	96.69
290.679	91.69
290.91	91.69
291.141	76.69
291.371	73.69
291.602	93.69
291.833	90.69
292.064	92.69
292.295	93.69
292.526	93.69
292.757	68.69
292.987	80.69
293.218	95.69
293.449	78.69
293.68	77.69
293.91	77.69
294.141	98.69
294.372	67.69
294.603	90.69
294.833	93.69
295.064	80.69
295.295	70.69
295.525	94.69
295.756	77.69
295.987	77.69
296.217	81.69
296.448	82.69
296.679	94.69
296.909	98.69
297.14	82.69
297.37	79.69
297.601	88.69
297.831	91.69
298.062	79.69
298.292	84.69
298.523	78.69
298.753	84.69
298.984	72.69
299.214	85.69
299.445	84.69
299.675	90.69
299.905	96.69
300.136	88.69
300.366	93.69
300.597	102.69
300.827	73.69
301.057	89.69
301.288	95.69
301.518	75.69
301.748	71.69
301.979	98.69
302.209	91.69
302.439	96.69
302.669	84.69
302.9	87.69
303.13	82.69
303.36	85.69
303.59	79.69
303.82	84.69
304.051	70.69
304.281	83.69
304.511	96.69
304.741	87.69
304.971	76.69
305.201	81.69
305.431	84.69
305.661	93.69
305.891	83.69
306.121	75.69
306.352	80.69
306.582	86.69
306.812	92.69
307.042	89.69
307.272	74.69
307.502	54.69
307.731	97.69
307.961	91.69
308.191	85.69
308.421	87.69
308.651	85.69
308.881	76.69
309.111	90.69
309.341	82.69
309.571	88.69
309.8	85.69
310.03	95.69
310.26	89.69
310.49	84.69
310.72	99.69
310.949	91.69
311.179	85.69
311.409	89.69
311.639	93.69
311.868	93.69
312.098	88.69
312.328	91.69
312.557	83.69
312.787	86.69
313.017	72.69
313.246	84.69
313.476	80.69
313.706	83.69
313.935	77.69
314.165	99.69
314.394	84.69
314.624	94.69
314.853	87.69
315.083	84.69
315.312	66.69
315.542	69.69
315.771	83.69
316.001	78.69
316.23	87.69
316.46	91.69
316.689	78.69
316.919	84.69
317.148	87.69
317.377	81.69
317.607	75.69
317.836	87.69
318.065	85.69
318.295	84.69
318.524	75.69
318.753	82.69
318.983	85.69
319.212	88.69
319.441	72.69
319.67	78.69
319.9	88.69
320.129	81.69
320.358	83.69
320.587	97.69
320.816	71.69
321.046	80.69
321.275	80.69
321.504	79.69
321.733	89.69
321.962	84.69
322.191	89.69
322.42	78.69
322.649	107.69
322.878	88.69
323.108	95.69
323.337	80.69
323.566	87.69
323.795	80.69
324.024	67.69
324.253	82.69
324.482	84.69
324.71	82.69
324.939	88.69
325.168	88.69
325.397	88.69
325.626	82.69
325.855	91.69
326.084	88.69
326.313	91.69
326.542	80.69
326.77	79.69
326.999	89.69
327.228	82.69
327.457	71.69
327.686	83.69
327.914	87.69
328.143	78.69
328.372	73.69
328.6	73.69
328.829	86.69
329.058	75.69
329.287	80.69
329.515	82.69
329.744	81.69
329.972	91.69
330.201	82.69
330.43	92.69
330.658	82.69
330.887	74.69
331.115	88.69
331.344	112.69
331.572	82.69
331.801	81.69
332.03	83.69
332.258	91.69
332.486	89.69
332.715	81.69
332.943	86.69
333.172	73.69
333.4	89.69
333.629	90.69
333.857	66.69
334.085	92.69
334.314	83.69
334.542	81.69
334.771	76.69
334.999	86.69
335.227	82.69
335.455	73.69
335.684	85.69
335.912	79.69
336.14	96.69
336.369	84.69
336.597	98.69
336.825	89.69
337.053	83.69
337.281	92.69
337.51	95.69
337.738	84.69
337.966	81.69
338.194	87.69
338.422	83.69
338.65	70.69
338.878	74.69
339.106	83.69
339.334	99.69
339.562	77.69
339.79	81.69
340.018	79.69
340.246	96.69
340.474	78.69
340.702	79.69
340.93	84.69
341.158	88.69
341.386	73.69
341.614	91.69
341.842	79.69
342.07	84.69
342.298	87.69
342.526	89.69
342.754	96.69
342.981	90.69
343.209	79.69
343.437	92.69
343.665	90.69
343.893	99.69
344.12	99.69
344.348	83.69
344.576	87.69
344.804	98.69
345.031	85.69
345.259	79.69
345.487	83.69
345.714	79.69
345.942	89.69
346.17	87.69
346.397	89.69
346.625	87.69
346.853	102.69
347.08	76.69
347.308	78.69
347.535	93.69
347.763	87.69
347.99	77.69
348.218	84.69
348.445	83.69
348.673	63.69
348.9	59.69
349.128	80.69
349.355	88.69
349.583	95.69
349.81	94.69
350.037	90.69
350.265	92.69
350.492	81.69
350.72	63.69
350.947	80.69
351.174	87.69
351.402	79.69
351.629	78.69
351.856	89.69
352.083	76.69
352.311	82.69
352.538	84.69
352.765	77.69
352.992	97.69
353.22	74.69
353.447	89.69
353.674	82.69
353.901	87.69
354.128	90.69
354.355	79.69
354.583	68.69
354.81	93.69
355.037	75.69
355.264	71.69
355.491	77.69
355.718	95.69
355.945	79.69
356.172	90.69
356.399	81.69
356.626	75.69
356.853	81.69
357.08	92.69
357.307	88.69
357.534	83.69
357.761	85.69
357.988	71.69
358.215	89.69
358.441	79.69
358.668	83.69
358.895	91.69
359.122	80.69
359.349	78.69
359.576	73.69
359.802	87.69
360.029	96.69
360.256	79.69
360.483	75.69
360.709	84.69
360.936	79.69
361.163	75.69
361.39	67.69
361.616	93.69
361.843	83.69
362.07	80.69
362.296	77.69
362.523	84.69
362.749	73.69
362.976	90.69
363.203	88.69
363.429	79.69
363.656	95.69
363.882	95.69
364.109	100.69
364.335	71.69
364.562	87.69
364.788	71.69
365.015	74.69
365.241	88.69
365.468	70.69
365.694	93.69
365.92	89.69
366.147	96.69
366.373	68.69
366.599	77.69
366.826	73.69
367.052	82.69
367.278	76.69
367.505	87.69
367.731	83.69
367.957	87.69
368.184	80.69
368.41	98.69
368.636	78.69
368.862	68.69
369.089	77.69
369.315	81.69
369.541	75.69
369.767	82.69
369.993	81.69
370.219	80.69
370.445	80.69
370.672	88.69
370.898	84.69
371.124	87.69
371.35	81.69
371.576	87.69
371.802	82.69
372.028	76.69
372.254	75.69
372.48	82.69
372.706	95.69
372.932	80.69
373.158	74.69
373.384	95.69
373.61	83.69
373.835	81.69
374.061	69.69
374.287	64.69
374.513	80.69
374.739	83.69
374.965	82.69
375.191	78.69
375.416	82.69
375.642	78.69
375.868	83.69
376.094	87.69
376.319	72.69
376.545	91.69
376.771	71.69
376.997	81.69
377.222	79.69
377.448	80.69
377.674	91.69
377.899	79.69
378.125	75.69
378.35	96.69
378.576	89.69
378.802	79.69
379.027	97.69
379.253	95.69
379.478	80.69
379.704	81.69
379.929	89.69
380.155	84.69
380.38	82.69
380.606	75.69
380.831	77.69
381.057	89.69
381.282	80.69
381.507	96.69
381.733	78.69
381.958	92.69
382.184	75.69
382.409	80.69
382.634	99.69
382.86	93.69
383.085	88.69
383.31	80.69
383.535	85.69
383.761	78.69
383.986	74.69
384.211	84.69
384.436	84.69
384.662	84.69
384.887	85.69
385.112	79.69
385.337	89.69
385.562	89.69
385.787	76.69
386.013	77.69
386.238	76.69
386.463	71.69
386.688	90.69
386.913	80.69
387.138	78.69
387.363	80.69
387.588	81.69
387.813	81.69
388.038	83.69
388.263	79.69
388.488	80.69
388.713	80.69
388.938	89.69
389.163	95.69
389.387	70.69
389.612	84.69
389.837	80.69
390.062	84.69
390.287	76.69
390.512	79.69
390.736	78.69
390.961	83.69
391.186	85.69
391.411	82.69
391.636	84.69
391.86	81.69
392.085	84.69
392.31	73.69
392.534	79.69
392.759	92.69
392.984	84.69
393.208	82.69
393.433	85.69
393.658	82.69
393.882	76.69
394.107	81.69
394.331	80.69
394.556	75.69
394.78	79.69
395.005	94.69
395.229	89.69
395.454	87.69
395.678	85.69
395.903	64.69
396.127	89.69
396.352	78.69
396.576	83.69
396.801	79.69
397.025	76.69
397.249	87.69
397.474	83.69
397.698	81.69
397.922	74.69
398.147	86.69
398.371	96.69
398.595	82.69
398.82	79.69
399.044	86.69
399.268	83.69
399.492	73.69
399.717	85.69
399.941	94.69
400.165	82.69
400.389	88.69
400.613	77.69
400.837	71.69
401.062	78.69
401.286	73.69
401.51	76.69
401.734	91.69
401.958	89.69
402.182	76.69
402.406	73.69
402.63	85.69
402.854	81.69
403.078	87.69
403.302	77.69
403.526	75.69
403.75	80.69
403.974	91.69
404.198	85.69
404.422	81.69
404.645	83.69
404.869	67.69
405.093	79.69
405.317	90.69
405.541	82.69
405.765	73.69
405.988	80.69
406.212	73.69
406.436	77.69
406.66	64.69
406.883	87.69
407.107	74.69
407.331	72.69
407.555	70.69
407.778	84.69
408.002	80.69
408.226	77.69
408.449	74.69
408.673	73.69
408.896	79.69
409.12	95.69
409.344	97.69
409.567	93.69
409.791	81.69
410.014	91.69
410.238	84.69
410.461	72.69
410.685	83.69
410.908	81.69
411.132	88.69
411.355	76.69
411.578	97.69
411.802	68.69
412.025	91.69
412.249	87.69
412.472	64.69
412.695	81.69
412.919	84.69
413.142	77.69
413.365	76.69
413.589	77.69
413.812	67.69
414.035	72.69
414.258	78.69
414.482	78.69
414.705	82.69
414.928	82.69
415.151	74.69
415.374	83.69
415.597	76.69
415.821	91.69
416.044	76.69
416.267	93.69
416.49	69.69
416.713	89.69
416.936	81.69
417.159	82.69
417.382	85.69
417.605	78.69
417.828	91.69
418.051	83.69
418.274	85.69
418.497	84.69
418.72	84.69
418.943	82.69
419.166	81.69
419.389	90.69
419.611	82.69
419.834	80.69
420.057	74.69
420.28	80.69
420.503	87.69
420.726	70.69
420.948	85.69
421.171	91.69
421.394	85.69
421.617	75.69
421.839	79.69
422.062	87.69
422.285	90.69
422.507	83.69
422.73	95.69
422.953	92.69
423.175	89.69
423.398	83.69
423.621	69.69
423.843	75.69
424.066	87.69
424.288	80.69
424.511	79.69
424.733	84.69
424.956	83.69
425.178	76.69
425.401	79.69
425.623	90.69
425.846	88.69
426.068	79.69
426.291	90.69
426.513	87.69
426.735	79.69
426.958	66.69
427.18	77.69
427.402	70.69
427.625	76.69
427.847	92.69
428.069	88.69
428.292	92.69
428.514	70.69
428.736	75.69
428.958	84.69
429.181	76.69
429.403	69.69
429.625	87.69
429.847	89.69
430.069	88.69
430.292	96.69
430.514	74.69
430.736	75.69
430.958	83.69
431.18	82.69
431.402	87.69
431.624	74.69
431.846	77.69
432.068	76.69
432.29	75.69
432.512	79.69
432.734	94.69
432.956	89.69
433.178	94.69
433.4	92.69
433.622	81.69
433.844	78.69
434.066	95.69
434.287	78.69
434.509	72.69
434.731	86.69
434.953	87.69
435.175	79.69
435.397	88.69
435.618	82.69
435.84	95.69
436.062	67.69
436.284	75.69
436.505	63.69
436.727	69.69
436.949	77.69
437.17	79.69
437.392	80.69
437.614	93.69
437.835	86.69
438.057	83.69
438.278	91.69
438.5	82.69
438.721	72.69
438.943	87.69
439.165	94.69
439.386	80.69
439.608	82.69
439.829	75.69
440.05	65.69
440.272	69.69
440.493	69.69
440.715	71.69
440.936	96.69
441.158	89.69
441.379	68.69
441.6	90.69
441.822	85.69
442.043	79.69
442.264	78.69
442.486	75.69
442.707	88.69
442.928	77.69
443.149	83.69
443.371	83.69
443.592	75.69
443.813	75.69
444.034	80.69
444.255	75.69
444.476	91.69
444.698	75.69
444.919	73.69
445.14	161.69
445.361	114.69
445.582	83.69
445.803	93.69
446.024	87.69
446.245	73.69
446.466	79.69
446.687	75.69
446.908	79.69
447.129	84.69
447.35	79.69
447.571	92.69
447.792	87.69
448.013	77.69
448.234	80.69
448.455	92.69
448.675	87.69
448.896	83.69
449.117	87.69
449.338	75.69
449.559	81.69
449.779	92.69
450	77.69
450.221	82.69
450.442	90.69
450.662	80.69
450.883	75.69
451.104	82.69
451.324	76.69
451.545	75.69
451.766	81.69
451.986	89.69
452.207	84.69
452.428	73.69
452.648	75.69
452.869	89.69
453.089	85.69
453.31	82.69
453.53	76.69
453.751	92.69
453.971	72.69
454.192	83.69
454.412	82.69
454.633	87.69
454.853	71.69
455.073	82.69
455.294	79.69
455.514	93.69
455.734	79.69
455.955	81.69
456.175	80.69
456.395	89.69
456.616	79.69
456.836	82.69
457.056	92.69
457.276	83.69
457.497	84.69
457.717	91.69
457.937	91.69
458.157	91.69
458.377	83.69
458.598	84.69
458.818	93.69
459.038	77.69
459.258	81.69
459.478	73.69
459.698	79.69
459.918	87.69
460.138	74.69
460.358	80.69
460.578	82.69
460.798	92.69
461.018	88.69
461.238	83.69
461.458	79.69
461.678	76.69
461.898	91.69
462.118	68.69
462.338	80.69
462.558	83.69
462.777	65.69
462.997	84.69
463.217	78.69
463.437	87.69
463.657	81.69
463.876	84.69
464.096	63.69
464.316	78.69
464.536	88.69
464.755	66.69
464.975	91.69
465.195	80.69
465.414	71.69
465.634	83.69
465.854	79.69
466.073	84.69
466.293	67.69
466.512	68.69
466.732	83.69
466.951	66.69
467.171	88.69
467.391	82.69
467.61	74.69
467.829	84.69
468.049	75.69
468.268	79.69
468.488	93.69
468.707	71.69
468.927	68.69
469.146	92.69
469.365	73.69
469.585	76.69
469.804	95.69
470.023	80.69
470.243	87.69
470.462	91.69
470.681	83.69
470.901	94.69
471.12	77.69
471.339	67.69
471.558	82.69
471.777	83.69
471.997	78.69
472.216	90.69
472.435	80.69
472.654	76.69
472.873	84.69
473.092	83.69
473.311	78.69
473.53	89.69
473.749	76.69
473.968	85.69
474.187	80.69
474.406	81.69
474.625	92.69
474.844	59.69
475.063	71.69
475.282	84.69
475.501	69.69
475.72	84.69
475.939	85.69
476.158	76.69
476.377	81.69
476.596	79.69
476.814	75.69
477.033	72.69
477.252	87.69
477.471	79.69
477.69	78.69
477.908	91.69
478.127	80.69
478.346	84.69
478.564	80.69
478.783	84.69
479.002	71.69
479.22	73.69
479.439	96.69
479.658	84.69
479.876	88.69
480.095	86.69
480.313	83.69
480.532	89.69
480.751	85.69
480.969	89.69
481.188	89.69
481.406	84.69
481.624	89.69
481.843	83.69
482.061	76.69
482.28	95.69
482.498	92.69
482.717	80.69
482.935	93.69
483.153	72.69
483.372	79.69
483.59	92.69
483.808	95.69
484.027	73.69
484.245	81.69
484.463	76.69
484.681	96.69
484.9	66.69
485.118	73.69
485.336	89.69
485.554	88.69
485.772	73.69
485.99	89.69
486.209	78.69
486.427	88.69
486.645	84.69
486.863	87.69
487.081	94.69
487.299	90.69
487.517	79.69
487.735	69.69
487.953	93.69
488.171	67.69
488.389	86.69
488.607	77.69
488.825	73.69
489.043	80.69
489.261	94.69
489.479	79.69
489.696	87.69
489.914	82.69
490.132	89.69
490.35	84.69
490.568	73.69
490.786	67.69
491.003	77.69
491.221	87.69
491.439	83.69
491.657	91.69
491.874	83.69
492.092	55.69
492.31	84.69
492.527	69.69
492.745	74.69
492.963	96.69
493.18	83.69
493.398	71.69
493.615	76.69
493.833	72.69
494.05	94.69
494.268	80.69
494.485	83.69
494.703	83.69
494.92	84.69
495.138	73.69
495.355	97.69
495.573	78.69
495.79	85.69
496.008	84.69
496.225	84.69
496.442	82.69
496.66	77.69
496.877	92.69
497.094	90.69
497.312	64.69
497.529	89.69
497.746	90.69
497.963	74.69
498.181	79.69
498.398	89.69
498.615	77.69
498.832	79.69
499.049	88.69
499.267	65.69
499.484	74.69
499.701	89.69
499.918	75.69
500.135	78.69
500.352	73.69
500.569	80.69
500.786	83.69
501.003	82.69
501.22	83.69
501.437	71.69
501.654	76.69
501.871	98.69
502.088	94.69
502.305	80.69
502.522	93.69
502.739	75.69
502.956	86.69
503.172	89.69
503.389	76.69
503.606	77.69
503.823	77.69
504.04	82.69
504.256	88.69
504.473	97.69
504.69	77.69
504.907	87.69
505.123	82.69
505.34	83.69
505.557	87.69
505.773	81.69
505.99	77.69
506.207	87.69
506.423	77.69
506.64	75.69
506.856	75.69
507.073	84.69
507.289	74.69
507.506	88.69
507.722	85.69
507.939	83.69
508.155	83.69
508.372	76.69
508.588	79.69
508.805	87.69
509.021	79.69
509.238	83.69
509.454	94.69
509.67	71.69
509.887	85.69
510.103	80.69
510.319	96.69
510.536	77.69
510.752	78.69
510.968	98.69
511.184	93.69
511.401	82.69
511.617	71.69
511.833	96.69
512.049	66.69
512.265	74.69
512.481	73.69
512.698	59.69
512.914	87.69
513.13	87.69
513.346	83.69
513.562	76.69
513.778	84.69
513.994	82.69
514.21	83.69
514.426	83.69
514.642	92.69
514.858	80.69
515.074	81.69
515.29	78.69
515.506	73.69
515.721	93.69
515.937	83.69
516.153	84.69
516.369	72.69
516.585	87.69
516.801	80.69
517.016	93.69
517.232	68.69
517.448	72.69
517.664	80.69
517.879	82.69
518.095	83.69
518.311	75.69
518.527	102.69
518.742	91.69
518.958	84.69
519.173	91.69
519.389	97.69
519.605	86.69
519.82	79.69
520.036	88.69
520.251	64.69
520.467	71.69
520.682	77.69
520.898	77.69
521.113	81.69
521.329	76.69
521.544	98.69
521.76	93.69
521.975	81.69
522.19	83.69
522.406	92.69
522.621	75.69
522.836	61.69
523.052	84.69
523.267	75.69
523.482	81.69
523.698	87.69
523.913	75.69
524.128	79.69
524.343	77.69
524.559	90.69
524.774	93.69
524.989	81.69
525.204	108.69
525.419	74.69
525.634	91.69
525.849	86.69
526.064	85.69
526.28	90.69
526.495	89.69
526.71	84.69
526.925	91.69
527.14	82.69
527.355	82.69
527.57	102.69
527.785	87.69
527.999	95.69
528.214	71.69
528.429	84.69
528.644	73.69
528.859	92.69
529.074	91.69
529.289	90.69
529.503	79.69
529.718	83.69
529.933	80.69
530.148	73.69
530.363	77.69
530.577	77.69
530.792	78.69
531.007	87.69
531.221	88.69
531.436	82.69
531.651	85.69
531.865	87.69
532.08	97.69
532.295	93.69
532.509	74.69
532.724	77.69
532.938	79.69
533.153	92.69
533.367	87.69
533.582	80.69
533.796	102.69
534.011	82.69
534.225	76.69
534.44	79.69
534.654	92.69
534.868	86.69
535.083	77.69
535.297	80.69
535.511	88.69
535.726	76.69
535.94	82.69
536.154	79.69
536.369	70.69
536.583	77.69
536.797	82.69
537.011	88.69
537.225	77.69
537.44	87.69
537.654	67.69
537.868	83.69
538.082	84.69
538.296	88.69
538.51	95.69
538.724	92.69
538.938	91.69
539.153	90.69
539.367	96.69
539.581	78.69
539.795	80.69
540.009	85.69
540.222	96.69
540.436	88.69
540.65	88.69
540.864	83.69
541.078	92.69
541.292	88.69
541.506	95.69
541.72	92.69
541.934	80.69
542.147	100.69
542.361	92.69
542.575	94.69
542.789	70.69
543.002	77.69
543.216	74.69
543.43	83.69
543.644	72.69
543.857	75.69
544.071	87.69
544.285	90.69
544.498	88.69
544.712	84.69
544.925	96.69
545.139	86.69
545.352	88.69
545.566	80.69
545.779	82.69
545.993	91.69
546.206	82.69
546.42	92.69
546.633	85.69
546.847	102.69
547.06	71.69
547.274	85.69
547.487	95.69
547.7	101.69
547.914	102.69
548.127	92.69
548.34	103.69
548.554	84.69
548.767	92.69
548.98	97.69
549.193	71.69
549.407	82.69
549.62	92.69
549.833	94.69
550.046	90.69
550.259	84.69
550.473	102.69
550.686	100.69
550.899	95.69
551.112	101.69
551.325	95.69
551.538	93.69
551.751	102.69
551.964	89.69
552.177	87.69
552.39	86.69
552.603	99.69
552.816	101.69
553.029	93.69
553.242	97.69
553.455	115.69
553.667	106.69
553.88	99.69
554.093	94.69
554.306	109.69
554.519	115.69
554.732	108.69
554.944	105.69
555.157	93.69
555.37	85.69
555.583	106.69
555.795	93.69
556.008	86.69
556.221	90.69
556.433	98.69
556.646	90.69
556.859	88.69
557.071	100.69
557.284	67.69
557.496	88.69
557.709	87.69
557.921	91.69
558.134	103.69
558.346	104.69
558.559	95.69
558.771	87.69
558.984	107.69
559.196	93.69
559.409	103.69
559.621	92.69
559.833	89.69
560.046	88.69
560.258	92.69
560.47	88.69
560.683	80.69
560.895	86.69
561.107	99.69
561.32	65.69
561.532	95.69
561.744	83.69
561.956	92.69
562.168	88.69
562.381	91.69
562.593	90.69
562.805	97.69
563.017	87.69
563.229	87.69
563.441	96.69
563.653	96.69
563.865	71.69
564.077	95.69
564.289	91.69
564.501	84.69
564.713	95.69
564.925	80.69
565.137	89.69
565.349	89.69
565.561	88.69
565.773	85.69
565.985	76.69
566.197	80.69
566.408	83.69
566.62	81.69
566.832	84.69
567.044	96.69
567.255	91.69
567.467	85.69
567.679	82.69
567.891	96.69
568.102	83.69
568.314	95.69
568.526	83.69
568.737	93.69
568.949	86.69
569.161	91.69
569.372	95.69
569.584	95.69
569.795	72.69
570.007	85.69
570.218	85.69
570.43	74.69
570.641	66.69
570.853	91.69
571.064	101.69
571.276	80.69
571.487	96.69
571.698	95.69
571.91	80.69
572.121	87.69
572.333	78.69
572.544	82.69
572.755	83.69
572.966	90.69
573.178	84.69
573.389	91.69
573.6	95.69
573.811	87.69
574.023	78.69
574.234	84.69
574.445	81.69
574.656	73.69
574.867	68.69
575.078	99.69
575.289	95.69
575.501	80.69
575.712	99.69
575.923	103.69
576.134	84.69
576.345	91.69
576.556	93.69
576.767	72.69
576.978	69.69
577.188	76.69
577.399	84.69
577.61	82.69
577.821	89.69
578.032	98.69
578.243	87.69
578.454	90.69
578.665	85.69
578.875	99.69
579.086	69.69
579.297	99.69
579.508	78.69
579.718	90.69
579.929	89.69
580.14	77.69
580.35	77.69
580.561	73.69
580.772	88.69
580.982	92.69
581.193	87.69
581.403	88.69
581.614	93.69
581.825	89.69
582.035	92.69
582.246	91.69
582.456	85.69
582.667	108.69
582.877	87.69
583.087	92.69
583.298	82.69
583.508	95.69
583.719	87.69
583.929	75.69
584.139	91.69
584.35	82.69
584.56	81.69
584.77	81.69
584.981	93.69
585.191	89.69
585.401	89.69
585.611	78.69
585.821	83.69
586.032	87.69
586.242	95.69
586.452	94.69
586.662	92.69
586.872	72.69
587.082	90.69
587.292	91.69
587.502	83.69
587.713	89.69
587.923	73.69
588.133	96.69
588.343	92.69
588.553	80.69
588.762	100.69
588.972	133.69
589.182	281.69
589.392	180.69
589.602	152.69
589.812	222.69
590.022	131.69
590.232	98.69
590.441	85.69
590.651	89.69
590.861	96.69
591.071	82.69
591.281	84.69
591.49	81.69
591.7	99.69
591.91	82.69
592.119	107.69
592.329	107.69
592.539	78.69
592.748	85.69
592.958	77.69
593.167	95.69
593.377	81.69
593.587	93.69
593.796	80.69
594.006	93.69
594.215	97.69
594.424	83.69
594.634	95.69
594.843	78.69
595.053	103.69
595.262	91.69
595.472	91.69
595.681	74.69
595.89	81.69
596.1	77.69
596.309	92.69
596.518	96.69
596.727	95.69
596.937	92.69
597.146	82.69
597.355	109.69
597.564	87.69
597.774	89.69
597.983	88.69
598.192	82.69
598.401	97.69
598.61	88.69
598.819	89.69
599.028	73.69
599.237	97.69
599.446	93.69
599.655	99.69
599.864	109.69
600.073	80.69
600.282	81.69
600.491	94.69
600.7	98.69
600.909	74.69
601.118	84.69
601.327	77.69
601.536	103.69
601.745	91.69
601.953	104.69
602.162	87.69
602.371	81.69
602.58	77.69
602.789	80.69
602.997	87.69
603.206	88.69
603.415	98.69
603.623	92.69
603.832	101.69
604.041	83.69
604.249	81.69
604.458	85.69
604.666	99.69
604.875	91.69
605.084	90.69
605.292	95.69
605.501	103.69
605.709	97.69
605.918	99.69
606.126	107.69
606.334	101.69
606.543	85.69
606.751	96.69
606.96	102.69
607.168	91.69
607.376	78.69
607.585	96.69
607.793	104.69
608.001	93.69
608.21	89.69
608.418	93.69
608.626	84.69
608.834	96.69
609.043	97.69
609.251	85.69
609.459	108.69
609.667	105.69
609.875	103.69
610.083	105.69
610.291	85.69
610.499	100.69
610.707	91.69
610.916	101.69
611.124	106.69
611.332	109.69
611.54	94.69
611.748	83.69
611.955	92.69
612.163	87.69
612.371	109.69
612.579	113.69
612.787	96.69
612.995	107.69
613.203	99.69
613.411	89.69
613.618	77.69
613.826	89.69
614.034	96.69
614.242	86.69
614.449	92.69
614.657	89.69
614.865	105.69
615.072	92.69
615.28	83.69
615.488	112.69
615.695	97.69
615.903	105.69
616.111	100.69
616.318	115.69
616.526	106.69
616.733	107.69
616.941	95.69
617.148	110.69
617.356	88.69
617.563	98.69
617.771	108.69
617.978	109.69
618.185	91.69
618.393	112.69
618.6	107.69
618.807	92.69
619.015	96.69
619.222	115.69
619.429	115.69
619.637	116.69
619.844	116.69
620.051	113.69
620.258	101.69
620.466	101.69
620.673	99.69
620.88	110.69
621.087	101.69
621.294	118.69
621.501	88.69
621.708	100.69
621.915	107.69
622.122	105.69
622.329	94.69
622.536	112.69
622.743	100.69
622.95	94.69
623.157	101.69
623.364	115.69
623.571	97.69
623.778	100.69
623.985	97.69
624.192	105.69
624.399	91.69
624.606	105.69
624.812	93.69
625.019	100.69
625.226	120.69
625.433	95.69
625.639	99.69
625.846	101.69
626.053	100.69
626.259	100.69
626.466	98.69
626.673	82.69
626.879	87.69
627.086	80.69
627.293	98.69
627.499	94.69
627.706	83.69
627.912	98.69
628.119	76.69
628.325	80.69
628.532	80.69
628.738	87.69
628.945	91.69
629.151	81.69
629.357	89.69
629.564	90.69
629.77	91.69
629.976	71.69
630.183	98.69
630.389	95.69
630.595	93.69
630.802	81.69
631.008	89.69
631.214	93.69
631.42	93.69
631.627	91.69
631.833	83.69
632.039	84.69
632.245	92.69
632.451	89.69
632.657	79.69
632.863	86.69
633.069	94.69
633.275	76.69
633.481	84.69
633.688	86.69
633.893	89.69
634.099	81.69
634.305	99.69
634.511	79.69
634.717	93.69
634.923	95.69
635.129	81.69
635.335	87.69
635.541	87.69
635.747	78.69
635.952	79.69
636.158	75.69
636.364	75.69
636.57	70.69
636.775	76.69
636.981	78.69
637.187	84.69
637.392	87.69
637.598	82.69
637.804	91.69
638.009	78.69
638.215	84.69
638.421	88.69
638.626	89.69
638.832	88.69
639.037	78.69
639.243	80.69
639.448	72.69
639.654	79.69
639.859	82.69
640.065	81.69
640.27	104.69
640.475	84.69
640.681	86.69
640.886	79.69
641.091	93.69
641.297	86.69
641.502	78.69
641.707	91.69
641.913	80.69
642.118	83.69
642.323	78.69
642.528	89.69
642.733	97.69
642.939	81.69
643.144	76.69
643.349	89.69
643.554	84.69
643.759	100.69
643.964	79.69
644.169	95.69
644.374	80.69
644.579	83.69
644.784	93.69
644.989	70.69
645.194	79.69
645.399	101.69
645.604	76.69
645.809	75.69
646.014	86.69
646.219	79.69
646.423	93.69
646.628	92.69
646.833	85.69
647.038	84.69
647.243	80.69
647.447	79.69
647.652	85.69
647.857	79.69
648.062	90.69
648.266	88.69
648.471	92.69
648.676	75.69
648.88	91.69
649.085	82.69
649.289	85.69
649.494	80.69
649.698	78.69
649.903	85.69
650.107	73.69
650.312	78.69
650.516	88.69
650.721	85.69
650.925	82.69
651.13	94.69
651.334	70.69
651.539	73.69
651.743	79.69
651.947	77.69
652.152	94.69
652.356	93.69
652.56	84.69
652.764	88.69
652.969	91.69
653.173	79.69
653.377	87.69
653.581	80.69
653.785	83.69
653.99	88.69
654.194	71.69
654.398	80.69
654.602	88.69
654.806	75.69
655.01	77.69
655.214	92.69
655.418	75.69
655.622	73.69
655.826	88.69
656.03	81.69
656.234	92.69
656.438	87.69
656.642	91.69
656.846	83.69
657.049	80.69
657.253	75.69
657.457	85.69
657.661	98.69
657.865	77.69
658.068	79.69
658.272	88.69
658.476	81.69
658.68	71.69
658.883	79.69
659.087	73.69
659.291	95.69
659.494	83.69
659.698	73.69
659.901	81.69
660.105	81.69
660.309	82.69
660.512	88.69
660.716	79.69
660.919	87.69
661.123	89.69
661.326	87.69
661.53	96.69
661.733	81.69
661.936	78.69
662.14	89.69
662.343	71.69
662.546	79.69
662.75	82.69
662.953	87.69
663.156	93.69
663.36	84.69
663.563	98.69
663.766	77.69
663.969	83.69
664.173	69.69
664.376	90.69
664.579	79.69
664.782	78.69
664.985	75.69
665.188	73.69
665.391	83.69
665.594	68.69
665.797	79.69
666	83.69
666.203	88.69
666.406	83.69
666.609	89.69
666.812	79.69
667.015	89.69
667.218	89.69
667.421	77.69
667.624	91.69
667.827	89.69
668.03	80.69
668.232	90.69
668.435	102.69
668.638	87.69
668.841	89.69
669.043	86.69
669.246	84.69
669.449	75.69
669.651	80.69
669.854	64.69
670.057	72.69
670.259	75.69
670.462	89.69
670.665	77.69
670.867	83.69
671.07	80.69
671.272	80.69
671.475	88.69
671.677	74.69
671.88	85.69
672.082	69.69
672.284	74.69
672.487	76.69
672.689	75.69
672.892	76.69
