Data from Soil_25_3_HRD10591_00009.txt Node
Date: Thu Feb 19 11:15:36 EST 2026
User: Yrep
Spectrometer: HR+D1059
Trigger mode: 1
Integration Time (sec): 1.000000E-1
Scans to average: 1
Electric dark correction enabled: true
Nonlinearity correction enabled: false
Boxcar width: 0
XAxis mode: Wavelengths
Number of Pixels in Spectrum: 2048
>>>>>Begin Spectral Data<<<<<
223.165	-11.56
223.4	-11.56
223.635	-11.56
223.869	-17.56
224.104	-9.56
224.338	-4.56
224.573	-11.56
224.808	-20.56
225.042	-18.56
225.277	-9.56
225.511	-4.56
225.746	3.44
225.98	6.44
226.215	22.44
226.449	11.44
226.683	16.44
226.918	17.44
227.152	30.44
227.387	28.44
227.621	34.44
227.856	40.44
228.09	52.44
228.324	53.44
228.559	54.44
228.793	57.44
229.027	48.44
229.262	48.44
229.496	71.44
229.73	68.44
229.964	67.44
230.199	65.44
230.433	76.44
230.667	75.44
230.901	73.44
231.136	71.44
231.37	90.44
231.604	63.44
231.838	73.44
232.072	65.44
232.306	80.44
232.541	73.44
232.775	75.44
233.009	81.44
233.243	82.44
233.477	77.44
233.711	80.44
233.945	82.44
234.179	87.44
234.413	71.44
234.647	81.44
234.881	82.44
235.115	73.44
235.349	75.44
235.583	77.44
235.817	73.44
236.051	81.44
236.285	69.44
236.519	83.44
236.753	76.44
236.987	75.44
237.221	89.44
237.455	74.44
237.689	71.44
237.922	72.44
238.156	70.44
238.39	72.44
238.624	78.44
238.858	64.44
239.091	71.44
239.325	73.44
239.559	81.44
239.793	77.44
240.027	70.44
240.26	62.44
240.494	78.44
240.728	81.44
240.961	79.44
241.195	79.44
241.429	81.44
241.662	67.44
241.896	83.44
242.13	65.44
242.363	67.44
242.597	54.44
242.83	68.44
243.064	65.44
243.298	75.44
243.531	86.44
243.765	75.44
243.998	71.44
244.232	74.44
244.465	80.44
244.699	85.44
244.932	72.44
245.166	94.44
245.399	75.44
245.633	71.44
245.866	88.44
246.099	71.44
246.333	78.44
246.566	75.44
246.8	63.44
247.033	80.44
247.266	83.44
247.5	85.44
247.733	67.44
247.966	70.44
248.2	67.44
248.433	73.44
248.666	80.44
248.899	83.44
249.133	67.44
249.366	87.44
249.599	77.44
249.832	81.44
250.066	91.44
250.299	65.44
250.532	67.44
250.765	72.44
250.998	67.44
251.231	79.44
251.465	69.44
251.698	72.44
251.931	84.44
252.164	65.44
252.397	70.44
252.63	79.44
252.863	79.44
253.096	67.44
253.329	72.44
253.562	66.44
253.795	76.44
254.028	76.44
254.261	85.44
254.494	65.44
254.727	85.44
254.96	77.44
255.193	77.44
255.426	79.44
255.659	79.44
255.892	73.44
256.124	65.44
256.357	82.44
256.59	85.44
256.823	73.44
257.056	69.44
257.289	80.44
257.521	78.44
257.754	84.44
257.987	77.44
258.22	83.44
258.452	97.44
258.685	75.44
258.918	84.44
259.151	69.44
259.383	75.44
259.616	81.44
259.849	70.44
260.081	89.44
260.314	76.44
260.547	84.44
260.779	68.44
261.012	71.44
261.244	69.44
261.477	76.44
261.71	95.44
261.942	61.44
262.175	77.44
262.407	73.44
262.64	81.44
262.872	81.44
263.105	97.44
263.337	79.44
263.57	70.44
263.802	79.44
264.035	75.44
264.267	88.44
264.499	91.44
264.732	71.44
264.964	85.44
265.197	93.44
265.429	89.44
265.661	85.44
265.894	84.44
266.126	71.44
266.358	75.44
266.591	83.44
266.823	85.44
267.055	72.44
267.287	67.44
267.52	91.44
267.752	74.44
267.984	79.44
268.216	76.44
268.448	75.44
268.681	83.44
268.913	76.44
269.145	86.44
269.377	79.44
269.609	80.44
269.841	84.44
270.073	87.44
270.306	79.44
270.538	79.44
270.77	71.44
271.002	93.44
271.234	73.44
271.466	85.44
271.698	71.44
271.93	83.44
272.162	72.44
272.394	79.44
272.626	71.44
272.858	81.44
273.09	91.44
273.322	79.44
273.553	66.44
273.785	77.44
274.017	75.44
274.249	80.44
274.481	73.44
274.713	82.44
274.945	76.44
275.176	100.44
275.408	85.44
275.64	92.44
275.872	84.44
276.104	71.44
276.335	73.44
276.567	77.44
276.799	76.44
277.031	88.44
277.262	81.44
277.494	91.44
277.726	81.44
277.957	81.44
278.189	79.44
278.421	84.44
278.652	71.44
278.884	79.44
279.115	78.44
279.347	91.44
279.579	88.44
279.81	78.44
280.042	75.44
280.273	76.44
280.505	79.44
280.736	88.44
280.968	89.44
281.199	73.44
281.431	82.44
281.662	61.44
281.894	81.44
282.125	95.44
282.356	82.44
282.588	82.44
282.819	85.44
283.051	83.44
283.282	79.44
283.513	70.44
283.745	79.44
283.976	82.44
284.207	85.44
284.439	83.44
284.67	94.44
284.901	76.44
285.132	85.44
285.364	75.44
285.595	80.44
285.826	81.44
286.057	79.44
286.288	96.44
286.52	88.44
286.751	69.44
286.982	80.44
287.213	88.44
287.444	70.44
287.675	91.44
287.906	79.44
288.138	77.44
288.369	81.44
288.6	100.44
288.831	70.44
289.062	75.44
289.293	77.44
289.524	71.44
289.755	79.44
289.986	72.44
290.217	80.44
290.448	72.44
290.679	88.44
290.91	64.44
291.141	81.44
291.371	74.44
291.602	89.44
291.833	79.44
292.064	79.44
292.295	81.44
292.526	83.44
292.757	84.44
292.987	94.44
293.218	75.44
293.449	73.44
293.68	81.44
293.91	79.44
294.141	72.44
294.372	83.44
294.603	97.44
294.833	71.44
295.064	76.44
295.295	83.44
295.525	80.44
295.756	94.44
295.987	96.44
296.217	84.44
296.448	79.44
296.679	91.44
296.909	89.44
297.14	73.44
297.37	92.44
297.601	77.44
297.831	80.44
298.062	77.44
298.292	85.44
298.523	86.44
298.753	79.44
298.984	89.44
299.214	78.44
299.445	75.44
299.675	82.44
299.905	72.44
300.136	82.44
300.366	83.44
300.597	73.44
300.827	77.44
301.057	84.44
301.288	85.44
301.518	78.44
301.748	79.44
301.979	88.44
302.209	71.44
302.439	79.44
302.669	77.44
302.9	73.44
303.13	62.44
303.36	87.44
303.59	80.44
303.82	73.44
304.051	78.44
304.281	82.44
304.511	82.44
304.741	72.44
304.971	66.44
305.201	91.44
305.431	81.44
305.661	82.44
305.891	82.44
306.121	91.44
306.352	83.44
306.582	85.44
306.812	88.44
307.042	73.44
307.272	67.44
307.502	82.44
307.731	72.44
307.961	82.44
308.191	81.44
308.421	79.44
308.651	72.44
308.881	75.44
309.111	94.44
309.341	82.44
309.571	73.44
309.8	88.44
310.03	76.44
310.26	71.44
310.49	89.44
310.72	78.44
310.949	81.44
311.179	79.44
311.409	87.44
311.639	71.44
311.868	77.44
312.098	90.44
312.328	84.44
312.557	85.44
312.787	83.44
313.017	89.44
313.246	80.44
313.476	75.44
313.706	91.44
313.935	90.44
314.165	98.44
314.394	70.44
314.624	91.44
314.853	79.44
315.083	74.44
315.312	75.44
315.542	68.44
315.771	93.44
316.001	83.44
316.23	82.44
316.46	75.44
316.689	81.44
316.919	76.44
317.148	79.44
317.377	83.44
317.607	89.44
317.836	81.44
318.065	88.44
318.295	79.44
318.524	73.44
318.753	84.44
318.983	79.44
319.212	89.44
319.441	85.44
319.67	75.44
319.9	80.44
320.129	76.44
320.358	94.44
320.587	81.44
320.816	83.44
321.046	76.44
321.275	80.44
321.504	81.44
321.733	76.44
321.962	67.44
322.191	79.44
322.42	75.44
322.649	92.44
322.878	95.44
323.108	81.44
323.337	81.44
323.566	80.44
323.795	81.44
324.024	77.44
324.253	89.44
324.482	77.44
324.71	77.44
324.939	75.44
325.168	80.44
325.397	89.44
325.626	68.44
325.855	81.44
326.084	68.44
326.313	73.44
326.542	81.44
326.77	95.44
326.999	81.44
327.228	88.44
327.457	66.44
327.686	89.44
327.914	85.44
328.143	81.44
328.372	84.44
328.6	89.44
328.829	81.44
329.058	79.44
329.287	77.44
329.515	91.44
329.744	92.44
329.972	75.44
330.201	75.44
330.43	87.44
330.658	91.44
330.887	91.44
331.115	79.44
331.344	74.44
331.572	95.44
331.801	91.44
332.03	64.44
332.258	75.44
332.486	81.44
332.715	68.44
332.943	66.44
333.172	77.44
333.4	72.44
333.629	82.44
333.857	91.44
334.085	80.44
334.314	71.44
334.542	83.44
334.771	69.44
334.999	87.44
335.227	69.44
335.455	87.44
335.684	86.44
335.912	91.44
336.14	71.44
336.369	75.44
336.597	81.44
336.825	68.44
337.053	68.44
337.281	92.44
337.51	85.44
337.738	71.44
337.966	78.44
338.194	89.44
338.422	97.44
338.65	82.44
338.878	77.44
339.106	68.44
339.334	81.44
339.562	77.44
339.79	84.44
340.018	76.44
340.246	70.44
340.474	81.44
340.702	64.44
340.93	85.44
341.158	81.44
341.386	83.44
341.614	83.44
341.842	84.44
342.07	69.44
342.298	93.44
342.526	71.44
342.754	80.44
342.981	69.44
343.209	78.44
343.437	81.44
343.665	75.44
343.893	95.44
344.12	83.44
344.348	75.44
344.576	92.44
344.804	75.44
345.031	86.44
345.259	66.44
345.487	77.44
345.714	81.44
345.942	83.44
346.17	89.44
346.397	81.44
346.625	84.44
346.853	76.44
347.08	80.44
347.308	89.44
347.535	89.44
347.763	72.44
347.99	84.44
348.218	89.44
348.445	81.44
348.673	75.44
348.9	72.44
349.128	97.44
349.355	83.44
349.583	86.44
349.81	84.44
350.037	76.44
350.265	82.44
350.492	68.44
350.72	80.44
350.947	80.44
351.174	84.44
351.402	81.44
351.629	83.44
351.856	74.44
352.083	64.44
352.311	69.44
352.538	72.44
352.765	75.44
352.992	78.44
353.22	65.44
353.447	73.44
353.674	89.44
353.901	77.44
354.128	78.44
354.355	80.44
354.583	75.44
354.81	92.44
355.037	87.44
355.264	78.44
355.491	82.44
355.718	74.44
355.945	80.44
356.172	88.44
356.399	76.44
356.626	77.44
356.853	89.44
357.08	74.44
357.307	81.44
357.534	85.44
357.761	80.44
357.988	67.44
358.215	86.44
358.441	88.44
358.668	95.44
358.895	79.44
359.122	84.44
359.349	71.44
359.576	89.44
359.802	75.44
360.029	67.44
360.256	84.44
360.483	74.44
360.709	77.44
360.936	76.44
361.163	75.44
361.39	71.44
361.616	74.44
361.843	66.44
362.07	79.44
362.296	89.44
362.523	93.44
362.749	75.44
362.976	75.44
363.203	92.44
363.429	69.44
363.656	82.44
363.882	83.44
364.109	72.44
364.335	69.44
364.562	81.44
364.788	98.44
365.015	80.44
365.241	79.44
365.468	90.44
365.694	92.44
365.92	69.44
366.147	73.44
366.373	70.44
366.599	70.44
366.826	83.44
367.052	84.44
367.278	75.44
367.505	78.44
367.731	90.44
367.957	81.44
368.184	93.44
368.41	77.44
368.636	70.44
368.862	60.44
369.089	71.44
369.315	73.44
369.541	76.44
369.767	91.44
369.993	95.44
370.219	73.44
370.445	72.44
370.672	87.44
370.898	75.44
371.124	74.44
371.35	81.44
371.576	75.44
371.802	80.44
372.028	82.44
372.254	74.44
372.48	58.44
372.706	71.44
372.932	68.44
373.158	77.44
373.384	87.44
373.61	94.44
373.835	91.44
374.061	69.44
374.287	69.44
374.513	83.44
374.739	92.44
374.965	73.44
375.191	77.44
375.416	84.44
375.642	69.44
375.868	78.44
376.094	79.44
376.319	84.44
376.545	75.44
376.771	73.44
376.997	80.44
377.222	93.44
377.448	74.44
377.674	79.44
377.899	70.44
378.125	85.44
378.35	88.44
378.576	75.44
378.802	76.44
379.027	78.44
379.253	70.44
379.478	80.44
379.704	83.44
379.929	77.44
380.155	84.44
380.38	97.44
380.606	73.44
380.831	81.44
381.057	95.44
381.282	83.44
381.507	71.44
381.733	73.44
381.958	82.44
382.184	78.44
382.409	69.44
382.634	89.44
382.86	99.44
383.085	92.44
383.31	93.44
383.535	84.44
383.761	107.44
383.986	96.44
384.211	73.44
384.436	79.44
384.662	73.44
384.887	76.44
385.112	87.44
385.337	91.44
385.562	71.44
385.787	83.44
386.013	87.44
386.238	74.44
386.463	73.44
386.688	92.44
386.913	88.44
387.138	73.44
387.363	71.44
387.588	80.44
387.813	92.44
388.038	75.44
388.263	87.44
388.488	75.44
388.713	70.44
388.938	84.44
389.163	76.44
389.387	71.44
389.612	80.44
389.837	90.44
390.062	84.44
390.287	82.44
390.512	65.44
390.736	72.44
390.961	83.44
391.186	76.44
391.411	81.44
391.636	86.44
391.86	77.44
392.085	91.44
392.31	87.44
392.534	77.44
392.759	91.44
392.984	100.44
393.208	117.44
393.433	156.44
393.658	138.44
393.882	92.44
394.107	79.44
394.331	73.44
394.556	80.44
394.78	92.44
395.005	79.44
395.229	76.44
395.454	77.44
395.678	65.44
395.903	77.44
396.127	86.44
396.352	98.44
396.576	93.44
396.801	116.44
397.025	141.44
397.249	92.44
397.474	105.44
397.698	77.44
397.922	84.44
398.147	78.44
398.371	81.44
398.595	89.44
398.82	74.44
399.044	71.44
399.268	81.44
399.492	85.44
399.717	83.44
399.941	79.44
400.165	76.44
400.389	70.44
400.613	85.44
400.837	90.44
401.062	81.44
401.286	69.44
401.51	75.44
401.734	81.44
401.958	80.44
402.182	86.44
402.406	67.44
402.63	75.44
402.854	82.44
403.078	84.44
403.302	72.44
403.526	75.44
403.75	91.44
403.974	83.44
404.198	66.44
404.422	73.44
404.645	78.44
404.869	87.44
405.093	81.44
405.317	68.44
405.541	84.44
405.765	69.44
405.988	82.44
406.212	86.44
406.436	74.44
406.66	78.44
406.883	82.44
407.107	83.44
407.331	79.44
407.555	75.44
407.778	82.44
408.002	83.44
408.226	66.44
408.449	74.44
408.673	74.44
408.896	80.44
409.12	83.44
409.344	89.44
409.567	79.44
409.791	90.44
410.014	87.44
410.238	77.44
410.461	85.44
410.685	82.44
410.908	77.44
411.132	70.44
411.355	75.44
411.578	88.44
411.802	78.44
412.025	77.44
412.249	71.44
412.472	81.44
412.695	67.44
412.919	93.44
413.142	71.44
413.365	75.44
413.589	76.44
413.812	76.44
414.035	71.44
414.258	77.44
414.482	67.44
414.705	81.44
414.928	87.44
415.151	77.44
415.374	75.44
415.597	75.44
415.821	91.44
416.044	80.44
416.267	81.44
416.49	87.44
416.713	67.44
416.936	81.44
417.159	74.44
417.382	97.44
417.605	69.44
417.828	79.44
418.051	75.44
418.274	81.44
418.497	70.44
418.72	75.44
418.943	77.44
419.166	67.44
419.389	85.44
419.611	75.44
419.834	79.44
420.057	81.44
420.28	89.44
420.503	83.44
420.726	77.44
420.948	80.44
421.171	78.44
421.394	73.44
421.617	86.44
421.839	77.44
422.062	75.44
422.285	104.44
422.507	116.44
422.73	157.44
422.953	150.44
423.175	97.44
423.398	92.44
423.621	83.44
423.843	90.44
424.066	83.44
424.288	90.44
424.511	80.44
424.733	70.44
424.956	79.44
425.178	80.44
425.401	69.44
425.623	80.44
425.846	82.44
426.068	83.44
426.291	67.44
426.513	93.44
426.735	72.44
426.958	84.44
427.18	101.44
427.402	71.44
427.625	71.44
427.847	72.44
428.069	98.44
428.292	90.44
428.514	88.44
428.736	76.44
428.958	111.44
429.181	94.44
429.403	85.44
429.625	87.44
429.847	84.44
430.069	97.44
430.292	116.44
430.514	105.44
430.736	83.44
430.958	91.44
431.18	86.44
431.402	74.44
431.624	67.44
431.846	93.44
432.068	91.44
432.29	87.44
432.512	80.44
432.734	86.44
432.956	83.44
433.178	78.44
433.4	67.44
433.622	69.44
433.844	80.44
434.066	83.44
434.287	81.44
434.509	79.44
434.731	75.44
434.953	91.44
435.175	96.44
435.397	77.44
435.618	73.44
435.84	85.44
436.062	83.44
436.284	84.44
436.505	76.44
436.727	79.44
436.949	68.44
437.17	75.44
437.392	71.44
437.614	76.44
437.835	65.44
438.057	68.44
438.278	84.44
438.5	80.44
438.721	78.44
438.943	91.44
439.165	78.44
439.386	81.44
439.608	83.44
439.829	75.44
440.05	87.44
440.272	86.44
440.493	81.44
440.715	73.44
440.936	77.44
441.158	82.44
441.379	71.44
441.6	78.44
441.822	78.44
442.043	84.44
442.264	91.44
442.486	89.44
442.707	98.44
442.928	90.44
443.149	67.44
443.371	96.44
443.592	94.44
443.813	97.44
444.034	79.44
444.255	65.44
444.476	83.44
444.698	85.44
444.919	90.44
445.14	154.44
445.361	133.44
445.582	137.44
445.803	111.44
446.024	83.44
446.245	79.44
446.466	81.44
446.687	84.44
446.908	65.44
447.129	83.44
447.35	70.44
447.571	83.44
447.792	77.44
448.013	64.44
448.234	79.44
448.455	59.44
448.675	73.44
448.896	80.44
449.117	73.44
449.338	65.44
449.559	73.44
449.779	69.44
450	74.44
450.221	92.44
450.442	75.44
450.662	81.44
450.883	70.44
451.104	73.44
451.324	67.44
451.545	79.44
451.766	83.44
451.986	68.44
452.207	80.44
452.428	75.44
452.648	67.44
452.869	83.44
453.089	80.44
453.31	84.44
453.53	67.44
453.751	63.44
453.971	85.44
454.192	80.44
454.412	73.44
454.633	89.44
454.853	74.44
455.073	84.44
455.294	81.44
455.514	74.44
455.734	83.44
455.955	71.44
456.175	68.44
456.395	78.44
456.616	89.44
456.836	78.44
457.056	82.44
457.276	91.44
457.497	67.44
457.717	78.44
457.937	84.44
458.157	75.44
458.377	96.44
458.598	83.44
458.818	87.44
459.038	74.44
459.258	81.44
459.478	74.44
459.698	72.44
459.918	76.44
460.138	69.44
460.358	73.44
460.578	94.44
460.798	81.44
461.018	84.44
461.238	81.44
461.458	75.44
461.678	89.44
461.898	79.44
462.118	97.44
462.338	72.44
462.558	77.44
462.777	78.44
462.997	72.44
463.217	67.44
463.437	73.44
463.657	87.44
463.876	82.44
464.096	79.44
464.316	71.44
464.536	81.44
464.755	77.44
464.975	63.44
465.195	72.44
465.414	82.44
465.634	73.44
465.854	73.44
466.073	86.44
466.293	83.44
466.512	81.44
466.732	81.44
466.951	78.44
467.171	79.44
467.391	81.44
467.61	83.44
467.829	77.44
468.049	82.44
468.268	80.44
468.488	77.44
468.707	85.44
468.927	79.44
469.146	67.44
469.365	69.44
469.585	84.44
469.804	77.44
470.023	82.44
470.243	83.44
470.462	72.44
470.681	74.44
470.901	85.44
471.12	76.44
471.339	68.44
471.558	68.44
471.777	82.44
471.997	80.44
472.216	69.44
472.435	71.44
472.654	88.44
472.873	90.44
473.092	80.44
473.311	78.44
473.53	92.44
473.749	73.44
473.968	66.44
474.187	79.44
474.406	81.44
474.625	83.44
474.844	82.44
475.063	85.44
475.282	77.44
475.501	81.44
475.72	90.44
475.939	67.44
476.158	77.44
476.377	87.44
476.596	81.44
476.814	76.44
477.033	71.44
477.252	83.44
477.471	70.44
477.69	79.44
477.908	79.44
478.127	83.44
478.346	77.44
478.564	79.44
478.783	83.44
479.002	75.44
479.22	69.44
479.439	83.44
479.658	70.44
479.876	93.44
480.095	85.44
480.313	74.44
480.532	83.44
480.751	91.44
480.969	71.44
481.188	88.44
481.406	82.44
481.624	76.44
481.843	77.44
482.061	64.44
482.28	82.44
482.498	81.44
482.717	82.44
482.935	80.44
483.153	87.44
483.372	77.44
483.59	93.44
483.808	77.44
484.027	80.44
484.245	73.44
484.463	82.44
484.681	87.44
484.9	83.44
485.118	86.44
485.336	84.44
485.554	87.44
485.772	80.44
485.99	85.44
486.209	98.44
486.427	83.44
486.645	90.44
486.863	85.44
487.081	81.44
487.299	88.44
487.517	78.44
487.735	67.44
487.953	77.44
488.171	89.44
488.389	90.44
488.607	81.44
488.825	83.44
489.043	72.44
489.261	80.44
489.479	83.44
489.696	86.44
489.914	77.44
490.132	77.44
490.35	79.44
490.568	81.44
490.786	86.44
491.003	77.44
491.221	79.44
491.439	77.44
491.657	94.44
491.874	79.44
492.092	85.44
492.31	92.44
492.527	77.44
492.745	65.44
492.963	81.44
493.18	95.44
493.398	77.44
493.615	86.44
493.833	71.44
494.05	86.44
494.268	80.44
494.485	80.44
494.703	72.44
494.92	88.44
495.138	82.44
495.355	83.44
495.573	86.44
495.79	85.44
496.008	83.44
496.225	89.44
496.442	69.44
496.66	91.44
496.877	79.44
497.094	87.44
497.312	84.44
497.529	77.44
497.746	93.44
497.963	75.44
498.181	87.44
498.398	75.44
498.615	84.44
498.832	89.44
499.049	75.44
499.267	74.44
499.484	83.44
499.701	80.44
499.918	89.44
500.135	69.44
500.352	79.44
500.569	75.44
500.786	85.44
501.003	79.44
501.22	91.44
501.437	82.44
501.654	72.44
501.871	86.44
502.088	77.44
502.305	92.44
502.522	81.44
502.739	68.44
502.956	83.44
503.172	69.44
503.389	90.44
503.606	89.44
503.823	82.44
504.04	91.44
504.256	99.44
504.473	88.44
504.69	88.44
504.907	85.44
505.123	77.44
505.34	72.44
505.557	64.44
505.773	76.44
505.99	77.44
506.207	76.44
506.423	78.44
506.64	81.44
506.856	80.44
507.073	77.44
507.289	90.44
507.506	79.44
507.722	77.44
507.939	86.44
508.155	89.44
508.372	81.44
508.588	89.44
508.805	68.44
509.021	89.44
509.238	79.44
509.454	67.44
509.67	77.44
509.887	84.44
510.103	83.44
510.319	69.44
510.536	88.44
510.752	87.44
510.968	77.44
511.184	77.44
511.401	80.44
511.617	73.44
511.833	66.44
512.049	89.44
512.265	83.44
512.481	89.44
512.698	90.44
512.914	85.44
513.13	83.44
513.346	74.44
513.562	89.44
513.778	93.44
513.994	73.44
514.21	72.44
514.426	91.44
514.642	89.44
514.858	83.44
515.074	85.44
515.29	88.44
515.506	76.44
515.721	78.44
515.937	93.44
516.153	76.44
516.369	83.44
516.585	71.44
516.801	84.44
517.016	92.44
517.232	97.44
517.448	98.44
517.664	95.44
517.879	97.44
518.095	93.44
518.311	105.44
518.527	114.44
518.742	97.44
518.958	96.44
519.173	100.44
519.389	75.44
519.605	84.44
519.82	78.44
520.036	97.44
520.251	80.44
520.467	73.44
520.682	83.44
520.898	77.44
521.113	73.44
521.329	96.44
521.544	93.44
521.76	79.44
521.975	97.44
522.19	78.44
522.406	64.44
522.621	104.44
522.836	74.44
523.052	84.44
523.267	73.44
523.482	72.44
523.698	80.44
523.913	82.44
524.128	85.44
524.343	84.44
524.559	81.44
524.774	85.44
524.989	81.44
525.204	72.44
525.419	93.44
525.634	65.44
525.849	79.44
526.064	76.44
526.28	113.44
526.495	127.44
526.71	139.44
526.925	104.44
527.14	122.44
527.355	124.44
527.57	81.44
527.785	81.44
527.999	85.44
528.214	76.44
528.429	88.44
528.644	80.44
528.859	84.44
529.074	78.44
529.289	86.44
529.503	99.44
529.718	83.44
529.933	84.44
530.148	80.44
530.363	85.44
530.577	80.44
530.792	78.44
531.007	91.44
531.221	89.44
531.436	89.44
531.651	92.44
531.865	87.44
532.08	87.44
532.295	79.44
532.509	79.44
532.724	83.44
532.938	84.44
533.153	77.44
533.367	80.44
533.582	72.44
533.796	89.44
534.011	88.44
534.225	91.44
534.44	81.44
534.654	81.44
534.868	95.44
535.083	106.44
535.297	95.44
535.511	84.44
535.726	87.44
535.94	77.44
536.154	87.44
536.369	75.44
536.583	83.44
536.797	85.44
537.011	80.44
537.225	79.44
537.44	89.44
537.654	76.44
537.868	73.44
538.082	74.44
538.296	73.44
538.51	87.44
538.724	81.44
538.938	67.44
539.153	93.44
539.367	91.44
539.581	92.44
539.795	90.44
540.009	81.44
540.222	82.44
540.436	80.44
540.65	86.44
540.864	73.44
541.078	81.44
541.292	78.44
541.506	85.44
541.72	100.44
541.934	85.44
542.147	70.44
542.361	78.44
542.575	88.44
542.789	81.44
543.002	85.44
543.216	83.44
543.43	80.44
543.644	107.44
543.857	96.44
544.071	91.44
544.285	91.44
544.498	80.44
544.712	84.44
544.925	98.44
545.139	96.44
545.352	83.44
545.566	94.44
545.779	96.44
545.993	99.44
546.206	93.44
546.42	81.44
546.633	84.44
546.847	92.44
547.06	92.44
547.274	84.44
547.487	99.44
547.7	89.44
547.914	104.44
548.127	102.44
548.34	83.44
548.554	103.44
548.767	91.44
548.98	91.44
549.193	97.44
549.407	104.44
549.62	110.44
549.833	85.44
550.046	102.44
550.259	97.44
550.473	100.44
550.686	114.44
550.899	88.44
551.112	127.44
551.325	119.44
551.538	114.44
551.751	112.44
551.964	97.44
552.177	97.44
552.39	120.44
552.603	123.44
552.816	117.44
553.029	103.44
553.242	125.44
553.455	113.44
553.667	119.44
553.88	126.44
554.093	126.44
554.306	120.44
554.519	110.44
554.732	113.44
554.944	121.44
555.157	132.44
555.37	98.44
555.583	102.44
555.795	105.44
556.008	103.44
556.221	106.44
556.433	101.44
556.646	108.44
556.859	95.44
557.071	94.44
557.284	101.44
557.496	99.44
557.709	86.44
557.921	84.44
558.134	81.44
558.346	119.44
558.559	83.44
558.771	106.44
558.984	153.44
559.196	159.44
559.409	105.44
559.621	142.44
559.833	114.44
560.046	116.44
560.258	105.44
560.47	119.44
560.683	85.44
560.895	89.44
561.107	73.44
561.32	83.44
561.532	84.44
561.744	85.44
561.956	101.44
562.168	76.44
562.381	67.44
562.593	83.44
562.805	75.44
563.017	82.44
563.229	87.44
563.441	85.44
563.653	87.44
563.865	91.44
564.077	91.44
564.289	80.44
564.501	82.44
564.713	88.44
564.925	88.44
565.137	83.44
565.349	90.44
565.561	84.44
565.773	82.44
565.985	76.44
566.197	73.44
566.408	80.44
566.62	92.44
566.832	88.44
567.044	94.44
567.255	66.44
567.467	93.44
567.679	83.44
567.891	91.44
568.102	83.44
568.314	83.44
568.526	84.44
568.737	95.44
568.949	100.44
569.161	117.44
569.372	84.44
569.584	74.44
569.795	97.44
570.007	81.44
570.218	81.44
570.43	82.44
570.641	83.44
570.853	71.44
571.064	79.44
571.276	82.44
571.487	97.44
571.698	79.44
571.91	78.44
572.121	84.44
572.333	90.44
572.544	89.44
572.755	91.44
572.966	78.44
573.178	99.44
573.389	77.44
573.6	86.44
573.811	69.44
574.023	80.44
574.234	75.44
574.445	95.44
574.656	81.44
574.867	88.44
575.078	89.44
575.289	92.44
575.501	76.44
575.712	97.44
575.923	91.44
576.134	90.44
576.345	77.44
576.556	81.44
576.767	91.44
576.978	95.44
577.188	83.44
577.399	89.44
577.61	85.44
577.821	93.44
578.032	81.44
578.243	83.44
578.454	75.44
578.665	91.44
578.875	81.44
579.086	89.44
579.297	85.44
579.508	81.44
579.718	79.44
579.929	90.44
580.14	97.44
580.35	94.44
580.561	71.44
580.772	96.44
580.982	78.44
581.193	91.44
581.403	95.44
581.614	83.44
581.825	85.44
582.035	96.44
582.246	84.44
582.456	81.44
582.667	74.44
582.877	88.44
583.087	83.44
583.298	79.44
583.508	97.44
583.719	81.44
583.929	90.44
584.139	93.44
584.35	92.44
584.56	85.44
584.77	77.44
584.981	84.44
585.191	87.44
585.401	95.44
585.611	89.44
585.821	108.44
586.032	114.44
586.242	82.44
586.452	87.44
586.662	78.44
586.872	95.44
587.082	86.44
587.292	87.44
587.502	99.44
587.713	88.44
587.923	105.44
588.133	99.44
588.343	105.44
588.553	136.44
588.762	180.44
588.972	275.44
589.182	398.44
589.392	351.44
589.602	280.44
589.812	347.44
590.022	260.44
590.232	137.44
590.441	123.44
590.651	97.44
590.861	101.44
591.071	87.44
591.281	97.44
591.49	92.44
591.7	91.44
591.91	108.44
592.119	92.44
592.329	97.44
592.539	98.44
592.748	96.44
592.958	102.44
593.167	111.44
593.377	104.44
593.587	130.44
593.796	105.44
594.006	107.44
594.215	110.44
594.424	103.44
594.634	89.44
594.843	89.44
595.053	92.44
595.262	92.44
595.472	83.44
595.681	95.44
595.89	99.44
596.1	93.44
596.309	89.44
596.518	107.44
596.727	90.44
596.937	94.44
597.146	86.44
597.355	88.44
597.564	105.44
597.774	119.44
597.983	83.44
598.192	91.44
598.401	109.44
598.61	99.44
598.819	114.44
599.028	80.44
599.237	107.44
599.446	114.44
599.655	110.44
599.864	93.44
600.073	105.44
600.282	109.44
600.491	96.44
600.7	121.44
600.909	85.44
601.118	97.44
601.327	101.44
601.536	113.44
601.745	102.44
601.953	89.44
602.162	97.44
602.371	94.44
602.58	78.44
602.789	90.44
602.997	95.44
603.206	97.44
603.415	86.44
603.623	105.44
603.832	91.44
604.041	90.44
604.249	92.44
604.458	106.44
604.666	112.44
604.875	98.44
605.084	103.44
605.292	106.44
605.501	108.44
605.709	98.44
605.918	103.44
606.126	111.44
606.334	99.44
606.543	114.44
606.751	97.44
606.96	103.44
607.168	95.44
607.376	113.44
607.585	125.44
607.793	119.44
608.001	102.44
608.21	96.44
608.418	114.44
608.626	106.44
608.834	97.44
609.043	85.44
609.251	96.44
609.459	111.44
609.667	122.44
609.875	120.44
610.083	104.44
610.291	111.44
610.499	124.44
610.707	98.44
610.916	92.44
611.124	108.44
611.332	101.44
611.54	113.44
611.748	106.44
611.955	107.44
612.163	113.44
612.371	160.44
612.579	138.44
612.787	113.44
612.995	113.44
613.203	122.44
613.411	114.44
613.618	107.44
613.826	107.44
614.034	112.44
614.242	110.44
614.449	129.44
614.657	115.44
614.865	118.44
615.072	111.44
615.28	107.44
615.488	106.44
615.695	136.44
615.903	108.44
616.111	115.44
616.318	175.44
616.526	183.44
616.733	139.44
616.941	139.44
617.148	140.44
617.356	128.44
617.563	130.44
617.771	133.44
617.978	140.44
618.185	125.44
618.393	125.44
618.6	139.44
618.807	115.44
619.015	120.44
619.222	129.44
619.429	133.44
619.637	135.44
619.844	125.44
620.051	124.44
620.258	107.44
620.466	120.44
620.673	131.44
620.88	137.44
621.087	123.44
621.294	123.44
621.501	115.44
621.708	100.44
621.915	112.44
622.122	102.44
622.329	105.44
622.536	91.44
622.743	107.44
622.95	113.44
623.157	98.44
623.364	103.44
623.571	98.44
623.778	99.44
623.985	107.44
624.192	94.44
624.399	124.44
624.606	115.44
624.812	109.44
625.019	123.44
625.226	95.44
625.433	111.44
625.639	122.44
625.846	84.44
626.053	97.44
626.259	108.44
626.466	103.44
626.673	100.44
626.879	90.44
627.086	114.44
627.293	110.44
627.499	88.44
627.706	98.44
627.912	85.44
628.119	88.44
628.325	89.44
628.532	105.44
628.738	101.44
628.945	91.44
629.151	99.44
629.357	94.44
629.564	77.44
629.77	81.44
629.976	99.44
630.183	80.44
630.389	91.44
630.595	85.44
630.802	87.44
631.008	80.44
631.214	82.44
631.42	76.44
631.627	89.44
631.833	76.44
632.039	79.44
632.245	87.44
632.451	101.44
632.657	82.44
632.863	84.44
633.069	83.44
633.275	106.44
633.481	91.44
633.688	94.44
633.893	81.44
634.099	95.44
634.305	76.44
634.511	88.44
634.717	99.44
634.923	81.44
635.129	80.44
635.335	80.44
635.541	96.44
635.747	102.44
635.952	88.44
636.158	96.44
636.364	85.44
636.57	80.44
636.775	86.44
636.981	83.44
637.187	85.44
637.392	89.44
637.598	73.44
637.804	89.44
638.009	77.44
638.215	93.44
638.421	79.44
638.626	74.44
638.832	83.44
639.037	78.44
639.243	93.44
639.448	82.44
639.654	96.44
639.859	85.44
640.065	81.44
640.27	87.44
640.475	89.44
640.681	68.44
640.886	77.44
641.091	77.44
641.297	73.44
641.502	92.44
641.707	78.44
641.913	96.44
642.118	90.44
642.323	85.44
642.528	79.44
642.733	80.44
642.939	79.44
643.144	73.44
643.349	87.44
643.554	94.44
643.759	89.44
643.964	100.44
644.169	117.44
644.374	88.44
644.579	86.44
644.784	85.44
644.989	95.44
645.194	85.44
645.399	85.44
645.604	84.44
645.809	97.44
646.014	66.44
646.219	86.44
646.423	112.44
646.628	89.44
646.833	78.44
647.038	88.44
647.243	75.44
647.447	95.44
647.652	92.44
647.857	75.44
648.062	85.44
648.266	76.44
648.471	87.44
648.676	91.44
648.88	80.44
649.085	70.44
649.289	81.44
649.494	91.44
649.698	96.44
649.903	91.44
650.107	95.44
650.312	87.44
650.516	64.44
650.721	76.44
650.925	72.44
651.13	73.44
651.334	82.44
651.539	73.44
651.743	75.44
651.947	69.44
652.152	73.44
652.356	76.44
652.56	85.44
652.764	85.44
652.969	85.44
653.173	76.44
653.377	77.44
653.581	92.44
653.785	80.44
653.99	73.44
654.194	69.44
654.398	77.44
654.602	68.44
654.806	76.44
655.01	88.44
655.214	68.44
655.418	72.44
655.622	73.44
655.826	82.44
656.03	86.44
656.234	86.44
656.438	76.44
656.642	71.44
656.846	85.44
657.049	77.44
657.253	80.44
657.457	76.44
657.661	73.44
657.865	77.44
658.068	83.44
658.272	73.44
658.476	81.44
658.68	76.44
658.883	79.44
659.087	81.44
659.291	77.44
659.494	78.44
659.698	75.44
659.901	71.44
660.105	81.44
660.309	86.44
660.512	83.44
660.716	83.44
660.919	77.44
661.123	91.44
661.326	73.44
661.53	75.44
661.733	83.44
661.936	73.44
662.14	77.44
662.343	78.44
662.546	69.44
662.75	78.44
662.953	79.44
663.156	73.44
663.36	71.44
663.563	69.44
663.766	67.44
663.969	92.44
664.173	67.44
664.376	78.44
664.579	70.44
664.782	77.44
664.985	74.44
665.188	70.44
665.391	90.44
665.594	73.44
665.797	86.44
666	67.44
666.203	87.44
666.406	83.44
666.609	78.44
666.812	84.44
667.015	75.44
667.218	81.44
667.421	83.44
667.624	74.44
667.827	86.44
668.03	75.44
668.232	69.44
668.435	79.44
668.638	80.44
668.841	76.44
669.043	73.44
669.246	68.44
669.449	89.44
669.651	89.44
669.854	75.44
670.057	74.44
670.259	70.44
670.462	80.44
670.665	79.44
670.867	74.44
671.07	77.44
671.272	82.44
671.475	75.44
671.677	60.44
671.88	82.44
672.082	84.44
672.284	81.44
672.487	80.44
672.689	80.44
672.892	76.44
