Data from Lead_15_1_HRD10591_00005.txt Node
Date: Fri Feb 20 11:04:44 EST 2026
User: Yrep
Spectrometer: HR+D1059
Trigger mode: 1
Integration Time (sec): 1.000000E-1
Scans to average: 1
Electric dark correction enabled: true
Nonlinearity correction enabled: false
Boxcar width: 0
XAxis mode: Wavelengths
Number of Pixels in Spectrum: 2048
>>>>>Begin Spectral Data<<<<<
223.165	-15.75
223.4	-15.75
223.635	-15.75
223.869	-15.75
224.104	-16.75
224.338	-22.75
224.573	-10.75
224.808	-11.75
225.042	-2.75
225.277	-15.75
225.511	12.25
225.746	-6.75
225.98	15.25
226.215	8.25
226.449	11.25
226.683	7.25
226.918	27.25
227.152	37.25
227.387	35.25
227.621	37.25
227.856	56.25
228.09	49.25
228.324	62.25
228.559	47.25
228.793	55.25
229.027	63.25
229.262	67.25
229.496	66.25
229.73	55.25
229.964	64.25
230.199	73.25
230.433	87.25
230.667	81.25
230.901	73.25
231.136	78.25
231.37	77.25
231.604	81.25
231.838	75.25
232.072	80.25
232.306	74.25
232.541	74.25
232.775	78.25
233.009	82.25
233.243	79.25
233.477	78.25
233.711	86.25
233.945	77.25
234.179	81.25
234.413	79.25
234.647	84.25
234.881	78.25
235.115	91.25
235.349	76.25
235.583	84.25
235.817	80.25
236.051	71.25
236.285	82.25
236.519	84.25
236.753	79.25
236.987	92.25
237.221	92.25
237.455	87.25
237.689	71.25
237.922	80.25
238.156	76.25
238.39	84.25
238.624	74.25
238.858	84.25
239.091	69.25
239.325	78.25
239.559	75.25
239.793	76.25
240.027	86.25
240.26	74.25
240.494	80.25
240.728	72.25
240.961	76.25
241.195	69.25
241.429	63.25
241.662	69.25
241.896	84.25
242.13	74.25
242.363	78.25
242.597	77.25
242.83	74.25
243.064	73.25
243.298	81.25
243.531	101.25
243.765	82.25
243.998	96.25
244.232	81.25
244.465	79.25
244.699	81.25
244.932	91.25
245.166	75.25
245.399	78.25
245.633	74.25
245.866	72.25
246.099	67.25
246.333	78.25
246.566	87.25
246.8	82.25
247.033	65.25
247.266	73.25
247.5	60.25
247.733	82.25
247.966	80.25
248.2	87.25
248.433	86.25
248.666	71.25
248.899	78.25
249.133	66.25
249.366	82.25
249.599	70.25
249.832	67.25
250.066	76.25
250.299	87.25
250.532	80.25
250.765	74.25
250.998	72.25
251.231	78.25
251.465	80.25
251.698	75.25
251.931	76.25
252.164	65.25
252.397	84.25
252.63	87.25
252.863	78.25
253.096	83.25
253.329	70.25
253.562	78.25
253.795	76.25
254.028	91.25
254.261	77.25
254.494	74.25
254.727	68.25
254.96	74.25
255.193	82.25
255.426	83.25
255.659	73.25
255.892	72.25
256.124	70.25
256.357	77.25
256.59	65.25
256.823	90.25
257.056	73.25
257.289	65.25
257.521	94.25
257.754	86.25
257.987	82.25
258.22	72.25
258.452	70.25
258.685	81.25
258.918	69.25
259.151	75.25
259.383	74.25
259.616	81.25
259.849	76.25
260.081	78.25
260.314	84.25
260.547	83.25
260.779	76.25
261.012	89.25
261.244	93.25
261.477	87.25
261.71	75.25
261.942	94.25
262.175	89.25
262.407	83.25
262.64	74.25
262.872	87.25
263.105	89.25
263.337	81.25
263.57	85.25
263.802	76.25
264.035	86.25
264.267	76.25
264.499	69.25
264.732	68.25
264.964	82.25
265.197	93.25
265.429	83.25
265.661	80.25
265.894	86.25
266.126	85.25
266.358	83.25
266.591	89.25
266.823	81.25
267.055	75.25
267.287	76.25
267.52	72.25
267.752	84.25
267.984	79.25
268.216	67.25
268.448	75.25
268.681	87.25
268.913	79.25
269.145	96.25
269.377	89.25
269.609	80.25
269.841	80.25
270.073	83.25
270.306	81.25
270.538	75.25
270.77	82.25
271.002	74.25
271.234	91.25
271.466	84.25
271.698	81.25
271.93	96.25
272.162	89.25
272.394	93.25
272.626	69.25
272.858	76.25
273.09	88.25
273.322	72.25
273.553	73.25
273.785	80.25
274.017	93.25
274.249	78.25
274.481	83.25
274.713	88.25
274.945	93.25
275.176	77.25
275.408	78.25
275.64	78.25
275.872	85.25
276.104	83.25
276.335	85.25
276.567	82.25
276.799	93.25
277.031	70.25
277.262	85.25
277.494	82.25
277.726	76.25
277.957	87.25
278.189	94.25
278.421	76.25
278.652	79.25
278.884	82.25
279.115	87.25
279.347	80.25
279.579	92.25
279.81	86.25
280.042	83.25
280.273	90.25
280.505	85.25
280.736	79.25
280.968	90.25
281.199	82.25
281.431	79.25
281.662	72.25
281.894	86.25
282.125	68.25
282.356	91.25
282.588	92.25
282.819	87.25
283.051	91.25
283.282	91.25
283.513	96.25
283.745	89.25
283.976	87.25
284.207	84.25
284.439	94.25
284.67	91.25
284.901	81.25
285.132	96.25
285.364	92.25
285.595	80.25
285.826	73.25
286.057	84.25
286.288	79.25
286.52	85.25
286.751	86.25
286.982	84.25
287.213	95.25
287.444	81.25
287.675	76.25
287.906	100.25
288.138	87.25
288.369	86.25
288.6	83.25
288.831	76.25
289.062	68.25
289.293	91.25
289.524	85.25
289.755	84.25
289.986	83.25
290.217	79.25
290.448	79.25
290.679	84.25
290.91	90.25
291.141	79.25
291.371	77.25
291.602	91.25
291.833	84.25
292.064	77.25
292.295	75.25
292.526	96.25
292.757	85.25
292.987	87.25
293.218	68.25
293.449	80.25
293.68	83.25
293.91	83.25
294.141	92.25
294.372	84.25
294.603	87.25
294.833	94.25
295.064	83.25
295.295	89.25
295.525	79.25
295.756	85.25
295.987	86.25
296.217	90.25
296.448	90.25
296.679	82.25
296.909	99.25
297.14	94.25
297.37	86.25
297.601	71.25
297.831	72.25
298.062	86.25
298.292	89.25
298.523	83.25
298.753	83.25
298.984	79.25
299.214	84.25
299.445	82.25
299.675	85.25
299.905	87.25
300.136	111.25
300.366	84.25
300.597	82.25
300.827	96.25
301.057	72.25
301.288	73.25
301.518	87.25
301.748	85.25
301.979	96.25
302.209	90.25
302.439	82.25
302.669	72.25
302.9	80.25
303.13	79.25
303.36	90.25
303.59	99.25
303.82	88.25
304.051	73.25
304.281	81.25
304.511	90.25
304.741	72.25
304.971	64.25
305.201	87.25
305.431	84.25
305.661	86.25
305.891	70.25
306.121	75.25
306.352	75.25
306.582	74.25
306.812	84.25
307.042	72.25
307.272	65.25
307.502	90.25
307.731	108.25
307.961	77.25
308.191	76.25
308.421	97.25
308.651	76.25
308.881	81.25
309.111	88.25
309.341	91.25
309.571	76.25
309.8	96.25
310.03	98.25
310.26	79.25
310.49	80.25
310.72	83.25
310.949	71.25
311.179	82.25
311.409	75.25
311.639	86.25
311.868	76.25
312.098	95.25
312.328	90.25
312.557	84.25
312.787	86.25
313.017	89.25
313.246	94.25
313.476	83.25
313.706	92.25
313.935	104.25
314.165	86.25
314.394	78.25
314.624	92.25
314.853	88.25
315.083	82.25
315.312	99.25
315.542	99.25
315.771	88.25
316.001	86.25
316.23	100.25
316.46	86.25
316.689	85.25
316.919	95.25
317.148	83.25
317.377	94.25
317.607	95.25
317.836	75.25
318.065	88.25
318.295	85.25
318.524	73.25
318.753	75.25
318.983	85.25
319.212	86.25
319.441	96.25
319.67	76.25
319.9	84.25
320.129	86.25
320.358	78.25
320.587	83.25
320.816	85.25
321.046	81.25
321.275	81.25
321.504	80.25
321.733	90.25
321.962	83.25
322.191	72.25
322.42	76.25
322.649	86.25
322.878	84.25
323.108	92.25
323.337	90.25
323.566	77.25
323.795	88.25
324.024	94.25
324.253	92.25
324.482	84.25
324.71	74.25
324.939	94.25
325.168	66.25
325.397	82.25
325.626	80.25
325.855	77.25
326.084	92.25
326.313	79.25
326.542	90.25
326.77	97.25
326.999	93.25
327.228	75.25
327.457	80.25
327.686	99.25
327.914	90.25
328.143	84.25
328.372	86.25
328.6	102.25
328.829	98.25
329.058	91.25
329.287	90.25
329.515	94.25
329.744	86.25
329.972	74.25
330.201	77.25
330.43	79.25
330.658	83.25
330.887	90.25
331.115	96.25
331.344	92.25
331.572	90.25
331.801	79.25
332.03	88.25
332.258	80.25
332.486	82.25
332.715	77.25
332.943	88.25
333.172	86.25
333.4	79.25
333.629	77.25
333.857	84.25
334.085	76.25
334.314	83.25
334.542	83.25
334.771	84.25
334.999	85.25
335.227	77.25
335.455	76.25
335.684	94.25
335.912	76.25
336.14	80.25
336.369	83.25
336.597	84.25
336.825	76.25
337.053	79.25
337.281	77.25
337.51	80.25
337.738	84.25
337.966	82.25
338.194	75.25
338.422	82.25
338.65	93.25
338.878	96.25
339.106	76.25
339.334	90.25
339.562	74.25
339.79	90.25
340.018	83.25
340.246	82.25
340.474	94.25
340.702	84.25
340.93	87.25
341.158	83.25
341.386	83.25
341.614	74.25
341.842	84.25
342.07	93.25
342.298	84.25
342.526	81.25
342.754	70.25
342.981	82.25
343.209	99.25
343.437	91.25
343.665	76.25
343.893	100.25
344.12	89.25
344.348	86.25
344.576	80.25
344.804	79.25
345.031	87.25
345.259	75.25
345.487	94.25
345.714	81.25
345.942	98.25
346.17	91.25
346.397	81.25
346.625	75.25
346.853	71.25
347.08	84.25
347.308	82.25
347.535	83.25
347.763	95.25
347.99	95.25
348.218	72.25
348.445	83.25
348.673	82.25
348.9	83.25
349.128	80.25
349.355	79.25
349.583	87.25
349.81	77.25
350.037	84.25
350.265	84.25
350.492	81.25
350.72	70.25
350.947	78.25
351.174	82.25
351.402	81.25
351.629	75.25
351.856	87.25
352.083	82.25
352.311	82.25
352.538	83.25
352.765	83.25
352.992	81.25
353.22	82.25
353.447	80.25
353.674	84.25
353.901	87.25
354.128	92.25
354.355	79.25
354.583	82.25
354.81	97.25
355.037	93.25
355.264	69.25
355.491	71.25
355.718	73.25
355.945	95.25
356.172	88.25
356.399	91.25
356.626	100.25
356.853	76.25
357.08	82.25
357.307	77.25
357.534	90.25
357.761	86.25
357.988	97.25
358.215	90.25
358.441	93.25
358.668	91.25
358.895	94.25
359.122	88.25
359.349	86.25
359.576	83.25
359.802	75.25
360.029	73.25
360.256	84.25
360.483	82.25
360.709	95.25
360.936	74.25
361.163	74.25
361.39	76.25
361.616	69.25
361.843	93.25
362.07	88.25
362.296	76.25
362.523	84.25
362.749	81.25
362.976	87.25
363.203	93.25
363.429	91.25
363.656	84.25
363.882	93.25
364.109	105.25
364.335	87.25
364.562	90.25
364.788	84.25
365.015	82.25
365.241	71.25
365.468	76.25
365.694	91.25
365.92	90.25
366.147	81.25
366.373	77.25
366.599	82.25
366.826	71.25
367.052	74.25
367.278	77.25
367.505	84.25
367.731	82.25
367.957	92.25
368.184	95.25
368.41	98.25
368.636	84.25
368.862	77.25
369.089	77.25
369.315	89.25
369.541	89.25
369.767	89.25
369.993	81.25
370.219	88.25
370.445	93.25
370.672	88.25
370.898	81.25
371.124	98.25
371.35	88.25
371.576	84.25
371.802	79.25
372.028	82.25
372.254	89.25
372.48	88.25
372.706	89.25
372.932	80.25
373.158	86.25
373.384	96.25
373.61	87.25
373.835	85.25
374.061	80.25
374.287	80.25
374.513	78.25
374.739	83.25
374.965	88.25
375.191	76.25
375.416	80.25
375.642	90.25
375.868	101.25
376.094	83.25
376.319	96.25
376.545	92.25
376.771	87.25
376.997	83.25
377.222	94.25
377.448	81.25
377.674	91.25
377.899	97.25
378.125	73.25
378.35	90.25
378.576	80.25
378.802	85.25
379.027	82.25
379.253	88.25
379.478	71.25
379.704	96.25
379.929	86.25
380.155	83.25
380.38	84.25
380.606	95.25
380.831	86.25
381.057	98.25
381.282	76.25
381.507	89.25
381.733	72.25
381.958	92.25
382.184	79.25
382.409	92.25
382.634	82.25
382.86	72.25
383.085	84.25
383.31	94.25
383.535	92.25
383.761	87.25
383.986	85.25
384.211	84.25
384.436	84.25
384.662	87.25
384.887	82.25
385.112	82.25
385.337	93.25
385.562	79.25
385.787	91.25
386.013	78.25
386.238	86.25
386.463	81.25
386.688	87.25
386.913	74.25
387.138	77.25
387.363	78.25
387.588	96.25
387.813	78.25
388.038	80.25
388.263	89.25
388.488	85.25
388.713	82.25
388.938	73.25
389.163	75.25
389.387	75.25
389.612	79.25
389.837	85.25
390.062	79.25
390.287	76.25
390.512	73.25
390.736	82.25
390.961	88.25
391.186	85.25
391.411	93.25
391.636	92.25
391.86	80.25
392.085	85.25
392.31	72.25
392.534	104.25
392.759	93.25
392.984	95.25
393.208	80.25
393.433	98.25
393.658	84.25
393.882	77.25
394.107	94.25
394.331	69.25
394.556	89.25
394.78	100.25
395.005	94.25
395.229	76.25
395.454	77.25
395.678	88.25
395.903	107.25
396.127	94.25
396.352	92.25
396.576	91.25
396.801	78.25
397.025	102.25
397.249	96.25
397.474	74.25
397.698	97.25
397.922	91.25
398.147	89.25
398.371	87.25
398.595	82.25
398.82	81.25
399.044	90.25
399.268	94.25
399.492	75.25
399.717	85.25
399.941	80.25
400.165	88.25
400.389	93.25
400.613	94.25
400.837	91.25
401.062	75.25
401.286	80.25
401.51	70.25
401.734	84.25
401.958	84.25
402.182	92.25
402.406	86.25
402.63	86.25
402.854	78.25
403.078	102.25
403.302	82.25
403.526	80.25
403.75	93.25
403.974	84.25
404.198	83.25
404.422	84.25
404.645	91.25
404.869	88.25
405.093	92.25
405.317	92.25
405.541	101.25
405.765	112.25
405.988	122.25
406.212	88.25
406.436	83.25
406.66	92.25
406.883	70.25
407.107	78.25
407.331	80.25
407.555	88.25
407.778	71.25
408.002	88.25
408.226	81.25
408.449	92.25
408.673	70.25
408.896	80.25
409.12	77.25
409.344	92.25
409.567	84.25
409.791	95.25
410.014	80.25
410.238	86.25
410.461	87.25
410.685	75.25
410.908	82.25
411.132	77.25
411.355	84.25
411.578	84.25
411.802	86.25
412.025	84.25
412.249	67.25
412.472	81.25
412.695	103.25
412.919	90.25
413.142	76.25
413.365	89.25
413.589	84.25
413.812	84.25
414.035	85.25
414.258	90.25
414.482	83.25
414.705	71.25
414.928	90.25
415.151	95.25
415.374	79.25
415.597	85.25
415.821	74.25
416.044	80.25
416.267	88.25
416.49	72.25
416.713	74.25
416.936	70.25
417.159	74.25
417.382	71.25
417.605	81.25
417.828	81.25
418.051	79.25
418.274	73.25
418.497	102.25
418.72	74.25
418.943	81.25
419.166	80.25
419.389	79.25
419.611	81.25
419.834	88.25
420.057	99.25
420.28	83.25
420.503	82.25
420.726	74.25
420.948	95.25
421.171	84.25
421.394	83.25
421.617	74.25
421.839	81.25
422.062	77.25
422.285	88.25
422.507	86.25
422.73	92.25
422.953	80.25
423.175	75.25
423.398	73.25
423.621	82.25
423.843	93.25
424.066	83.25
424.288	83.25
424.511	71.25
424.733	76.25
424.956	86.25
425.178	83.25
425.401	83.25
425.623	81.25
425.846	79.25
426.068	93.25
426.291	76.25
426.513	80.25
426.735	78.25
426.958	69.25
427.18	83.25
427.402	85.25
427.625	81.25
427.847	88.25
428.069	74.25
428.292	80.25
428.514	75.25
428.736	76.25
428.958	82.25
429.181	85.25
429.403	71.25
429.625	91.25
429.847	68.25
430.069	79.25
430.292	90.25
430.514	70.25
430.736	61.25
430.958	73.25
431.18	86.25
431.402	90.25
431.624	72.25
431.846	77.25
432.068	90.25
432.29	84.25
432.512	76.25
432.734	71.25
432.956	79.25
433.178	88.25
433.4	76.25
433.622	74.25
433.844	80.25
434.066	77.25
434.287	84.25
434.509	87.25
434.731	77.25
434.953	82.25
435.175	77.25
435.397	96.25
435.618	79.25
435.84	70.25
436.062	97.25
436.284	76.25
436.505	82.25
436.727	92.25
436.949	88.25
437.17	74.25
437.392	73.25
437.614	93.25
437.835	81.25
438.057	92.25
438.278	82.25
438.5	81.25
438.721	83.25
438.943	73.25
439.165	72.25
439.386	81.25
439.608	78.25
439.829	81.25
440.05	89.25
440.272	87.25
440.493	78.25
440.715	87.25
440.936	74.25
441.158	68.25
441.379	84.25
441.6	78.25
441.822	99.25
442.043	83.25
442.264	100.25
442.486	84.25
442.707	75.25
442.928	85.25
443.149	89.25
443.371	85.25
443.592	90.25
443.813	89.25
444.034	94.25
444.255	89.25
444.476	80.25
444.698	91.25
444.919	88.25
445.14	142.25
445.361	107.25
445.582	84.25
445.803	74.25
446.024	70.25
446.245	99.25
446.466	88.25
446.687	72.25
446.908	89.25
447.129	76.25
447.35	83.25
447.571	79.25
447.792	76.25
448.013	86.25
448.234	96.25
448.455	68.25
448.675	82.25
448.896	76.25
449.117	83.25
449.338	80.25
449.559	87.25
449.779	94.25
450	79.25
450.221	85.25
450.442	84.25
450.662	84.25
450.883	79.25
451.104	97.25
451.324	83.25
451.545	77.25
451.766	84.25
451.986	81.25
452.207	88.25
452.428	96.25
452.648	88.25
452.869	75.25
453.089	82.25
453.31	62.25
453.53	75.25
453.751	97.25
453.971	83.25
454.192	85.25
454.412	84.25
454.633	97.25
454.853	74.25
455.073	83.25
455.294	72.25
455.514	86.25
455.734	76.25
455.955	82.25
456.175	83.25
456.395	76.25
456.616	83.25
456.836	79.25
457.056	69.25
457.276	71.25
457.497	94.25
457.717	78.25
457.937	77.25
458.157	76.25
458.377	85.25
458.598	77.25
458.818	83.25
459.038	74.25
459.258	89.25
459.478	83.25
459.698	82.25
459.918	78.25
460.138	70.25
460.358	75.25
460.578	82.25
460.798	82.25
461.018	83.25
461.238	77.25
461.458	92.25
461.678	72.25
461.898	95.25
462.118	80.25
462.338	82.25
462.558	87.25
462.777	94.25
462.997	91.25
463.217	72.25
463.437	88.25
463.657	84.25
463.876	92.25
464.096	85.25
464.316	72.25
464.536	83.25
464.755	96.25
464.975	87.25
465.195	87.25
465.414	71.25
465.634	89.25
465.854	79.25
466.073	80.25
466.293	80.25
466.512	92.25
466.732	82.25
466.951	84.25
467.171	80.25
467.391	69.25
467.61	86.25
467.829	72.25
468.049	83.25
468.268	83.25
468.488	86.25
468.707	71.25
468.927	78.25
469.146	74.25
469.365	88.25
469.585	89.25
469.804	82.25
470.023	83.25
470.243	84.25
470.462	100.25
470.681	83.25
470.901	81.25
471.12	89.25
471.339	74.25
471.558	73.25
471.777	79.25
471.997	83.25
472.216	83.25
472.435	90.25
472.654	85.25
472.873	90.25
473.092	75.25
473.311	79.25
473.53	91.25
473.749	78.25
473.968	82.25
474.187	77.25
474.406	75.25
474.625	74.25
474.844	79.25
475.063	82.25
475.282	84.25
475.501	84.25
475.72	86.25
475.939	77.25
476.158	76.25
476.377	88.25
476.596	93.25
476.814	82.25
477.033	90.25
477.252	70.25
477.471	76.25
477.69	83.25
477.908	82.25
478.127	86.25
478.346	86.25
478.564	90.25
478.783	73.25
479.002	71.25
479.22	70.25
479.439	79.25
479.658	66.25
479.876	79.25
480.095	82.25
480.313	72.25
480.532	66.25
480.751	100.25
480.969	86.25
481.188	88.25
481.406	83.25
481.624	80.25
481.843	72.25
482.061	83.25
482.28	74.25
482.498	94.25
482.717	80.25
482.935	100.25
483.153	80.25
483.372	72.25
483.59	81.25
483.808	76.25
484.027	97.25
484.245	94.25
484.463	82.25
484.681	85.25
484.9	76.25
485.118	73.25
485.336	69.25
485.554	91.25
485.772	77.25
485.99	82.25
486.209	80.25
486.427	85.25
486.645	75.25
486.863	86.25
487.081	85.25
487.299	78.25
487.517	78.25
487.735	100.25
487.953	78.25
488.171	73.25
488.389	75.25
488.607	90.25
488.825	70.25
489.043	91.25
489.261	88.25
489.479	72.25
489.696	88.25
489.914	103.25
490.132	68.25
490.35	86.25
490.568	83.25
490.786	82.25
491.003	83.25
491.221	80.25
491.439	87.25
491.657	88.25
491.874	67.25
492.092	80.25
492.31	90.25
492.527	97.25
492.745	83.25
492.963	85.25
493.18	76.25
493.398	86.25
493.615	77.25
493.833	80.25
494.05	77.25
494.268	72.25
494.485	86.25
494.703	83.25
494.92	73.25
495.138	75.25
495.355	100.25
495.573	74.25
495.79	90.25
496.008	88.25
496.225	71.25
496.442	71.25
496.66	91.25
496.877	77.25
497.094	87.25
497.312	63.25
497.529	83.25
497.746	90.25
497.963	87.25
498.181	75.25
498.398	75.25
498.615	94.25
498.832	74.25
499.049	88.25
499.267	99.25
499.484	79.25
499.701	91.25
499.918	63.25
500.135	81.25
500.352	74.25
500.569	93.25
500.786	84.25
501.003	84.25
501.22	87.25
501.437	75.25
501.654	82.25
501.871	86.25
502.088	90.25
502.305	82.25
502.522	82.25
502.739	82.25
502.956	89.25
503.172	87.25
503.389	96.25
503.606	91.25
503.823	88.25
504.04	89.25
504.256	77.25
504.473	77.25
504.69	87.25
504.907	90.25
505.123	83.25
505.34	89.25
505.557	81.25
505.773	82.25
505.99	82.25
506.207	86.25
506.423	87.25
506.64	78.25
506.856	74.25
507.073	81.25
507.289	76.25
507.506	86.25
507.722	78.25
507.939	78.25
508.155	84.25
508.372	88.25
508.588	82.25
508.805	70.25
509.021	85.25
509.238	86.25
509.454	62.25
509.67	80.25
509.887	86.25
510.103	90.25
510.319	87.25
510.536	75.25
510.752	86.25
510.968	81.25
511.184	96.25
511.401	84.25
511.617	96.25
511.833	82.25
512.049	80.25
512.265	102.25
512.481	86.25
512.698	80.25
512.914	86.25
513.13	94.25
513.346	76.25
513.562	86.25
513.778	83.25
513.994	73.25
514.21	76.25
514.426	83.25
514.642	82.25
514.858	75.25
515.074	86.25
515.29	84.25
515.506	94.25
515.721	83.25
515.937	77.25
516.153	86.25
516.369	87.25
516.585	96.25
516.801	56.25
517.016	72.25
517.232	94.25
517.448	94.25
517.664	69.25
517.879	91.25
518.095	82.25
518.311	90.25
518.527	77.25
518.742	88.25
518.958	84.25
519.173	71.25
519.389	74.25
519.605	82.25
519.82	86.25
520.036	80.25
520.251	92.25
520.467	81.25
520.682	62.25
520.898	90.25
521.113	62.25
521.329	81.25
521.544	87.25
521.76	79.25
521.975	92.25
522.19	86.25
522.406	72.25
522.621	77.25
522.836	77.25
523.052	80.25
523.267	83.25
523.482	82.25
523.698	84.25
523.913	87.25
524.128	84.25
524.343	73.25
524.559	75.25
524.774	97.25
524.989	90.25
525.204	73.25
525.419	75.25
525.634	68.25
525.849	86.25
526.064	82.25
526.28	96.25
526.495	79.25
526.71	91.25
526.925	82.25
527.14	73.25
527.355	94.25
527.57	75.25
527.785	94.25
527.999	102.25
528.214	75.25
528.429	80.25
528.644	94.25
528.859	87.25
529.074	82.25
529.289	77.25
529.503	78.25
529.718	72.25
529.933	82.25
530.148	82.25
530.363	86.25
530.577	79.25
530.792	94.25
531.007	80.25
531.221	84.25
531.436	90.25
531.651	92.25
531.865	76.25
532.08	76.25
532.295	79.25
532.509	83.25
532.724	80.25
532.938	80.25
533.153	79.25
533.367	74.25
533.582	93.25
533.796	81.25
534.011	95.25
534.225	79.25
534.44	100.25
534.654	82.25
534.868	83.25
535.083	85.25
535.297	82.25
535.511	70.25
535.726	73.25
535.94	78.25
536.154	92.25
536.369	85.25
536.583	82.25
536.797	88.25
537.011	80.25
537.225	87.25
537.44	87.25
537.654	90.25
537.868	74.25
538.082	81.25
538.296	80.25
538.51	86.25
538.724	87.25
538.938	81.25
539.153	100.25
539.367	81.25
539.581	93.25
539.795	89.25
540.009	71.25
540.222	86.25
540.436	80.25
540.65	81.25
540.864	80.25
541.078	82.25
541.292	83.25
541.506	101.25
541.72	84.25
541.934	94.25
542.147	91.25
542.361	80.25
542.575	78.25
542.789	91.25
543.002	94.25
543.216	87.25
543.43	86.25
543.644	73.25
543.857	83.25
544.071	76.25
544.285	87.25
544.498	80.25
544.712	81.25
544.925	85.25
545.139	80.25
545.352	108.25
545.566	85.25
545.779	84.25
545.993	73.25
546.206	72.25
546.42	95.25
546.633	81.25
546.847	97.25
547.06	91.25
547.274	70.25
547.487	67.25
547.7	81.25
547.914	81.25
548.127	80.25
548.34	77.25
548.554	84.25
548.767	98.25
548.98	77.25
549.193	101.25
549.407	83.25
549.62	71.25
549.833	77.25
550.046	84.25
550.259	93.25
550.473	84.25
550.686	76.25
550.899	78.25
551.112	95.25
551.325	87.25
551.538	84.25
551.751	80.25
551.964	82.25
552.177	87.25
552.39	88.25
552.603	96.25
552.816	92.25
553.029	80.25
553.242	85.25
553.455	86.25
553.667	82.25
553.88	81.25
554.093	94.25
554.306	97.25
554.519	91.25
554.732	79.25
554.944	89.25
555.157	85.25
555.37	73.25
555.583	73.25
555.795	86.25
556.008	87.25
556.221	81.25
556.433	66.25
556.646	87.25
556.859	77.25
557.071	80.25
557.284	83.25
557.496	95.25
557.709	84.25
557.921	103.25
558.134	78.25
558.346	84.25
558.559	83.25
558.771	76.25
558.984	93.25
559.196	86.25
559.409	76.25
559.621	80.25
559.833	70.25
560.046	81.25
560.258	73.25
560.47	92.25
560.683	80.25
560.895	76.25
561.107	78.25
561.32	76.25
561.532	78.25
561.744	83.25
561.956	83.25
562.168	97.25
562.381	75.25
562.593	91.25
562.805	95.25
563.017	87.25
563.229	84.25
563.441	87.25
563.653	88.25
563.865	69.25
564.077	89.25
564.289	82.25
564.501	95.25
564.713	88.25
564.925	88.25
565.137	83.25
565.349	76.25
565.561	76.25
565.773	88.25
565.985	78.25
566.197	76.25
566.408	104.25
566.62	90.25
566.832	102.25
567.044	86.25
567.255	79.25
567.467	99.25
567.679	82.25
567.891	72.25
568.102	91.25
568.314	76.25
568.526	86.25
568.737	83.25
568.949	86.25
569.161	78.25
569.372	87.25
569.584	86.25
569.795	85.25
570.007	106.25
570.218	87.25
570.43	82.25
570.641	78.25
570.853	75.25
571.064	78.25
571.276	95.25
571.487	83.25
571.698	80.25
571.91	77.25
572.121	94.25
572.333	77.25
572.544	84.25
572.755	80.25
572.966	97.25
573.178	100.25
573.389	80.25
573.6	91.25
573.811	71.25
574.023	76.25
574.234	71.25
574.445	79.25
574.656	80.25
574.867	83.25
575.078	80.25
575.289	83.25
575.501	90.25
575.712	95.25
575.923	89.25
576.134	84.25
576.345	83.25
576.556	101.25
576.767	93.25
576.978	86.25
577.188	91.25
577.399	74.25
577.61	72.25
577.821	71.25
578.032	78.25
578.243	83.25
578.454	88.25
578.665	86.25
578.875	83.25
579.086	76.25
579.297	81.25
579.508	84.25
579.718	84.25
579.929	88.25
580.14	82.25
580.35	94.25
580.561	104.25
580.772	83.25
580.982	94.25
581.193	77.25
581.403	85.25
581.614	79.25
581.825	77.25
582.035	73.25
582.246	77.25
582.456	87.25
582.667	88.25
582.877	64.25
583.087	82.25
583.298	84.25
583.508	83.25
583.719	82.25
583.929	76.25
584.139	95.25
584.35	94.25
584.56	83.25
584.77	97.25
584.981	87.25
585.191	94.25
585.401	74.25
585.611	81.25
585.821	90.25
586.032	91.25
586.242	76.25
586.452	84.25
586.662	74.25
586.872	80.25
587.082	94.25
587.292	87.25
587.502	91.25
587.713	86.25
587.923	89.25
588.133	94.25
588.343	84.25
588.553	84.25
588.762	107.25
588.972	114.25
589.182	168.25
589.392	118.25
589.602	126.25
589.812	135.25
590.022	133.25
590.232	89.25
590.441	75.25
590.651	89.25
590.861	96.25
591.071	82.25
591.281	87.25
591.49	80.25
591.7	92.25
591.91	80.25
592.119	89.25
592.329	96.25
592.539	90.25
592.748	86.25
592.958	90.25
593.167	86.25
593.377	82.25
593.587	92.25
593.796	97.25
594.006	94.25
594.215	91.25
594.424	100.25
594.634	81.25
594.843	69.25
595.053	94.25
595.262	90.25
595.472	63.25
595.681	86.25
595.89	91.25
596.1	76.25
596.309	85.25
596.518	82.25
596.727	87.25
596.937	85.25
597.146	91.25
597.355	84.25
597.564	87.25
597.774	78.25
597.983	97.25
598.192	88.25
598.401	72.25
598.61	69.25
598.819	85.25
599.028	88.25
599.237	91.25
599.446	91.25
599.655	96.25
599.864	95.25
600.073	95.25
600.282	96.25
600.491	82.25
600.7	82.25
600.909	80.25
601.118	86.25
601.327	88.25
601.536	81.25
601.745	100.25
601.953	88.25
602.162	90.25
602.371	89.25
602.58	90.25
602.789	95.25
602.997	81.25
603.206	98.25
603.415	84.25
603.623	86.25
603.832	74.25
604.041	75.25
604.249	76.25
604.458	80.25
604.666	74.25
604.875	80.25
605.084	86.25
605.292	79.25
605.501	77.25
605.709	85.25
605.918	91.25
606.126	95.25
606.334	90.25
606.543	80.25
606.751	72.25
606.96	90.25
607.168	70.25
607.376	83.25
607.585	89.25
607.793	67.25
608.001	94.25
608.21	76.25
608.418	80.25
608.626	84.25
608.834	97.25
609.043	85.25
609.251	88.25
609.459	86.25
609.667	92.25
609.875	83.25
610.083	81.25
610.291	75.25
610.499	86.25
610.707	91.25
610.916	84.25
611.124	86.25
611.332	87.25
611.54	83.25
611.748	83.25
611.955	76.25
612.163	82.25
612.371	88.25
612.579	87.25
612.787	80.25
612.995	75.25
613.203	82.25
613.411	76.25
613.618	98.25
613.826	92.25
614.034	98.25
614.242	83.25
614.449	82.25
614.657	82.25
614.865	83.25
615.072	94.25
615.28	87.25
615.488	76.25
615.695	73.25
615.903	94.25
616.111	84.25
616.318	84.25
616.526	91.25
616.733	73.25
616.941	80.25
617.148	76.25
617.356	85.25
617.563	84.25
617.771	85.25
617.978	81.25
618.185	87.25
618.393	83.25
618.6	96.25
618.807	82.25
619.015	83.25
619.222	89.25
619.429	86.25
619.637	88.25
619.844	83.25
620.051	82.25
620.258	81.25
620.466	87.25
620.673	90.25
620.88	74.25
621.087	77.25
621.294	82.25
621.501	86.25
621.708	82.25
621.915	73.25
622.122	91.25
622.329	99.25
622.536	88.25
622.743	82.25
622.95	81.25
623.157	94.25
623.364	98.25
623.571	94.25
623.778	95.25
623.985	83.25
624.192	86.25
624.399	88.25
624.606	88.25
624.812	96.25
625.019	88.25
625.226	92.25
625.433	83.25
625.639	77.25
625.846	79.25
626.053	100.25
626.259	84.25
626.466	85.25
626.673	88.25
626.879	89.25
627.086	96.25
627.293	88.25
627.499	83.25
627.706	86.25
627.912	69.25
628.119	87.25
628.325	85.25
628.532	93.25
628.738	90.25
628.945	76.25
629.151	86.25
629.357	86.25
629.564	77.25
629.77	88.25
629.976	80.25
630.183	75.25
630.389	76.25
630.595	89.25
630.802	85.25
631.008	83.25
631.214	71.25
631.42	80.25
631.627	86.25
631.833	99.25
632.039	78.25
632.245	82.25
632.451	88.25
632.657	88.25
632.863	74.25
633.069	92.25
633.275	86.25
633.481	82.25
633.688	87.25
633.893	86.25
634.099	79.25
634.305	85.25
634.511	91.25
634.717	99.25
634.923	103.25
635.129	82.25
635.335	73.25
635.541	88.25
635.747	75.25
635.952	88.25
636.158	81.25
636.364	82.25
636.57	84.25
636.775	92.25
636.981	78.25
637.187	91.25
637.392	76.25
637.598	86.25
637.804	85.25
638.009	74.25
638.215	86.25
638.421	88.25
638.626	87.25
638.832	98.25
639.037	86.25
639.243	88.25
639.448	82.25
639.654	76.25
639.859	88.25
640.065	72.25
640.27	82.25
640.475	88.25
640.681	99.25
640.886	87.25
641.091	86.25
641.297	92.25
641.502	86.25
641.707	75.25
641.913	97.25
642.118	95.25
642.323	80.25
642.528	87.25
642.733	80.25
642.939	90.25
643.144	96.25
643.349	96.25
643.554	86.25
643.759	91.25
643.964	91.25
644.169	85.25
644.374	86.25
644.579	77.25
644.784	89.25
644.989	98.25
645.194	79.25
645.399	88.25
645.604	76.25
645.809	82.25
646.014	60.25
646.219	91.25
646.423	86.25
646.628	89.25
646.833	96.25
647.038	83.25
647.243	89.25
647.447	77.25
647.652	96.25
647.857	77.25
648.062	85.25
648.266	96.25
648.471	89.25
648.676	104.25
648.88	78.25
649.085	90.25
649.289	80.25
649.494	84.25
649.698	97.25
649.903	95.25
650.107	86.25
650.312	84.25
650.516	101.25
650.721	74.25
650.925	91.25
651.13	92.25
651.334	79.25
651.539	84.25
651.743	76.25
651.947	74.25
652.152	87.25
652.356	74.25
652.56	98.25
652.764	86.25
652.969	74.25
653.173	79.25
653.377	86.25
653.581	73.25
653.785	73.25
653.99	78.25
654.194	77.25
654.398	86.25
654.602	80.25
654.806	85.25
655.01	85.25
655.214	89.25
655.418	93.25
655.622	99.25
655.826	78.25
656.03	84.25
656.234	90.25
656.438	73.25
656.642	91.25
656.846	83.25
657.049	79.25
657.253	102.25
657.457	77.25
657.661	88.25
657.865	94.25
658.068	73.25
658.272	83.25
658.476	79.25
658.68	87.25
658.883	83.25
659.087	92.25
659.291	85.25
659.494	78.25
659.698	91.25
659.901	87.25
660.105	80.25
660.309	76.25
660.512	96.25
660.716	88.25
660.919	78.25
661.123	85.25
661.326	81.25
661.53	99.25
661.733	75.25
661.936	77.25
662.14	87.25
662.343	88.25
662.546	77.25
662.75	95.25
662.953	91.25
663.156	79.25
663.36	89.25
663.563	82.25
663.766	76.25
663.969	84.25
664.173	85.25
664.376	94.25
664.579	80.25
664.782	76.25
664.985	82.25
665.188	89.25
665.391	90.25
665.594	72.25
665.797	82.25
666	76.25
666.203	83.25
666.406	83.25
666.609	78.25
666.812	80.25
667.015	78.25
667.218	88.25
667.421	103.25
667.624	82.25
667.827	75.25
668.03	74.25
668.232	82.25
668.435	88.25
668.638	98.25
668.841	87.25
669.043	89.25
669.246	85.25
669.449	87.25
669.651	74.25
669.854	82.25
670.057	75.25
670.259	78.25
670.462	96.25
670.665	76.25
670.867	86.25
671.07	89.25
671.272	71.25
671.475	80.25
671.677	82.25
671.88	72.25
672.082	87.25
672.284	85.25
672.487	91.25
672.689	100.25
672.892	93.25
