Data from Lead_15_1_HRD10591_00139.txt Node
Date: Fri Feb 20 11:06:15 EST 2026
User: Yrep
Spectrometer: HR+D1059
Trigger mode: 1
Integration Time (sec): 1.000000E-1
Scans to average: 1
Electric dark correction enabled: true
Nonlinearity correction enabled: false
Boxcar width: 0
XAxis mode: Wavelengths
Number of Pixels in Spectrum: 2048
>>>>>Begin Spectral Data<<<<<
223.165	0.31
223.4	0.31
223.635	0.31
223.869	-23.69
224.104	-30.69
224.338	-14.69
224.573	-19.69
224.808	-13.69
225.042	-0.69
225.277	-1.69
225.511	0.31
225.746	-6.69
225.98	4.31
226.215	10.31
226.449	9.31
226.683	14.31
226.918	19.31
227.152	53.31
227.387	40.31
227.621	41.31
227.856	28.31
228.09	52.31
228.324	59.31
228.559	64.31
228.793	66.31
229.027	55.31
229.262	56.31
229.496	83.31
229.73	84.31
229.964	72.31
230.199	85.31
230.433	92.31
230.667	88.31
230.901	78.31
231.136	84.31
231.37	95.31
231.604	71.31
231.838	101.31
232.072	95.31
232.306	58.31
232.541	82.31
232.775	88.31
233.009	73.31
233.243	75.31
233.477	71.31
233.711	81.31
233.945	78.31
234.179	78.31
234.413	82.31
234.647	80.31
234.881	94.31
235.115	81.31
235.349	84.31
235.583	67.31
235.817	87.31
236.051	83.31
236.285	70.31
236.519	73.31
236.753	87.31
236.987	86.31
237.221	97.31
237.455	59.31
237.689	68.31
237.922	80.31
238.156	85.31
238.39	82.31
238.624	75.31
238.858	82.31
239.091	74.31
239.325	75.31
239.559	92.31
239.793	73.31
240.027	75.31
240.26	90.31
240.494	90.31
240.728	82.31
240.961	76.31
241.195	84.31
241.429	79.31
241.662	83.31
241.896	87.31
242.13	85.31
242.363	69.31
242.597	78.31
242.83	88.31
243.064	67.31
243.298	74.31
243.531	70.31
243.765	77.31
243.998	80.31
244.232	79.31
244.465	72.31
244.699	80.31
244.932	92.31
245.166	77.31
245.399	70.31
245.633	86.31
245.866	77.31
246.099	72.31
246.333	68.31
246.566	73.31
246.8	88.31
247.033	84.31
247.266	78.31
247.5	87.31
247.733	70.31
247.966	77.31
248.2	78.31
248.433	91.31
248.666	85.31
248.899	98.31
249.133	92.31
249.366	71.31
249.599	79.31
249.832	71.31
250.066	85.31
250.299	78.31
250.532	84.31
250.765	86.31
250.998	66.31
251.231	84.31
251.465	65.31
251.698	71.31
251.931	81.31
252.164	80.31
252.397	85.31
252.63	78.31
252.863	73.31
253.096	60.31
253.329	58.31
253.562	79.31
253.795	79.31
254.028	79.31
254.261	75.31
254.494	74.31
254.727	87.31
254.96	89.31
255.193	72.31
255.426	95.31
255.659	81.31
255.892	74.31
256.124	73.31
256.357	75.31
256.59	77.31
256.823	78.31
257.056	82.31
257.289	87.31
257.521	73.31
257.754	82.31
257.987	78.31
258.22	82.31
258.452	84.31
258.685	82.31
258.918	78.31
259.151	88.31
259.383	85.31
259.616	84.31
259.849	90.31
260.081	84.31
260.314	102.31
260.547	97.31
260.779	74.31
261.012	86.31
261.244	79.31
261.477	86.31
261.71	86.31
261.942	97.31
262.175	82.31
262.407	90.31
262.64	92.31
262.872	92.31
263.105	92.31
263.337	89.31
263.57	84.31
263.802	78.31
264.035	64.31
264.267	88.31
264.499	78.31
264.732	88.31
264.964	72.31
265.197	80.31
265.429	73.31
265.661	80.31
265.894	82.31
266.126	94.31
266.358	89.31
266.591	77.31
266.823	77.31
267.055	71.31
267.287	87.31
267.52	84.31
267.752	92.31
267.984	87.31
268.216	74.31
268.448	91.31
268.681	90.31
268.913	85.31
269.145	91.31
269.377	75.31
269.609	57.31
269.841	84.31
270.073	92.31
270.306	90.31
270.538	81.31
270.77	86.31
271.002	76.31
271.234	90.31
271.466	68.31
271.698	83.31
271.93	89.31
272.162	88.31
272.394	86.31
272.626	71.31
272.858	76.31
273.09	82.31
273.322	78.31
273.553	88.31
273.785	78.31
274.017	92.31
274.249	103.31
274.481	84.31
274.713	91.31
274.945	80.31
275.176	83.31
275.408	71.31
275.64	85.31
275.872	93.31
276.104	85.31
276.335	80.31
276.567	89.31
276.799	88.31
277.031	89.31
277.262	76.31
277.494	88.31
277.726	81.31
277.957	83.31
278.189	91.31
278.421	90.31
278.652	86.31
278.884	81.31
279.115	78.31
279.347	76.31
279.579	81.31
279.81	90.31
280.042	86.31
280.273	84.31
280.505	82.31
280.736	91.31
280.968	96.31
281.199	85.31
281.431	88.31
281.662	86.31
281.894	72.31
282.125	74.31
282.356	92.31
282.588	77.31
282.819	84.31
283.051	74.31
283.282	75.31
283.513	86.31
283.745	86.31
283.976	73.31
284.207	84.31
284.439	82.31
284.67	85.31
284.901	83.31
285.132	69.31
285.364	92.31
285.595	88.31
285.826	83.31
286.057	66.31
286.288	88.31
286.52	74.31
286.751	74.31
286.982	94.31
287.213	73.31
287.444	70.31
287.675	83.31
287.906	89.31
288.138	82.31
288.369	93.31
288.6	77.31
288.831	75.31
289.062	83.31
289.293	64.31
289.524	89.31
289.755	78.31
289.986	94.31
290.217	92.31
290.448	83.31
290.679	78.31
290.91	96.31
291.141	81.31
291.371	80.31
291.602	92.31
291.833	88.31
292.064	85.31
292.295	78.31
292.526	88.31
292.757	86.31
292.987	82.31
293.218	84.31
293.449	74.31
293.68	85.31
293.91	90.31
294.141	98.31
294.372	78.31
294.603	108.31
294.833	84.31
295.064	86.31
295.295	76.31
295.525	79.31
295.756	94.31
295.987	90.31
296.217	84.31
296.448	77.31
296.679	86.31
296.909	100.31
297.14	69.31
297.37	83.31
297.601	97.31
297.831	84.31
298.062	93.31
298.292	88.31
298.523	93.31
298.753	89.31
298.984	83.31
299.214	88.31
299.445	81.31
299.675	92.31
299.905	72.31
300.136	96.31
300.366	59.31
300.597	76.31
300.827	86.31
301.057	94.31
301.288	82.31
301.518	91.31
301.748	79.31
301.979	93.31
302.209	85.31
302.439	98.31
302.669	82.31
302.9	92.31
303.13	76.31
303.36	93.31
303.59	85.31
303.82	84.31
304.051	85.31
304.281	86.31
304.511	105.31
304.741	99.31
304.971	90.31
305.201	85.31
305.431	84.31
305.661	70.31
305.891	87.31
306.121	81.31
306.352	77.31
306.582	78.31
306.812	85.31
307.042	92.31
307.272	84.31
307.502	85.31
307.731	84.31
307.961	89.31
308.191	85.31
308.421	89.31
308.651	94.31
308.881	88.31
309.111	94.31
309.341	91.31
309.571	77.31
309.8	86.31
310.03	81.31
310.26	82.31
310.49	81.31
310.72	92.31
310.949	81.31
311.179	73.31
311.409	92.31
311.639	82.31
311.868	98.31
312.098	83.31
312.328	82.31
312.557	101.31
312.787	89.31
313.017	95.31
313.246	90.31
313.476	76.31
313.706	90.31
313.935	71.31
314.165	90.31
314.394	90.31
314.624	78.31
314.853	86.31
315.083	83.31
315.312	76.31
315.542	82.31
315.771	90.31
316.001	86.31
316.23	89.31
316.46	101.31
316.689	86.31
316.919	91.31
317.148	88.31
317.377	92.31
317.607	86.31
317.836	86.31
318.065	81.31
318.295	82.31
318.524	92.31
318.753	75.31
318.983	94.31
319.212	85.31
319.441	84.31
319.67	87.31
319.9	81.31
320.129	85.31
320.358	92.31
320.587	93.31
320.816	94.31
321.046	99.31
321.275	88.31
321.504	93.31
321.733	90.31
321.962	90.31
322.191	89.31
322.42	88.31
322.649	88.31
322.878	87.31
323.108	93.31
323.337	87.31
323.566	92.31
323.795	81.31
324.024	75.31
324.253	84.31
324.482	76.31
324.71	70.31
324.939	85.31
325.168	85.31
325.397	89.31
325.626	92.31
325.855	82.31
326.084	85.31
326.313	78.31
326.542	66.31
326.77	84.31
326.999	88.31
327.228	81.31
327.457	86.31
327.686	89.31
327.914	96.31
328.143	98.31
328.372	78.31
328.6	75.31
328.829	82.31
329.058	102.31
329.287	78.31
329.515	90.31
329.744	93.31
329.972	85.31
330.201	89.31
330.43	90.31
330.658	86.31
330.887	86.31
331.115	85.31
331.344	88.31
331.572	104.31
331.801	92.31
332.03	94.31
332.258	89.31
332.486	90.31
332.715	89.31
332.943	96.31
333.172	84.31
333.4	91.31
333.629	93.31
333.857	84.31
334.085	81.31
334.314	92.31
334.542	79.31
334.771	72.31
334.999	88.31
335.227	80.31
335.455	79.31
335.684	76.31
335.912	94.31
336.14	88.31
336.369	105.31
336.597	77.31
336.825	77.31
337.053	88.31
337.281	75.31
337.51	76.31
337.738	98.31
337.966	78.31
338.194	85.31
338.422	83.31
338.65	88.31
338.878	74.31
339.106	84.31
339.334	90.31
339.562	81.31
339.79	89.31
340.018	83.31
340.246	94.31
340.474	85.31
340.702	84.31
340.93	70.31
341.158	89.31
341.386	77.31
341.614	100.31
341.842	82.31
342.07	93.31
342.298	74.31
342.526	92.31
342.754	84.31
342.981	85.31
343.209	102.31
343.437	97.31
343.665	100.31
343.893	74.31
344.12	86.31
344.348	101.31
344.576	85.31
344.804	94.31
345.031	93.31
345.259	86.31
345.487	86.31
345.714	82.31
345.942	79.31
346.17	79.31
346.397	80.31
346.625	93.31
346.853	88.31
347.08	85.31
347.308	84.31
347.535	80.31
347.763	89.31
347.99	100.31
348.218	92.31
348.445	95.31
348.673	86.31
348.9	75.31
349.128	88.31
349.355	79.31
349.583	80.31
349.81	79.31
350.037	80.31
350.265	79.31
350.492	75.31
350.72	90.31
350.947	82.31
351.174	78.31
351.402	99.31
351.629	78.31
351.856	84.31
352.083	87.31
352.311	84.31
352.538	86.31
352.765	99.31
352.992	97.31
353.22	86.31
353.447	79.31
353.674	102.31
353.901	79.31
354.128	92.31
354.355	82.31
354.583	78.31
354.81	92.31
355.037	86.31
355.264	80.31
355.491	82.31
355.718	65.31
355.945	88.31
356.172	85.31
356.399	90.31
356.626	81.31
356.853	87.31
357.08	79.31
357.307	86.31
357.534	82.31
357.761	83.31
357.988	82.31
358.215	84.31
358.441	74.31
358.668	76.31
358.895	91.31
359.122	85.31
359.349	80.31
359.576	94.31
359.802	95.31
360.029	84.31
360.256	86.31
360.483	89.31
360.709	80.31
360.936	92.31
361.163	85.31
361.39	83.31
361.616	73.31
361.843	84.31
362.07	94.31
362.296	80.31
362.523	89.31
362.749	88.31
362.976	81.31
363.203	91.31
363.429	94.31
363.656	86.31
363.882	88.31
364.109	94.31
364.335	95.31
364.562	84.31
364.788	85.31
365.015	80.31
365.241	99.31
365.468	91.31
365.694	77.31
365.92	85.31
366.147	86.31
366.373	78.31
366.599	87.31
366.826	80.31
367.052	96.31
367.278	80.31
367.505	96.31
367.731	97.31
367.957	87.31
368.184	82.31
368.41	84.31
368.636	79.31
368.862	82.31
369.089	92.31
369.315	73.31
369.541	98.31
369.767	101.31
369.993	78.31
370.219	75.31
370.445	87.31
370.672	77.31
370.898	76.31
371.124	71.31
371.35	89.31
371.576	83.31
371.802	72.31
372.028	77.31
372.254	83.31
372.48	82.31
372.706	74.31
372.932	81.31
373.158	87.31
373.384	92.31
373.61	86.31
373.835	85.31
374.061	84.31
374.287	77.31
374.513	84.31
374.739	78.31
374.965	86.31
375.191	94.31
375.416	85.31
375.642	95.31
375.868	90.31
376.094	63.31
376.319	72.31
376.545	82.31
376.771	98.31
376.997	86.31
377.222	92.31
377.448	84.31
377.674	96.31
377.899	88.31
378.125	88.31
378.35	84.31
378.576	75.31
378.802	84.31
379.027	100.31
379.253	83.31
379.478	82.31
379.704	81.31
379.929	79.31
380.155	87.31
380.38	92.31
380.606	76.31
380.831	87.31
381.057	84.31
381.282	88.31
381.507	77.31
381.733	79.31
381.958	84.31
382.184	86.31
382.409	74.31
382.634	89.31
382.86	85.31
383.085	89.31
383.31	89.31
383.535	98.31
383.761	96.31
383.986	86.31
384.211	94.31
384.436	87.31
384.662	78.31
384.887	79.31
385.112	78.31
385.337	91.31
385.562	84.31
385.787	72.31
386.013	86.31
386.238	86.31
386.463	89.31
386.688	90.31
386.913	79.31
387.138	68.31
387.363	83.31
387.588	91.31
387.813	93.31
388.038	78.31
388.263	84.31
388.488	70.31
388.713	72.31
388.938	115.31
389.163	84.31
389.387	97.31
389.612	105.31
389.837	80.31
390.062	78.31
390.287	93.31
390.512	72.31
390.736	76.31
390.961	76.31
391.186	78.31
391.411	92.31
391.636	87.31
391.86	88.31
392.085	88.31
392.31	75.31
392.534	79.31
392.759	72.31
392.984	74.31
393.208	77.31
393.433	81.31
393.658	76.31
393.882	98.31
394.107	85.31
394.331	86.31
394.556	97.31
394.78	81.31
395.005	75.31
395.229	69.31
395.454	78.31
395.678	83.31
395.903	80.31
396.127	94.31
396.352	89.31
396.576	83.31
396.801	83.31
397.025	82.31
397.249	69.31
397.474	93.31
397.698	96.31
397.922	91.31
398.147	69.31
398.371	93.31
398.595	99.31
398.82	88.31
399.044	103.31
399.268	84.31
399.492	79.31
399.717	78.31
399.941	79.31
400.165	76.31
400.389	76.31
400.613	88.31
400.837	78.31
401.062	90.31
401.286	84.31
401.51	81.31
401.734	90.31
401.958	85.31
402.182	84.31
402.406	84.31
402.63	91.31
402.854	91.31
403.078	94.31
403.302	86.31
403.526	96.31
403.75	97.31
403.974	79.31
404.198	72.31
404.422	85.31
404.645	93.31
404.869	84.31
405.093	88.31
405.317	68.31
405.541	88.31
405.765	97.31
405.988	80.31
406.212	78.31
406.436	83.31
406.66	82.31
406.883	77.31
407.107	89.31
407.331	92.31
407.555	81.31
407.778	91.31
408.002	89.31
408.226	82.31
408.449	100.31
408.673	73.31
408.896	91.31
409.12	89.31
409.344	90.31
409.567	75.31
409.791	81.31
410.014	94.31
410.238	79.31
410.461	85.31
410.685	75.31
410.908	87.31
411.132	73.31
411.355	77.31
411.578	76.31
411.802	85.31
412.025	72.31
412.249	78.31
412.472	82.31
412.695	84.31
412.919	73.31
413.142	80.31
413.365	65.31
413.589	79.31
413.812	76.31
414.035	92.31
414.258	90.31
414.482	77.31
414.705	78.31
414.928	85.31
415.151	77.31
415.374	85.31
415.597	72.31
415.821	93.31
416.044	74.31
416.267	66.31
416.49	88.31
416.713	89.31
416.936	87.31
417.159	93.31
417.382	84.31
417.605	90.31
417.828	87.31
418.051	70.31
418.274	96.31
418.497	82.31
418.72	73.31
418.943	91.31
419.166	91.31
419.389	84.31
419.611	76.31
419.834	78.31
420.057	84.31
420.28	85.31
420.503	75.31
420.726	73.31
420.948	78.31
421.171	76.31
421.394	87.31
421.617	83.31
421.839	89.31
422.062	84.31
422.285	84.31
422.507	90.31
422.73	86.31
422.953	96.31
423.175	74.31
423.398	64.31
423.621	82.31
423.843	84.31
424.066	78.31
424.288	86.31
424.511	92.31
424.733	86.31
424.956	79.31
425.178	80.31
425.401	80.31
425.623	81.31
425.846	84.31
426.068	89.31
426.291	79.31
426.513	78.31
426.735	89.31
426.958	91.31
427.18	81.31
427.402	83.31
427.625	88.31
427.847	75.31
428.069	84.31
428.292	70.31
428.514	92.31
428.736	98.31
428.958	85.31
429.181	82.31
429.403	71.31
429.625	80.31
429.847	78.31
430.069	83.31
430.292	88.31
430.514	85.31
430.736	83.31
430.958	97.31
431.18	84.31
431.402	76.31
431.624	70.31
431.846	81.31
432.068	86.31
432.29	76.31
432.512	92.31
432.734	75.31
432.956	91.31
433.178	80.31
433.4	81.31
433.622	97.31
433.844	68.31
434.066	80.31
434.287	82.31
434.509	80.31
434.731	76.31
434.953	82.31
435.175	84.31
435.397	83.31
435.618	88.31
435.84	76.31
436.062	82.31
436.284	83.31
436.505	85.31
436.727	99.31
436.949	92.31
437.17	86.31
437.392	84.31
437.614	73.31
437.835	75.31
438.057	92.31
438.278	94.31
438.5	83.31
438.721	72.31
438.943	75.31
439.165	83.31
439.386	87.31
439.608	84.31
439.829	74.31
440.05	84.31
440.272	89.31
440.493	69.31
440.715	82.31
440.936	84.31
441.158	82.31
441.379	91.31
441.6	74.31
441.822	83.31
442.043	87.31
442.264	85.31
442.486	81.31
442.707	83.31
442.928	84.31
443.149	86.31
443.371	83.31
443.592	90.31
443.813	69.31
444.034	78.31
444.255	93.31
444.476	80.31
444.698	86.31
444.919	80.31
445.14	151.31
445.361	113.31
445.582	81.31
445.803	93.31
446.024	84.31
446.245	83.31
446.466	88.31
446.687	95.31
446.908	102.31
447.129	81.31
447.35	84.31
447.571	81.31
447.792	85.31
448.013	72.31
448.234	90.31
448.455	89.31
448.675	90.31
448.896	77.31
449.117	83.31
449.338	72.31
449.559	96.31
449.779	78.31
450	89.31
450.221	83.31
450.442	90.31
450.662	77.31
450.883	91.31
451.104	92.31
451.324	78.31
451.545	88.31
451.766	75.31
451.986	84.31
452.207	88.31
452.428	86.31
452.648	96.31
452.869	72.31
453.089	85.31
453.31	78.31
453.53	79.31
453.751	84.31
453.971	80.31
454.192	89.31
454.412	80.31
454.633	75.31
454.853	77.31
455.073	88.31
455.294	92.31
455.514	84.31
455.734	91.31
455.955	69.31
456.175	80.31
456.395	75.31
456.616	87.31
456.836	76.31
457.056	65.31
457.276	68.31
457.497	78.31
457.717	92.31
457.937	87.31
458.157	104.31
458.377	84.31
458.598	71.31
458.818	82.31
459.038	93.31
459.258	86.31
459.478	93.31
459.698	85.31
459.918	81.31
460.138	89.31
460.358	83.31
460.578	68.31
460.798	81.31
461.018	77.31
461.238	73.31
461.458	77.31
461.678	82.31
461.898	96.31
462.118	87.31
462.338	91.31
462.558	90.31
462.777	82.31
462.997	80.31
463.217	84.31
463.437	86.31
463.657	81.31
463.876	82.31
464.096	85.31
464.316	82.31
464.536	81.31
464.755	98.31
464.975	99.31
465.195	89.31
465.414	85.31
465.634	88.31
465.854	82.31
466.073	89.31
466.293	77.31
466.512	70.31
466.732	85.31
466.951	118.31
467.171	92.31
467.391	82.31
467.61	86.31
467.829	89.31
468.049	92.31
468.268	66.31
468.488	82.31
468.707	91.31
468.927	80.31
469.146	77.31
469.365	89.31
469.585	81.31
469.804	88.31
470.023	73.31
470.243	93.31
470.462	90.31
470.681	81.31
470.901	66.31
471.12	85.31
471.339	88.31
471.558	84.31
471.777	78.31
471.997	78.31
472.216	82.31
472.435	78.31
472.654	90.31
472.873	87.31
473.092	83.31
473.311	93.31
473.53	78.31
473.749	71.31
473.968	74.31
474.187	91.31
474.406	92.31
474.625	89.31
474.844	84.31
475.063	79.31
475.282	74.31
475.501	77.31
475.72	83.31
475.939	96.31
476.158	74.31
476.377	83.31
476.596	92.31
476.814	97.31
477.033	101.31
477.252	72.31
477.471	76.31
477.69	77.31
477.908	89.31
478.127	82.31
478.346	81.31
478.564	84.31
478.783	85.31
479.002	72.31
479.22	75.31
479.439	91.31
479.658	75.31
479.876	76.31
480.095	87.31
480.313	87.31
480.532	92.31
480.751	92.31
480.969	82.31
481.188	71.31
481.406	89.31
481.624	104.31
481.843	87.31
482.061	65.31
482.28	92.31
482.498	85.31
482.717	84.31
482.935	69.31
483.153	76.31
483.372	84.31
483.59	93.31
483.808	68.31
484.027	100.31
484.245	83.31
484.463	82.31
484.681	100.31
484.9	91.31
485.118	96.31
485.336	89.31
485.554	92.31
485.772	85.31
485.99	90.31
486.209	74.31
486.427	74.31
486.645	88.31
486.863	82.31
487.081	86.31
487.299	96.31
487.517	90.31
487.735	86.31
487.953	88.31
488.171	71.31
488.389	84.31
488.607	86.31
488.825	87.31
489.043	68.31
489.261	76.31
489.479	80.31
489.696	77.31
489.914	94.31
490.132	85.31
490.35	91.31
490.568	79.31
490.786	77.31
491.003	73.31
491.221	81.31
491.439	84.31
491.657	76.31
491.874	85.31
492.092	98.31
492.31	88.31
492.527	60.31
492.745	84.31
492.963	98.31
493.18	96.31
493.398	82.31
493.615	92.31
493.833	90.31
494.05	96.31
494.268	76.31
494.485	87.31
494.703	71.31
494.92	67.31
495.138	79.31
495.355	80.31
495.573	86.31
495.79	86.31
496.008	83.31
496.225	77.31
496.442	78.31
496.66	96.31
496.877	86.31
497.094	99.31
497.312	93.31
497.529	91.31
497.746	79.31
497.963	98.31
498.181	79.31
498.398	84.31
498.615	92.31
498.832	82.31
499.049	79.31
499.267	86.31
499.484	83.31
499.701	95.31
499.918	74.31
500.135	67.31
500.352	86.31
500.569	92.31
500.786	85.31
501.003	81.31
501.22	97.31
501.437	97.31
501.654	77.31
501.871	74.31
502.088	89.31
502.305	81.31
502.522	82.31
502.739	90.31
502.956	85.31
503.172	86.31
503.389	81.31
503.606	81.31
503.823	78.31
504.04	100.31
504.256	78.31
504.473	72.31
504.69	82.31
504.907	83.31
505.123	90.31
505.34	80.31
505.557	84.31
505.773	87.31
505.99	97.31
506.207	86.31
506.423	79.31
506.64	94.31
506.856	70.31
507.073	96.31
507.289	67.31
507.506	83.31
507.722	75.31
507.939	78.31
508.155	86.31
508.372	89.31
508.588	78.31
508.805	77.31
509.021	86.31
509.238	108.31
509.454	92.31
509.67	89.31
509.887	68.31
510.103	76.31
510.319	81.31
510.536	107.31
510.752	96.31
510.968	86.31
511.184	86.31
511.401	96.31
511.617	78.31
511.833	100.31
512.049	80.31
512.265	75.31
512.481	84.31
512.698	74.31
512.914	82.31
513.13	86.31
513.346	76.31
513.562	90.31
513.778	82.31
513.994	84.31
514.21	84.31
514.426	94.31
514.642	82.31
514.858	82.31
515.074	88.31
515.29	77.31
515.506	85.31
515.721	76.31
515.937	81.31
516.153	79.31
516.369	79.31
516.585	99.31
516.801	81.31
517.016	96.31
517.232	81.31
517.448	95.31
517.664	99.31
517.879	87.31
518.095	87.31
518.311	78.31
518.527	93.31
518.742	96.31
518.958	86.31
519.173	91.31
519.389	104.31
519.605	80.31
519.82	80.31
520.036	68.31
520.251	92.31
520.467	81.31
520.682	86.31
520.898	84.31
521.113	82.31
521.329	83.31
521.544	78.31
521.76	79.31
521.975	79.31
522.19	81.31
522.406	82.31
522.621	90.31
522.836	85.31
523.052	74.31
523.267	92.31
523.482	79.31
523.698	84.31
523.913	78.31
524.128	90.31
524.343	74.31
524.559	74.31
524.774	83.31
524.989	94.31
525.204	87.31
525.419	85.31
525.634	88.31
525.849	95.31
526.064	92.31
526.28	82.31
526.495	76.31
526.71	91.31
526.925	76.31
527.14	85.31
527.355	87.31
527.57	85.31
527.785	78.31
527.999	82.31
528.214	76.31
528.429	77.31
528.644	83.31
528.859	84.31
529.074	83.31
529.289	98.31
529.503	81.31
529.718	93.31
529.933	72.31
530.148	84.31
530.363	91.31
530.577	101.31
530.792	95.31
531.007	92.31
531.221	84.31
531.436	85.31
531.651	86.31
531.865	80.31
532.08	84.31
532.295	103.31
532.509	76.31
532.724	80.31
532.938	85.31
533.153	72.31
533.367	91.31
533.582	94.31
533.796	78.31
534.011	88.31
534.225	91.31
534.44	78.31
534.654	82.31
534.868	89.31
535.083	90.31
535.297	95.31
535.511	86.31
535.726	90.31
535.94	85.31
536.154	74.31
536.369	97.31
536.583	101.31
536.797	92.31
537.011	81.31
537.225	92.31
537.44	78.31
537.654	86.31
537.868	81.31
538.082	87.31
538.296	106.31
538.51	101.31
538.724	106.31
538.938	88.31
539.153	95.31
539.367	96.31
539.581	77.31
539.795	80.31
540.009	82.31
540.222	89.31
540.436	100.31
540.65	100.31
540.864	87.31
541.078	77.31
541.292	85.31
541.506	77.31
541.72	82.31
541.934	87.31
542.147	67.31
542.361	85.31
542.575	99.31
542.789	99.31
543.002	91.31
543.216	78.31
543.43	81.31
543.644	88.31
543.857	84.31
544.071	87.31
544.285	98.31
544.498	94.31
544.712	82.31
544.925	89.31
545.139	70.31
545.352	82.31
545.566	97.31
545.779	87.31
545.993	79.31
546.206	89.31
546.42	84.31
546.633	86.31
546.847	95.31
547.06	88.31
547.274	82.31
547.487	109.31
547.7	84.31
547.914	96.31
548.127	112.31
548.34	87.31
548.554	88.31
548.767	74.31
548.98	92.31
549.193	77.31
549.407	78.31
549.62	87.31
549.833	104.31
550.046	87.31
550.259	91.31
550.473	84.31
550.686	87.31
550.899	92.31
551.112	88.31
551.325	98.31
551.538	79.31
551.751	84.31
551.964	88.31
552.177	96.31
552.39	90.31
552.603	88.31
552.816	80.31
553.029	92.31
553.242	82.31
553.455	92.31
553.667	90.31
553.88	93.31
554.093	91.31
554.306	107.31
554.519	88.31
554.732	89.31
554.944	87.31
555.157	100.31
555.37	97.31
555.583	86.31
555.795	89.31
556.008	97.31
556.221	71.31
556.433	85.31
556.646	78.31
556.859	92.31
557.071	90.31
557.284	82.31
557.496	98.31
557.709	82.31
557.921	81.31
558.134	82.31
558.346	97.31
558.559	90.31
558.771	90.31
558.984	88.31
559.196	93.31
559.409	91.31
559.621	87.31
559.833	92.31
560.046	74.31
560.258	96.31
560.47	85.31
560.683	82.31
560.895	99.31
561.107	84.31
561.32	75.31
561.532	90.31
561.744	103.31
561.956	84.31
562.168	91.31
562.381	89.31
562.593	76.31
562.805	83.31
563.017	92.31
563.229	91.31
563.441	78.31
563.653	85.31
563.865	84.31
564.077	85.31
564.289	90.31
564.501	77.31
564.713	88.31
564.925	82.31
565.137	76.31
565.349	79.31
565.561	91.31
565.773	90.31
565.985	95.31
566.197	94.31
566.408	73.31
566.62	76.31
566.832	92.31
567.044	79.31
567.255	84.31
567.467	84.31
567.679	76.31
567.891	96.31
568.102	86.31
568.314	78.31
568.526	83.31
568.737	84.31
568.949	81.31
569.161	82.31
569.372	88.31
569.584	79.31
569.795	74.31
570.007	88.31
570.218	84.31
570.43	105.31
570.641	74.31
570.853	88.31
571.064	91.31
571.276	92.31
571.487	90.31
571.698	84.31
571.91	84.31
572.121	94.31
572.333	99.31
572.544	94.31
572.755	93.31
572.966	90.31
573.178	96.31
573.389	94.31
573.6	96.31
573.811	78.31
574.023	81.31
574.234	72.31
574.445	82.31
574.656	82.31
574.867	81.31
575.078	88.31
575.289	78.31
575.501	70.31
575.712	93.31
575.923	93.31
576.134	95.31
576.345	78.31
576.556	86.31
576.767	74.31
576.978	92.31
577.188	98.31
577.399	86.31
577.61	86.31
577.821	81.31
578.032	103.31
578.243	82.31
578.454	76.31
578.665	77.31
578.875	93.31
579.086	87.31
579.297	86.31
579.508	92.31
579.718	87.31
579.929	81.31
580.14	77.31
580.35	76.31
580.561	78.31
580.772	83.31
580.982	86.31
581.193	99.31
581.403	74.31
581.614	89.31
581.825	92.31
582.035	79.31
582.246	70.31
582.456	76.31
582.667	86.31
582.877	84.31
583.087	88.31
583.298	88.31
583.508	88.31
583.719	81.31
583.929	76.31
584.139	76.31
584.35	86.31
584.56	88.31
584.77	114.31
584.981	73.31
585.191	73.31
585.401	86.31
585.611	79.31
585.821	89.31
586.032	90.31
586.242	93.31
586.452	96.31
586.662	96.31
586.872	89.31
587.082	104.31
587.292	82.31
587.502	96.31
587.713	84.31
587.923	86.31
588.133	93.31
588.343	90.31
588.553	97.31
588.762	83.31
588.972	98.31
589.182	101.31
589.392	92.31
589.602	88.31
589.812	93.31
590.022	84.31
590.232	87.31
590.441	90.31
590.651	84.31
590.861	87.31
591.071	75.31
591.281	98.31
591.49	89.31
591.7	82.31
591.91	87.31
592.119	90.31
592.329	78.31
592.539	82.31
592.748	102.31
592.958	86.31
593.167	79.31
593.377	92.31
593.587	86.31
593.796	70.31
594.006	79.31
594.215	92.31
594.424	88.31
594.634	90.31
594.843	82.31
595.053	93.31
595.262	76.31
595.472	86.31
595.681	82.31
595.89	84.31
596.1	90.31
596.309	94.31
596.518	90.31
596.727	101.31
596.937	98.31
597.146	75.31
597.355	88.31
597.564	74.31
597.774	89.31
597.983	91.31
598.192	85.31
598.401	88.31
598.61	86.31
598.819	96.31
599.028	78.31
599.237	98.31
599.446	94.31
599.655	85.31
599.864	80.31
600.073	86.31
600.282	92.31
600.491	95.31
600.7	77.31
600.909	85.31
601.118	93.31
601.327	76.31
601.536	84.31
601.745	81.31
601.953	85.31
602.162	94.31
602.371	91.31
602.58	82.31
602.789	77.31
602.997	88.31
603.206	87.31
603.415	90.31
603.623	85.31
603.832	82.31
604.041	72.31
604.249	91.31
604.458	93.31
604.666	82.31
604.875	90.31
605.084	87.31
605.292	77.31
605.501	77.31
605.709	80.31
605.918	73.31
606.126	70.31
606.334	88.31
606.543	91.31
606.751	105.31
606.96	95.31
607.168	84.31
607.376	96.31
607.585	72.31
607.793	86.31
608.001	79.31
608.21	89.31
608.418	90.31
608.626	79.31
608.834	78.31
609.043	94.31
609.251	69.31
609.459	83.31
609.667	96.31
609.875	77.31
610.083	80.31
610.291	79.31
610.499	88.31
610.707	77.31
610.916	79.31
611.124	77.31
611.332	88.31
611.54	95.31
611.748	100.31
611.955	76.31
612.163	77.31
612.371	97.31
612.579	83.31
612.787	95.31
612.995	89.31
613.203	86.31
613.411	89.31
613.618	83.31
613.826	92.31
614.034	88.31
614.242	85.31
614.449	88.31
614.657	70.31
614.865	85.31
615.072	81.31
615.28	82.31
615.488	79.31
615.695	83.31
615.903	86.31
616.111	82.31
616.318	81.31
616.526	83.31
616.733	74.31
616.941	84.31
617.148	82.31
617.356	80.31
617.563	93.31
617.771	83.31
617.978	90.31
618.185	85.31
618.393	88.31
618.6	75.31
618.807	87.31
619.015	92.31
619.222	101.31
619.429	88.31
619.637	86.31
619.844	66.31
620.051	92.31
620.258	91.31
620.466	71.31
620.673	73.31
620.88	81.31
621.087	81.31
621.294	88.31
621.501	82.31
621.708	87.31
621.915	81.31
622.122	86.31
622.329	75.31
622.536	97.31
622.743	84.31
622.95	99.31
623.157	80.31
623.364	78.31
623.571	86.31
623.778	70.31
623.985	77.31
624.192	85.31
624.399	104.31
624.606	96.31
624.812	85.31
625.019	94.31
625.226	100.31
625.433	85.31
625.639	82.31
625.846	89.31
626.053	86.31
626.259	84.31
626.466	78.31
626.673	80.31
626.879	85.31
627.086	86.31
627.293	93.31
627.499	78.31
627.706	85.31
627.912	90.31
628.119	72.31
628.325	77.31
628.532	88.31
628.738	87.31
628.945	86.31
629.151	87.31
629.357	82.31
629.564	77.31
629.77	79.31
629.976	74.31
630.183	91.31
630.389	92.31
630.595	84.31
630.802	93.31
631.008	78.31
631.214	82.31
631.42	81.31
631.627	92.31
631.833	90.31
632.039	74.31
632.245	76.31
632.451	93.31
632.657	85.31
632.863	85.31
633.069	89.31
633.275	90.31
633.481	87.31
633.688	66.31
633.893	79.31
634.099	82.31
634.305	76.31
634.511	82.31
634.717	83.31
634.923	88.31
635.129	90.31
635.335	85.31
635.541	79.31
635.747	87.31
635.952	64.31
636.158	78.31
636.364	93.31
636.57	90.31
636.775	71.31
636.981	90.31
637.187	76.31
637.392	80.31
637.598	71.31
637.804	88.31
638.009	98.31
638.215	81.31
638.421	71.31
638.626	78.31
638.832	90.31
639.037	91.31
639.243	100.31
639.448	86.31
639.654	81.31
639.859	82.31
640.065	95.31
640.27	96.31
640.475	88.31
640.681	79.31
640.886	78.31
641.091	89.31
641.297	78.31
641.502	85.31
641.707	101.31
641.913	85.31
642.118	82.31
642.323	90.31
642.528	78.31
642.733	90.31
642.939	92.31
643.144	99.31
643.349	83.31
643.554	85.31
643.759	92.31
643.964	78.31
644.169	92.31
644.374	81.31
644.579	86.31
644.784	80.31
644.989	74.31
645.194	91.31
645.399	92.31
645.604	89.31
645.809	84.31
646.014	82.31
646.219	99.31
646.423	83.31
646.628	82.31
646.833	91.31
647.038	83.31
647.243	94.31
647.447	86.31
647.652	78.31
647.857	88.31
648.062	97.31
648.266	74.31
648.471	83.31
648.676	82.31
648.88	79.31
649.085	85.31
649.289	89.31
649.494	77.31
649.698	96.31
649.903	87.31
650.107	86.31
650.312	75.31
650.516	84.31
650.721	78.31
650.925	93.31
651.13	82.31
651.334	84.31
651.539	78.31
651.743	79.31
651.947	77.31
652.152	92.31
652.356	88.31
652.56	83.31
652.764	82.31
652.969	81.31
653.173	74.31
653.377	80.31
653.581	94.31
653.785	76.31
653.99	83.31
654.194	85.31
654.398	91.31
654.602	85.31
654.806	76.31
655.01	76.31
655.214	78.31
655.418	73.31
655.622	87.31
655.826	84.31
656.03	78.31
656.234	96.31
656.438	82.31
656.642	74.31
656.846	90.31
657.049	90.31
657.253	83.31
657.457	73.31
657.661	88.31
657.865	84.31
658.068	69.31
658.272	81.31
658.476	86.31
658.68	86.31
658.883	93.31
659.087	80.31
659.291	86.31
659.494	101.31
659.698	88.31
659.901	92.31
660.105	103.31
660.309	83.31
660.512	74.31
660.716	88.31
660.919	90.31
661.123	97.31
661.326	84.31
661.53	75.31
661.733	76.31
661.936	89.31
662.14	91.31
662.343	77.31
662.546	69.31
662.75	95.31
662.953	71.31
663.156	88.31
663.36	94.31
663.563	87.31
663.766	84.31
663.969	100.31
664.173	89.31
664.376	93.31
664.579	96.31
664.782	88.31
664.985	65.31
665.188	62.31
665.391	86.31
665.594	86.31
665.797	92.31
666	92.31
666.203	88.31
666.406	88.31
666.609	89.31
666.812	87.31
667.015	83.31
667.218	87.31
667.421	100.31
667.624	76.31
667.827	82.31
668.03	92.31
668.232	79.31
668.435	91.31
668.638	86.31
668.841	78.31
669.043	85.31
669.246	69.31
669.449	83.31
669.651	78.31
669.854	84.31
670.057	88.31
670.259	83.31
670.462	87.31
670.665	83.31
670.867	81.31
671.07	90.31
671.272	81.31
671.475	90.31
671.677	84.31
671.88	76.31
672.082	75.31
672.284	74.31
672.487	88.31
672.689	92.31
672.892	84.31
