Data from Lead_15_1_HRD10591_00060.txt Node
Date: Fri Feb 20 11:05:48 EST 2026
User: Yrep
Spectrometer: HR+D1059
Trigger mode: 1
Integration Time (sec): 1.000000E-1
Scans to average: 1
Electric dark correction enabled: true
Nonlinearity correction enabled: false
Boxcar width: 0
XAxis mode: Wavelengths
Number of Pixels in Spectrum: 2048
>>>>>Begin Spectral Data<<<<<
223.165	-25.12
223.4	-25.12
223.635	-25.12
223.869	-18.12
224.104	-17.12
224.338	-17.12
224.573	-12.12
224.808	-9.12
225.042	-12.12
225.277	-2.12
225.511	9.88
225.746	4.88
225.98	7.88
226.215	6.88
226.449	9.88
226.683	29.88
226.918	29.88
227.152	13.88
227.387	38.88
227.621	31.88
227.856	38.88
228.09	39.88
228.324	50.88
228.559	66.88
228.793	44.88
229.027	59.88
229.262	70.88
229.496	65.88
229.73	69.88
229.964	70.88
230.199	69.88
230.433	74.88
230.667	72.88
230.901	73.88
231.136	86.88
231.37	80.88
231.604	70.88
231.838	90.88
232.072	76.88
232.306	78.88
232.541	83.88
232.775	88.88
233.009	69.88
233.243	80.88
233.477	89.88
233.711	87.88
233.945	78.88
234.179	71.88
234.413	83.88
234.647	79.88
234.881	60.88
235.115	80.88
235.349	78.88
235.583	68.88
235.817	73.88
236.051	74.88
236.285	81.88
236.519	72.88
236.753	76.88
236.987	76.88
237.221	73.88
237.455	73.88
237.689	81.88
237.922	78.88
238.156	80.88
238.39	76.88
238.624	65.88
238.858	84.88
239.091	92.88
239.325	75.88
239.559	82.88
239.793	72.88
240.027	78.88
240.26	70.88
240.494	74.88
240.728	65.88
240.961	61.88
241.195	79.88
241.429	73.88
241.662	67.88
241.896	84.88
242.13	83.88
242.363	82.88
242.597	72.88
242.83	65.88
243.064	86.88
243.298	80.88
243.531	81.88
243.765	79.88
243.998	68.88
244.232	78.88
244.465	77.88
244.699	69.88
244.932	71.88
245.166	75.88
245.399	73.88
245.633	87.88
245.866	70.88
246.099	76.88
246.333	84.88
246.566	87.88
246.8	72.88
247.033	85.88
247.266	77.88
247.5	67.88
247.733	77.88
247.966	65.88
248.2	76.88
248.433	74.88
248.666	86.88
248.899	94.88
249.133	90.88
249.366	92.88
249.599	71.88
249.832	61.88
250.066	85.88
250.299	76.88
250.532	82.88
250.765	80.88
250.998	73.88
251.231	69.88
251.465	64.88
251.698	72.88
251.931	77.88
252.164	80.88
252.397	62.88
252.63	81.88
252.863	72.88
253.096	64.88
253.329	78.88
253.562	81.88
253.795	69.88
254.028	85.88
254.261	74.88
254.494	93.88
254.727	90.88
254.96	80.88
255.193	71.88
255.426	84.88
255.659	84.88
255.892	77.88
256.124	70.88
256.357	80.88
256.59	73.88
256.823	81.88
257.056	76.88
257.289	83.88
257.521	81.88
257.754	84.88
257.987	75.88
258.22	85.88
258.452	80.88
258.685	74.88
258.918	80.88
259.151	89.88
259.383	81.88
259.616	74.88
259.849	91.88
260.081	79.88
260.314	72.88
260.547	78.88
260.779	78.88
261.012	86.88
261.244	82.88
261.477	86.88
261.71	73.88
261.942	86.88
262.175	72.88
262.407	92.88
262.64	94.88
262.872	94.88
263.105	88.88
263.337	78.88
263.57	88.88
263.802	82.88
264.035	82.88
264.267	77.88
264.499	77.88
264.732	91.88
264.964	80.88
265.197	73.88
265.429	91.88
265.661	92.88
265.894	83.88
266.126	75.88
266.358	67.88
266.591	101.88
266.823	82.88
267.055	85.88
267.287	72.88
267.52	76.88
267.752	80.88
267.984	77.88
268.216	83.88
268.448	90.88
268.681	98.88
268.913	84.88
269.145	87.88
269.377	87.88
269.609	78.88
269.841	81.88
270.073	83.88
270.306	78.88
270.538	71.88
270.77	86.88
271.002	80.88
271.234	73.88
271.466	87.88
271.698	88.88
271.93	78.88
272.162	92.88
272.394	87.88
272.626	72.88
272.858	77.88
273.09	88.88
273.322	84.88
273.553	98.88
273.785	96.88
274.017	83.88
274.249	71.88
274.481	79.88
274.713	84.88
274.945	86.88
275.176	80.88
275.408	78.88
275.64	80.88
275.872	83.88
276.104	79.88
276.335	71.88
276.567	90.88
276.799	83.88
277.031	90.88
277.262	98.88
277.494	87.88
277.726	78.88
277.957	84.88
278.189	100.88
278.421	86.88
278.652	82.88
278.884	75.88
279.115	88.88
279.347	80.88
279.579	78.88
279.81	91.88
280.042	95.88
280.273	84.88
280.505	79.88
280.736	91.88
280.968	91.88
281.199	89.88
281.431	80.88
281.662	91.88
281.894	89.88
282.125	81.88
282.356	84.88
282.588	85.88
282.819	88.88
283.051	79.88
283.282	77.88
283.513	64.88
283.745	77.88
283.976	86.88
284.207	91.88
284.439	100.88
284.67	81.88
284.901	86.88
285.132	85.88
285.364	92.88
285.595	70.88
285.826	80.88
286.057	78.88
286.288	82.88
286.52	75.88
286.751	76.88
286.982	73.88
287.213	83.88
287.444	81.88
287.675	75.88
287.906	80.88
288.138	86.88
288.369	97.88
288.6	88.88
288.831	81.88
289.062	85.88
289.293	86.88
289.524	78.88
289.755	73.88
289.986	72.88
290.217	71.88
290.448	88.88
290.679	86.88
290.91	89.88
291.141	87.88
291.371	87.88
291.602	79.88
291.833	73.88
292.064	82.88
292.295	78.88
292.526	84.88
292.757	71.88
292.987	86.88
293.218	81.88
293.449	102.88
293.68	89.88
293.91	80.88
294.141	96.88
294.372	77.88
294.603	84.88
294.833	84.88
295.064	84.88
295.295	81.88
295.525	82.88
295.756	79.88
295.987	94.88
296.217	90.88
296.448	87.88
296.679	88.88
296.909	96.88
297.14	82.88
297.37	70.88
297.601	86.88
297.831	88.88
298.062	63.88
298.292	82.88
298.523	86.88
298.753	78.88
298.984	73.88
299.214	76.88
299.445	66.88
299.675	82.88
299.905	100.88
300.136	79.88
300.366	88.88
300.597	98.88
300.827	89.88
301.057	81.88
301.288	82.88
301.518	72.88
301.748	94.88
301.979	98.88
302.209	82.88
302.439	93.88
302.669	88.88
302.9	78.88
303.13	85.88
303.36	73.88
303.59	99.88
303.82	82.88
304.051	74.88
304.281	80.88
304.511	93.88
304.741	74.88
304.971	79.88
305.201	84.88
305.431	89.88
305.661	85.88
305.891	83.88
306.121	91.88
306.352	78.88
306.582	78.88
306.812	86.88
307.042	86.88
307.272	79.88
307.502	94.88
307.731	71.88
307.961	84.88
308.191	86.88
308.421	82.88
308.651	79.88
308.881	81.88
309.111	81.88
309.341	97.88
309.571	94.88
309.8	87.88
310.03	88.88
310.26	85.88
310.49	89.88
310.72	93.88
310.949	83.88
311.179	82.88
311.409	102.88
311.639	96.88
311.868	85.88
312.098	86.88
312.328	82.88
312.557	73.88
312.787	78.88
313.017	83.88
313.246	88.88
313.476	85.88
313.706	69.88
313.935	94.88
314.165	88.88
314.394	75.88
314.624	79.88
314.853	93.88
315.083	98.88
315.312	90.88
315.542	80.88
315.771	80.88
316.001	83.88
316.23	88.88
316.46	79.88
316.689	79.88
316.919	91.88
317.148	69.88
317.377	95.88
317.607	88.88
317.836	82.88
318.065	95.88
318.295	88.88
318.524	83.88
318.753	87.88
318.983	86.88
319.212	74.88
319.441	97.88
319.67	92.88
319.9	85.88
320.129	90.88
320.358	81.88
320.587	74.88
320.816	76.88
321.046	83.88
321.275	68.88
321.504	88.88
321.733	83.88
321.962	88.88
322.191	96.88
322.42	74.88
322.649	77.88
322.878	72.88
323.108	78.88
323.337	78.88
323.566	75.88
323.795	98.88
324.024	93.88
324.253	86.88
324.482	86.88
324.71	91.88
324.939	86.88
325.168	82.88
325.397	75.88
325.626	88.88
325.855	79.88
326.084	70.88
326.313	107.88
326.542	93.88
326.77	78.88
326.999	74.88
327.228	82.88
327.457	78.88
327.686	75.88
327.914	78.88
328.143	86.88
328.372	88.88
328.6	87.88
328.829	97.88
329.058	91.88
329.287	84.88
329.515	72.88
329.744	89.88
329.972	62.88
330.201	87.88
330.43	89.88
330.658	80.88
330.887	80.88
331.115	92.88
331.344	92.88
331.572	84.88
331.801	79.88
332.03	76.88
332.258	93.88
332.486	70.88
332.715	70.88
332.943	68.88
333.172	77.88
333.4	84.88
333.629	86.88
333.857	74.88
334.085	75.88
334.314	78.88
334.542	82.88
334.771	78.88
334.999	77.88
335.227	75.88
335.455	90.88
335.684	103.88
335.912	94.88
336.14	72.88
336.369	89.88
336.597	80.88
336.825	89.88
337.053	76.88
337.281	68.88
337.51	83.88
337.738	70.88
337.966	82.88
338.194	73.88
338.422	85.88
338.65	91.88
338.878	85.88
339.106	72.88
339.334	84.88
339.562	89.88
339.79	93.88
340.018	76.88
340.246	70.88
340.474	76.88
340.702	85.88
340.93	90.88
341.158	94.88
341.386	93.88
341.614	72.88
341.842	75.88
342.07	73.88
342.298	89.88
342.526	79.88
342.754	84.88
342.981	92.88
343.209	78.88
343.437	106.88
343.665	82.88
343.893	72.88
344.12	80.88
344.348	66.88
344.576	70.88
344.804	87.88
345.031	81.88
345.259	70.88
345.487	90.88
345.714	82.88
345.942	80.88
346.17	69.88
346.397	86.88
346.625	84.88
346.853	79.88
347.08	81.88
347.308	64.88
347.535	84.88
347.763	68.88
347.99	81.88
348.218	74.88
348.445	73.88
348.673	81.88
348.9	77.88
349.128	82.88
349.355	93.88
349.583	84.88
349.81	84.88
350.037	96.88
350.265	80.88
350.492	84.88
350.72	72.88
350.947	85.88
351.174	86.88
351.402	87.88
351.629	89.88
351.856	68.88
352.083	75.88
352.311	76.88
352.538	77.88
352.765	69.88
352.992	97.88
353.22	86.88
353.447	74.88
353.674	88.88
353.901	92.88
354.128	93.88
354.355	69.88
354.583	96.88
354.81	78.88
355.037	81.88
355.264	82.88
355.491	84.88
355.718	88.88
355.945	71.88
356.172	85.88
356.399	82.88
356.626	82.88
356.853	81.88
357.08	83.88
357.307	96.88
357.534	76.88
357.761	75.88
357.988	73.88
358.215	89.88
358.441	82.88
358.668	80.88
358.895	83.88
359.122	86.88
359.349	79.88
359.576	74.88
359.802	84.88
360.029	84.88
360.256	100.88
360.483	88.88
360.709	85.88
360.936	81.88
361.163	68.88
361.39	76.88
361.616	91.88
361.843	98.88
362.07	80.88
362.296	83.88
362.523	75.88
362.749	78.88
362.976	81.88
363.203	86.88
363.429	78.88
363.656	77.88
363.882	95.88
364.109	71.88
364.335	106.88
364.562	97.88
364.788	75.88
365.015	77.88
365.241	93.88
365.468	71.88
365.694	71.88
365.92	86.88
366.147	85.88
366.373	85.88
366.599	78.88
366.826	83.88
367.052	74.88
367.278	85.88
367.505	84.88
367.731	88.88
367.957	76.88
368.184	78.88
368.41	91.88
368.636	68.88
368.862	75.88
369.089	91.88
369.315	74.88
369.541	85.88
369.767	88.88
369.993	75.88
370.219	67.88
370.445	89.88
370.672	64.88
370.898	68.88
371.124	80.88
371.35	88.88
371.576	66.88
371.802	75.88
372.028	82.88
372.254	62.88
372.48	84.88
372.706	73.88
372.932	77.88
373.158	82.88
373.384	72.88
373.61	85.88
373.835	80.88
374.061	73.88
374.287	80.88
374.513	84.88
374.739	84.88
374.965	85.88
375.191	71.88
375.416	76.88
375.642	78.88
375.868	73.88
376.094	82.88
376.319	95.88
376.545	86.88
376.771	82.88
376.997	86.88
377.222	87.88
377.448	82.88
377.674	72.88
377.899	80.88
378.125	84.88
378.35	81.88
378.576	78.88
378.802	79.88
379.027	97.88
379.253	87.88
379.478	72.88
379.704	87.88
379.929	80.88
380.155	73.88
380.38	82.88
380.606	98.88
380.831	79.88
381.057	95.88
381.282	97.88
381.507	86.88
381.733	93.88
381.958	66.88
382.184	62.88
382.409	85.88
382.634	93.88
382.86	84.88
383.085	85.88
383.31	84.88
383.535	86.88
383.761	92.88
383.986	90.88
384.211	84.88
384.436	85.88
384.662	90.88
384.887	85.88
385.112	73.88
385.337	78.88
385.562	79.88
385.787	80.88
386.013	89.88
386.238	85.88
386.463	93.88
386.688	117.88
386.913	84.88
387.138	74.88
387.363	80.88
387.588	74.88
387.813	85.88
388.038	87.88
388.263	83.88
388.488	83.88
388.713	68.88
388.938	77.88
389.163	82.88
389.387	84.88
389.612	81.88
389.837	96.88
390.062	69.88
390.287	76.88
390.512	82.88
390.736	99.88
390.961	77.88
391.186	72.88
391.411	64.88
391.636	81.88
391.86	86.88
392.085	64.88
392.31	76.88
392.534	72.88
392.759	79.88
392.984	88.88
393.208	93.88
393.433	84.88
393.658	70.88
393.882	91.88
394.107	73.88
394.331	81.88
394.556	81.88
394.78	70.88
395.005	73.88
395.229	77.88
395.454	79.88
395.678	59.88
395.903	84.88
396.127	84.88
396.352	87.88
396.576	82.88
396.801	84.88
397.025	84.88
397.249	84.88
397.474	75.88
397.698	80.88
397.922	83.88
398.147	84.88
398.371	70.88
398.595	82.88
398.82	76.88
399.044	96.88
399.268	91.88
399.492	76.88
399.717	82.88
399.941	92.88
400.165	89.88
400.389	83.88
400.613	87.88
400.837	79.88
401.062	83.88
401.286	69.88
401.51	95.88
401.734	90.88
401.958	74.88
402.182	75.88
402.406	75.88
402.63	78.88
402.854	74.88
403.078	80.88
403.302	77.88
403.526	68.88
403.75	94.88
403.974	90.88
404.198	74.88
404.422	61.88
404.645	90.88
404.869	84.88
405.093	73.88
405.317	60.88
405.541	93.88
405.765	104.88
405.988	78.88
406.212	84.88
406.436	81.88
406.66	82.88
406.883	63.88
407.107	73.88
407.331	65.88
407.555	79.88
407.778	93.88
408.002	78.88
408.226	85.88
408.449	79.88
408.673	85.88
408.896	74.88
409.12	86.88
409.344	68.88
409.567	82.88
409.791	86.88
410.014	94.88
410.238	84.88
410.461	84.88
410.685	69.88
410.908	85.88
411.132	90.88
411.355	74.88
411.578	88.88
411.802	82.88
412.025	73.88
412.249	73.88
412.472	81.88
412.695	82.88
412.919	80.88
413.142	62.88
413.365	63.88
413.589	82.88
413.812	83.88
414.035	84.88
414.258	83.88
414.482	93.88
414.705	80.88
414.928	82.88
415.151	85.88
415.374	73.88
415.597	84.88
415.821	80.88
416.044	77.88
416.267	78.88
416.49	76.88
416.713	68.88
416.936	73.88
417.159	86.88
417.382	85.88
417.605	83.88
417.828	72.88
418.051	76.88
418.274	85.88
418.497	92.88
418.72	70.88
418.943	84.88
419.166	85.88
419.389	80.88
419.611	77.88
419.834	99.88
420.057	82.88
420.28	78.88
420.503	96.88
420.726	77.88
420.948	74.88
421.171	87.88
421.394	82.88
421.617	77.88
421.839	80.88
422.062	88.88
422.285	85.88
422.507	88.88
422.73	81.88
422.953	80.88
423.175	81.88
423.398	75.88
423.621	85.88
423.843	88.88
424.066	83.88
424.288	84.88
424.511	80.88
424.733	81.88
424.956	89.88
425.178	69.88
425.401	76.88
425.623	75.88
425.846	89.88
426.068	81.88
426.291	83.88
426.513	80.88
426.735	82.88
426.958	79.88
427.18	75.88
427.402	78.88
427.625	96.88
427.847	81.88
428.069	73.88
428.292	74.88
428.514	82.88
428.736	72.88
428.958	67.88
429.181	64.88
429.403	82.88
429.625	76.88
429.847	85.88
430.069	80.88
430.292	72.88
430.514	73.88
430.736	80.88
430.958	88.88
431.18	76.88
431.402	80.88
431.624	86.88
431.846	68.88
432.068	94.88
432.29	80.88
432.512	87.88
432.734	62.88
432.956	73.88
433.178	87.88
433.4	86.88
433.622	77.88
433.844	79.88
434.066	70.88
434.287	82.88
434.509	85.88
434.731	91.88
434.953	86.88
435.175	78.88
435.397	80.88
435.618	79.88
435.84	76.88
436.062	79.88
436.284	79.88
436.505	84.88
436.727	78.88
436.949	85.88
437.17	82.88
437.392	75.88
437.614	82.88
437.835	69.88
438.057	74.88
438.278	71.88
438.5	72.88
438.721	82.88
438.943	78.88
439.165	81.88
439.386	77.88
439.608	79.88
439.829	74.88
440.05	82.88
440.272	97.88
440.493	82.88
440.715	81.88
440.936	71.88
441.158	69.88
441.379	84.88
441.6	85.88
441.822	80.88
442.043	83.88
442.264	104.88
442.486	89.88
442.707	90.88
442.928	72.88
443.149	80.88
443.371	87.88
443.592	70.88
443.813	90.88
444.034	80.88
444.255	84.88
444.476	77.88
444.698	84.88
444.919	78.88
445.14	130.88
445.361	100.88
445.582	85.88
445.803	77.88
446.024	80.88
446.245	87.88
446.466	89.88
446.687	85.88
446.908	87.88
447.129	81.88
447.35	67.88
447.571	77.88
447.792	76.88
448.013	78.88
448.234	81.88
448.455	72.88
448.675	80.88
448.896	83.88
449.117	64.88
449.338	74.88
449.559	80.88
449.779	80.88
450	77.88
450.221	74.88
450.442	86.88
450.662	75.88
450.883	68.88
451.104	78.88
451.324	79.88
451.545	86.88
451.766	90.88
451.986	94.88
452.207	95.88
452.428	88.88
452.648	83.88
452.869	79.88
453.089	75.88
453.31	93.88
453.53	69.88
453.751	86.88
453.971	80.88
454.192	82.88
454.412	82.88
454.633	87.88
454.853	95.88
455.073	82.88
455.294	82.88
455.514	83.88
455.734	76.88
455.955	87.88
456.175	79.88
456.395	73.88
456.616	92.88
456.836	91.88
457.056	89.88
457.276	86.88
457.497	80.88
457.717	75.88
457.937	78.88
458.157	81.88
458.377	82.88
458.598	77.88
458.818	82.88
459.038	86.88
459.258	78.88
459.478	78.88
459.698	88.88
459.918	85.88
460.138	70.88
460.358	74.88
460.578	71.88
460.798	85.88
461.018	79.88
461.238	73.88
461.458	91.88
461.678	76.88
461.898	78.88
462.118	75.88
462.338	92.88
462.558	83.88
462.777	90.88
462.997	86.88
463.217	71.88
463.437	92.88
463.657	79.88
463.876	97.88
464.096	84.88
464.316	85.88
464.536	88.88
464.755	88.88
464.975	73.88
465.195	90.88
465.414	85.88
465.634	82.88
465.854	84.88
466.073	92.88
466.293	78.88
466.512	75.88
466.732	80.88
466.951	80.88
467.171	76.88
467.391	69.88
467.61	72.88
467.829	84.88
468.049	88.88
468.268	81.88
468.488	78.88
468.707	76.88
468.927	85.88
469.146	73.88
469.365	73.88
469.585	75.88
469.804	90.88
470.023	72.88
470.243	94.88
470.462	84.88
470.681	95.88
470.901	75.88
471.12	83.88
471.339	96.88
471.558	70.88
471.777	78.88
471.997	87.88
472.216	74.88
472.435	87.88
472.654	93.88
472.873	75.88
473.092	87.88
473.311	78.88
473.53	93.88
473.749	82.88
473.968	84.88
474.187	90.88
474.406	87.88
474.625	90.88
474.844	68.88
475.063	78.88
475.282	80.88
475.501	85.88
475.72	99.88
475.939	88.88
476.158	75.88
476.377	89.88
476.596	89.88
476.814	85.88
477.033	75.88
477.252	78.88
477.471	70.88
477.69	73.88
477.908	68.88
478.127	87.88
478.346	74.88
478.564	76.88
478.783	87.88
479.002	77.88
479.22	73.88
479.439	86.88
479.658	74.88
479.876	94.88
480.095	77.88
480.313	84.88
480.532	74.88
480.751	71.88
480.969	75.88
481.188	76.88
481.406	67.88
481.624	81.88
481.843	80.88
482.061	84.88
482.28	82.88
482.498	73.88
482.717	72.88
482.935	88.88
483.153	84.88
483.372	68.88
483.59	85.88
483.808	84.88
484.027	80.88
484.245	80.88
484.463	66.88
484.681	83.88
484.9	64.88
485.118	80.88
485.336	92.88
485.554	73.88
485.772	79.88
485.99	88.88
486.209	73.88
486.427	87.88
486.645	80.88
486.863	78.88
487.081	79.88
487.299	89.88
487.517	91.88
487.735	78.88
487.953	75.88
488.171	66.88
488.389	81.88
488.607	82.88
488.825	81.88
489.043	64.88
489.261	76.88
489.479	74.88
489.696	86.88
489.914	91.88
490.132	79.88
490.35	80.88
490.568	87.88
490.786	73.88
491.003	71.88
491.221	75.88
491.439	78.88
491.657	84.88
491.874	86.88
492.092	70.88
492.31	83.88
492.527	81.88
492.745	82.88
492.963	74.88
493.18	79.88
493.398	83.88
493.615	90.88
493.833	72.88
494.05	68.88
494.268	72.88
494.485	88.88
494.703	77.88
494.92	84.88
495.138	84.88
495.355	72.88
495.573	84.88
495.79	88.88
496.008	86.88
496.225	85.88
496.442	74.88
496.66	94.88
496.877	82.88
497.094	80.88
497.312	68.88
497.529	87.88
497.746	86.88
497.963	89.88
498.181	86.88
498.398	93.88
498.615	82.88
498.832	76.88
499.049	89.88
499.267	94.88
499.484	86.88
499.701	92.88
499.918	70.88
500.135	89.88
500.352	83.88
500.569	66.88
500.786	95.88
501.003	92.88
501.22	73.88
501.437	74.88
501.654	93.88
501.871	80.88
502.088	80.88
502.305	96.88
502.522	82.88
502.739	77.88
502.956	77.88
503.172	77.88
503.389	80.88
503.606	79.88
503.823	81.88
504.04	89.88
504.256	75.88
504.473	94.88
504.69	83.88
504.907	76.88
505.123	81.88
505.34	85.88
505.557	83.88
505.773	88.88
505.99	87.88
506.207	85.88
506.423	88.88
506.64	79.88
506.856	84.88
507.073	81.88
507.289	64.88
507.506	74.88
507.722	78.88
507.939	82.88
508.155	100.88
508.372	76.88
508.588	74.88
508.805	82.88
509.021	70.88
509.238	76.88
509.454	82.88
509.67	74.88
509.887	72.88
510.103	77.88
510.319	90.88
510.536	86.88
510.752	90.88
510.968	84.88
511.184	78.88
511.401	78.88
511.617	90.88
511.833	89.88
512.049	81.88
512.265	80.88
512.481	94.88
512.698	77.88
512.914	81.88
513.13	88.88
513.346	95.88
513.562	81.88
513.778	90.88
513.994	62.88
514.21	65.88
514.426	87.88
514.642	78.88
514.858	65.88
515.074	70.88
515.29	77.88
515.506	67.88
515.721	89.88
515.937	92.88
516.153	79.88
516.369	80.88
516.585	86.88
516.801	69.88
517.016	84.88
517.232	86.88
517.448	65.88
517.664	66.88
517.879	82.88
518.095	74.88
518.311	87.88
518.527	87.88
518.742	85.88
518.958	79.88
519.173	72.88
519.389	89.88
519.605	71.88
519.82	72.88
520.036	86.88
520.251	74.88
520.467	98.88
520.682	74.88
520.898	73.88
521.113	76.88
521.329	71.88
521.544	86.88
521.76	85.88
521.975	80.88
522.19	80.88
522.406	83.88
522.621	83.88
522.836	81.88
523.052	68.88
523.267	86.88
523.482	79.88
523.698	80.88
523.913	72.88
524.128	90.88
524.343	88.88
524.559	82.88
524.774	82.88
524.989	83.88
525.204	73.88
525.419	86.88
525.634	84.88
525.849	72.88
526.064	86.88
526.28	93.88
526.495	70.88
526.71	73.88
526.925	81.88
527.14	74.88
527.355	75.88
527.57	80.88
527.785	73.88
527.999	81.88
528.214	89.88
528.429	87.88
528.644	87.88
528.859	101.88
529.074	85.88
529.289	82.88
529.503	93.88
529.718	85.88
529.933	78.88
530.148	84.88
530.363	81.88
530.577	71.88
530.792	79.88
531.007	89.88
531.221	95.88
531.436	71.88
531.651	80.88
531.865	79.88
532.08	84.88
532.295	85.88
532.509	85.88
532.724	84.88
532.938	83.88
533.153	86.88
533.367	84.88
533.582	87.88
533.796	84.88
534.011	72.88
534.225	74.88
534.44	81.88
534.654	82.88
534.868	83.88
535.083	76.88
535.297	76.88
535.511	93.88
535.726	87.88
535.94	86.88
536.154	76.88
536.369	77.88
536.583	69.88
536.797	95.88
537.011	75.88
537.225	85.88
537.44	79.88
537.654	87.88
537.868	86.88
538.082	75.88
538.296	79.88
538.51	96.88
538.724	80.88
538.938	82.88
539.153	85.88
539.367	77.88
539.581	88.88
539.795	88.88
540.009	90.88
540.222	93.88
540.436	76.88
540.65	85.88
540.864	92.88
541.078	76.88
541.292	90.88
541.506	93.88
541.72	95.88
541.934	94.88
542.147	70.88
542.361	87.88
542.575	76.88
542.789	87.88
543.002	80.88
543.216	80.88
543.43	84.88
543.644	67.88
543.857	71.88
544.071	79.88
544.285	54.88
544.498	69.88
544.712	84.88
544.925	78.88
545.139	88.88
545.352	81.88
545.566	80.88
545.779	80.88
545.993	82.88
546.206	89.88
546.42	78.88
546.633	87.88
546.847	87.88
547.06	83.88
547.274	83.88
547.487	81.88
547.7	74.88
547.914	98.88
548.127	89.88
548.34	101.88
548.554	106.88
548.767	100.88
548.98	93.88
549.193	86.88
549.407	80.88
549.62	86.88
549.833	89.88
550.046	77.88
550.259	72.88
550.473	80.88
550.686	95.88
550.899	86.88
551.112	97.88
551.325	81.88
551.538	95.88
551.751	90.88
551.964	64.88
552.177	80.88
552.39	79.88
552.603	91.88
552.816	83.88
553.029	86.88
553.242	90.88
553.455	97.88
553.667	82.88
553.88	74.88
554.093	100.88
554.306	81.88
554.519	96.88
554.732	104.88
554.944	86.88
555.157	83.88
555.37	92.88
555.583	75.88
555.795	96.88
556.008	89.88
556.221	91.88
556.433	92.88
556.646	86.88
556.859	97.88
557.071	72.88
557.284	80.88
557.496	79.88
557.709	78.88
557.921	84.88
558.134	89.88
558.346	75.88
558.559	71.88
558.771	76.88
558.984	90.88
559.196	93.88
559.409	85.88
559.621	70.88
559.833	89.88
560.046	72.88
560.258	84.88
560.47	94.88
560.683	108.88
560.895	80.88
561.107	73.88
561.32	68.88
561.532	75.88
561.744	80.88
561.956	98.88
562.168	80.88
562.381	89.88
562.593	84.88
562.805	97.88
563.017	86.88
563.229	86.88
563.441	94.88
563.653	96.88
563.865	81.88
564.077	84.88
564.289	89.88
564.501	92.88
564.713	71.88
564.925	81.88
565.137	87.88
565.349	77.88
565.561	89.88
565.773	73.88
565.985	81.88
566.197	80.88
566.408	70.88
566.62	82.88
566.832	87.88
567.044	86.88
567.255	78.88
567.467	94.88
567.679	91.88
567.891	92.88
568.102	94.88
568.314	91.88
568.526	82.88
568.737	90.88
568.949	81.88
569.161	97.88
569.372	77.88
569.584	70.88
569.795	77.88
570.007	82.88
570.218	71.88
570.43	77.88
570.641	82.88
570.853	85.88
571.064	86.88
571.276	71.88
571.487	81.88
571.698	92.88
571.91	81.88
572.121	80.88
572.333	84.88
572.544	78.88
572.755	83.88
572.966	96.88
573.178	74.88
573.389	85.88
573.6	90.88
573.811	78.88
574.023	77.88
574.234	82.88
574.445	74.88
574.656	82.88
574.867	83.88
575.078	100.88
575.289	93.88
575.501	86.88
575.712	81.88
575.923	89.88
576.134	80.88
576.345	87.88
576.556	87.88
576.767	87.88
576.978	82.88
577.188	78.88
577.399	80.88
577.61	66.88
577.821	74.88
578.032	86.88
578.243	94.88
578.454	82.88
578.665	95.88
578.875	89.88
579.086	87.88
579.297	77.88
579.508	86.88
579.718	80.88
579.929	85.88
580.14	81.88
580.35	93.88
580.561	87.88
580.772	75.88
580.982	84.88
581.193	93.88
581.403	86.88
581.614	94.88
581.825	82.88
582.035	85.88
582.246	90.88
582.456	88.88
582.667	84.88
582.877	80.88
583.087	77.88
583.298	88.88
583.508	97.88
583.719	83.88
583.929	84.88
584.139	80.88
584.35	73.88
584.56	78.88
584.77	69.88
584.981	101.88
585.191	80.88
585.401	93.88
585.611	93.88
585.821	80.88
586.032	66.88
586.242	72.88
586.452	90.88
586.662	78.88
586.872	74.88
587.082	85.88
587.292	79.88
587.502	82.88
587.713	86.88
587.923	94.88
588.133	81.88
588.343	82.88
588.553	89.88
588.762	92.88
588.972	92.88
589.182	138.88
589.392	116.88
589.602	103.88
589.812	120.88
590.022	106.88
590.232	100.88
590.441	86.88
590.651	86.88
590.861	79.88
591.071	92.88
591.281	69.88
591.49	89.88
591.7	100.88
591.91	80.88
592.119	87.88
592.329	84.88
592.539	80.88
592.748	80.88
592.958	99.88
593.167	83.88
593.377	86.88
593.587	86.88
593.796	91.88
594.006	83.88
594.215	76.88
594.424	90.88
594.634	74.88
594.843	85.88
595.053	100.88
595.262	77.88
595.472	81.88
595.681	95.88
595.89	75.88
596.1	86.88
596.309	95.88
596.518	84.88
596.727	88.88
596.937	89.88
597.146	73.88
597.355	89.88
597.564	100.88
597.774	96.88
597.983	90.88
598.192	102.88
598.401	75.88
598.61	86.88
598.819	93.88
599.028	89.88
599.237	88.88
599.446	78.88
599.655	72.88
599.864	85.88
600.073	82.88
600.282	76.88
600.491	74.88
600.7	76.88
600.909	80.88
601.118	83.88
601.327	84.88
601.536	72.88
601.745	82.88
601.953	79.88
602.162	84.88
602.371	84.88
602.58	95.88
602.789	83.88
602.997	88.88
603.206	97.88
603.415	79.88
603.623	84.88
603.832	81.88
604.041	93.88
604.249	98.88
604.458	71.88
604.666	83.88
604.875	81.88
605.084	84.88
605.292	88.88
605.501	97.88
605.709	78.88
605.918	88.88
606.126	83.88
606.334	80.88
606.543	77.88
606.751	84.88
606.96	82.88
607.168	89.88
607.376	73.88
607.585	80.88
607.793	74.88
608.001	78.88
608.21	91.88
608.418	78.88
608.626	88.88
608.834	77.88
609.043	88.88
609.251	82.88
609.459	76.88
609.667	85.88
609.875	82.88
610.083	74.88
610.291	88.88
610.499	88.88
610.707	90.88
610.916	82.88
611.124	92.88
611.332	82.88
611.54	73.88
611.748	96.88
611.955	88.88
612.163	89.88
612.371	83.88
612.579	89.88
612.787	86.88
612.995	83.88
613.203	74.88
613.411	86.88
613.618	89.88
613.826	75.88
614.034	79.88
614.242	81.88
614.449	87.88
614.657	85.88
614.865	80.88
615.072	86.88
615.28	88.88
615.488	78.88
615.695	79.88
615.903	77.88
616.111	82.88
616.318	95.88
616.526	95.88
616.733	77.88
616.941	89.88
617.148	88.88
617.356	89.88
617.563	86.88
617.771	85.88
617.978	94.88
618.185	82.88
618.393	75.88
618.6	80.88
618.807	85.88
619.015	89.88
619.222	80.88
619.429	82.88
619.637	82.88
619.844	67.88
620.051	73.88
620.258	79.88
620.466	93.88
620.673	85.88
620.88	69.88
621.087	66.88
621.294	78.88
621.501	68.88
621.708	89.88
621.915	82.88
622.122	82.88
622.329	76.88
622.536	75.88
622.743	95.88
622.95	85.88
623.157	67.88
623.364	95.88
623.571	89.88
623.778	96.88
623.985	77.88
624.192	80.88
624.399	76.88
624.606	90.88
624.812	89.88
625.019	77.88
625.226	80.88
625.433	79.88
625.639	81.88
625.846	91.88
626.053	77.88
626.259	86.88
626.466	81.88
626.673	96.88
626.879	68.88
627.086	73.88
627.293	80.88
627.499	88.88
627.706	87.88
627.912	83.88
628.119	89.88
628.325	80.88
628.532	81.88
628.738	85.88
628.945	87.88
629.151	80.88
629.357	82.88
629.564	89.88
629.77	89.88
629.976	88.88
630.183	82.88
630.389	75.88
630.595	60.88
630.802	64.88
631.008	78.88
631.214	80.88
631.42	93.88
631.627	86.88
631.833	79.88
632.039	78.88
632.245	79.88
632.451	78.88
632.657	91.88
632.863	65.88
633.069	88.88
633.275	82.88
633.481	85.88
633.688	81.88
633.893	82.88
634.099	88.88
634.305	88.88
634.511	79.88
634.717	80.88
634.923	85.88
635.129	87.88
635.335	80.88
635.541	78.88
635.747	87.88
635.952	73.88
636.158	73.88
636.364	85.88
636.57	83.88
636.775	73.88
636.981	98.88
637.187	87.88
637.392	84.88
637.598	83.88
637.804	95.88
638.009	88.88
638.215	93.88
638.421	76.88
638.626	81.88
638.832	75.88
639.037	79.88
639.243	85.88
639.448	86.88
639.654	86.88
639.859	85.88
640.065	77.88
640.27	89.88
640.475	74.88
640.681	75.88
640.886	68.88
641.091	85.88
641.297	92.88
641.502	78.88
641.707	85.88
641.913	73.88
642.118	89.88
642.323	70.88
642.528	78.88
642.733	97.88
642.939	89.88
643.144	93.88
643.349	84.88
643.554	85.88
643.759	84.88
643.964	75.88
644.169	91.88
644.374	60.88
644.579	94.88
644.784	79.88
644.989	76.88
645.194	90.88
645.399	82.88
645.604	87.88
645.809	87.88
646.014	91.88
646.219	74.88
646.423	88.88
646.628	85.88
646.833	84.88
647.038	83.88
647.243	70.88
647.447	80.88
647.652	80.88
647.857	78.88
648.062	87.88
648.266	80.88
648.471	81.88
648.676	77.88
648.88	78.88
649.085	87.88
649.289	74.88
649.494	96.88
649.698	77.88
649.903	88.88
650.107	76.88
650.312	76.88
650.516	81.88
650.721	80.88
650.925	88.88
651.13	81.88
651.334	74.88
651.539	71.88
651.743	94.88
651.947	78.88
652.152	82.88
652.356	89.88
652.56	86.88
652.764	76.88
652.969	76.88
653.173	81.88
653.377	90.88
653.581	73.88
653.785	75.88
653.99	82.88
654.194	95.88
654.398	83.88
654.602	85.88
654.806	79.88
655.01	74.88
655.214	84.88
655.418	73.88
655.622	88.88
655.826	90.88
656.03	80.88
656.234	83.88
656.438	84.88
656.642	87.88
656.846	76.88
657.049	79.88
657.253	89.88
657.457	83.88
657.661	87.88
657.865	73.88
658.068	74.88
658.272	84.88
658.476	80.88
658.68	70.88
658.883	90.88
659.087	88.88
659.291	79.88
659.494	85.88
659.698	93.88
659.901	85.88
660.105	98.88
660.309	79.88
660.512	75.88
660.716	78.88
660.919	95.88
661.123	71.88
661.326	80.88
661.53	83.88
661.733	84.88
661.936	73.88
662.14	78.88
662.343	78.88
662.546	74.88
662.75	88.88
662.953	78.88
663.156	98.88
663.36	80.88
663.563	80.88
663.766	82.88
663.969	76.88
664.173	80.88
664.376	80.88
664.579	92.88
664.782	82.88
664.985	74.88
665.188	86.88
665.391	89.88
665.594	70.88
665.797	92.88
666	89.88
666.203	79.88
666.406	85.88
666.609	84.88
666.812	84.88
667.015	88.88
667.218	79.88
667.421	94.88
667.624	87.88
667.827	86.88
668.03	89.88
668.232	77.88
668.435	82.88
668.638	75.88
668.841	88.88
669.043	88.88
669.246	96.88
669.449	88.88
669.651	74.88
669.854	71.88
670.057	72.88
670.259	83.88
670.462	87.88
670.665	79.88
670.867	56.88
671.07	73.88
671.272	80.88
671.475	82.88
671.677	77.88
671.88	88.88
672.082	74.88
672.284	83.88
672.487	79.88
672.689	79.88
672.892	79.88
