Data from Lead_15_1_HRD10591_00048.txt Node
Date: Fri Feb 20 11:05:44 EST 2026
User: Yrep
Spectrometer: HR+D1059
Trigger mode: 1
Integration Time (sec): 1.000000E-1
Scans to average: 1
Electric dark correction enabled: true
Nonlinearity correction enabled: false
Boxcar width: 0
XAxis mode: Wavelengths
Number of Pixels in Spectrum: 2048
>>>>>Begin Spectral Data<<<<<
223.165	-25.75
223.4	-25.75
223.635	-25.75
223.869	-19.75
224.104	-11.75
224.338	-8.75
224.573	-11.75
224.808	-28.75
225.042	-3.75
225.277	-3.75
225.511	17.25
225.746	-10.75
225.98	2.25
226.215	9.25
226.449	14.25
226.683	35.25
226.918	26.25
227.152	20.25
227.387	25.25
227.621	45.25
227.856	55.25
228.09	51.25
228.324	64.25
228.559	58.25
228.793	66.25
229.027	46.25
229.262	59.25
229.496	64.25
229.73	64.25
229.964	79.25
230.199	85.25
230.433	89.25
230.667	72.25
230.901	68.25
231.136	67.25
231.37	91.25
231.604	89.25
231.838	88.25
232.072	84.25
232.306	89.25
232.541	90.25
232.775	85.25
233.009	85.25
233.243	70.25
233.477	89.25
233.711	84.25
233.945	83.25
234.179	73.25
234.413	86.25
234.647	74.25
234.881	93.25
235.115	88.25
235.349	94.25
235.583	77.25
235.817	77.25
236.051	73.25
236.285	93.25
236.519	90.25
236.753	80.25
236.987	83.25
237.221	84.25
237.455	79.25
237.689	82.25
237.922	78.25
238.156	73.25
238.39	88.25
238.624	73.25
238.858	80.25
239.091	72.25
239.325	66.25
239.559	83.25
239.793	75.25
240.027	80.25
240.26	78.25
240.494	78.25
240.728	79.25
240.961	78.25
241.195	74.25
241.429	92.25
241.662	68.25
241.896	80.25
242.13	79.25
242.363	83.25
242.597	83.25
242.83	75.25
243.064	64.25
243.298	83.25
243.531	72.25
243.765	80.25
243.998	72.25
244.232	76.25
244.465	74.25
244.699	91.25
244.932	81.25
245.166	93.25
245.399	90.25
245.633	87.25
245.866	81.25
246.099	75.25
246.333	82.25
246.566	83.25
246.8	75.25
247.033	103.25
247.266	85.25
247.5	90.25
247.733	73.25
247.966	85.25
248.2	87.25
248.433	86.25
248.666	74.25
248.899	94.25
249.133	96.25
249.366	84.25
249.599	94.25
249.832	74.25
250.066	90.25
250.299	84.25
250.532	83.25
250.765	85.25
250.998	69.25
251.231	89.25
251.465	80.25
251.698	92.25
251.931	92.25
252.164	85.25
252.397	87.25
252.63	84.25
252.863	89.25
253.096	83.25
253.329	92.25
253.562	90.25
253.795	100.25
254.028	96.25
254.261	88.25
254.494	75.25
254.727	99.25
254.96	84.25
255.193	82.25
255.426	78.25
255.659	92.25
255.892	84.25
256.124	73.25
256.357	82.25
256.59	91.25
256.823	76.25
257.056	64.25
257.289	64.25
257.521	96.25
257.754	78.25
257.987	98.25
258.22	78.25
258.452	90.25
258.685	89.25
258.918	76.25
259.151	76.25
259.383	75.25
259.616	70.25
259.849	86.25
260.081	91.25
260.314	84.25
260.547	86.25
260.779	73.25
261.012	84.25
261.244	75.25
261.477	94.25
261.71	87.25
261.942	71.25
262.175	100.25
262.407	92.25
262.64	82.25
262.872	86.25
263.105	80.25
263.337	86.25
263.57	83.25
263.802	92.25
264.035	86.25
264.267	82.25
264.499	97.25
264.732	90.25
264.964	89.25
265.197	76.25
265.429	84.25
265.661	66.25
265.894	87.25
266.126	90.25
266.358	90.25
266.591	91.25
266.823	85.25
267.055	81.25
267.287	76.25
267.52	79.25
267.752	82.25
267.984	91.25
268.216	88.25
268.448	76.25
268.681	86.25
268.913	81.25
269.145	78.25
269.377	87.25
269.609	72.25
269.841	78.25
270.073	89.25
270.306	88.25
270.538	88.25
270.77	92.25
271.002	90.25
271.234	93.25
271.466	92.25
271.698	92.25
271.93	89.25
272.162	96.25
272.394	82.25
272.626	75.25
272.858	92.25
273.09	84.25
273.322	93.25
273.553	87.25
273.785	86.25
274.017	85.25
274.249	90.25
274.481	71.25
274.713	69.25
274.945	76.25
275.176	93.25
275.408	80.25
275.64	86.25
275.872	82.25
276.104	78.25
276.335	74.25
276.567	76.25
276.799	71.25
277.031	89.25
277.262	78.25
277.494	86.25
277.726	96.25
277.957	82.25
278.189	85.25
278.421	91.25
278.652	79.25
278.884	74.25
279.115	72.25
279.347	92.25
279.579	75.25
279.81	74.25
280.042	84.25
280.273	93.25
280.505	87.25
280.736	75.25
280.968	78.25
281.199	92.25
281.431	77.25
281.662	92.25
281.894	82.25
282.125	89.25
282.356	81.25
282.588	91.25
282.819	88.25
283.051	85.25
283.282	89.25
283.513	73.25
283.745	84.25
283.976	89.25
284.207	79.25
284.439	86.25
284.67	100.25
284.901	75.25
285.132	73.25
285.364	83.25
285.595	88.25
285.826	87.25
286.057	93.25
286.288	74.25
286.52	93.25
286.751	86.25
286.982	88.25
287.213	89.25
287.444	94.25
287.675	102.25
287.906	85.25
288.138	82.25
288.369	70.25
288.6	94.25
288.831	81.25
289.062	76.25
289.293	78.25
289.524	97.25
289.755	86.25
289.986	88.25
290.217	83.25
290.448	85.25
290.679	90.25
290.91	100.25
291.141	85.25
291.371	76.25
291.602	78.25
291.833	91.25
292.064	72.25
292.295	94.25
292.526	83.25
292.757	83.25
292.987	74.25
293.218	83.25
293.449	88.25
293.68	80.25
293.91	81.25
294.141	84.25
294.372	96.25
294.603	78.25
294.833	91.25
295.064	83.25
295.295	88.25
295.525	87.25
295.756	86.25
295.987	85.25
296.217	97.25
296.448	92.25
296.679	78.25
296.909	96.25
297.14	88.25
297.37	65.25
297.601	73.25
297.831	88.25
298.062	95.25
298.292	88.25
298.523	89.25
298.753	99.25
298.984	95.25
299.214	92.25
299.445	90.25
299.675	84.25
299.905	91.25
300.136	84.25
300.366	85.25
300.597	87.25
300.827	98.25
301.057	79.25
301.288	75.25
301.518	77.25
301.748	99.25
301.979	83.25
302.209	89.25
302.439	88.25
302.669	82.25
302.9	81.25
303.13	86.25
303.36	95.25
303.59	77.25
303.82	73.25
304.051	77.25
304.281	85.25
304.511	86.25
304.741	89.25
304.971	98.25
305.201	96.25
305.431	86.25
305.661	97.25
305.891	92.25
306.121	90.25
306.352	102.25
306.582	84.25
306.812	89.25
307.042	83.25
307.272	74.25
307.502	91.25
307.731	96.25
307.961	96.25
308.191	108.25
308.421	110.25
308.651	96.25
308.881	101.25
309.111	88.25
309.341	100.25
309.571	96.25
309.8	88.25
310.03	80.25
310.26	81.25
310.49	83.25
310.72	87.25
310.949	85.25
311.179	87.25
311.409	87.25
311.639	79.25
311.868	82.25
312.098	94.25
312.328	82.25
312.557	69.25
312.787	82.25
313.017	87.25
313.246	96.25
313.476	90.25
313.706	94.25
313.935	73.25
314.165	94.25
314.394	82.25
314.624	76.25
314.853	80.25
315.083	91.25
315.312	92.25
315.542	90.25
315.771	89.25
316.001	87.25
316.23	84.25
316.46	92.25
316.689	81.25
316.919	98.25
317.148	97.25
317.377	96.25
317.607	100.25
317.836	84.25
318.065	83.25
318.295	83.25
318.524	77.25
318.753	92.25
318.983	74.25
319.212	87.25
319.441	83.25
319.67	84.25
319.9	93.25
320.129	94.25
320.358	93.25
320.587	93.25
320.816	96.25
321.046	103.25
321.275	94.25
321.504	97.25
321.733	81.25
321.962	91.25
322.191	84.25
322.42	65.25
322.649	80.25
322.878	89.25
323.108	78.25
323.337	83.25
323.566	88.25
323.795	92.25
324.024	87.25
324.253	77.25
324.482	84.25
324.71	73.25
324.939	103.25
325.168	94.25
325.397	88.25
325.626	97.25
325.855	81.25
326.084	89.25
326.313	79.25
326.542	77.25
326.77	89.25
326.999	95.25
327.228	95.25
327.457	82.25
327.686	92.25
327.914	85.25
328.143	95.25
328.372	83.25
328.6	76.25
328.829	82.25
329.058	96.25
329.287	81.25
329.515	86.25
329.744	101.25
329.972	82.25
330.201	77.25
330.43	85.25
330.658	91.25
330.887	86.25
331.115	85.25
331.344	83.25
331.572	89.25
331.801	84.25
332.03	84.25
332.258	89.25
332.486	77.25
332.715	86.25
332.943	78.25
333.172	88.25
333.4	80.25
333.629	86.25
333.857	89.25
334.085	90.25
334.314	70.25
334.542	98.25
334.771	92.25
334.999	89.25
335.227	87.25
335.455	92.25
335.684	98.25
335.912	89.25
336.14	96.25
336.369	88.25
336.597	83.25
336.825	78.25
337.053	72.25
337.281	74.25
337.51	83.25
337.738	82.25
337.966	85.25
338.194	79.25
338.422	72.25
338.65	98.25
338.878	77.25
339.106	87.25
339.334	87.25
339.562	76.25
339.79	88.25
340.018	78.25
340.246	92.25
340.474	76.25
340.702	80.25
340.93	72.25
341.158	86.25
341.386	74.25
341.614	80.25
341.842	79.25
342.07	98.25
342.298	93.25
342.526	92.25
342.754	101.25
342.981	92.25
343.209	86.25
343.437	101.25
343.665	97.25
343.893	80.25
344.12	92.25
344.348	103.25
344.576	90.25
344.804	100.25
345.031	88.25
345.259	77.25
345.487	76.25
345.714	89.25
345.942	90.25
346.17	92.25
346.397	96.25
346.625	80.25
346.853	77.25
347.08	72.25
347.308	74.25
347.535	89.25
347.763	100.25
347.99	101.25
348.218	85.25
348.445	88.25
348.673	93.25
348.9	109.25
349.128	96.25
349.355	77.25
349.583	93.25
349.81	79.25
350.037	88.25
350.265	86.25
350.492	89.25
350.72	91.25
350.947	86.25
351.174	85.25
351.402	100.25
351.629	92.25
351.856	85.25
352.083	89.25
352.311	84.25
352.538	88.25
352.765	90.25
352.992	99.25
353.22	83.25
353.447	88.25
353.674	96.25
353.901	95.25
354.128	99.25
354.355	92.25
354.583	96.25
354.81	94.25
355.037	96.25
355.264	83.25
355.491	87.25
355.718	65.25
355.945	75.25
356.172	88.25
356.399	92.25
356.626	84.25
356.853	88.25
357.08	84.25
357.307	75.25
357.534	90.25
357.761	97.25
357.988	91.25
358.215	88.25
358.441	78.25
358.668	77.25
358.895	88.25
359.122	91.25
359.349	98.25
359.576	94.25
359.802	76.25
360.029	72.25
360.256	93.25
360.483	78.25
360.709	90.25
360.936	97.25
361.163	83.25
361.39	71.25
361.616	80.25
361.843	91.25
362.07	90.25
362.296	92.25
362.523	81.25
362.749	91.25
362.976	88.25
363.203	103.25
363.429	93.25
363.656	101.25
363.882	90.25
364.109	106.25
364.335	82.25
364.562	91.25
364.788	88.25
365.015	106.25
365.241	81.25
365.468	77.25
365.694	83.25
365.92	88.25
366.147	91.25
366.373	94.25
366.599	83.25
366.826	84.25
367.052	97.25
367.278	98.25
367.505	85.25
367.731	91.25
367.957	103.25
368.184	118.25
368.41	118.25
368.636	108.25
368.862	94.25
369.089	99.25
369.315	74.25
369.541	88.25
369.767	94.25
369.993	87.25
370.219	75.25
370.445	82.25
370.672	79.25
370.898	89.25
371.124	92.25
371.35	108.25
371.576	93.25
371.802	94.25
372.028	84.25
372.254	86.25
372.48	98.25
372.706	99.25
372.932	90.25
373.158	89.25
373.384	88.25
373.61	99.25
373.835	101.25
374.061	69.25
374.287	89.25
374.513	88.25
374.739	71.25
374.965	92.25
375.191	97.25
375.416	94.25
375.642	86.25
375.868	84.25
376.094	98.25
376.319	83.25
376.545	97.25
376.771	85.25
376.997	86.25
377.222	91.25
377.448	89.25
377.674	92.25
377.899	96.25
378.125	81.25
378.35	98.25
378.576	83.25
378.802	90.25
379.027	80.25
379.253	95.25
379.478	96.25
379.704	86.25
379.929	96.25
380.155	77.25
380.38	88.25
380.606	98.25
380.831	96.25
381.057	88.25
381.282	88.25
381.507	74.25
381.733	84.25
381.958	90.25
382.184	85.25
382.409	84.25
382.634	93.25
382.86	84.25
383.085	84.25
383.31	93.25
383.535	97.25
383.761	88.25
383.986	88.25
384.211	82.25
384.436	96.25
384.662	88.25
384.887	89.25
385.112	82.25
385.337	99.25
385.562	88.25
385.787	91.25
386.013	104.25
386.238	84.25
386.463	95.25
386.688	92.25
386.913	86.25
387.138	84.25
387.363	84.25
387.588	85.25
387.813	87.25
388.038	91.25
388.263	88.25
388.488	97.25
388.713	88.25
388.938	95.25
389.163	96.25
389.387	93.25
389.612	82.25
389.837	75.25
390.062	105.25
390.287	95.25
390.512	90.25
390.736	84.25
390.961	88.25
391.186	87.25
391.411	92.25
391.636	106.25
391.86	88.25
392.085	88.25
392.31	96.25
392.534	77.25
392.759	84.25
392.984	98.25
393.208	102.25
393.433	117.25
393.658	98.25
393.882	114.25
394.107	100.25
394.331	119.25
394.556	129.25
394.78	102.25
395.005	93.25
395.229	81.25
395.454	103.25
395.678	100.25
395.903	101.25
396.127	149.25
396.352	130.25
396.576	93.25
396.801	110.25
397.025	109.25
397.249	97.25
397.474	96.25
397.698	84.25
397.922	107.25
398.147	100.25
398.371	88.25
398.595	94.25
398.82	88.25
399.044	100.25
399.268	93.25
399.492	92.25
399.717	87.25
399.941	93.25
400.165	90.25
400.389	88.25
400.613	76.25
400.837	98.25
401.062	78.25
401.286	92.25
401.51	76.25
401.734	90.25
401.958	89.25
402.182	76.25
402.406	78.25
402.63	89.25
402.854	84.25
403.078	107.25
403.302	92.25
403.526	87.25
403.75	102.25
403.974	103.25
404.198	138.25
404.422	203.25
404.645	224.25
404.869	157.25
405.093	146.25
405.317	112.25
405.541	116.25
405.765	136.25
405.988	145.25
406.212	113.25
406.436	100.25
406.66	82.25
406.883	87.25
407.107	96.25
407.331	98.25
407.555	77.25
407.778	98.25
408.002	76.25
408.226	74.25
408.449	95.25
408.673	92.25
408.896	102.25
409.12	78.25
409.344	88.25
409.567	70.25
409.791	85.25
410.014	84.25
410.238	88.25
410.461	100.25
410.685	104.25
410.908	91.25
411.132	93.25
411.355	90.25
411.578	89.25
411.802	91.25
412.025	75.25
412.249	86.25
412.472	90.25
412.695	98.25
412.919	92.25
413.142	85.25
413.365	89.25
413.589	86.25
413.812	90.25
414.035	77.25
414.258	77.25
414.482	90.25
414.705	98.25
414.928	88.25
415.151	88.25
415.374	85.25
415.597	101.25
415.821	80.25
416.044	83.25
416.267	78.25
416.49	84.25
416.713	101.25
416.936	87.25
417.159	82.25
417.382	89.25
417.605	81.25
417.828	94.25
418.051	88.25
418.274	97.25
418.497	90.25
418.72	86.25
418.943	77.25
419.166	77.25
419.389	89.25
419.611	69.25
419.834	74.25
420.057	88.25
420.28	92.25
420.503	89.25
420.726	96.25
420.948	82.25
421.171	85.25
421.394	71.25
421.617	77.25
421.839	87.25
422.062	88.25
422.285	106.25
422.507	116.25
422.73	156.25
422.953	146.25
423.175	112.25
423.398	70.25
423.621	95.25
423.843	93.25
424.066	82.25
424.288	97.25
424.511	90.25
424.733	89.25
424.956	92.25
425.178	85.25
425.401	99.25
425.623	100.25
425.846	94.25
426.068	82.25
426.291	81.25
426.513	86.25
426.735	94.25
426.958	80.25
427.18	85.25
427.402	81.25
427.625	85.25
427.847	78.25
428.069	91.25
428.292	94.25
428.514	101.25
428.736	106.25
428.958	91.25
429.181	99.25
429.403	86.25
429.625	80.25
429.847	89.25
430.069	90.25
430.292	97.25
430.514	99.25
430.736	101.25
430.958	94.25
431.18	98.25
431.402	85.25
431.624	89.25
431.846	97.25
432.068	92.25
432.29	98.25
432.512	91.25
432.734	86.25
432.956	84.25
433.178	91.25
433.4	89.25
433.622	82.25
433.844	92.25
434.066	84.25
434.287	73.25
434.509	72.25
434.731	88.25
434.953	73.25
435.175	91.25
435.397	112.25
435.618	84.25
435.84	96.25
436.062	90.25
436.284	86.25
436.505	93.25
436.727	78.25
436.949	84.25
437.17	99.25
437.392	90.25
437.614	72.25
437.835	100.25
438.057	85.25
438.278	92.25
438.5	84.25
438.721	85.25
438.943	100.25
439.165	90.25
439.386	86.25
439.608	91.25
439.829	96.25
440.05	86.25
440.272	78.25
440.493	84.25
440.715	93.25
440.936	88.25
441.158	91.25
441.379	73.25
441.6	88.25
441.822	85.25
442.043	77.25
442.264	97.25
442.486	93.25
442.707	80.25
442.928	88.25
443.149	77.25
443.371	85.25
443.592	84.25
443.813	99.25
444.034	88.25
444.255	87.25
444.476	95.25
444.698	89.25
444.919	83.25
445.14	170.25
445.361	128.25
445.582	100.25
445.803	76.25
446.024	81.25
446.245	84.25
446.466	89.25
446.687	84.25
446.908	99.25
447.129	90.25
447.35	96.25
447.571	79.25
447.792	86.25
448.013	77.25
448.234	82.25
448.455	92.25
448.675	85.25
448.896	77.25
449.117	99.25
449.338	81.25
449.559	83.25
449.779	97.25
450	95.25
450.221	101.25
450.442	90.25
450.662	76.25
450.883	99.25
451.104	90.25
451.324	80.25
451.545	88.25
451.766	80.25
451.986	90.25
452.207	89.25
452.428	89.25
452.648	82.25
452.869	82.25
453.089	96.25
453.31	86.25
453.53	96.25
453.751	88.25
453.971	77.25
454.192	87.25
454.412	86.25
454.633	88.25
454.853	90.25
455.073	89.25
455.294	107.25
455.514	101.25
455.734	87.25
455.955	82.25
456.175	88.25
456.395	78.25
456.616	90.25
456.836	70.25
457.056	88.25
457.276	86.25
457.497	83.25
457.717	84.25
457.937	81.25
458.157	89.25
458.377	104.25
458.598	84.25
458.818	83.25
459.038	86.25
459.258	85.25
459.478	90.25
459.698	85.25
459.918	82.25
460.138	79.25
460.358	74.25
460.578	86.25
460.798	91.25
461.018	83.25
461.238	100.25
461.458	96.25
461.678	114.25
461.898	96.25
462.118	92.25
462.338	88.25
462.558	98.25
462.777	79.25
462.997	90.25
463.217	89.25
463.437	98.25
463.657	97.25
463.876	94.25
464.096	98.25
464.316	84.25
464.536	85.25
464.755	78.25
464.975	86.25
465.195	87.25
465.414	82.25
465.634	95.25
465.854	95.25
466.073	70.25
466.293	79.25
466.512	81.25
466.732	87.25
466.951	87.25
467.171	92.25
467.391	82.25
467.61	98.25
467.829	98.25
468.049	78.25
468.268	84.25
468.488	95.25
468.707	98.25
468.927	88.25
469.146	80.25
469.365	74.25
469.585	96.25
469.804	86.25
470.023	97.25
470.243	90.25
470.462	76.25
470.681	94.25
470.901	95.25
471.12	84.25
471.339	100.25
471.558	79.25
471.777	88.25
471.997	84.25
472.216	100.25
472.435	78.25
472.654	86.25
472.873	100.25
473.092	89.25
473.311	89.25
473.53	89.25
473.749	104.25
473.968	92.25
474.187	92.25
474.406	82.25
474.625	100.25
474.844	96.25
475.063	83.25
475.282	90.25
475.501	92.25
475.72	104.25
475.939	94.25
476.158	84.25
476.377	91.25
476.596	87.25
476.814	78.25
477.033	80.25
477.252	76.25
477.471	90.25
477.69	92.25
477.908	81.25
478.127	86.25
478.346	94.25
478.564	85.25
478.783	102.25
479.002	79.25
479.22	78.25
479.439	78.25
479.658	84.25
479.876	79.25
480.095	101.25
480.313	96.25
480.532	78.25
480.751	84.25
480.969	94.25
481.188	92.25
481.406	92.25
481.624	85.25
481.843	77.25
482.061	72.25
482.28	64.25
482.498	78.25
482.717	89.25
482.935	79.25
483.153	82.25
483.372	96.25
483.59	78.25
483.808	96.25
484.027	92.25
484.245	93.25
484.463	78.25
484.681	82.25
484.9	86.25
485.118	94.25
485.336	84.25
485.554	109.25
485.772	92.25
485.99	82.25
486.209	90.25
486.427	78.25
486.645	80.25
486.863	76.25
487.081	109.25
487.299	97.25
487.517	98.25
487.735	100.25
487.953	88.25
488.171	100.25
488.389	107.25
488.607	78.25
488.825	86.25
489.043	84.25
489.261	91.25
489.479	94.25
489.696	83.25
489.914	92.25
490.132	92.25
490.35	87.25
490.568	78.25
490.786	87.25
491.003	92.25
491.221	86.25
491.439	66.25
491.657	87.25
491.874	101.25
492.092	86.25
492.31	101.25
492.527	93.25
492.745	100.25
492.963	96.25
493.18	90.25
493.398	96.25
493.615	95.25
493.833	80.25
494.05	92.25
494.268	88.25
494.485	96.25
494.703	88.25
494.92	73.25
495.138	89.25
495.355	97.25
495.573	82.25
495.79	115.25
496.008	76.25
496.225	96.25
496.442	83.25
496.66	88.25
496.877	95.25
497.094	114.25
497.312	99.25
497.529	82.25
497.746	94.25
497.963	69.25
498.181	96.25
498.398	84.25
498.615	93.25
498.832	82.25
499.049	84.25
499.267	94.25
499.484	87.25
499.701	100.25
499.918	88.25
500.135	80.25
500.352	84.25
500.569	97.25
500.786	105.25
501.003	92.25
501.22	84.25
501.437	88.25
501.654	89.25
501.871	89.25
502.088	90.25
502.305	96.25
502.522	92.25
502.739	75.25
502.956	81.25
503.172	92.25
503.389	98.25
503.606	90.25
503.823	79.25
504.04	83.25
504.256	106.25
504.473	83.25
504.69	87.25
504.907	94.25
505.123	92.25
505.34	86.25
505.557	88.25
505.773	76.25
505.99	93.25
506.207	96.25
506.423	96.25
506.64	95.25
506.856	102.25
507.073	100.25
507.289	81.25
507.506	94.25
507.722	88.25
507.939	83.25
508.155	88.25
508.372	80.25
508.588	89.25
508.805	77.25
509.021	89.25
509.238	79.25
509.454	94.25
509.67	93.25
509.887	100.25
510.103	96.25
510.319	106.25
510.536	87.25
510.752	85.25
510.968	89.25
511.184	89.25
511.401	93.25
511.617	98.25
511.833	79.25
512.049	90.25
512.265	89.25
512.481	91.25
512.698	107.25
512.914	94.25
513.13	96.25
513.346	78.25
513.562	90.25
513.778	92.25
513.994	83.25
514.21	84.25
514.426	91.25
514.642	98.25
514.858	88.25
515.074	99.25
515.29	92.25
515.506	79.25
515.721	79.25
515.937	100.25
516.153	78.25
516.369	90.25
516.585	77.25
516.801	82.25
517.016	85.25
517.232	88.25
517.448	88.25
517.664	85.25
517.879	86.25
518.095	91.25
518.311	81.25
518.527	86.25
518.742	73.25
518.958	100.25
519.173	94.25
519.389	95.25
519.605	92.25
519.82	85.25
520.036	87.25
520.251	92.25
520.467	89.25
520.682	78.25
520.898	75.25
521.113	76.25
521.329	98.25
521.544	91.25
521.76	90.25
521.975	75.25
522.19	97.25
522.406	89.25
522.621	80.25
522.836	94.25
523.052	90.25
523.267	94.25
523.482	83.25
523.698	80.25
523.913	75.25
524.128	86.25
524.343	80.25
524.559	84.25
524.774	95.25
524.989	97.25
525.204	93.25
525.419	104.25
525.634	95.25
525.849	92.25
526.064	84.25
526.28	89.25
526.495	79.25
526.71	88.25
526.925	84.25
527.14	83.25
527.355	104.25
527.57	83.25
527.785	89.25
527.999	82.25
528.214	101.25
528.429	80.25
528.644	94.25
528.859	86.25
529.074	91.25
529.289	94.25
529.503	91.25
529.718	91.25
529.933	91.25
530.148	93.25
530.363	85.25
530.577	81.25
530.792	98.25
531.007	70.25
531.221	92.25
531.436	94.25
531.651	90.25
531.865	79.25
532.08	100.25
532.295	100.25
532.509	98.25
532.724	98.25
532.938	96.25
533.153	97.25
533.367	100.25
533.582	83.25
533.796	85.25
534.011	104.25
534.225	95.25
534.44	100.25
534.654	101.25
534.868	97.25
535.083	103.25
535.297	92.25
535.511	100.25
535.726	94.25
535.94	97.25
536.154	104.25
536.369	101.25
536.583	107.25
536.797	91.25
537.011	91.25
537.225	91.25
537.44	73.25
537.654	92.25
537.868	79.25
538.082	97.25
538.296	84.25
538.51	78.25
538.724	80.25
538.938	100.25
539.153	100.25
539.367	81.25
539.581	98.25
539.795	100.25
540.009	84.25
540.222	81.25
540.436	86.25
540.65	91.25
540.864	100.25
541.078	89.25
541.292	98.25
541.506	81.25
541.72	73.25
541.934	93.25
542.147	92.25
542.361	97.25
542.575	94.25
542.789	101.25
543.002	88.25
543.216	84.25
543.43	89.25
543.644	94.25
543.857	83.25
544.071	91.25
544.285	100.25
544.498	90.25
544.712	84.25
544.925	103.25
545.139	75.25
545.352	110.25
545.566	89.25
545.779	92.25
545.993	84.25
546.206	93.25
546.42	99.25
546.633	101.25
546.847	102.25
547.06	75.25
547.274	91.25
547.487	88.25
547.7	82.25
547.914	72.25
548.127	79.25
548.34	90.25
548.554	100.25
548.767	87.25
548.98	92.25
549.193	90.25
549.407	86.25
549.62	88.25
549.833	88.25
550.046	91.25
550.259	100.25
550.473	94.25
550.686	92.25
550.899	91.25
551.112	86.25
551.325	88.25
551.538	95.25
551.751	93.25
551.964	78.25
552.177	80.25
552.39	87.25
552.603	98.25
552.816	92.25
553.029	89.25
553.242	88.25
553.455	93.25
553.667	86.25
553.88	90.25
554.093	90.25
554.306	92.25
554.519	99.25
554.732	81.25
554.944	90.25
555.157	83.25
555.37	91.25
555.583	100.25
555.795	77.25
556.008	80.25
556.221	96.25
556.433	72.25
556.646	93.25
556.859	90.25
557.071	90.25
557.284	84.25
557.496	92.25
557.709	84.25
557.921	88.25
558.134	92.25
558.346	94.25
558.559	92.25
558.771	93.25
558.984	82.25
559.196	102.25
559.409	85.25
559.621	104.25
559.833	92.25
560.046	96.25
560.258	82.25
560.47	90.25
560.683	101.25
560.895	88.25
561.107	94.25
561.32	73.25
561.532	91.25
561.744	96.25
561.956	86.25
562.168	89.25
562.381	92.25
562.593	95.25
562.805	94.25
563.017	69.25
563.229	89.25
563.441	96.25
563.653	83.25
563.865	79.25
564.077	84.25
564.289	86.25
564.501	97.25
564.713	88.25
564.925	86.25
565.137	88.25
565.349	96.25
565.561	92.25
565.773	86.25
565.985	87.25
566.197	74.25
566.408	98.25
566.62	84.25
566.832	94.25
567.044	85.25
567.255	98.25
567.467	86.25
567.679	87.25
567.891	90.25
568.102	72.25
568.314	92.25
568.526	104.25
568.737	103.25
568.949	91.25
569.161	103.25
569.372	98.25
569.584	105.25
569.795	102.25
570.007	89.25
570.218	97.25
570.43	68.25
570.641	86.25
570.853	85.25
571.064	86.25
571.276	87.25
571.487	79.25
571.698	96.25
571.91	102.25
572.121	94.25
572.333	91.25
572.544	84.25
572.755	88.25
572.966	92.25
573.178	93.25
573.389	95.25
573.6	99.25
573.811	100.25
574.023	95.25
574.234	90.25
574.445	80.25
574.656	77.25
574.867	102.25
575.078	88.25
575.289	79.25
575.501	78.25
575.712	85.25
575.923	88.25
576.134	88.25
576.345	97.25
576.556	77.25
576.767	88.25
576.978	94.25
577.188	99.25
577.399	92.25
577.61	80.25
577.821	84.25
578.032	92.25
578.243	97.25
578.454	116.25
578.665	109.25
578.875	100.25
579.086	97.25
579.297	93.25
579.508	92.25
579.718	105.25
579.929	108.25
580.14	93.25
580.35	96.25
580.561	104.25
580.772	107.25
580.982	108.25
581.193	100.25
581.403	103.25
581.614	92.25
581.825	106.25
582.035	98.25
582.246	89.25
582.456	100.25
582.667	100.25
582.877	97.25
583.087	94.25
583.298	102.25
583.508	113.25
583.719	104.25
583.929	118.25
584.139	89.25
584.35	76.25
584.56	96.25
584.77	100.25
584.981	100.25
585.191	96.25
585.401	102.25
585.611	103.25
585.821	103.25
586.032	87.25
586.242	92.25
586.452	99.25
586.662	82.25
586.872	77.25
587.082	102.25
587.292	92.25
587.502	105.25
587.713	107.25
587.923	96.25
588.133	103.25
588.343	102.25
588.553	121.25
588.762	157.25
588.972	304.25
589.182	645.25
589.392	482.25
589.602	351.25
589.812	549.25
590.022	311.25
590.232	154.25
590.441	123.25
590.651	112.25
590.861	99.25
591.071	95.25
591.281	97.25
591.49	93.25
591.7	79.25
591.91	103.25
592.119	87.25
592.329	86.25
592.539	100.25
592.748	105.25
592.958	97.25
593.167	102.25
593.377	90.25
593.587	98.25
593.796	93.25
594.006	86.25
594.215	87.25
594.424	79.25
594.634	112.25
594.843	78.25
595.053	88.25
595.262	100.25
595.472	84.25
595.681	96.25
595.89	96.25
596.1	83.25
596.309	87.25
596.518	92.25
596.727	96.25
596.937	93.25
597.146	105.25
597.355	92.25
597.564	92.25
597.774	88.25
597.983	89.25
598.192	79.25
598.401	82.25
598.61	91.25
598.819	88.25
599.028	84.25
599.237	84.25
599.446	81.25
599.655	90.25
599.864	81.25
600.073	105.25
600.282	102.25
600.491	84.25
600.7	88.25
600.909	92.25
601.118	89.25
601.327	100.25
601.536	96.25
601.745	85.25
601.953	93.25
602.162	93.25
602.371	75.25
602.58	98.25
602.789	101.25
602.997	88.25
603.206	94.25
603.415	89.25
603.623	84.25
603.832	90.25
604.041	90.25
604.249	83.25
604.458	92.25
604.666	87.25
604.875	99.25
605.084	80.25
605.292	84.25
605.501	92.25
605.709	95.25
605.918	86.25
606.126	84.25
606.334	92.25
606.543	89.25
606.751	89.25
606.96	87.25
607.168	94.25
607.376	86.25
607.585	94.25
607.793	101.25
608.001	88.25
608.21	86.25
608.418	88.25
608.626	88.25
608.834	88.25
609.043	86.25
609.251	92.25
609.459	84.25
609.667	84.25
609.875	79.25
610.083	87.25
610.291	91.25
610.499	86.25
610.707	87.25
610.916	92.25
611.124	83.25
611.332	91.25
611.54	93.25
611.748	84.25
611.955	78.25
612.163	91.25
612.371	88.25
612.579	94.25
612.787	77.25
612.995	82.25
613.203	93.25
613.411	77.25
613.618	97.25
613.826	85.25
614.034	78.25
614.242	88.25
614.449	87.25
614.657	76.25
614.865	92.25
615.072	83.25
615.28	85.25
615.488	97.25
615.695	85.25
615.903	98.25
616.111	82.25
616.318	106.25
616.526	101.25
616.733	94.25
616.941	76.25
617.148	90.25
617.356	84.25
617.563	86.25
617.771	96.25
617.978	84.25
618.185	70.25
618.393	78.25
618.6	101.25
618.807	99.25
619.015	83.25
619.222	90.25
619.429	90.25
619.637	93.25
619.844	101.25
620.051	93.25
620.258	92.25
620.466	98.25
620.673	90.25
620.88	88.25
621.087	90.25
621.294	90.25
621.501	102.25
621.708	91.25
621.915	81.25
622.122	80.25
622.329	89.25
622.536	88.25
622.743	90.25
622.95	88.25
623.157	100.25
623.364	102.25
623.571	93.25
623.778	86.25
623.985	73.25
624.192	93.25
624.399	87.25
624.606	106.25
624.812	89.25
625.019	100.25
625.226	77.25
625.433	98.25
625.639	84.25
625.846	79.25
626.053	88.25
626.259	87.25
626.466	94.25
626.673	90.25
626.879	95.25
627.086	84.25
627.293	93.25
627.499	77.25
627.706	79.25
627.912	88.25
628.119	90.25
628.325	98.25
628.532	81.25
628.738	88.25
628.945	95.25
629.151	76.25
629.357	83.25
629.564	86.25
629.77	87.25
629.976	89.25
630.183	98.25
630.389	84.25
630.595	101.25
630.802	91.25
631.008	82.25
631.214	87.25
631.42	87.25
631.627	105.25
631.833	78.25
632.039	88.25
632.245	78.25
632.451	101.25
632.657	96.25
632.863	97.25
633.069	88.25
633.275	78.25
633.481	73.25
633.688	93.25
633.893	80.25
634.099	80.25
634.305	89.25
634.511	97.25
634.717	98.25
634.923	75.25
635.129	86.25
635.335	98.25
635.541	85.25
635.747	78.25
635.952	88.25
636.158	82.25
636.364	97.25
636.57	81.25
636.775	81.25
636.981	70.25
637.187	88.25
637.392	86.25
637.598	100.25
637.804	93.25
638.009	90.25
638.215	85.25
638.421	93.25
638.626	90.25
638.832	90.25
639.037	82.25
639.243	86.25
639.448	103.25
639.654	100.25
639.859	92.25
640.065	89.25
640.27	95.25
640.475	100.25
640.681	94.25
640.886	92.25
641.091	79.25
641.297	83.25
641.502	90.25
641.707	84.25
641.913	82.25
642.118	87.25
642.323	81.25
642.528	84.25
642.733	91.25
642.939	93.25
643.144	78.25
643.349	82.25
643.554	75.25
643.759	77.25
643.964	111.25
644.169	98.25
644.374	97.25
644.579	87.25
644.784	91.25
644.989	96.25
645.194	88.25
645.399	104.25
645.604	88.25
645.809	94.25
646.014	75.25
646.219	100.25
646.423	98.25
646.628	88.25
646.833	90.25
647.038	90.25
647.243	84.25
647.447	93.25
647.652	78.25
647.857	105.25
648.062	82.25
648.266	86.25
648.471	66.25
648.676	93.25
648.88	96.25
649.085	84.25
649.289	91.25
649.494	86.25
649.698	97.25
649.903	100.25
650.107	95.25
650.312	76.25
650.516	82.25
650.721	94.25
650.925	92.25
651.13	78.25
651.334	82.25
651.539	74.25
651.743	75.25
651.947	74.25
652.152	90.25
652.356	93.25
652.56	96.25
652.764	96.25
652.969	94.25
653.173	84.25
653.377	85.25
653.581	93.25
653.785	73.25
653.99	77.25
654.194	95.25
654.398	102.25
654.602	85.25
654.806	102.25
655.01	96.25
655.214	88.25
655.418	84.25
655.622	89.25
655.826	75.25
656.03	94.25
656.234	78.25
656.438	74.25
656.642	66.25
656.846	88.25
657.049	82.25
657.253	88.25
657.457	82.25
657.661	77.25
657.865	79.25
658.068	85.25
658.272	78.25
658.476	79.25
658.68	87.25
658.883	85.25
659.087	94.25
659.291	79.25
659.494	79.25
659.698	74.25
659.901	96.25
660.105	87.25
660.309	94.25
660.512	86.25
660.716	87.25
660.919	89.25
661.123	91.25
661.326	100.25
661.53	84.25
661.733	91.25
661.936	83.25
662.14	85.25
662.343	101.25
662.546	79.25
662.75	94.25
662.953	78.25
663.156	88.25
663.36	89.25
663.563	89.25
663.766	85.25
663.969	82.25
664.173	80.25
664.376	84.25
664.579	98.25
664.782	71.25
664.985	83.25
665.188	90.25
665.391	90.25
665.594	71.25
665.797	82.25
666	96.25
666.203	88.25
666.406	82.25
666.609	93.25
666.812	89.25
667.015	84.25
667.218	84.25
667.421	95.25
667.624	81.25
667.827	87.25
668.03	81.25
668.232	85.25
668.435	73.25
668.638	96.25
668.841	95.25
669.043	85.25
669.246	89.25
669.449	81.25
669.651	100.25
669.854	84.25
670.057	93.25
670.259	77.25
670.462	97.25
670.665	86.25
670.867	100.25
671.07	82.25
671.272	82.25
671.475	91.25
671.677	91.25
671.88	89.25
672.082	68.25
672.284	78.25
672.487	106.25
672.689	77.25
672.892	79.25
