Data from Lead_15_1_HRD10591_00062.txt Node
Date: Fri Feb 20 11:05:49 EST 2026
User: Yrep
Spectrometer: HR+D1059
Trigger mode: 1
Integration Time (sec): 1.000000E-1
Scans to average: 1
Electric dark correction enabled: true
Nonlinearity correction enabled: false
Boxcar width: 0
XAxis mode: Wavelengths
Number of Pixels in Spectrum: 2048
>>>>>Begin Spectral Data<<<<<
223.165	-14.06
223.4	-14.06
223.635	-14.06
223.869	-29.06
224.104	-24.06
224.338	-23.06
224.573	-32.06
224.808	-14.06
225.042	-10.06
225.277	-7.06
225.511	-0.06
225.746	9.94
225.98	15.94
226.215	6.94
226.449	34.94
226.683	19.94
226.918	20.94
227.152	44.94
227.387	28.94
227.621	43.94
227.856	51.94
228.09	44.94
228.324	55.94
228.559	63.94
228.793	59.94
229.027	58.94
229.262	66.94
229.496	56.94
229.73	77.94
229.964	59.94
230.199	73.94
230.433	73.94
230.667	77.94
230.901	67.94
231.136	91.94
231.37	91.94
231.604	68.94
231.838	70.94
232.072	79.94
232.306	79.94
232.541	77.94
232.775	80.94
233.009	70.94
233.243	76.94
233.477	81.94
233.711	91.94
233.945	82.94
234.179	64.94
234.413	67.94
234.647	86.94
234.881	80.94
235.115	66.94
235.349	84.94
235.583	69.94
235.817	73.94
236.051	73.94
236.285	75.94
236.519	71.94
236.753	69.94
236.987	78.94
237.221	67.94
237.455	64.94
237.689	77.94
237.922	71.94
238.156	70.94
238.39	68.94
238.624	70.94
238.858	67.94
239.091	67.94
239.325	70.94
239.559	71.94
239.793	76.94
240.027	73.94
240.26	59.94
240.494	76.94
240.728	74.94
240.961	83.94
241.195	74.94
241.429	55.94
241.662	66.94
241.896	68.94
242.13	74.94
242.363	88.94
242.597	83.94
242.83	61.94
243.064	63.94
243.298	74.94
243.531	72.94
243.765	77.94
243.998	77.94
244.232	80.94
244.465	80.94
244.699	79.94
244.932	71.94
245.166	79.94
245.399	79.94
245.633	66.94
245.866	85.94
246.099	79.94
246.333	93.94
246.566	57.94
246.8	70.94
247.033	73.94
247.266	72.94
247.5	74.94
247.733	73.94
247.966	69.94
248.2	77.94
248.433	84.94
248.666	80.94
248.899	76.94
249.133	79.94
249.366	93.94
249.599	67.94
249.832	80.94
250.066	83.94
250.299	73.94
250.532	76.94
250.765	95.94
250.998	72.94
251.231	74.94
251.465	63.94
251.698	68.94
251.931	70.94
252.164	64.94
252.397	77.94
252.63	72.94
252.863	79.94
253.096	79.94
253.329	74.94
253.562	83.94
253.795	81.94
254.028	76.94
254.261	85.94
254.494	76.94
254.727	81.94
254.96	82.94
255.193	79.94
255.426	64.94
255.659	74.94
255.892	70.94
256.124	67.94
256.357	74.94
256.59	82.94
256.823	77.94
257.056	74.94
257.289	79.94
257.521	63.94
257.754	72.94
257.987	86.94
258.22	84.94
258.452	86.94
258.685	89.94
258.918	82.94
259.151	72.94
259.383	71.94
259.616	72.94
259.849	85.94
260.081	77.94
260.314	70.94
260.547	83.94
260.779	74.94
261.012	69.94
261.244	71.94
261.477	77.94
261.71	71.94
261.942	68.94
262.175	74.94
262.407	70.94
262.64	69.94
262.872	74.94
263.105	83.94
263.337	80.94
263.57	78.94
263.802	71.94
264.035	83.94
264.267	81.94
264.499	82.94
264.732	75.94
264.964	79.94
265.197	77.94
265.429	71.94
265.661	85.94
265.894	74.94
266.126	80.94
266.358	75.94
266.591	77.94
266.823	82.94
267.055	80.94
267.287	69.94
267.52	76.94
267.752	71.94
267.984	79.94
268.216	100.94
268.448	82.94
268.681	83.94
268.913	64.94
269.145	73.94
269.377	68.94
269.609	82.94
269.841	67.94
270.073	74.94
270.306	89.94
270.538	79.94
270.77	90.94
271.002	89.94
271.234	68.94
271.466	102.94
271.698	70.94
271.93	83.94
272.162	79.94
272.394	86.94
272.626	79.94
272.858	71.94
273.09	85.94
273.322	83.94
273.553	83.94
273.785	93.94
274.017	84.94
274.249	79.94
274.481	85.94
274.713	67.94
274.945	87.94
275.176	72.94
275.408	102.94
275.64	82.94
275.872	79.94
276.104	83.94
276.335	73.94
276.567	75.94
276.799	77.94
277.031	82.94
277.262	66.94
277.494	81.94
277.726	82.94
277.957	87.94
278.189	86.94
278.421	79.94
278.652	64.94
278.884	57.94
279.115	87.94
279.347	77.94
279.579	85.94
279.81	91.94
280.042	86.94
280.273	80.94
280.505	85.94
280.736	77.94
280.968	83.94
281.199	76.94
281.431	84.94
281.662	72.94
281.894	73.94
282.125	76.94
282.356	93.94
282.588	77.94
282.819	77.94
283.051	68.94
283.282	80.94
283.513	66.94
283.745	91.94
283.976	77.94
284.207	81.94
284.439	80.94
284.67	80.94
284.901	73.94
285.132	78.94
285.364	77.94
285.595	66.94
285.826	83.94
286.057	70.94
286.288	100.94
286.52	78.94
286.751	59.94
286.982	88.94
287.213	85.94
287.444	83.94
287.675	87.94
287.906	77.94
288.138	84.94
288.369	79.94
288.6	93.94
288.831	86.94
289.062	72.94
289.293	84.94
289.524	80.94
289.755	83.94
289.986	75.94
290.217	85.94
290.448	89.94
290.679	83.94
290.91	84.94
291.141	75.94
291.371	77.94
291.602	87.94
291.833	76.94
292.064	79.94
292.295	75.94
292.526	72.94
292.757	79.94
292.987	83.94
293.218	80.94
293.449	67.94
293.68	76.94
293.91	75.94
294.141	87.94
294.372	84.94
294.603	76.94
294.833	82.94
295.064	79.94
295.295	82.94
295.525	81.94
295.756	81.94
295.987	74.94
296.217	89.94
296.448	82.94
296.679	81.94
296.909	79.94
297.14	85.94
297.37	100.94
297.601	68.94
297.831	78.94
298.062	73.94
298.292	86.94
298.523	82.94
298.753	71.94
298.984	70.94
299.214	87.94
299.445	80.94
299.675	85.94
299.905	87.94
300.136	71.94
300.366	79.94
300.597	78.94
300.827	76.94
301.057	79.94
301.288	80.94
301.518	80.94
301.748	87.94
301.979	92.94
302.209	79.94
302.439	85.94
302.669	86.94
302.9	76.94
303.13	79.94
303.36	77.94
303.59	87.94
303.82	79.94
304.051	88.94
304.281	87.94
304.511	84.94
304.741	84.94
304.971	77.94
305.201	86.94
305.431	83.94
305.661	75.94
305.891	92.94
306.121	88.94
306.352	77.94
306.582	87.94
306.812	88.94
307.042	81.94
307.272	76.94
307.502	71.94
307.731	77.94
307.961	67.94
308.191	86.94
308.421	72.94
308.651	78.94
308.881	79.94
309.111	88.94
309.341	76.94
309.571	83.94
309.8	84.94
310.03	77.94
310.26	76.94
310.49	78.94
310.72	69.94
310.949	84.94
311.179	86.94
311.409	79.94
311.639	82.94
311.868	91.94
312.098	90.94
312.328	82.94
312.557	72.94
312.787	63.94
313.017	70.94
313.246	83.94
313.476	95.94
313.706	93.94
313.935	70.94
314.165	75.94
314.394	75.94
314.624	63.94
314.853	78.94
315.083	73.94
315.312	81.94
315.542	83.94
315.771	99.94
316.001	91.94
316.23	85.94
316.46	87.94
316.689	81.94
316.919	81.94
317.148	88.94
317.377	86.94
317.607	77.94
317.836	79.94
318.065	93.94
318.295	76.94
318.524	79.94
318.753	72.94
318.983	77.94
319.212	98.94
319.441	77.94
319.67	84.94
319.9	84.94
320.129	86.94
320.358	94.94
320.587	83.94
320.816	67.94
321.046	89.94
321.275	87.94
321.504	73.94
321.733	83.94
321.962	79.94
322.191	93.94
322.42	83.94
322.649	71.94
322.878	84.94
323.108	85.94
323.337	88.94
323.566	76.94
323.795	77.94
324.024	79.94
324.253	79.94
324.482	89.94
324.71	85.94
324.939	79.94
325.168	99.94
325.397	88.94
325.626	86.94
325.855	88.94
326.084	89.94
326.313	92.94
326.542	83.94
326.77	73.94
326.999	77.94
327.228	81.94
327.457	72.94
327.686	85.94
327.914	84.94
328.143	87.94
328.372	85.94
328.6	82.94
328.829	87.94
329.058	78.94
329.287	70.94
329.515	59.94
329.744	68.94
329.972	89.94
330.201	84.94
330.43	86.94
330.658	91.94
330.887	63.94
331.115	71.94
331.344	72.94
331.572	89.94
331.801	83.94
332.03	85.94
332.258	65.94
332.486	67.94
332.715	92.94
332.943	88.94
333.172	78.94
333.4	79.94
333.629	81.94
333.857	89.94
334.085	79.94
334.314	78.94
334.542	84.94
334.771	84.94
334.999	65.94
335.227	79.94
335.455	86.94
335.684	77.94
335.912	87.94
336.14	63.94
336.369	89.94
336.597	76.94
336.825	100.94
337.053	85.94
337.281	64.94
337.51	63.94
337.738	83.94
337.966	69.94
338.194	74.94
338.422	75.94
338.65	79.94
338.878	87.94
339.106	74.94
339.334	93.94
339.562	74.94
339.79	80.94
340.018	91.94
340.246	83.94
340.474	79.94
340.702	81.94
340.93	78.94
341.158	74.94
341.386	79.94
341.614	77.94
341.842	71.94
342.07	69.94
342.298	78.94
342.526	84.94
342.754	73.94
342.981	79.94
343.209	95.94
343.437	79.94
343.665	81.94
343.893	68.94
344.12	76.94
344.348	78.94
344.576	64.94
344.804	85.94
345.031	86.94
345.259	78.94
345.487	89.94
345.714	91.94
345.942	59.94
346.17	73.94
346.397	86.94
346.625	69.94
346.853	81.94
347.08	69.94
347.308	82.94
347.535	86.94
347.763	77.94
347.99	68.94
348.218	79.94
348.445	82.94
348.673	79.94
348.9	80.94
349.128	80.94
349.355	80.94
349.583	62.94
349.81	85.94
350.037	80.94
350.265	85.94
350.492	77.94
350.72	86.94
350.947	69.94
351.174	76.94
351.402	87.94
351.629	89.94
351.856	74.94
352.083	78.94
352.311	85.94
352.538	85.94
352.765	83.94
352.992	93.94
353.22	87.94
353.447	82.94
353.674	86.94
353.901	95.94
354.128	88.94
354.355	83.94
354.583	87.94
354.81	84.94
355.037	77.94
355.264	81.94
355.491	75.94
355.718	76.94
355.945	84.94
356.172	72.94
356.399	79.94
356.626	77.94
356.853	95.94
357.08	79.94
357.307	71.94
357.534	79.94
357.761	75.94
357.988	74.94
358.215	92.94
358.441	85.94
358.668	80.94
358.895	89.94
359.122	65.94
359.349	70.94
359.576	79.94
359.802	88.94
360.029	88.94
360.256	93.94
360.483	96.94
360.709	70.94
360.936	66.94
361.163	71.94
361.39	72.94
361.616	84.94
361.843	87.94
362.07	84.94
362.296	82.94
362.523	75.94
362.749	69.94
362.976	69.94
363.203	87.94
363.429	83.94
363.656	85.94
363.882	97.94
364.109	93.94
364.335	89.94
364.562	63.94
364.788	76.94
365.015	87.94
365.241	90.94
365.468	93.94
365.694	92.94
365.92	83.94
366.147	74.94
366.373	72.94
366.599	89.94
366.826	87.94
367.052	68.94
367.278	84.94
367.505	70.94
367.731	93.94
367.957	84.94
368.184	69.94
368.41	85.94
368.636	95.94
368.862	74.94
369.089	70.94
369.315	67.94
369.541	72.94
369.767	91.94
369.993	72.94
370.219	83.94
370.445	78.94
370.672	94.94
370.898	84.94
371.124	78.94
371.35	68.94
371.576	85.94
371.802	80.94
372.028	85.94
372.254	94.94
372.48	67.94
372.706	81.94
372.932	73.94
373.158	76.94
373.384	85.94
373.61	76.94
373.835	83.94
374.061	77.94
374.287	73.94
374.513	82.94
374.739	82.94
374.965	81.94
375.191	75.94
375.416	75.94
375.642	74.94
375.868	71.94
376.094	65.94
376.319	87.94
376.545	81.94
376.771	87.94
376.997	69.94
377.222	80.94
377.448	87.94
377.674	85.94
377.899	83.94
378.125	86.94
378.35	83.94
378.576	87.94
378.802	67.94
379.027	82.94
379.253	79.94
379.478	79.94
379.704	91.94
379.929	72.94
380.155	87.94
380.38	84.94
380.606	84.94
380.831	77.94
381.057	71.94
381.282	72.94
381.507	85.94
381.733	87.94
381.958	87.94
382.184	97.94
382.409	74.94
382.634	95.94
382.86	71.94
383.085	69.94
383.31	81.94
383.535	79.94
383.761	85.94
383.986	78.94
384.211	91.94
384.436	89.94
384.662	79.94
384.887	79.94
385.112	71.94
385.337	77.94
385.562	76.94
385.787	85.94
386.013	78.94
386.238	90.94
386.463	67.94
386.688	84.94
386.913	79.94
387.138	80.94
387.363	82.94
387.588	92.94
387.813	80.94
388.038	86.94
388.263	77.94
388.488	80.94
388.713	86.94
388.938	82.94
389.163	84.94
389.387	81.94
389.612	78.94
389.837	76.94
390.062	85.94
390.287	88.94
390.512	82.94
390.736	80.94
390.961	79.94
391.186	72.94
391.411	69.94
391.636	84.94
391.86	71.94
392.085	75.94
392.31	81.94
392.534	68.94
392.759	81.94
392.984	72.94
393.208	81.94
393.433	81.94
393.658	86.94
393.882	93.94
394.107	96.94
394.331	88.94
394.556	87.94
394.78	85.94
395.005	71.94
395.229	81.94
395.454	94.94
395.678	81.94
395.903	73.94
396.127	93.94
396.352	101.94
396.576	80.94
396.801	85.94
397.025	89.94
397.249	80.94
397.474	83.94
397.698	80.94
397.922	83.94
398.147	88.94
398.371	83.94
398.595	89.94
398.82	87.94
399.044	81.94
399.268	73.94
399.492	80.94
399.717	81.94
399.941	70.94
400.165	75.94
400.389	88.94
400.613	89.94
400.837	80.94
401.062	81.94
401.286	86.94
401.51	72.94
401.734	86.94
401.958	76.94
402.182	84.94
402.406	88.94
402.63	73.94
402.854	79.94
403.078	74.94
403.302	74.94
403.526	79.94
403.75	76.94
403.974	81.94
404.198	70.94
404.422	72.94
404.645	91.94
404.869	92.94
405.093	88.94
405.317	72.94
405.541	78.94
405.765	97.94
405.988	97.94
406.212	86.94
406.436	91.94
406.66	83.94
406.883	77.94
407.107	65.94
407.331	83.94
407.555	83.94
407.778	66.94
408.002	69.94
408.226	73.94
408.449	78.94
408.673	67.94
408.896	80.94
409.12	76.94
409.344	68.94
409.567	83.94
409.791	77.94
410.014	76.94
410.238	86.94
410.461	83.94
410.685	69.94
410.908	89.94
411.132	86.94
411.355	76.94
411.578	68.94
411.802	75.94
412.025	68.94
412.249	65.94
412.472	78.94
412.695	83.94
412.919	79.94
413.142	79.94
413.365	76.94
413.589	81.94
413.812	64.94
414.035	78.94
414.258	77.94
414.482	74.94
414.705	74.94
414.928	93.94
415.151	73.94
415.374	84.94
415.597	91.94
415.821	81.94
416.044	84.94
416.267	77.94
416.49	85.94
416.713	84.94
416.936	71.94
417.159	71.94
417.382	71.94
417.605	78.94
417.828	71.94
418.051	71.94
418.274	82.94
418.497	74.94
418.72	79.94
418.943	77.94
419.166	78.94
419.389	72.94
419.611	65.94
419.834	77.94
420.057	89.94
420.28	83.94
420.503	87.94
420.726	69.94
420.948	71.94
421.171	68.94
421.394	89.94
421.617	83.94
421.839	83.94
422.062	83.94
422.285	68.94
422.507	81.94
422.73	91.94
422.953	75.94
423.175	73.94
423.398	77.94
423.621	85.94
423.843	79.94
424.066	89.94
424.288	66.94
424.511	70.94
424.733	76.94
424.956	75.94
425.178	82.94
425.401	71.94
425.623	74.94
425.846	73.94
426.068	64.94
426.291	75.94
426.513	76.94
426.735	73.94
426.958	74.94
427.18	85.94
427.402	69.94
427.625	85.94
427.847	74.94
428.069	72.94
428.292	87.94
428.514	81.94
428.736	83.94
428.958	80.94
429.181	79.94
429.403	75.94
429.625	87.94
429.847	81.94
430.069	78.94
430.292	72.94
430.514	83.94
430.736	77.94
430.958	81.94
431.18	80.94
431.402	76.94
431.624	77.94
431.846	70.94
432.068	91.94
432.29	78.94
432.512	85.94
432.734	76.94
432.956	78.94
433.178	84.94
433.4	69.94
433.622	86.94
433.844	81.94
434.066	80.94
434.287	76.94
434.509	71.94
434.731	72.94
434.953	56.94
435.175	79.94
435.397	84.94
435.618	72.94
435.84	63.94
436.062	84.94
436.284	71.94
436.505	75.94
436.727	69.94
436.949	71.94
437.17	67.94
437.392	85.94
437.614	82.94
437.835	79.94
438.057	83.94
438.278	69.94
438.5	73.94
438.721	83.94
438.943	80.94
439.165	73.94
439.386	84.94
439.608	83.94
439.829	77.94
440.05	86.94
440.272	74.94
440.493	85.94
440.715	79.94
440.936	76.94
441.158	67.94
441.379	73.94
441.6	87.94
441.822	99.94
442.043	74.94
442.264	72.94
442.486	83.94
442.707	83.94
442.928	91.94
443.149	92.94
443.371	76.94
443.592	75.94
443.813	85.94
444.034	89.94
444.255	92.94
444.476	80.94
444.698	88.94
444.919	83.94
445.14	141.94
445.361	110.94
445.582	73.94
445.803	83.94
446.024	72.94
446.245	73.94
446.466	66.94
446.687	85.94
446.908	80.94
447.129	77.94
447.35	75.94
447.571	81.94
447.792	78.94
448.013	68.94
448.234	77.94
448.455	78.94
448.675	79.94
448.896	79.94
449.117	98.94
449.338	86.94
449.559	78.94
449.779	83.94
450	65.94
450.221	70.94
450.442	79.94
450.662	89.94
450.883	75.94
451.104	80.94
451.324	76.94
451.545	78.94
451.766	77.94
451.986	67.94
452.207	65.94
452.428	73.94
452.648	88.94
452.869	70.94
453.089	71.94
453.31	89.94
453.53	84.94
453.751	79.94
453.971	80.94
454.192	80.94
454.412	79.94
454.633	78.94
454.853	84.94
455.073	79.94
455.294	83.94
455.514	99.94
455.734	66.94
455.955	80.94
456.175	78.94
456.395	90.94
456.616	85.94
456.836	76.94
457.056	78.94
457.276	74.94
457.497	67.94
457.717	75.94
457.937	84.94
458.157	71.94
458.377	86.94
458.598	63.94
458.818	76.94
459.038	81.94
459.258	85.94
459.478	86.94
459.698	75.94
459.918	76.94
460.138	78.94
460.358	88.94
460.578	85.94
460.798	77.94
461.018	96.94
461.238	74.94
461.458	80.94
461.678	71.94
461.898	91.94
462.118	82.94
462.338	82.94
462.558	79.94
462.777	71.94
462.997	68.94
463.217	73.94
463.437	90.94
463.657	77.94
463.876	80.94
464.096	88.94
464.316	76.94
464.536	71.94
464.755	89.94
464.975	75.94
465.195	76.94
465.414	80.94
465.634	87.94
465.854	82.94
466.073	72.94
466.293	82.94
466.512	72.94
466.732	88.94
466.951	78.94
467.171	83.94
467.391	96.94
467.61	89.94
467.829	87.94
468.049	77.94
468.268	72.94
468.488	78.94
468.707	71.94
468.927	71.94
469.146	71.94
469.365	71.94
469.585	86.94
469.804	73.94
470.023	74.94
470.243	77.94
470.462	86.94
470.681	76.94
470.901	79.94
471.12	71.94
471.339	66.94
471.558	78.94
471.777	83.94
471.997	69.94
472.216	77.94
472.435	66.94
472.654	79.94
472.873	73.94
473.092	80.94
473.311	86.94
473.53	80.94
473.749	83.94
473.968	81.94
474.187	89.94
474.406	77.94
474.625	98.94
474.844	84.94
475.063	86.94
475.282	81.94
475.501	61.94
475.72	71.94
475.939	77.94
476.158	80.94
476.377	72.94
476.596	92.94
476.814	81.94
477.033	84.94
477.252	85.94
477.471	72.94
477.69	81.94
477.908	69.94
478.127	87.94
478.346	62.94
478.564	86.94
478.783	67.94
479.002	69.94
479.22	88.94
479.439	90.94
479.658	91.94
479.876	78.94
480.095	71.94
480.313	83.94
480.532	67.94
480.751	70.94
480.969	60.94
481.188	72.94
481.406	91.94
481.624	89.94
481.843	72.94
482.061	77.94
482.28	80.94
482.498	71.94
482.717	74.94
482.935	66.94
483.153	83.94
483.372	82.94
483.59	97.94
483.808	83.94
484.027	68.94
484.245	82.94
484.463	69.94
484.681	88.94
484.9	75.94
485.118	87.94
485.336	68.94
485.554	63.94
485.772	75.94
485.99	85.94
486.209	79.94
486.427	78.94
486.645	73.94
486.863	76.94
487.081	69.94
487.299	70.94
487.517	78.94
487.735	82.94
487.953	77.94
488.171	88.94
488.389	83.94
488.607	71.94
488.825	77.94
489.043	79.94
489.261	80.94
489.479	81.94
489.696	83.94
489.914	72.94
490.132	89.94
490.35	65.94
490.568	78.94
490.786	70.94
491.003	70.94
491.221	87.94
491.439	84.94
491.657	91.94
491.874	79.94
492.092	83.94
492.31	78.94
492.527	80.94
492.745	89.94
492.963	79.94
493.18	76.94
493.398	70.94
493.615	79.94
493.833	73.94
494.05	77.94
494.268	77.94
494.485	74.94
494.703	79.94
494.92	79.94
495.138	79.94
495.355	80.94
495.573	91.94
495.79	83.94
496.008	83.94
496.225	76.94
496.442	83.94
496.66	87.94
496.877	77.94
497.094	75.94
497.312	86.94
497.529	96.94
497.746	72.94
497.963	71.94
498.181	74.94
498.398	75.94
498.615	93.94
498.832	76.94
499.049	89.94
499.267	83.94
499.484	79.94
499.701	87.94
499.918	69.94
500.135	79.94
500.352	83.94
500.569	76.94
500.786	83.94
501.003	88.94
501.22	71.94
501.437	80.94
501.654	73.94
501.871	70.94
502.088	80.94
502.305	78.94
502.522	81.94
502.739	71.94
502.956	73.94
503.172	80.94
503.389	63.94
503.606	77.94
503.823	74.94
504.04	88.94
504.256	85.94
504.473	79.94
504.69	93.94
504.907	67.94
505.123	90.94
505.34	82.94
505.557	74.94
505.773	81.94
505.99	79.94
506.207	76.94
506.423	69.94
506.64	75.94
506.856	78.94
507.073	84.94
507.289	82.94
507.506	73.94
507.722	79.94
507.939	92.94
508.155	76.94
508.372	87.94
508.588	82.94
508.805	74.94
509.021	80.94
509.238	72.94
509.454	73.94
509.67	85.94
509.887	82.94
510.103	80.94
510.319	72.94
510.536	66.94
510.752	80.94
510.968	72.94
511.184	67.94
511.401	77.94
511.617	86.94
511.833	79.94
512.049	69.94
512.265	83.94
512.481	73.94
512.698	62.94
512.914	80.94
513.13	92.94
513.346	84.94
513.562	82.94
513.778	79.94
513.994	78.94
514.21	87.94
514.426	79.94
514.642	71.94
514.858	66.94
515.074	79.94
515.29	67.94
515.506	85.94
515.721	78.94
515.937	80.94
516.153	85.94
516.369	76.94
516.585	73.94
516.801	93.94
517.016	78.94
517.232	73.94
517.448	86.94
517.664	93.94
517.879	74.94
518.095	71.94
518.311	77.94
518.527	99.94
518.742	93.94
518.958	77.94
519.173	68.94
519.389	93.94
519.605	95.94
519.82	85.94
520.036	83.94
520.251	72.94
520.467	86.94
520.682	80.94
520.898	97.94
521.113	88.94
521.329	84.94
521.544	77.94
521.76	82.94
521.975	81.94
522.19	78.94
522.406	89.94
522.621	74.94
522.836	76.94
523.052	81.94
523.267	85.94
523.482	83.94
523.698	91.94
523.913	96.94
524.128	79.94
524.343	77.94
524.559	84.94
524.774	72.94
524.989	82.94
525.204	85.94
525.419	92.94
525.634	76.94
525.849	91.94
526.064	85.94
526.28	76.94
526.495	79.94
526.71	75.94
526.925	72.94
527.14	82.94
527.355	79.94
527.57	79.94
527.785	85.94
527.999	69.94
528.214	68.94
528.429	67.94
528.644	89.94
528.859	89.94
529.074	82.94
529.289	73.94
529.503	79.94
529.718	83.94
529.933	71.94
530.148	74.94
530.363	79.94
530.577	68.94
530.792	83.94
531.007	83.94
531.221	84.94
531.436	79.94
531.651	90.94
531.865	63.94
532.08	74.94
532.295	79.94
532.509	80.94
532.724	86.94
532.938	73.94
533.153	63.94
533.367	69.94
533.582	85.94
533.796	67.94
534.011	65.94
534.225	73.94
534.44	92.94
534.654	80.94
534.868	83.94
535.083	67.94
535.297	84.94
535.511	74.94
535.726	73.94
535.94	89.94
536.154	82.94
536.369	88.94
536.583	85.94
536.797	78.94
537.011	83.94
537.225	85.94
537.44	65.94
537.654	85.94
537.868	75.94
538.082	79.94
538.296	91.94
538.51	92.94
538.724	101.94
538.938	89.94
539.153	97.94
539.367	68.94
539.581	69.94
539.795	77.94
540.009	73.94
540.222	82.94
540.436	73.94
540.65	71.94
540.864	74.94
541.078	93.94
541.292	90.94
541.506	77.94
541.72	72.94
541.934	85.94
542.147	70.94
542.361	79.94
542.575	73.94
542.789	85.94
543.002	92.94
543.216	69.94
543.43	72.94
543.644	103.94
543.857	63.94
544.071	85.94
544.285	96.94
544.498	90.94
544.712	94.94
544.925	88.94
545.139	86.94
545.352	90.94
545.566	84.94
545.779	96.94
545.993	85.94
546.206	72.94
546.42	72.94
546.633	80.94
546.847	91.94
547.06	64.94
547.274	86.94
547.487	61.94
547.7	75.94
547.914	99.94
548.127	90.94
548.34	80.94
548.554	86.94
548.767	83.94
548.98	81.94
549.193	94.94
549.407	77.94
549.62	90.94
549.833	90.94
550.046	84.94
550.259	73.94
550.473	84.94
550.686	92.94
550.899	91.94
551.112	70.94
551.325	82.94
551.538	77.94
551.751	71.94
551.964	73.94
552.177	98.94
552.39	71.94
552.603	91.94
552.816	87.94
553.029	103.94
553.242	87.94
553.455	63.94
553.667	86.94
553.88	88.94
554.093	74.94
554.306	85.94
554.519	90.94
554.732	86.94
554.944	82.94
555.157	79.94
555.37	79.94
555.583	94.94
555.795	77.94
556.008	93.94
556.221	73.94
556.433	85.94
556.646	70.94
556.859	87.94
557.071	71.94
557.284	91.94
557.496	78.94
557.709	83.94
557.921	96.94
558.134	99.94
558.346	79.94
558.559	85.94
558.771	82.94
558.984	71.94
559.196	73.94
559.409	87.94
559.621	87.94
559.833	67.94
560.046	80.94
560.258	79.94
560.47	88.94
560.683	85.94
560.895	79.94
561.107	73.94
561.32	71.94
561.532	83.94
561.744	91.94
561.956	87.94
562.168	70.94
562.381	72.94
562.593	76.94
562.805	79.94
563.017	80.94
563.229	70.94
563.441	87.94
563.653	81.94
563.865	81.94
564.077	78.94
564.289	77.94
564.501	61.94
564.713	83.94
564.925	73.94
565.137	84.94
565.349	87.94
565.561	84.94
565.773	76.94
565.985	87.94
566.197	77.94
566.408	65.94
566.62	85.94
566.832	79.94
567.044	81.94
567.255	85.94
567.467	88.94
567.679	82.94
567.891	82.94
568.102	79.94
568.314	92.94
568.526	73.94
568.737	83.94
568.949	87.94
569.161	87.94
569.372	87.94
569.584	78.94
569.795	86.94
570.007	73.94
570.218	85.94
570.43	93.94
570.641	67.94
570.853	69.94
571.064	72.94
571.276	89.94
571.487	79.94
571.698	100.94
571.91	85.94
572.121	95.94
572.333	78.94
572.544	75.94
572.755	86.94
572.966	75.94
573.178	75.94
573.389	86.94
573.6	74.94
573.811	91.94
574.023	87.94
574.234	74.94
574.445	83.94
574.656	91.94
574.867	85.94
575.078	70.94
575.289	89.94
575.501	98.94
575.712	73.94
575.923	84.94
576.134	77.94
576.345	79.94
576.556	68.94
576.767	85.94
576.978	69.94
577.188	71.94
577.399	79.94
577.61	87.94
577.821	76.94
578.032	75.94
578.243	75.94
578.454	97.94
578.665	73.94
578.875	68.94
579.086	81.94
579.297	82.94
579.508	90.94
579.718	77.94
579.929	79.94
580.14	80.94
580.35	79.94
580.561	93.94
580.772	85.94
580.982	81.94
581.193	94.94
581.403	83.94
581.614	86.94
581.825	82.94
582.035	66.94
582.246	83.94
582.456	78.94
582.667	80.94
582.877	91.94
583.087	79.94
583.298	79.94
583.508	79.94
583.719	77.94
583.929	86.94
584.139	83.94
584.35	69.94
584.56	72.94
584.77	96.94
584.981	80.94
585.191	80.94
585.401	83.94
585.611	87.94
585.821	78.94
586.032	81.94
586.242	80.94
586.452	76.94
586.662	75.94
586.872	65.94
587.082	84.94
587.292	70.94
587.502	87.94
587.713	80.94
587.923	86.94
588.133	80.94
588.343	88.94
588.553	78.94
588.762	103.94
588.972	127.94
589.182	231.94
589.392	183.94
589.602	147.94
589.812	199.94
590.022	134.94
590.232	85.94
590.441	99.94
590.651	91.94
590.861	81.94
591.071	72.94
591.281	81.94
591.49	86.94
591.7	78.94
591.91	70.94
592.119	87.94
592.329	79.94
592.539	74.94
592.748	77.94
592.958	79.94
593.167	89.94
593.377	93.94
593.587	86.94
593.796	95.94
594.006	66.94
594.215	81.94
594.424	71.94
594.634	72.94
594.843	87.94
595.053	81.94
595.262	79.94
595.472	84.94
595.681	73.94
595.89	85.94
596.1	81.94
596.309	83.94
596.518	87.94
596.727	77.94
596.937	99.94
597.146	78.94
597.355	83.94
597.564	67.94
597.774	88.94
597.983	66.94
598.192	79.94
598.401	81.94
598.61	93.94
598.819	90.94
599.028	74.94
599.237	77.94
599.446	81.94
599.655	75.94
599.864	81.94
600.073	77.94
600.282	88.94
600.491	84.94
600.7	82.94
600.909	76.94
601.118	73.94
601.327	73.94
601.536	82.94
601.745	96.94
601.953	69.94
602.162	91.94
602.371	76.94
602.58	85.94
602.789	88.94
602.997	74.94
603.206	81.94
603.415	83.94
603.623	85.94
603.832	84.94
604.041	87.94
604.249	84.94
604.458	76.94
604.666	83.94
604.875	71.94
605.084	71.94
605.292	80.94
605.501	79.94
605.709	74.94
605.918	71.94
606.126	77.94
606.334	84.94
606.543	91.94
606.751	81.94
606.96	83.94
607.168	88.94
607.376	72.94
607.585	64.94
607.793	95.94
608.001	74.94
608.21	81.94
608.418	77.94
608.626	77.94
608.834	77.94
609.043	73.94
609.251	76.94
609.459	81.94
609.667	74.94
609.875	85.94
610.083	69.94
610.291	85.94
610.499	83.94
610.707	84.94
610.916	69.94
611.124	71.94
611.332	70.94
611.54	76.94
611.748	78.94
611.955	76.94
612.163	83.94
612.371	87.94
612.579	92.94
612.787	75.94
612.995	74.94
613.203	80.94
613.411	74.94
613.618	73.94
613.826	100.94
614.034	85.94
614.242	70.94
614.449	80.94
614.657	90.94
614.865	72.94
615.072	94.94
615.28	77.94
615.488	82.94
615.695	75.94
615.903	79.94
616.111	95.94
616.318	71.94
616.526	90.94
616.733	83.94
616.941	78.94
617.148	89.94
617.356	88.94
617.563	80.94
617.771	80.94
617.978	74.94
618.185	83.94
618.393	63.94
618.6	74.94
618.807	82.94
619.015	87.94
619.222	77.94
619.429	86.94
619.637	87.94
619.844	80.94
620.051	85.94
620.258	84.94
620.466	70.94
620.673	87.94
620.88	84.94
621.087	86.94
621.294	71.94
621.501	84.94
621.708	80.94
621.915	84.94
622.122	86.94
622.329	84.94
622.536	79.94
622.743	77.94
622.95	84.94
623.157	70.94
623.364	73.94
623.571	69.94
623.778	91.94
623.985	79.94
624.192	74.94
624.399	70.94
624.606	71.94
624.812	92.94
625.019	98.94
625.226	78.94
625.433	72.94
625.639	82.94
625.846	79.94
626.053	70.94
626.259	87.94
626.466	69.94
626.673	72.94
626.879	72.94
627.086	76.94
627.293	82.94
627.499	81.94
627.706	87.94
627.912	60.94
628.119	71.94
628.325	83.94
628.532	94.94
628.738	81.94
628.945	78.94
629.151	83.94
629.357	82.94
629.564	74.94
629.77	76.94
629.976	81.94
630.183	82.94
630.389	92.94
630.595	72.94
630.802	56.94
631.008	79.94
631.214	82.94
631.42	71.94
631.627	80.94
631.833	88.94
632.039	83.94
632.245	79.94
632.451	61.94
632.657	72.94
632.863	84.94
633.069	76.94
633.275	72.94
633.481	88.94
633.688	88.94
633.893	85.94
634.099	72.94
634.305	94.94
634.511	76.94
634.717	86.94
634.923	78.94
635.129	78.94
635.335	57.94
635.541	78.94
635.747	84.94
635.952	92.94
636.158	85.94
636.364	74.94
636.57	77.94
636.775	81.94
636.981	69.94
637.187	75.94
637.392	84.94
637.598	75.94
637.804	87.94
638.009	70.94
638.215	74.94
638.421	77.94
638.626	81.94
638.832	84.94
639.037	82.94
639.243	69.94
639.448	73.94
639.654	90.94
639.859	70.94
640.065	84.94
640.27	83.94
640.475	63.94
640.681	89.94
640.886	74.94
641.091	82.94
641.297	65.94
641.502	75.94
641.707	83.94
641.913	84.94
642.118	82.94
642.323	84.94
642.528	89.94
642.733	88.94
642.939	77.94
643.144	65.94
643.349	88.94
643.554	79.94
643.759	74.94
643.964	72.94
644.169	93.94
644.374	87.94
644.579	87.94
644.784	78.94
644.989	78.94
645.194	78.94
645.399	87.94
645.604	83.94
645.809	76.94
646.014	89.94
646.219	74.94
646.423	94.94
646.628	87.94
646.833	65.94
647.038	77.94
647.243	70.94
647.447	81.94
647.652	74.94
647.857	69.94
648.062	74.94
648.266	82.94
648.471	80.94
648.676	87.94
648.88	80.94
649.085	84.94
649.289	97.94
649.494	82.94
649.698	77.94
649.903	78.94
650.107	65.94
650.312	82.94
650.516	78.94
650.721	88.94
650.925	64.94
651.13	78.94
651.334	83.94
651.539	82.94
651.743	87.94
651.947	76.94
652.152	93.94
652.356	71.94
652.56	79.94
652.764	83.94
652.969	90.94
653.173	66.94
653.377	88.94
653.581	93.94
653.785	69.94
653.99	83.94
654.194	82.94
654.398	72.94
654.602	81.94
654.806	67.94
655.01	73.94
655.214	83.94
655.418	75.94
655.622	84.94
655.826	92.94
656.03	83.94
656.234	84.94
656.438	86.94
656.642	77.94
656.846	83.94
657.049	79.94
657.253	81.94
657.457	84.94
657.661	95.94
657.865	87.94
658.068	82.94
658.272	74.94
658.476	83.94
658.68	79.94
658.883	76.94
659.087	77.94
659.291	87.94
659.494	80.94
659.698	65.94
659.901	83.94
660.105	81.94
660.309	72.94
660.512	67.94
660.716	86.94
660.919	79.94
661.123	67.94
661.326	80.94
661.53	77.94
661.733	84.94
661.936	73.94
662.14	73.94
662.343	73.94
662.546	66.94
662.75	87.94
662.953	75.94
663.156	85.94
663.36	81.94
663.563	83.94
663.766	70.94
663.969	67.94
664.173	63.94
664.376	75.94
664.579	85.94
664.782	92.94
664.985	78.94
665.188	84.94
665.391	78.94
665.594	78.94
665.797	81.94
666	61.94
666.203	81.94
666.406	75.94
666.609	76.94
666.812	69.94
667.015	72.94
667.218	78.94
667.421	83.94
667.624	79.94
667.827	77.94
668.03	82.94
668.232	77.94
668.435	79.94
668.638	71.94
668.841	90.94
669.043	89.94
669.246	77.94
669.449	89.94
669.651	80.94
669.854	90.94
670.057	74.94
670.259	89.94
670.462	75.94
670.665	79.94
670.867	87.94
671.07	76.94
671.272	87.94
671.475	79.94
671.677	83.94
671.88	81.94
672.082	92.94
672.284	83.94
672.487	83.94
672.689	74.94
672.892	81.94
