Data from Lead_15_1_HRD10591_00096.txt Node
Date: Fri Feb 20 11:06:00 EST 2026
User: Yrep
Spectrometer: HR+D1059
Trigger mode: 1
Integration Time (sec): 1.000000E-1
Scans to average: 1
Electric dark correction enabled: true
Nonlinearity correction enabled: false
Boxcar width: 0
XAxis mode: Wavelengths
Number of Pixels in Spectrum: 2048
>>>>>Begin Spectral Data<<<<<
223.165	-20.38
223.4	-20.38
223.635	-20.38
223.869	-10.38
224.104	-20.38
224.338	-6.38
224.573	-27.38
224.808	-9.38
225.042	-14.38
225.277	-6.38
225.511	-6.38
225.746	13.62
225.98	10.62
226.215	21.62
226.449	15.62
226.683	11.62
226.918	28.62
227.152	19.62
227.387	21.62
227.621	35.62
227.856	48.62
228.09	38.62
228.324	35.62
228.559	61.62
228.793	51.62
229.027	71.62
229.262	64.62
229.496	65.62
229.73	70.62
229.964	57.62
230.199	59.62
230.433	80.62
230.667	83.62
230.901	73.62
231.136	78.62
231.37	81.62
231.604	72.62
231.838	80.62
232.072	91.62
232.306	85.62
232.541	88.62
232.775	75.62
233.009	88.62
233.243	78.62
233.477	85.62
233.711	90.62
233.945	76.62
234.179	93.62
234.413	72.62
234.647	66.62
234.881	84.62
235.115	83.62
235.349	74.62
235.583	75.62
235.817	61.62
236.051	70.62
236.285	69.62
236.519	79.62
236.753	73.62
236.987	76.62
237.221	69.62
237.455	67.62
237.689	72.62
237.922	76.62
238.156	69.62
238.39	74.62
238.624	71.62
238.858	94.62
239.091	85.62
239.325	71.62
239.559	72.62
239.793	84.62
240.027	76.62
240.26	73.62
240.494	64.62
240.728	73.62
240.961	63.62
241.195	85.62
241.429	79.62
241.662	75.62
241.896	75.62
242.13	65.62
242.363	70.62
242.597	82.62
242.83	90.62
243.064	75.62
243.298	79.62
243.531	67.62
243.765	88.62
243.998	74.62
244.232	74.62
244.465	73.62
244.699	90.62
244.932	87.62
245.166	74.62
245.399	86.62
245.633	74.62
245.866	69.62
246.099	81.62
246.333	56.62
246.566	62.62
246.8	81.62
247.033	76.62
247.266	81.62
247.5	90.62
247.733	71.62
247.966	73.62
248.2	79.62
248.433	93.62
248.666	73.62
248.899	77.62
249.133	73.62
249.366	86.62
249.599	75.62
249.832	81.62
250.066	81.62
250.299	84.62
250.532	61.62
250.765	79.62
250.998	78.62
251.231	79.62
251.465	87.62
251.698	81.62
251.931	85.62
252.164	88.62
252.397	81.62
252.63	75.62
252.863	68.62
253.096	70.62
253.329	86.62
253.562	90.62
253.795	94.62
254.028	88.62
254.261	76.62
254.494	69.62
254.727	83.62
254.96	78.62
255.193	77.62
255.426	71.62
255.659	73.62
255.892	75.62
256.124	93.62
256.357	81.62
256.59	82.62
256.823	87.62
257.056	89.62
257.289	79.62
257.521	70.62
257.754	92.62
257.987	72.62
258.22	68.62
258.452	75.62
258.685	69.62
258.918	89.62
259.151	74.62
259.383	81.62
259.616	74.62
259.849	81.62
260.081	65.62
260.314	80.62
260.547	85.62
260.779	82.62
261.012	87.62
261.244	72.62
261.477	89.62
261.71	81.62
261.942	78.62
262.175	83.62
262.407	102.62
262.64	81.62
262.872	91.62
263.105	78.62
263.337	95.62
263.57	75.62
263.802	92.62
264.035	93.62
264.267	90.62
264.499	83.62
264.732	90.62
264.964	87.62
265.197	70.62
265.429	58.62
265.661	74.62
265.894	91.62
266.126	75.62
266.358	85.62
266.591	70.62
266.823	97.62
267.055	84.62
267.287	89.62
267.52	93.62
267.752	72.62
267.984	89.62
268.216	76.62
268.448	80.62
268.681	93.62
268.913	92.62
269.145	83.62
269.377	82.62
269.609	83.62
269.841	94.62
270.073	88.62
270.306	88.62
270.538	76.62
270.77	77.62
271.002	75.62
271.234	86.62
271.466	85.62
271.698	80.62
271.93	94.62
272.162	74.62
272.394	81.62
272.626	79.62
272.858	78.62
273.09	91.62
273.322	89.62
273.553	90.62
273.785	81.62
274.017	90.62
274.249	98.62
274.481	73.62
274.713	81.62
274.945	78.62
275.176	99.62
275.408	79.62
275.64	74.62
275.872	97.62
276.104	95.62
276.335	96.62
276.567	91.62
276.799	89.62
277.031	87.62
277.262	81.62
277.494	86.62
277.726	76.62
277.957	73.62
278.189	67.62
278.421	107.62
278.652	82.62
278.884	72.62
279.115	91.62
279.347	93.62
279.579	85.62
279.81	80.62
280.042	77.62
280.273	76.62
280.505	95.62
280.736	88.62
280.968	83.62
281.199	88.62
281.431	73.62
281.662	76.62
281.894	71.62
282.125	85.62
282.356	73.62
282.588	88.62
282.819	77.62
283.051	83.62
283.282	91.62
283.513	89.62
283.745	82.62
283.976	87.62
284.207	95.62
284.439	85.62
284.67	87.62
284.901	86.62
285.132	69.62
285.364	98.62
285.595	83.62
285.826	88.62
286.057	77.62
286.288	86.62
286.52	69.62
286.751	79.62
286.982	95.62
287.213	77.62
287.444	87.62
287.675	82.62
287.906	93.62
288.138	91.62
288.369	76.62
288.6	85.62
288.831	83.62
289.062	85.62
289.293	72.62
289.524	93.62
289.755	71.62
289.986	88.62
290.217	96.62
290.448	73.62
290.679	82.62
290.91	79.62
291.141	82.62
291.371	79.62
291.602	99.62
291.833	87.62
292.064	83.62
292.295	96.62
292.526	74.62
292.757	80.62
292.987	81.62
293.218	81.62
293.449	92.62
293.68	84.62
293.91	88.62
294.141	89.62
294.372	79.62
294.603	77.62
294.833	88.62
295.064	86.62
295.295	91.62
295.525	94.62
295.756	90.62
295.987	86.62
296.217	94.62
296.448	92.62
296.679	86.62
296.909	85.62
297.14	83.62
297.37	73.62
297.601	77.62
297.831	79.62
298.062	97.62
298.292	77.62
298.523	81.62
298.753	82.62
298.984	84.62
299.214	86.62
299.445	78.62
299.675	86.62
299.905	89.62
300.136	89.62
300.366	87.62
300.597	100.62
300.827	81.62
301.057	89.62
301.288	100.62
301.518	75.62
301.748	100.62
301.979	95.62
302.209	82.62
302.439	89.62
302.669	86.62
302.9	69.62
303.13	82.62
303.36	70.62
303.59	81.62
303.82	97.62
304.051	88.62
304.281	88.62
304.511	92.62
304.741	78.62
304.971	78.62
305.201	81.62
305.431	88.62
305.661	74.62
305.891	85.62
306.121	75.62
306.352	87.62
306.582	76.62
306.812	90.62
307.042	75.62
307.272	74.62
307.502	81.62
307.731	72.62
307.961	88.62
308.191	95.62
308.421	91.62
308.651	81.62
308.881	81.62
309.111	71.62
309.341	75.62
309.571	78.62
309.8	62.62
310.03	88.62
310.26	83.62
310.49	87.62
310.72	91.62
310.949	91.62
311.179	85.62
311.409	87.62
311.639	88.62
311.868	85.62
312.098	75.62
312.328	90.62
312.557	71.62
312.787	77.62
313.017	83.62
313.246	76.62
313.476	67.62
313.706	82.62
313.935	80.62
314.165	73.62
314.394	84.62
314.624	91.62
314.853	86.62
315.083	75.62
315.312	86.62
315.542	79.62
315.771	81.62
316.001	86.62
316.23	79.62
316.46	93.62
316.689	100.62
316.919	82.62
317.148	77.62
317.377	87.62
317.607	93.62
317.836	94.62
318.065	90.62
318.295	103.62
318.524	81.62
318.753	85.62
318.983	89.62
319.212	101.62
319.441	82.62
319.67	88.62
319.9	76.62
320.129	83.62
320.358	73.62
320.587	63.62
320.816	92.62
321.046	92.62
321.275	99.62
321.504	92.62
321.733	82.62
321.962	74.62
322.191	73.62
322.42	86.62
322.649	92.62
322.878	88.62
323.108	89.62
323.337	87.62
323.566	79.62
323.795	87.62
324.024	81.62
324.253	82.62
324.482	87.62
324.71	74.62
324.939	77.62
325.168	71.62
325.397	88.62
325.626	75.62
325.855	88.62
326.084	90.62
326.313	93.62
326.542	75.62
326.77	93.62
326.999	82.62
327.228	114.62
327.457	88.62
327.686	87.62
327.914	88.62
328.143	86.62
328.372	87.62
328.6	93.62
328.829	89.62
329.058	76.62
329.287	88.62
329.515	80.62
329.744	81.62
329.972	84.62
330.201	99.62
330.43	72.62
330.658	74.62
330.887	73.62
331.115	97.62
331.344	96.62
331.572	84.62
331.801	90.62
332.03	86.62
332.258	87.62
332.486	75.62
332.715	84.62
332.943	71.62
333.172	86.62
333.4	67.62
333.629	85.62
333.857	72.62
334.085	80.62
334.314	90.62
334.542	82.62
334.771	88.62
334.999	77.62
335.227	85.62
335.455	86.62
335.684	84.62
335.912	82.62
336.14	85.62
336.369	95.62
336.597	91.62
336.825	87.62
337.053	74.62
337.281	84.62
337.51	81.62
337.738	75.62
337.966	87.62
338.194	83.62
338.422	81.62
338.65	83.62
338.878	101.62
339.106	70.62
339.334	82.62
339.562	79.62
339.79	81.62
340.018	87.62
340.246	95.62
340.474	80.62
340.702	86.62
340.93	87.62
341.158	86.62
341.386	90.62
341.614	83.62
341.842	76.62
342.07	72.62
342.298	79.62
342.526	100.62
342.754	86.62
342.981	85.62
343.209	74.62
343.437	101.62
343.665	88.62
343.893	66.62
344.12	90.62
344.348	87.62
344.576	88.62
344.804	77.62
345.031	76.62
345.259	81.62
345.487	87.62
345.714	89.62
345.942	93.62
346.17	94.62
346.397	88.62
346.625	80.62
346.853	81.62
347.08	91.62
347.308	69.62
347.535	75.62
347.763	89.62
347.99	93.62
348.218	90.62
348.445	87.62
348.673	75.62
348.9	75.62
349.128	92.62
349.355	87.62
349.583	74.62
349.81	91.62
350.037	83.62
350.265	97.62
350.492	83.62
350.72	86.62
350.947	87.62
351.174	90.62
351.402	79.62
351.629	93.62
351.856	77.62
352.083	80.62
352.311	69.62
352.538	99.62
352.765	66.62
352.992	85.62
353.22	81.62
353.447	80.62
353.674	85.62
353.901	77.62
354.128	74.62
354.355	79.62
354.583	71.62
354.81	85.62
355.037	91.62
355.264	81.62
355.491	69.62
355.718	92.62
355.945	68.62
356.172	79.62
356.399	70.62
356.626	85.62
356.853	90.62
357.08	87.62
357.307	83.62
357.534	75.62
357.761	83.62
357.988	74.62
358.215	85.62
358.441	83.62
358.668	85.62
358.895	87.62
359.122	95.62
359.349	79.62
359.576	81.62
359.802	83.62
360.029	87.62
360.256	81.62
360.483	86.62
360.709	72.62
360.936	93.62
361.163	76.62
361.39	96.62
361.616	85.62
361.843	93.62
362.07	83.62
362.296	77.62
362.523	85.62
362.749	80.62
362.976	83.62
363.203	82.62
363.429	80.62
363.656	73.62
363.882	88.62
364.109	64.62
364.335	88.62
364.562	78.62
364.788	94.62
365.015	92.62
365.241	78.62
365.468	90.62
365.694	89.62
365.92	83.62
366.147	75.62
366.373	90.62
366.599	69.62
366.826	77.62
367.052	96.62
367.278	93.62
367.505	81.62
367.731	96.62
367.957	84.62
368.184	80.62
368.41	89.62
368.636	79.62
368.862	71.62
369.089	79.62
369.315	81.62
369.541	70.62
369.767	93.62
369.993	79.62
370.219	82.62
370.445	87.62
370.672	81.62
370.898	79.62
371.124	83.62
371.35	75.62
371.576	81.62
371.802	95.62
372.028	85.62
372.254	72.62
372.48	89.62
372.706	78.62
372.932	83.62
373.158	83.62
373.384	85.62
373.61	81.62
373.835	84.62
374.061	87.62
374.287	81.62
374.513	81.62
374.739	90.62
374.965	84.62
375.191	86.62
375.416	83.62
375.642	71.62
375.868	95.62
376.094	88.62
376.319	82.62
376.545	96.62
376.771	83.62
376.997	75.62
377.222	79.62
377.448	69.62
377.674	78.62
377.899	95.62
378.125	76.62
378.35	83.62
378.576	83.62
378.802	80.62
379.027	96.62
379.253	82.62
379.478	81.62
379.704	88.62
379.929	84.62
380.155	86.62
380.38	80.62
380.606	63.62
380.831	86.62
381.057	80.62
381.282	99.62
381.507	76.62
381.733	77.62
381.958	76.62
382.184	83.62
382.409	85.62
382.634	86.62
382.86	78.62
383.085	76.62
383.31	70.62
383.535	82.62
383.761	91.62
383.986	96.62
384.211	83.62
384.436	79.62
384.662	78.62
384.887	85.62
385.112	67.62
385.337	79.62
385.562	87.62
385.787	80.62
386.013	90.62
386.238	76.62
386.463	95.62
386.688	97.62
386.913	78.62
387.138	86.62
387.363	85.62
387.588	85.62
387.813	74.62
388.038	73.62
388.263	73.62
388.488	81.62
388.713	77.62
388.938	81.62
389.163	82.62
389.387	80.62
389.612	82.62
389.837	71.62
390.062	95.62
390.287	93.62
390.512	80.62
390.736	83.62
390.961	72.62
391.186	82.62
391.411	90.62
391.636	77.62
391.86	81.62
392.085	85.62
392.31	79.62
392.534	79.62
392.759	76.62
392.984	79.62
393.208	76.62
393.433	83.62
393.658	97.62
393.882	83.62
394.107	93.62
394.331	89.62
394.556	98.62
394.78	91.62
395.005	61.62
395.229	85.62
395.454	93.62
395.678	77.62
395.903	77.62
396.127	85.62
396.352	85.62
396.576	94.62
396.801	85.62
397.025	81.62
397.249	90.62
397.474	89.62
397.698	85.62
397.922	89.62
398.147	77.62
398.371	91.62
398.595	96.62
398.82	79.62
399.044	67.62
399.268	84.62
399.492	87.62
399.717	80.62
399.941	75.62
400.165	89.62
400.389	72.62
400.613	89.62
400.837	87.62
401.062	70.62
401.286	82.62
401.51	69.62
401.734	85.62
401.958	81.62
402.182	79.62
402.406	85.62
402.63	89.62
402.854	89.62
403.078	90.62
403.302	90.62
403.526	86.62
403.75	91.62
403.974	97.62
404.198	92.62
404.422	101.62
404.645	113.62
404.869	109.62
405.093	81.62
405.317	90.62
405.541	79.62
405.765	79.62
405.988	95.62
406.212	83.62
406.436	82.62
406.66	75.62
406.883	76.62
407.107	90.62
407.331	72.62
407.555	72.62
407.778	94.62
408.002	75.62
408.226	83.62
408.449	89.62
408.673	81.62
408.896	87.62
409.12	81.62
409.344	77.62
409.567	71.62
409.791	83.62
410.014	76.62
410.238	85.62
410.461	68.62
410.685	89.62
410.908	81.62
411.132	81.62
411.355	89.62
411.578	88.62
411.802	91.62
412.025	91.62
412.249	83.62
412.472	85.62
412.695	88.62
412.919	94.62
413.142	97.62
413.365	94.62
413.589	85.62
413.812	86.62
414.035	90.62
414.258	80.62
414.482	78.62
414.705	85.62
414.928	77.62
415.151	74.62
415.374	76.62
415.597	68.62
415.821	87.62
416.044	86.62
416.267	76.62
416.49	81.62
416.713	72.62
416.936	90.62
417.159	83.62
417.382	85.62
417.605	77.62
417.828	81.62
418.051	89.62
418.274	92.62
418.497	91.62
418.72	93.62
418.943	87.62
419.166	86.62
419.389	73.62
419.611	76.62
419.834	77.62
420.057	83.62
420.28	88.62
420.503	88.62
420.726	75.62
420.948	75.62
421.171	89.62
421.394	80.62
421.617	79.62
421.839	78.62
422.062	83.62
422.285	71.62
422.507	94.62
422.73	85.62
422.953	79.62
423.175	78.62
423.398	74.62
423.621	83.62
423.843	78.62
424.066	75.62
424.288	85.62
424.511	84.62
424.733	84.62
424.956	74.62
425.178	79.62
425.401	70.62
425.623	75.62
425.846	83.62
426.068	88.62
426.291	74.62
426.513	87.62
426.735	96.62
426.958	73.62
427.18	80.62
427.402	81.62
427.625	93.62
427.847	85.62
428.069	95.62
428.292	76.62
428.514	93.62
428.736	82.62
428.958	89.62
429.181	87.62
429.403	75.62
429.625	76.62
429.847	81.62
430.069	74.62
430.292	82.62
430.514	84.62
430.736	81.62
430.958	75.62
431.18	75.62
431.402	78.62
431.624	81.62
431.846	72.62
432.068	97.62
432.29	79.62
432.512	101.62
432.734	81.62
432.956	76.62
433.178	89.62
433.4	74.62
433.622	86.62
433.844	87.62
434.066	79.62
434.287	84.62
434.509	86.62
434.731	86.62
434.953	81.62
435.175	85.62
435.397	96.62
435.618	77.62
435.84	84.62
436.062	78.62
436.284	86.62
436.505	92.62
436.727	83.62
436.949	79.62
437.17	78.62
437.392	87.62
437.614	66.62
437.835	72.62
438.057	78.62
438.278	75.62
438.5	80.62
438.721	81.62
438.943	80.62
439.165	84.62
439.386	72.62
439.608	74.62
439.829	89.62
440.05	88.62
440.272	90.62
440.493	78.62
440.715	91.62
440.936	87.62
441.158	77.62
441.379	77.62
441.6	82.62
441.822	89.62
442.043	101.62
442.264	73.62
442.486	91.62
442.707	104.62
442.928	82.62
443.149	81.62
443.371	85.62
443.592	67.62
443.813	75.62
444.034	95.62
444.255	89.62
444.476	97.62
444.698	72.62
444.919	78.62
445.14	145.62
445.361	111.62
445.582	80.62
445.803	85.62
446.024	74.62
446.245	79.62
446.466	81.62
446.687	77.62
446.908	88.62
447.129	82.62
447.35	82.62
447.571	92.62
447.792	92.62
448.013	88.62
448.234	85.62
448.455	79.62
448.675	78.62
448.896	88.62
449.117	84.62
449.338	81.62
449.559	87.62
449.779	71.62
450	67.62
450.221	91.62
450.442	94.62
450.662	73.62
450.883	69.62
451.104	84.62
451.324	82.62
451.545	81.62
451.766	101.62
451.986	76.62
452.207	87.62
452.428	73.62
452.648	99.62
452.869	85.62
453.089	79.62
453.31	85.62
453.53	71.62
453.751	89.62
453.971	74.62
454.192	83.62
454.412	81.62
454.633	81.62
454.853	75.62
455.073	76.62
455.294	71.62
455.514	83.62
455.734	85.62
455.955	79.62
456.175	78.62
456.395	81.62
456.616	80.62
456.836	76.62
457.056	75.62
457.276	80.62
457.497	81.62
457.717	74.62
457.937	79.62
458.157	70.62
458.377	75.62
458.598	85.62
458.818	85.62
459.038	75.62
459.258	86.62
459.478	81.62
459.698	86.62
459.918	72.62
460.138	85.62
460.358	91.62
460.578	85.62
460.798	97.62
461.018	78.62
461.238	71.62
461.458	86.62
461.678	73.62
461.898	76.62
462.118	90.62
462.338	85.62
462.558	77.62
462.777	87.62
462.997	82.62
463.217	87.62
463.437	92.62
463.657	78.62
463.876	90.62
464.096	76.62
464.316	77.62
464.536	86.62
464.755	86.62
464.975	76.62
465.195	85.62
465.414	87.62
465.634	95.62
465.854	76.62
466.073	84.62
466.293	80.62
466.512	58.62
466.732	67.62
466.951	85.62
467.171	81.62
467.391	76.62
467.61	86.62
467.829	79.62
468.049	83.62
468.268	73.62
468.488	78.62
468.707	86.62
468.927	79.62
469.146	69.62
469.365	84.62
469.585	83.62
469.804	94.62
470.023	82.62
470.243	88.62
470.462	84.62
470.681	94.62
470.901	82.62
471.12	96.62
471.339	92.62
471.558	81.62
471.777	82.62
471.997	74.62
472.216	72.62
472.435	84.62
472.654	69.62
472.873	71.62
473.092	67.62
473.311	80.62
473.53	88.62
473.749	81.62
473.968	92.62
474.187	81.62
474.406	90.62
474.625	96.62
474.844	86.62
475.063	76.62
475.282	93.62
475.501	74.62
475.72	73.62
475.939	79.62
476.158	98.62
476.377	81.62
476.596	90.62
476.814	93.62
477.033	73.62
477.252	88.62
477.471	88.62
477.69	80.62
477.908	86.62
478.127	87.62
478.346	82.62
478.564	82.62
478.783	73.62
479.002	88.62
479.22	93.62
479.439	90.62
479.658	85.62
479.876	101.62
480.095	76.62
480.313	93.62
480.532	87.62
480.751	74.62
480.969	79.62
481.188	79.62
481.406	86.62
481.624	89.62
481.843	88.62
482.061	90.62
482.28	87.62
482.498	73.62
482.717	86.62
482.935	82.62
483.153	91.62
483.372	90.62
483.59	103.62
483.808	81.62
484.027	77.62
484.245	84.62
484.463	81.62
484.681	90.62
484.9	77.62
485.118	77.62
485.336	87.62
485.554	96.62
485.772	93.62
485.99	72.62
486.209	104.62
486.427	80.62
486.645	76.62
486.863	93.62
487.081	70.62
487.299	78.62
487.517	89.62
487.735	77.62
487.953	84.62
488.171	85.62
488.389	76.62
488.607	63.62
488.825	93.62
489.043	83.62
489.261	93.62
489.479	72.62
489.696	82.62
489.914	78.62
490.132	81.62
490.35	92.62
490.568	86.62
490.786	97.62
491.003	89.62
491.221	77.62
491.439	73.62
491.657	84.62
491.874	89.62
492.092	89.62
492.31	92.62
492.527	89.62
492.745	91.62
492.963	100.62
493.18	95.62
493.398	92.62
493.615	95.62
493.833	73.62
494.05	89.62
494.268	74.62
494.485	81.62
494.703	78.62
494.92	81.62
495.138	98.62
495.355	90.62
495.573	81.62
495.79	77.62
496.008	83.62
496.225	79.62
496.442	79.62
496.66	81.62
496.877	73.62
497.094	84.62
497.312	95.62
497.529	83.62
497.746	93.62
497.963	85.62
498.181	83.62
498.398	93.62
498.615	70.62
498.832	67.62
499.049	79.62
499.267	90.62
499.484	84.62
499.701	83.62
499.918	90.62
500.135	75.62
500.352	87.62
500.569	81.62
500.786	85.62
501.003	75.62
501.22	96.62
501.437	77.62
501.654	88.62
501.871	79.62
502.088	89.62
502.305	106.62
502.522	88.62
502.739	75.62
502.956	75.62
503.172	72.62
503.389	86.62
503.606	81.62
503.823	87.62
504.04	96.62
504.256	81.62
504.473	98.62
504.69	92.62
504.907	89.62
505.123	88.62
505.34	75.62
505.557	86.62
505.773	90.62
505.99	77.62
506.207	86.62
506.423	76.62
506.64	86.62
506.856	97.62
507.073	82.62
507.289	79.62
507.506	87.62
507.722	81.62
507.939	93.62
508.155	90.62
508.372	83.62
508.588	85.62
508.805	83.62
509.021	81.62
509.238	101.62
509.454	90.62
509.67	83.62
509.887	87.62
510.103	83.62
510.319	90.62
510.536	84.62
510.752	85.62
510.968	71.62
511.184	91.62
511.401	69.62
511.617	89.62
511.833	72.62
512.049	84.62
512.265	81.62
512.481	73.62
512.698	96.62
512.914	85.62
513.13	99.62
513.346	87.62
513.562	97.62
513.778	79.62
513.994	86.62
514.21	76.62
514.426	79.62
514.642	77.62
514.858	71.62
515.074	90.62
515.29	92.62
515.506	79.62
515.721	93.62
515.937	84.62
516.153	93.62
516.369	87.62
516.585	87.62
516.801	75.62
517.016	91.62
517.232	87.62
517.448	88.62
517.664	71.62
517.879	81.62
518.095	74.62
518.311	83.62
518.527	99.62
518.742	75.62
518.958	74.62
519.173	98.62
519.389	82.62
519.605	94.62
519.82	95.62
520.036	81.62
520.251	86.62
520.467	79.62
520.682	79.62
520.898	76.62
521.113	81.62
521.329	83.62
521.544	74.62
521.76	81.62
521.975	89.62
522.19	84.62
522.406	83.62
522.621	80.62
522.836	65.62
523.052	93.62
523.267	80.62
523.482	93.62
523.698	86.62
523.913	85.62
524.128	93.62
524.343	97.62
524.559	70.62
524.774	89.62
524.989	74.62
525.204	85.62
525.419	96.62
525.634	75.62
525.849	85.62
526.064	93.62
526.28	82.62
526.495	99.62
526.71	86.62
526.925	78.62
527.14	81.62
527.355	89.62
527.57	86.62
527.785	79.62
527.999	76.62
528.214	81.62
528.429	86.62
528.644	69.62
528.859	91.62
529.074	83.62
529.289	83.62
529.503	88.62
529.718	72.62
529.933	84.62
530.148	85.62
530.363	90.62
530.577	88.62
530.792	88.62
531.007	78.62
531.221	90.62
531.436	79.62
531.651	78.62
531.865	71.62
532.08	89.62
532.295	97.62
532.509	87.62
532.724	102.62
532.938	85.62
533.153	93.62
533.367	101.62
533.582	73.62
533.796	74.62
534.011	94.62
534.225	90.62
534.44	99.62
534.654	85.62
534.868	82.62
535.083	99.62
535.297	79.62
535.511	79.62
535.726	94.62
535.94	89.62
536.154	85.62
536.369	86.62
536.583	89.62
536.797	82.62
537.011	70.62
537.225	77.62
537.44	77.62
537.654	80.62
537.868	86.62
538.082	81.62
538.296	81.62
538.51	87.62
538.724	90.62
538.938	84.62
539.153	82.62
539.367	89.62
539.581	73.62
539.795	82.62
540.009	73.62
540.222	93.62
540.436	82.62
540.65	81.62
540.864	78.62
541.078	89.62
541.292	71.62
541.506	89.62
541.72	77.62
541.934	77.62
542.147	99.62
542.361	83.62
542.575	69.62
542.789	92.62
543.002	81.62
543.216	84.62
543.43	83.62
543.644	82.62
543.857	86.62
544.071	76.62
544.285	83.62
544.498	73.62
544.712	81.62
544.925	85.62
545.139	75.62
545.352	77.62
545.566	85.62
545.779	75.62
545.993	101.62
546.206	84.62
546.42	81.62
546.633	89.62
546.847	79.62
547.06	67.62
547.274	59.62
547.487	80.62
547.7	81.62
547.914	78.62
548.127	82.62
548.34	88.62
548.554	86.62
548.767	81.62
548.98	81.62
549.193	84.62
549.407	85.62
549.62	89.62
549.833	93.62
550.046	98.62
550.259	75.62
550.473	87.62
550.686	87.62
550.899	75.62
551.112	101.62
551.325	80.62
551.538	82.62
551.751	89.62
551.964	75.62
552.177	91.62
552.39	82.62
552.603	79.62
552.816	91.62
553.029	98.62
553.242	98.62
553.455	75.62
553.667	81.62
553.88	95.62
554.093	88.62
554.306	85.62
554.519	92.62
554.732	77.62
554.944	78.62
555.157	99.62
555.37	93.62
555.583	85.62
555.795	104.62
556.008	83.62
556.221	82.62
556.433	87.62
556.646	82.62
556.859	72.62
557.071	87.62
557.284	83.62
557.496	92.62
557.709	81.62
557.921	74.62
558.134	86.62
558.346	85.62
558.559	96.62
558.771	76.62
558.984	81.62
559.196	69.62
559.409	86.62
559.621	81.62
559.833	69.62
560.046	73.62
560.258	70.62
560.47	104.62
560.683	91.62
560.895	81.62
561.107	82.62
561.32	93.62
561.532	79.62
561.744	92.62
561.956	88.62
562.168	96.62
562.381	90.62
562.593	80.62
562.805	95.62
563.017	86.62
563.229	70.62
563.441	83.62
563.653	85.62
563.865	86.62
564.077	75.62
564.289	88.62
564.501	78.62
564.713	78.62
564.925	77.62
565.137	84.62
565.349	81.62
565.561	84.62
565.773	82.62
565.985	97.62
566.197	96.62
566.408	87.62
566.62	95.62
566.832	76.62
567.044	82.62
567.255	92.62
567.467	75.62
567.679	87.62
567.891	83.62
568.102	100.62
568.314	87.62
568.526	96.62
568.737	76.62
568.949	78.62
569.161	90.62
569.372	90.62
569.584	77.62
569.795	86.62
570.007	82.62
570.218	93.62
570.43	81.62
570.641	83.62
570.853	83.62
571.064	78.62
571.276	88.62
571.487	89.62
571.698	80.62
571.91	86.62
572.121	81.62
572.333	81.62
572.544	85.62
572.755	91.62
572.966	83.62
573.178	89.62
573.389	97.62
573.6	90.62
573.811	75.62
574.023	65.62
574.234	105.62
574.445	86.62
574.656	85.62
574.867	81.62
575.078	77.62
575.289	82.62
575.501	77.62
575.712	98.62
575.923	88.62
576.134	81.62
576.345	73.62
576.556	94.62
576.767	103.62
576.978	97.62
577.188	69.62
577.399	88.62
577.61	95.62
577.821	74.62
578.032	81.62
578.243	71.62
578.454	101.62
578.665	101.62
578.875	78.62
579.086	91.62
579.297	95.62
579.508	90.62
579.718	86.62
579.929	113.62
580.14	77.62
580.35	86.62
580.561	89.62
580.772	84.62
580.982	90.62
581.193	81.62
581.403	105.62
581.614	74.62
581.825	89.62
582.035	84.62
582.246	94.62
582.456	77.62
582.667	97.62
582.877	87.62
583.087	86.62
583.298	83.62
583.508	96.62
583.719	97.62
583.929	104.62
584.139	90.62
584.35	91.62
584.56	94.62
584.77	95.62
584.981	93.62
585.191	101.62
585.401	67.62
585.611	79.62
585.821	100.62
586.032	79.62
586.242	78.62
586.452	85.62
586.662	86.62
586.872	85.62
587.082	84.62
587.292	83.62
587.502	101.62
587.713	79.62
587.923	79.62
588.133	74.62
588.343	87.62
588.553	86.62
588.762	109.62
588.972	117.62
589.182	163.62
589.392	133.62
589.602	92.62
589.812	135.62
590.022	108.62
590.232	79.62
590.441	72.62
590.651	86.62
590.861	79.62
591.071	75.62
591.281	74.62
591.49	73.62
591.7	75.62
591.91	63.62
592.119	90.62
592.329	81.62
592.539	95.62
592.748	79.62
592.958	82.62
593.167	100.62
593.377	82.62
593.587	100.62
593.796	87.62
594.006	76.62
594.215	83.62
594.424	83.62
594.634	94.62
594.843	86.62
595.053	65.62
595.262	92.62
595.472	61.62
595.681	81.62
595.89	82.62
596.1	91.62
596.309	76.62
596.518	82.62
596.727	85.62
596.937	63.62
597.146	97.62
597.355	96.62
597.564	84.62
597.774	91.62
597.983	93.62
598.192	88.62
598.401	76.62
598.61	79.62
598.819	84.62
599.028	94.62
599.237	82.62
599.446	75.62
599.655	79.62
599.864	74.62
600.073	79.62
600.282	89.62
600.491	78.62
600.7	82.62
600.909	77.62
601.118	77.62
601.327	64.62
601.536	73.62
601.745	86.62
601.953	86.62
602.162	88.62
602.371	94.62
602.58	73.62
602.789	78.62
602.997	81.62
603.206	90.62
603.415	83.62
603.623	86.62
603.832	94.62
604.041	80.62
604.249	86.62
604.458	86.62
604.666	80.62
604.875	82.62
605.084	85.62
605.292	85.62
605.501	90.62
605.709	84.62
605.918	79.62
606.126	85.62
606.334	101.62
606.543	74.62
606.751	98.62
606.96	85.62
607.168	90.62
607.376	68.62
607.585	77.62
607.793	71.62
608.001	77.62
608.21	94.62
608.418	74.62
608.626	78.62
608.834	69.62
609.043	97.62
609.251	81.62
609.459	84.62
609.667	79.62
609.875	85.62
610.083	84.62
610.291	93.62
610.499	80.62
610.707	89.62
610.916	84.62
611.124	82.62
611.332	84.62
611.54	91.62
611.748	83.62
611.955	83.62
612.163	90.62
612.371	85.62
612.579	79.62
612.787	84.62
612.995	83.62
613.203	98.62
613.411	87.62
613.618	94.62
613.826	84.62
614.034	89.62
614.242	83.62
614.449	80.62
614.657	95.62
614.865	70.62
615.072	73.62
615.28	79.62
615.488	93.62
615.695	87.62
615.903	82.62
616.111	77.62
616.318	84.62
616.526	85.62
616.733	96.62
616.941	82.62
617.148	83.62
617.356	86.62
617.563	98.62
617.771	81.62
617.978	79.62
618.185	99.62
618.393	83.62
618.6	87.62
618.807	89.62
619.015	83.62
619.222	81.62
619.429	68.62
619.637	94.62
619.844	78.62
620.051	73.62
620.258	81.62
620.466	81.62
620.673	83.62
620.88	82.62
621.087	100.62
621.294	97.62
621.501	81.62
621.708	73.62
621.915	81.62
622.122	81.62
622.329	91.62
622.536	86.62
622.743	84.62
622.95	75.62
623.157	91.62
623.364	78.62
623.571	75.62
623.778	95.62
623.985	70.62
624.192	85.62
624.399	79.62
624.606	86.62
624.812	85.62
625.019	96.62
625.226	74.62
625.433	79.62
625.639	81.62
625.846	77.62
626.053	90.62
626.259	80.62
626.466	83.62
626.673	86.62
626.879	97.62
627.086	85.62
627.293	88.62
627.499	86.62
627.706	67.62
627.912	87.62
628.119	81.62
628.325	79.62
628.532	68.62
628.738	89.62
628.945	99.62
629.151	83.62
629.357	99.62
629.564	78.62
629.77	75.62
629.976	81.62
630.183	93.62
630.389	75.62
630.595	89.62
630.802	85.62
631.008	110.62
631.214	81.62
631.42	69.62
631.627	91.62
631.833	93.62
632.039	86.62
632.245	83.62
632.451	90.62
632.657	75.62
632.863	102.62
633.069	88.62
633.275	91.62
633.481	86.62
633.688	83.62
633.893	78.62
634.099	102.62
634.305	96.62
634.511	89.62
634.717	71.62
634.923	79.62
635.129	67.62
635.335	61.62
635.541	87.62
635.747	86.62
635.952	82.62
636.158	92.62
636.364	85.62
636.57	97.62
636.775	88.62
636.981	89.62
637.187	86.62
637.392	92.62
637.598	97.62
637.804	76.62
638.009	97.62
638.215	91.62
638.421	71.62
638.626	69.62
638.832	93.62
639.037	95.62
639.243	71.62
639.448	85.62
639.654	86.62
639.859	76.62
640.065	68.62
640.27	75.62
640.475	75.62
640.681	86.62
640.886	85.62
641.091	87.62
641.297	90.62
641.502	87.62
641.707	89.62
641.913	95.62
642.118	75.62
642.323	88.62
642.528	85.62
642.733	87.62
642.939	70.62
643.144	81.62
643.349	102.62
643.554	95.62
643.759	79.62
643.964	84.62
644.169	73.62
644.374	79.62
644.579	95.62
644.784	76.62
644.989	67.62
645.194	74.62
645.399	91.62
645.604	83.62
645.809	88.62
646.014	99.62
646.219	65.62
646.423	92.62
646.628	91.62
646.833	79.62
647.038	96.62
647.243	75.62
647.447	74.62
647.652	83.62
647.857	77.62
648.062	90.62
648.266	72.62
648.471	76.62
648.676	81.62
648.88	83.62
649.085	82.62
649.289	88.62
649.494	97.62
649.698	72.62
649.903	86.62
650.107	80.62
650.312	77.62
650.516	102.62
650.721	89.62
650.925	84.62
651.13	89.62
651.334	93.62
651.539	76.62
651.743	87.62
651.947	72.62
652.152	82.62
652.356	81.62
652.56	83.62
652.764	69.62
652.969	93.62
653.173	92.62
653.377	71.62
653.581	80.62
653.785	77.62
653.99	93.62
654.194	66.62
654.398	85.62
654.602	83.62
654.806	80.62
655.01	81.62
655.214	80.62
655.418	91.62
655.622	81.62
655.826	74.62
656.03	83.62
656.234	81.62
656.438	87.62
656.642	83.62
656.846	88.62
657.049	82.62
657.253	87.62
657.457	89.62
657.661	77.62
657.865	87.62
658.068	85.62
658.272	73.62
658.476	86.62
658.68	75.62
658.883	94.62
659.087	81.62
659.291	70.62
659.494	86.62
659.698	79.62
659.901	89.62
660.105	86.62
660.309	83.62
660.512	94.62
660.716	80.62
660.919	94.62
661.123	70.62
661.326	89.62
661.53	75.62
661.733	74.62
661.936	71.62
662.14	89.62
662.343	86.62
662.546	82.62
662.75	74.62
662.953	91.62
663.156	83.62
663.36	75.62
663.563	87.62
663.766	79.62
663.969	96.62
664.173	88.62
664.376	78.62
664.579	86.62
664.782	84.62
664.985	75.62
665.188	83.62
665.391	77.62
665.594	86.62
665.797	85.62
666	76.62
666.203	88.62
666.406	95.62
666.609	87.62
666.812	74.62
667.015	81.62
667.218	79.62
667.421	85.62
667.624	79.62
667.827	84.62
668.03	78.62
668.232	82.62
668.435	74.62
668.638	86.62
668.841	75.62
669.043	85.62
669.246	79.62
669.449	82.62
669.651	91.62
669.854	93.62
670.057	82.62
670.259	76.62
670.462	77.62
670.665	83.62
670.867	89.62
671.07	81.62
671.272	86.62
671.475	78.62
671.677	72.62
671.88	87.62
672.082	88.62
672.284	85.62
672.487	94.62
672.689	79.62
672.892	89.62
