Data from Lead_15_1_HRD10591_00011.txt Node
Date: Fri Feb 20 11:04:46 EST 2026
User: Yrep
Spectrometer: HR+D1059
Trigger mode: 1
Integration Time (sec): 1.000000E-1
Scans to average: 1
Electric dark correction enabled: true
Nonlinearity correction enabled: false
Boxcar width: 0
XAxis mode: Wavelengths
Number of Pixels in Spectrum: 2048
>>>>>Begin Spectral Data<<<<<
223.165	-23.12
223.4	-23.12
223.635	-23.12
223.869	0.88
224.104	-15.12
224.338	-25.12
224.573	-15.12
224.808	-11.12
225.042	0.88
225.277	-20.12
225.511	-6.12
225.746	4.88
225.98	3.88
226.215	5.88
226.449	26.88
226.683	23.88
226.918	23.88
227.152	24.88
227.387	31.88
227.621	53.88
227.856	41.88
228.09	52.88
228.324	44.88
228.559	48.88
228.793	54.88
229.027	50.88
229.262	61.88
229.496	61.88
229.73	61.88
229.964	68.88
230.199	70.88
230.433	60.88
230.667	64.88
230.901	90.88
231.136	72.88
231.37	77.88
231.604	65.88
231.838	83.88
232.072	90.88
232.306	67.88
232.541	91.88
232.775	79.88
233.009	76.88
233.243	76.88
233.477	76.88
233.711	75.88
233.945	75.88
234.179	77.88
234.413	86.88
234.647	64.88
234.881	88.88
235.115	76.88
235.349	77.88
235.583	84.88
235.817	70.88
236.051	79.88
236.285	88.88
236.519	68.88
236.753	88.88
236.987	93.88
237.221	60.88
237.455	72.88
237.689	65.88
237.922	77.88
238.156	76.88
238.39	78.88
238.624	64.88
238.858	74.88
239.091	68.88
239.325	83.88
239.559	78.88
239.793	73.88
240.027	73.88
240.26	69.88
240.494	77.88
240.728	87.88
240.961	80.88
241.195	95.88
241.429	75.88
241.662	79.88
241.896	75.88
242.13	67.88
242.363	75.88
242.597	78.88
242.83	81.88
243.064	66.88
243.298	57.88
243.531	71.88
243.765	75.88
243.998	74.88
244.232	70.88
244.465	72.88
244.699	85.88
244.932	81.88
245.166	68.88
245.399	92.88
245.633	77.88
245.866	88.88
246.099	72.88
246.333	80.88
246.566	86.88
246.8	78.88
247.033	68.88
247.266	70.88
247.5	78.88
247.733	79.88
247.966	77.88
248.2	90.88
248.433	65.88
248.666	78.88
248.899	70.88
249.133	81.88
249.366	92.88
249.599	65.88
249.832	71.88
250.066	88.88
250.299	82.88
250.532	71.88
250.765	73.88
250.998	84.88
251.231	73.88
251.465	82.88
251.698	84.88
251.931	80.88
252.164	72.88
252.397	92.88
252.63	75.88
252.863	77.88
253.096	85.88
253.329	84.88
253.562	80.88
253.795	81.88
254.028	66.88
254.261	65.88
254.494	66.88
254.727	93.88
254.96	76.88
255.193	74.88
255.426	69.88
255.659	82.88
255.892	72.88
256.124	75.88
256.357	92.88
256.59	81.88
256.823	81.88
257.056	81.88
257.289	67.88
257.521	74.88
257.754	90.88
257.987	80.88
258.22	80.88
258.452	66.88
258.685	82.88
258.918	75.88
259.151	72.88
259.383	90.88
259.616	85.88
259.849	72.88
260.081	68.88
260.314	80.88
260.547	82.88
260.779	65.88
261.012	68.88
261.244	83.88
261.477	77.88
261.71	78.88
261.942	82.88
262.175	68.88
262.407	66.88
262.64	78.88
262.872	65.88
263.105	79.88
263.337	94.88
263.57	82.88
263.802	69.88
264.035	85.88
264.267	77.88
264.499	86.88
264.732	93.88
264.964	80.88
265.197	84.88
265.429	93.88
265.661	62.88
265.894	84.88
266.126	84.88
266.358	83.88
266.591	85.88
266.823	73.88
267.055	86.88
267.287	68.88
267.52	71.88
267.752	83.88
267.984	84.88
268.216	94.88
268.448	81.88
268.681	83.88
268.913	92.88
269.145	84.88
269.377	78.88
269.609	86.88
269.841	80.88
270.073	96.88
270.306	70.88
270.538	69.88
270.77	77.88
271.002	84.88
271.234	80.88
271.466	61.88
271.698	80.88
271.93	68.88
272.162	89.88
272.394	91.88
272.626	88.88
272.858	74.88
273.09	88.88
273.322	78.88
273.553	66.88
273.785	86.88
274.017	74.88
274.249	72.88
274.481	78.88
274.713	86.88
274.945	83.88
275.176	77.88
275.408	82.88
275.64	79.88
275.872	81.88
276.104	62.88
276.335	82.88
276.567	82.88
276.799	86.88
277.031	74.88
277.262	86.88
277.494	104.88
277.726	73.88
277.957	74.88
278.189	80.88
278.421	88.88
278.652	95.88
278.884	81.88
279.115	90.88
279.347	78.88
279.579	87.88
279.81	61.88
280.042	76.88
280.273	60.88
280.505	81.88
280.736	96.88
280.968	87.88
281.199	86.88
281.431	87.88
281.662	83.88
281.894	83.88
282.125	98.88
282.356	85.88
282.588	84.88
282.819	74.88
283.051	73.88
283.282	83.88
283.513	89.88
283.745	82.88
283.976	67.88
284.207	80.88
284.439	76.88
284.67	93.88
284.901	80.88
285.132	87.88
285.364	105.88
285.595	89.88
285.826	74.88
286.057	80.88
286.288	84.88
286.52	75.88
286.751	91.88
286.982	80.88
287.213	79.88
287.444	82.88
287.675	81.88
287.906	78.88
288.138	101.88
288.369	81.88
288.6	86.88
288.831	89.88
289.062	78.88
289.293	88.88
289.524	79.88
289.755	85.88
289.986	74.88
290.217	88.88
290.448	81.88
290.679	86.88
290.91	97.88
291.141	92.88
291.371	78.88
291.602	84.88
291.833	73.88
292.064	88.88
292.295	95.88
292.526	69.88
292.757	82.88
292.987	92.88
293.218	93.88
293.449	85.88
293.68	79.88
293.91	93.88
294.141	72.88
294.372	65.88
294.603	72.88
294.833	86.88
295.064	70.88
295.295	68.88
295.525	75.88
295.756	86.88
295.987	88.88
296.217	85.88
296.448	89.88
296.679	80.88
296.909	60.88
297.14	86.88
297.37	74.88
297.601	90.88
297.831	80.88
298.062	95.88
298.292	78.88
298.523	90.88
298.753	78.88
298.984	85.88
299.214	89.88
299.445	83.88
299.675	83.88
299.905	79.88
300.136	76.88
300.366	94.88
300.597	90.88
300.827	89.88
301.057	95.88
301.288	87.88
301.518	81.88
301.748	78.88
301.979	90.88
302.209	88.88
302.439	74.88
302.669	80.88
302.9	90.88
303.13	95.88
303.36	82.88
303.59	81.88
303.82	86.88
304.051	76.88
304.281	74.88
304.511	88.88
304.741	93.88
304.971	73.88
305.201	78.88
305.431	76.88
305.661	72.88
305.891	85.88
306.121	86.88
306.352	87.88
306.582	76.88
306.812	86.88
307.042	82.88
307.272	85.88
307.502	85.88
307.731	86.88
307.961	73.88
308.191	84.88
308.421	82.88
308.651	80.88
308.881	81.88
309.111	94.88
309.341	72.88
309.571	74.88
309.8	77.88
310.03	88.88
310.26	87.88
310.49	92.88
310.72	76.88
310.949	87.88
311.179	89.88
311.409	74.88
311.639	84.88
311.868	78.88
312.098	90.88
312.328	79.88
312.557	73.88
312.787	85.88
313.017	90.88
313.246	81.88
313.476	77.88
313.706	82.88
313.935	82.88
314.165	79.88
314.394	94.88
314.624	76.88
314.853	86.88
315.083	87.88
315.312	92.88
315.542	87.88
315.771	98.88
316.001	77.88
316.23	74.88
316.46	73.88
316.689	68.88
316.919	75.88
317.148	83.88
317.377	89.88
317.607	82.88
317.836	79.88
318.065	84.88
318.295	83.88
318.524	92.88
318.753	89.88
318.983	86.88
319.212	89.88
319.441	80.88
319.67	87.88
319.9	81.88
320.129	83.88
320.358	80.88
320.587	88.88
320.816	76.88
321.046	87.88
321.275	84.88
321.504	74.88
321.733	93.88
321.962	89.88
322.191	89.88
322.42	92.88
322.649	85.88
322.878	70.88
323.108	88.88
323.337	85.88
323.566	74.88
323.795	90.88
324.024	73.88
324.253	88.88
324.482	88.88
324.71	76.88
324.939	73.88
325.168	84.88
325.397	85.88
325.626	73.88
325.855	88.88
326.084	81.88
326.313	94.88
326.542	94.88
326.77	98.88
326.999	84.88
327.228	81.88
327.457	84.88
327.686	73.88
327.914	82.88
328.143	87.88
328.372	87.88
328.6	79.88
328.829	84.88
329.058	82.88
329.287	73.88
329.515	85.88
329.744	72.88
329.972	76.88
330.201	84.88
330.43	85.88
330.658	92.88
330.887	99.88
331.115	80.88
331.344	86.88
331.572	80.88
331.801	78.88
332.03	95.88
332.258	81.88
332.486	73.88
332.715	82.88
332.943	78.88
333.172	92.88
333.4	82.88
333.629	87.88
333.857	84.88
334.085	83.88
334.314	81.88
334.542	81.88
334.771	79.88
334.999	85.88
335.227	82.88
335.455	71.88
335.684	73.88
335.912	87.88
336.14	94.88
336.369	87.88
336.597	92.88
336.825	82.88
337.053	75.88
337.281	72.88
337.51	83.88
337.738	88.88
337.966	82.88
338.194	88.88
338.422	76.88
338.65	88.88
338.878	78.88
339.106	90.88
339.334	85.88
339.562	72.88
339.79	72.88
340.018	75.88
340.246	86.88
340.474	69.88
340.702	71.88
340.93	68.88
341.158	88.88
341.386	81.88
341.614	87.88
341.842	72.88
342.07	73.88
342.298	75.88
342.526	86.88
342.754	75.88
342.981	67.88
343.209	69.88
343.437	86.88
343.665	67.88
343.893	78.88
344.12	85.88
344.348	97.88
344.576	83.88
344.804	84.88
345.031	99.88
345.259	85.88
345.487	99.88
345.714	88.88
345.942	84.88
346.17	72.88
346.397	72.88
346.625	86.88
346.853	99.88
347.08	81.88
347.308	75.88
347.535	76.88
347.763	82.88
347.99	87.88
348.218	89.88
348.445	89.88
348.673	83.88
348.9	94.88
349.128	88.88
349.355	68.88
349.583	85.88
349.81	96.88
350.037	82.88
350.265	87.88
350.492	87.88
350.72	78.88
350.947	94.88
351.174	90.88
351.402	70.88
351.629	88.88
351.856	75.88
352.083	84.88
352.311	92.88
352.538	81.88
352.765	76.88
352.992	89.88
353.22	80.88
353.447	94.88
353.674	71.88
353.901	91.88
354.128	79.88
354.355	88.88
354.583	72.88
354.81	71.88
355.037	92.88
355.264	79.88
355.491	84.88
355.718	76.88
355.945	78.88
356.172	81.88
356.399	87.88
356.626	79.88
356.853	80.88
357.08	79.88
357.307	78.88
357.534	83.88
357.761	93.88
357.988	80.88
358.215	102.88
358.441	79.88
358.668	74.88
358.895	73.88
359.122	85.88
359.349	75.88
359.576	95.88
359.802	81.88
360.029	74.88
360.256	66.88
360.483	83.88
360.709	88.88
360.936	92.88
361.163	80.88
361.39	74.88
361.616	95.88
361.843	87.88
362.07	85.88
362.296	83.88
362.523	86.88
362.749	87.88
362.976	70.88
363.203	98.88
363.429	94.88
363.656	79.88
363.882	78.88
364.109	71.88
364.335	91.88
364.562	80.88
364.788	71.88
365.015	86.88
365.241	82.88
365.468	83.88
365.694	84.88
365.92	96.88
366.147	74.88
366.373	95.88
366.599	84.88
366.826	78.88
367.052	78.88
367.278	85.88
367.505	94.88
367.731	78.88
367.957	73.88
368.184	81.88
368.41	85.88
368.636	84.88
368.862	83.88
369.089	80.88
369.315	89.88
369.541	77.88
369.767	96.88
369.993	93.88
370.219	87.88
370.445	85.88
370.672	77.88
370.898	87.88
371.124	72.88
371.35	91.88
371.576	69.88
371.802	80.88
372.028	78.88
372.254	70.88
372.48	93.88
372.706	88.88
372.932	78.88
373.158	84.88
373.384	89.88
373.61	84.88
373.835	84.88
374.061	86.88
374.287	73.88
374.513	80.88
374.739	92.88
374.965	84.88
375.191	75.88
375.416	100.88
375.642	81.88
375.868	71.88
376.094	89.88
376.319	95.88
376.545	74.88
376.771	88.88
376.997	71.88
377.222	91.88
377.448	94.88
377.674	79.88
377.899	78.88
378.125	92.88
378.35	65.88
378.576	70.88
378.802	73.88
379.027	85.88
379.253	89.88
379.478	73.88
379.704	78.88
379.929	80.88
380.155	72.88
380.38	83.88
380.606	68.88
380.831	70.88
381.057	80.88
381.282	78.88
381.507	82.88
381.733	87.88
381.958	85.88
382.184	80.88
382.409	80.88
382.634	93.88
382.86	76.88
383.085	77.88
383.31	82.88
383.535	86.88
383.761	86.88
383.986	82.88
384.211	73.88
384.436	81.88
384.662	91.88
384.887	88.88
385.112	88.88
385.337	92.88
385.562	81.88
385.787	87.88
386.013	84.88
386.238	81.88
386.463	101.88
386.688	92.88
386.913	79.88
387.138	93.88
387.363	84.88
387.588	77.88
387.813	79.88
388.038	75.88
388.263	82.88
388.488	90.88
388.713	89.88
388.938	68.88
389.163	92.88
389.387	84.88
389.612	87.88
389.837	78.88
390.062	83.88
390.287	82.88
390.512	71.88
390.736	75.88
390.961	78.88
391.186	76.88
391.411	79.88
391.636	75.88
391.86	84.88
392.085	81.88
392.31	92.88
392.534	74.88
392.759	87.88
392.984	82.88
393.208	72.88
393.433	86.88
393.658	90.88
393.882	82.88
394.107	89.88
394.331	63.88
394.556	80.88
394.78	85.88
395.005	77.88
395.229	85.88
395.454	74.88
395.678	68.88
395.903	71.88
396.127	88.88
396.352	71.88
396.576	90.88
396.801	86.88
397.025	87.88
397.249	83.88
397.474	77.88
397.698	79.88
397.922	97.88
398.147	82.88
398.371	71.88
398.595	90.88
398.82	82.88
399.044	77.88
399.268	83.88
399.492	75.88
399.717	81.88
399.941	96.88
400.165	66.88
400.389	90.88
400.613	84.88
400.837	77.88
401.062	76.88
401.286	79.88
401.51	85.88
401.734	75.88
401.958	76.88
402.182	79.88
402.406	68.88
402.63	100.88
402.854	86.88
403.078	67.88
403.302	86.88
403.526	79.88
403.75	92.88
403.974	77.88
404.198	93.88
404.422	85.88
404.645	94.88
404.869	105.88
405.093	72.88
405.317	71.88
405.541	80.88
405.765	85.88
405.988	83.88
406.212	81.88
406.436	70.88
406.66	85.88
406.883	74.88
407.107	90.88
407.331	80.88
407.555	92.88
407.778	79.88
408.002	81.88
408.226	80.88
408.449	89.88
408.673	71.88
408.896	89.88
409.12	88.88
409.344	73.88
409.567	85.88
409.791	83.88
410.014	90.88
410.238	77.88
410.461	77.88
410.685	77.88
410.908	91.88
411.132	80.88
411.355	90.88
411.578	74.88
411.802	74.88
412.025	81.88
412.249	77.88
412.472	91.88
412.695	96.88
412.919	81.88
413.142	64.88
413.365	79.88
413.589	82.88
413.812	73.88
414.035	91.88
414.258	82.88
414.482	84.88
414.705	89.88
414.928	92.88
415.151	82.88
415.374	74.88
415.597	87.88
415.821	81.88
416.044	80.88
416.267	65.88
416.49	84.88
416.713	83.88
416.936	88.88
417.159	85.88
417.382	78.88
417.605	82.88
417.828	87.88
418.051	73.88
418.274	74.88
418.497	74.88
418.72	76.88
418.943	86.88
419.166	83.88
419.389	74.88
419.611	78.88
419.834	66.88
420.057	74.88
420.28	73.88
420.503	80.88
420.726	80.88
420.948	70.88
421.171	68.88
421.394	68.88
421.617	80.88
421.839	85.88
422.062	74.88
422.285	73.88
422.507	89.88
422.73	97.88
422.953	85.88
423.175	78.88
423.398	87.88
423.621	83.88
423.843	80.88
424.066	87.88
424.288	84.88
424.511	78.88
424.733	81.88
424.956	71.88
425.178	76.88
425.401	81.88
425.623	73.88
425.846	89.88
426.068	71.88
426.291	80.88
426.513	72.88
426.735	73.88
426.958	87.88
427.18	77.88
427.402	78.88
427.625	82.88
427.847	73.88
428.069	74.88
428.292	69.88
428.514	66.88
428.736	89.88
428.958	68.88
429.181	73.88
429.403	92.88
429.625	86.88
429.847	64.88
430.069	87.88
430.292	72.88
430.514	80.88
430.736	74.88
430.958	76.88
431.18	62.88
431.402	98.88
431.624	64.88
431.846	84.88
432.068	75.88
432.29	80.88
432.512	90.88
432.734	80.88
432.956	81.88
433.178	85.88
433.4	74.88
433.622	87.88
433.844	86.88
434.066	71.88
434.287	91.88
434.509	70.88
434.731	78.88
434.953	84.88
435.175	82.88
435.397	81.88
435.618	54.88
435.84	74.88
436.062	77.88
436.284	73.88
436.505	81.88
436.727	87.88
436.949	72.88
437.17	80.88
437.392	84.88
437.614	85.88
437.835	74.88
438.057	79.88
438.278	84.88
438.5	69.88
438.721	91.88
438.943	84.88
439.165	94.88
439.386	84.88
439.608	76.88
439.829	82.88
440.05	63.88
440.272	81.88
440.493	75.88
440.715	84.88
440.936	77.88
441.158	88.88
441.379	88.88
441.6	70.88
441.822	75.88
442.043	78.88
442.264	66.88
442.486	96.88
442.707	74.88
442.928	79.88
443.149	80.88
443.371	72.88
443.592	78.88
443.813	72.88
444.034	85.88
444.255	78.88
444.476	92.88
444.698	83.88
444.919	76.88
445.14	151.88
445.361	108.88
445.582	88.88
445.803	80.88
446.024	79.88
446.245	93.88
446.466	99.88
446.687	84.88
446.908	82.88
447.129	90.88
447.35	71.88
447.571	67.88
447.792	86.88
448.013	74.88
448.234	74.88
448.455	73.88
448.675	85.88
448.896	70.88
449.117	91.88
449.338	90.88
449.559	71.88
449.779	79.88
450	78.88
450.221	86.88
450.442	83.88
450.662	73.88
450.883	80.88
451.104	68.88
451.324	66.88
451.545	75.88
451.766	78.88
451.986	89.88
452.207	82.88
452.428	93.88
452.648	90.88
452.869	68.88
453.089	75.88
453.31	90.88
453.53	72.88
453.751	80.88
453.971	79.88
454.192	81.88
454.412	65.88
454.633	76.88
454.853	80.88
455.073	79.88
455.294	71.88
455.514	78.88
455.734	74.88
455.955	80.88
456.175	77.88
456.395	68.88
456.616	76.88
456.836	78.88
457.056	75.88
457.276	86.88
457.497	79.88
457.717	72.88
457.937	80.88
458.157	83.88
458.377	82.88
458.598	80.88
458.818	80.88
459.038	79.88
459.258	80.88
459.478	78.88
459.698	82.88
459.918	89.88
460.138	85.88
460.358	82.88
460.578	81.88
460.798	64.88
461.018	88.88
461.238	86.88
461.458	83.88
461.678	78.88
461.898	72.88
462.118	80.88
462.338	76.88
462.558	64.88
462.777	79.88
462.997	89.88
463.217	71.88
463.437	82.88
463.657	82.88
463.876	75.88
464.096	87.88
464.316	82.88
464.536	80.88
464.755	71.88
464.975	83.88
465.195	93.88
465.414	70.88
465.634	80.88
465.854	84.88
466.073	75.88
466.293	86.88
466.512	93.88
466.732	88.88
466.951	83.88
467.171	80.88
467.391	65.88
467.61	73.88
467.829	81.88
468.049	88.88
468.268	78.88
468.488	72.88
468.707	88.88
468.927	69.88
469.146	84.88
469.365	89.88
469.585	77.88
469.804	65.88
470.023	84.88
470.243	76.88
470.462	70.88
470.681	83.88
470.901	91.88
471.12	80.88
471.339	79.88
471.558	82.88
471.777	72.88
471.997	76.88
472.216	80.88
472.435	71.88
472.654	74.88
472.873	80.88
473.092	70.88
473.311	81.88
473.53	80.88
473.749	81.88
473.968	90.88
474.187	72.88
474.406	89.88
474.625	83.88
474.844	71.88
475.063	75.88
475.282	85.88
475.501	96.88
475.72	79.88
475.939	80.88
476.158	80.88
476.377	78.88
476.596	95.88
476.814	94.88
477.033	75.88
477.252	83.88
477.471	71.88
477.69	58.88
477.908	77.88
478.127	76.88
478.346	83.88
478.564	89.88
478.783	82.88
479.002	65.88
479.22	86.88
479.439	94.88
479.658	76.88
479.876	79.88
480.095	81.88
480.313	92.88
480.532	81.88
480.751	94.88
480.969	71.88
481.188	71.88
481.406	79.88
481.624	81.88
481.843	87.88
482.061	68.88
482.28	80.88
482.498	86.88
482.717	88.88
482.935	85.88
483.153	89.88
483.372	93.88
483.59	68.88
483.808	81.88
484.027	74.88
484.245	78.88
484.463	76.88
484.681	89.88
484.9	87.88
485.118	84.88
485.336	75.88
485.554	77.88
485.772	81.88
485.99	84.88
486.209	87.88
486.427	80.88
486.645	71.88
486.863	74.88
487.081	78.88
487.299	64.88
487.517	79.88
487.735	75.88
487.953	80.88
488.171	92.88
488.389	90.88
488.607	81.88
488.825	88.88
489.043	91.88
489.261	75.88
489.479	75.88
489.696	73.88
489.914	85.88
490.132	72.88
490.35	80.88
490.568	78.88
490.786	78.88
491.003	91.88
491.221	81.88
491.439	73.88
491.657	75.88
491.874	64.88
492.092	82.88
492.31	85.88
492.527	88.88
492.745	90.88
492.963	78.88
493.18	83.88
493.398	73.88
493.615	83.88
493.833	73.88
494.05	88.88
494.268	78.88
494.485	84.88
494.703	82.88
494.92	75.88
495.138	75.88
495.355	88.88
495.573	79.88
495.79	70.88
496.008	88.88
496.225	86.88
496.442	93.88
496.66	98.88
496.877	77.88
497.094	75.88
497.312	83.88
497.529	83.88
497.746	74.88
497.963	86.88
498.181	80.88
498.398	73.88
498.615	83.88
498.832	77.88
499.049	93.88
499.267	93.88
499.484	78.88
499.701	72.88
499.918	94.88
500.135	90.88
500.352	87.88
500.569	69.88
500.786	76.88
501.003	80.88
501.22	74.88
501.437	72.88
501.654	73.88
501.871	73.88
502.088	80.88
502.305	85.88
502.522	94.88
502.739	73.88
502.956	85.88
503.172	76.88
503.389	73.88
503.606	81.88
503.823	69.88
504.04	84.88
504.256	90.88
504.473	74.88
504.69	81.88
504.907	94.88
505.123	80.88
505.34	78.88
505.557	82.88
505.773	82.88
505.99	91.88
506.207	70.88
506.423	81.88
506.64	86.88
506.856	83.88
507.073	74.88
507.289	79.88
507.506	78.88
507.722	81.88
507.939	80.88
508.155	77.88
508.372	80.88
508.588	79.88
508.805	94.88
509.021	91.88
509.238	91.88
509.454	86.88
509.67	85.88
509.887	77.88
510.103	83.88
510.319	80.88
510.536	87.88
510.752	87.88
510.968	66.88
511.184	82.88
511.401	89.88
511.617	81.88
511.833	88.88
512.049	74.88
512.265	74.88
512.481	86.88
512.698	84.88
512.914	92.88
513.13	86.88
513.346	77.88
513.562	69.88
513.778	71.88
513.994	76.88
514.21	72.88
514.426	80.88
514.642	67.88
514.858	85.88
515.074	83.88
515.29	85.88
515.506	78.88
515.721	89.88
515.937	80.88
516.153	82.88
516.369	87.88
516.585	69.88
516.801	90.88
517.016	84.88
517.232	80.88
517.448	74.88
517.664	83.88
517.879	71.88
518.095	86.88
518.311	89.88
518.527	88.88
518.742	84.88
518.958	94.88
519.173	80.88
519.389	72.88
519.605	90.88
519.82	94.88
520.036	86.88
520.251	76.88
520.467	88.88
520.682	75.88
520.898	83.88
521.113	73.88
521.329	74.88
521.544	68.88
521.76	72.88
521.975	63.88
522.19	72.88
522.406	81.88
522.621	82.88
522.836	84.88
523.052	76.88
523.267	78.88
523.482	75.88
523.698	78.88
523.913	71.88
524.128	68.88
524.343	81.88
524.559	93.88
524.774	82.88
524.989	73.88
525.204	96.88
525.419	80.88
525.634	69.88
525.849	76.88
526.064	83.88
526.28	88.88
526.495	78.88
526.71	74.88
526.925	83.88
527.14	81.88
527.355	78.88
527.57	89.88
527.785	87.88
527.999	72.88
528.214	74.88
528.429	81.88
528.644	98.88
528.859	90.88
529.074	94.88
529.289	95.88
529.503	98.88
529.718	70.88
529.933	85.88
530.148	86.88
530.363	83.88
530.577	83.88
530.792	83.88
531.007	67.88
531.221	78.88
531.436	85.88
531.651	87.88
531.865	71.88
532.08	83.88
532.295	89.88
532.509	89.88
532.724	96.88
532.938	76.88
533.153	69.88
533.367	88.88
533.582	78.88
533.796	84.88
534.011	88.88
534.225	80.88
534.44	82.88
534.654	79.88
534.868	85.88
535.083	70.88
535.297	77.88
535.511	66.88
535.726	86.88
535.94	92.88
536.154	80.88
536.369	99.88
536.583	80.88
536.797	78.88
537.011	79.88
537.225	83.88
537.44	90.88
537.654	74.88
537.868	57.88
538.082	79.88
538.296	84.88
538.51	81.88
538.724	86.88
538.938	89.88
539.153	85.88
539.367	95.88
539.581	80.88
539.795	77.88
540.009	82.88
540.222	97.88
540.436	91.88
540.65	81.88
540.864	82.88
541.078	78.88
541.292	86.88
541.506	88.88
541.72	75.88
541.934	79.88
542.147	66.88
542.361	94.88
542.575	81.88
542.789	87.88
543.002	64.88
543.216	73.88
543.43	74.88
543.644	80.88
543.857	86.88
544.071	80.88
544.285	93.88
544.498	88.88
544.712	92.88
544.925	70.88
545.139	80.88
545.352	74.88
545.566	80.88
545.779	78.88
545.993	91.88
546.206	80.88
546.42	89.88
546.633	76.88
546.847	104.88
547.06	68.88
547.274	86.88
547.487	77.88
547.7	76.88
547.914	79.88
548.127	90.88
548.34	80.88
548.554	90.88
548.767	100.88
548.98	93.88
549.193	77.88
549.407	94.88
549.62	69.88
549.833	96.88
550.046	80.88
550.259	86.88
550.473	72.88
550.686	82.88
550.899	70.88
551.112	75.88
551.325	73.88
551.538	69.88
551.751	91.88
551.964	94.88
552.177	90.88
552.39	90.88
552.603	85.88
552.816	90.88
553.029	86.88
553.242	85.88
553.455	88.88
553.667	92.88
553.88	82.88
554.093	92.88
554.306	75.88
554.519	87.88
554.732	66.88
554.944	84.88
555.157	89.88
555.37	80.88
555.583	84.88
555.795	82.88
556.008	82.88
556.221	98.88
556.433	83.88
556.646	70.88
556.859	85.88
557.071	75.88
557.284	97.88
557.496	85.88
557.709	76.88
557.921	84.88
558.134	62.88
558.346	82.88
558.559	73.88
558.771	87.88
558.984	88.88
559.196	86.88
559.409	72.88
559.621	80.88
559.833	79.88
560.046	87.88
560.258	79.88
560.47	83.88
560.683	96.88
560.895	71.88
561.107	92.88
561.32	82.88
561.532	77.88
561.744	100.88
561.956	97.88
562.168	87.88
562.381	108.88
562.593	84.88
562.805	80.88
563.017	83.88
563.229	81.88
563.441	88.88
563.653	69.88
563.865	70.88
564.077	94.88
564.289	91.88
564.501	87.88
564.713	86.88
564.925	68.88
565.137	92.88
565.349	83.88
565.561	80.88
565.773	96.88
565.985	68.88
566.197	100.88
566.408	85.88
566.62	80.88
566.832	72.88
567.044	67.88
567.255	79.88
567.467	82.88
567.679	72.88
567.891	66.88
568.102	86.88
568.314	85.88
568.526	85.88
568.737	82.88
568.949	85.88
569.161	80.88
569.372	76.88
569.584	73.88
569.795	83.88
570.007	85.88
570.218	82.88
570.43	87.88
570.641	83.88
570.853	89.88
571.064	87.88
571.276	62.88
571.487	81.88
571.698	95.88
571.91	79.88
572.121	90.88
572.333	69.88
572.544	80.88
572.755	88.88
572.966	77.88
573.178	86.88
573.389	94.88
573.6	86.88
573.811	74.88
574.023	79.88
574.234	87.88
574.445	82.88
574.656	80.88
574.867	74.88
575.078	82.88
575.289	78.88
575.501	85.88
575.712	83.88
575.923	92.88
576.134	83.88
576.345	70.88
576.556	97.88
576.767	88.88
576.978	68.88
577.188	98.88
577.399	74.88
577.61	77.88
577.821	86.88
578.032	76.88
578.243	96.88
578.454	89.88
578.665	94.88
578.875	86.88
579.086	80.88
579.297	82.88
579.508	79.88
579.718	84.88
579.929	85.88
580.14	77.88
580.35	100.88
580.561	76.88
580.772	100.88
580.982	88.88
581.193	83.88
581.403	86.88
581.614	72.88
581.825	84.88
582.035	82.88
582.246	80.88
582.456	90.88
582.667	88.88
582.877	80.88
583.087	75.88
583.298	96.88
583.508	81.88
583.719	83.88
583.929	100.88
584.139	75.88
584.35	81.88
584.56	83.88
584.77	86.88
584.981	87.88
585.191	89.88
585.401	83.88
585.611	90.88
585.821	102.88
586.032	101.88
586.242	80.88
586.452	76.88
586.662	86.88
586.872	69.88
587.082	84.88
587.292	78.88
587.502	70.88
587.713	88.88
587.923	88.88
588.133	82.88
588.343	84.88
588.553	79.88
588.762	66.88
588.972	97.88
589.182	135.88
589.392	113.88
589.602	109.88
589.812	132.88
590.022	105.88
590.232	95.88
590.441	71.88
590.651	84.88
590.861	83.88
591.071	92.88
591.281	80.88
591.49	79.88
591.7	85.88
591.91	89.88
592.119	86.88
592.329	77.88
592.539	75.88
592.748	88.88
592.958	86.88
593.167	77.88
593.377	79.88
593.587	92.88
593.796	86.88
594.006	91.88
594.215	83.88
594.424	80.88
594.634	77.88
594.843	71.88
595.053	80.88
595.262	88.88
595.472	75.88
595.681	92.88
595.89	86.88
596.1	86.88
596.309	78.88
596.518	80.88
596.727	80.88
596.937	76.88
597.146	84.88
597.355	86.88
597.564	75.88
597.774	85.88
597.983	80.88
598.192	91.88
598.401	82.88
598.61	77.88
598.819	100.88
599.028	88.88
599.237	85.88
599.446	86.88
599.655	84.88
599.864	83.88
600.073	90.88
600.282	94.88
600.491	80.88
600.7	80.88
600.909	87.88
601.118	84.88
601.327	75.88
601.536	67.88
601.745	97.88
601.953	79.88
602.162	92.88
602.371	68.88
602.58	82.88
602.789	76.88
602.997	85.88
603.206	88.88
603.415	79.88
603.623	92.88
603.832	86.88
604.041	82.88
604.249	84.88
604.458	74.88
604.666	86.88
604.875	81.88
605.084	78.88
605.292	87.88
605.501	78.88
605.709	72.88
605.918	73.88
606.126	94.88
606.334	88.88
606.543	81.88
606.751	73.88
606.96	70.88
607.168	76.88
607.376	71.88
607.585	91.88
607.793	93.88
608.001	88.88
608.21	87.88
608.418	77.88
608.626	84.88
608.834	95.88
609.043	95.88
609.251	90.88
609.459	84.88
609.667	84.88
609.875	94.88
610.083	84.88
610.291	80.88
610.499	94.88
610.707	80.88
610.916	86.88
611.124	99.88
611.332	87.88
611.54	78.88
611.748	93.88
611.955	85.88
612.163	87.88
612.371	86.88
612.579	93.88
612.787	88.88
612.995	90.88
613.203	77.88
613.411	86.88
613.618	70.88
613.826	75.88
614.034	84.88
614.242	74.88
614.449	77.88
614.657	74.88
614.865	82.88
615.072	84.88
615.28	88.88
615.488	78.88
615.695	73.88
615.903	80.88
616.111	71.88
616.318	78.88
616.526	95.88
616.733	82.88
616.941	82.88
617.148	74.88
617.356	95.88
617.563	86.88
617.771	78.88
617.978	84.88
618.185	78.88
618.393	83.88
618.6	73.88
618.807	76.88
619.015	80.88
619.222	86.88
619.429	86.88
619.637	95.88
619.844	86.88
620.051	84.88
620.258	81.88
620.466	83.88
620.673	83.88
620.88	88.88
621.087	73.88
621.294	90.88
621.501	87.88
621.708	90.88
621.915	87.88
622.122	90.88
622.329	74.88
622.536	86.88
622.743	86.88
622.95	86.88
623.157	79.88
623.364	90.88
623.571	74.88
623.778	84.88
623.985	75.88
624.192	77.88
624.399	90.88
624.606	90.88
624.812	100.88
625.019	72.88
625.226	86.88
625.433	80.88
625.639	89.88
625.846	80.88
626.053	79.88
626.259	84.88
626.466	75.88
626.673	84.88
626.879	79.88
627.086	81.88
627.293	72.88
627.499	85.88
627.706	100.88
627.912	85.88
628.119	79.88
628.325	78.88
628.532	92.88
628.738	77.88
628.945	73.88
629.151	76.88
629.357	76.88
629.564	72.88
629.77	78.88
629.976	70.88
630.183	83.88
630.389	73.88
630.595	80.88
630.802	84.88
631.008	78.88
631.214	78.88
631.42	81.88
631.627	81.88
631.833	87.88
632.039	69.88
632.245	73.88
632.451	91.88
632.657	92.88
632.863	73.88
633.069	92.88
633.275	85.88
633.481	82.88
633.688	81.88
633.893	78.88
634.099	80.88
634.305	84.88
634.511	70.88
634.717	87.88
634.923	85.88
635.129	87.88
635.335	84.88
635.541	82.88
635.747	81.88
635.952	75.88
636.158	73.88
636.364	93.88
636.57	86.88
636.775	84.88
636.981	85.88
637.187	68.88
637.392	86.88
637.598	84.88
637.804	83.88
638.009	82.88
638.215	92.88
638.421	95.88
638.626	79.88
638.832	86.88
639.037	88.88
639.243	77.88
639.448	83.88
639.654	96.88
639.859	89.88
640.065	68.88
640.27	87.88
640.475	79.88
640.681	70.88
640.886	69.88
641.091	65.88
641.297	81.88
641.502	84.88
641.707	72.88
641.913	75.88
642.118	60.88
642.323	88.88
642.528	89.88
642.733	71.88
642.939	78.88
643.144	64.88
643.349	78.88
643.554	95.88
643.759	83.88
643.964	88.88
644.169	79.88
644.374	86.88
644.579	89.88
644.784	81.88
644.989	70.88
645.194	83.88
645.399	76.88
645.604	69.88
645.809	75.88
646.014	78.88
646.219	73.88
646.423	83.88
646.628	94.88
646.833	94.88
647.038	89.88
647.243	74.88
647.447	86.88
647.652	88.88
647.857	65.88
648.062	87.88
648.266	68.88
648.471	68.88
648.676	80.88
648.88	64.88
649.085	81.88
649.289	84.88
649.494	81.88
649.698	74.88
649.903	82.88
650.107	74.88
650.312	74.88
650.516	71.88
650.721	81.88
650.925	96.88
651.13	93.88
651.334	74.88
651.539	77.88
651.743	67.88
651.947	77.88
652.152	78.88
652.356	79.88
652.56	86.88
652.764	82.88
652.969	78.88
653.173	90.88
653.377	73.88
653.581	99.88
653.785	84.88
653.99	80.88
654.194	80.88
654.398	83.88
654.602	87.88
654.806	96.88
655.01	77.88
655.214	97.88
655.418	78.88
655.622	74.88
655.826	66.88
656.03	90.88
656.234	91.88
656.438	71.88
656.642	71.88
656.846	74.88
657.049	99.88
657.253	90.88
657.457	80.88
657.661	90.88
657.865	85.88
658.068	86.88
658.272	71.88
658.476	92.88
658.68	87.88
658.883	86.88
659.087	92.88
659.291	88.88
659.494	78.88
659.698	81.88
659.901	75.88
660.105	90.88
660.309	83.88
660.512	80.88
660.716	79.88
660.919	92.88
661.123	74.88
661.326	88.88
661.53	84.88
661.733	84.88
661.936	78.88
662.14	80.88
662.343	65.88
662.546	72.88
662.75	90.88
662.953	81.88
663.156	93.88
663.36	86.88
663.563	80.88
663.766	70.88
663.969	80.88
664.173	62.88
664.376	78.88
664.579	70.88
664.782	81.88
664.985	84.88
665.188	80.88
665.391	74.88
665.594	74.88
665.797	82.88
666	92.88
666.203	75.88
666.406	84.88
666.609	68.88
666.812	83.88
667.015	73.88
667.218	82.88
667.421	77.88
667.624	88.88
667.827	72.88
668.03	74.88
668.232	73.88
668.435	82.88
668.638	74.88
668.841	83.88
669.043	78.88
669.246	75.88
669.449	85.88
669.651	85.88
669.854	80.88
670.057	70.88
670.259	80.88
670.462	78.88
670.665	94.88
670.867	81.88
671.07	84.88
671.272	82.88
671.475	84.88
671.677	86.88
671.88	81.88
672.082	89.88
672.284	64.88
672.487	83.88
672.689	89.88
672.892	92.88
