Data from Lead_15_1_HRD10591_00054.txt Node
Date: Fri Feb 20 11:05:46 EST 2026
User: Yrep
Spectrometer: HR+D1059
Trigger mode: 1
Integration Time (sec): 1.000000E-1
Scans to average: 1
Electric dark correction enabled: true
Nonlinearity correction enabled: false
Boxcar width: 0
XAxis mode: Wavelengths
Number of Pixels in Spectrum: 2048
>>>>>Begin Spectral Data<<<<<
223.165	-15.25
223.4	-15.25
223.635	-15.25
223.869	-19.25
224.104	-17.25
224.338	-18.25
224.573	-27.25
224.808	-8.25
225.042	-11.25
225.277	-0.25
225.511	-6.25
225.746	5.75
225.98	10.75
226.215	14.75
226.449	23.75
226.683	22.75
226.918	24.75
227.152	20.75
227.387	22.75
227.621	29.75
227.856	23.75
228.09	35.75
228.324	56.75
228.559	55.75
228.793	54.75
229.027	65.75
229.262	58.75
229.496	66.75
229.73	76.75
229.964	90.75
230.199	74.75
230.433	70.75
230.667	88.75
230.901	81.75
231.136	77.75
231.37	67.75
231.604	82.75
231.838	62.75
232.072	77.75
232.306	88.75
232.541	76.75
232.775	76.75
233.009	83.75
233.243	65.75
233.477	90.75
233.711	71.75
233.945	88.75
234.179	71.75
234.413	77.75
234.647	84.75
234.881	74.75
235.115	80.75
235.349	79.75
235.583	81.75
235.817	78.75
236.051	75.75
236.285	79.75
236.519	79.75
236.753	89.75
236.987	69.75
237.221	61.75
237.455	74.75
237.689	73.75
237.922	72.75
238.156	73.75
238.39	89.75
238.624	75.75
238.858	70.75
239.091	72.75
239.325	73.75
239.559	59.75
239.793	71.75
240.027	72.75
240.26	60.75
240.494	67.75
240.728	73.75
240.961	59.75
241.195	88.75
241.429	71.75
241.662	63.75
241.896	73.75
242.13	75.75
242.363	78.75
242.597	73.75
242.83	73.75
243.064	71.75
243.298	79.75
243.531	61.75
243.765	76.75
243.998	87.75
244.232	74.75
244.465	76.75
244.699	77.75
244.932	66.75
245.166	67.75
245.399	82.75
245.633	77.75
245.866	74.75
246.099	65.75
246.333	91.75
246.566	79.75
246.8	81.75
247.033	70.75
247.266	64.75
247.5	81.75
247.733	88.75
247.966	72.75
248.2	84.75
248.433	76.75
248.666	75.75
248.899	89.75
249.133	79.75
249.366	90.75
249.599	74.75
249.832	72.75
250.066	76.75
250.299	77.75
250.532	72.75
250.765	81.75
250.998	84.75
251.231	78.75
251.465	86.75
251.698	74.75
251.931	87.75
252.164	69.75
252.397	80.75
252.63	83.75
252.863	68.75
253.096	75.75
253.329	77.75
253.562	73.75
253.795	77.75
254.028	84.75
254.261	83.75
254.494	77.75
254.727	81.75
254.96	77.75
255.193	60.75
255.426	85.75
255.659	65.75
255.892	91.75
256.124	73.75
256.357	81.75
256.59	84.75
256.823	64.75
257.056	73.75
257.289	82.75
257.521	80.75
257.754	63.75
257.987	79.75
258.22	81.75
258.452	85.75
258.685	83.75
258.918	77.75
259.151	78.75
259.383	86.75
259.616	69.75
259.849	63.75
260.081	85.75
260.314	83.75
260.547	70.75
260.779	81.75
261.012	78.75
261.244	81.75
261.477	85.75
261.71	94.75
261.942	92.75
262.175	84.75
262.407	84.75
262.64	86.75
262.872	72.75
263.105	77.75
263.337	97.75
263.57	76.75
263.802	79.75
264.035	88.75
264.267	84.75
264.499	87.75
264.732	95.75
264.964	85.75
265.197	93.75
265.429	87.75
265.661	73.75
265.894	77.75
266.126	88.75
266.358	79.75
266.591	87.75
266.823	82.75
267.055	89.75
267.287	81.75
267.52	79.75
267.752	81.75
267.984	76.75
268.216	78.75
268.448	80.75
268.681	85.75
268.913	69.75
269.145	95.75
269.377	63.75
269.609	68.75
269.841	89.75
270.073	79.75
270.306	94.75
270.538	69.75
270.77	82.75
271.002	91.75
271.234	86.75
271.466	81.75
271.698	80.75
271.93	88.75
272.162	72.75
272.394	89.75
272.626	86.75
272.858	82.75
273.09	83.75
273.322	80.75
273.553	79.75
273.785	87.75
274.017	79.75
274.249	85.75
274.481	73.75
274.713	78.75
274.945	85.75
275.176	88.75
275.408	80.75
275.64	80.75
275.872	87.75
276.104	76.75
276.335	76.75
276.567	74.75
276.799	82.75
277.031	82.75
277.262	78.75
277.494	80.75
277.726	83.75
277.957	81.75
278.189	90.75
278.421	81.75
278.652	81.75
278.884	88.75
279.115	79.75
279.347	85.75
279.579	79.75
279.81	84.75
280.042	88.75
280.273	70.75
280.505	99.75
280.736	85.75
280.968	87.75
281.199	85.75
281.431	79.75
281.662	91.75
281.894	88.75
282.125	82.75
282.356	73.75
282.588	100.75
282.819	94.75
283.051	88.75
283.282	82.75
283.513	94.75
283.745	79.75
283.976	82.75
284.207	89.75
284.439	80.75
284.67	81.75
284.901	83.75
285.132	83.75
285.364	80.75
285.595	88.75
285.826	79.75
286.057	86.75
286.288	89.75
286.52	89.75
286.751	90.75
286.982	74.75
287.213	79.75
287.444	69.75
287.675	88.75
287.906	89.75
288.138	90.75
288.369	82.75
288.6	70.75
288.831	83.75
289.062	91.75
289.293	85.75
289.524	80.75
289.755	74.75
289.986	79.75
290.217	93.75
290.448	74.75
290.679	82.75
290.91	90.75
291.141	89.75
291.371	73.75
291.602	89.75
291.833	81.75
292.064	85.75
292.295	71.75
292.526	73.75
292.757	70.75
292.987	81.75
293.218	87.75
293.449	80.75
293.68	90.75
293.91	82.75
294.141	93.75
294.372	79.75
294.603	82.75
294.833	72.75
295.064	73.75
295.295	85.75
295.525	71.75
295.756	84.75
295.987	91.75
296.217	101.75
296.448	95.75
296.679	83.75
296.909	70.75
297.14	89.75
297.37	93.75
297.601	82.75
297.831	92.75
298.062	72.75
298.292	77.75
298.523	82.75
298.753	91.75
298.984	83.75
299.214	94.75
299.445	84.75
299.675	81.75
299.905	71.75
300.136	84.75
300.366	94.75
300.597	96.75
300.827	86.75
301.057	75.75
301.288	100.75
301.518	84.75
301.748	90.75
301.979	107.75
302.209	77.75
302.439	83.75
302.669	105.75
302.9	84.75
303.13	75.75
303.36	83.75
303.59	80.75
303.82	79.75
304.051	70.75
304.281	101.75
304.511	100.75
304.741	77.75
304.971	66.75
305.201	79.75
305.431	89.75
305.661	75.75
305.891	73.75
306.121	91.75
306.352	84.75
306.582	83.75
306.812	82.75
307.042	79.75
307.272	77.75
307.502	91.75
307.731	78.75
307.961	81.75
308.191	81.75
308.421	81.75
308.651	86.75
308.881	90.75
309.111	92.75
309.341	83.75
309.571	85.75
309.8	80.75
310.03	74.75
310.26	79.75
310.49	91.75
310.72	75.75
310.949	69.75
311.179	87.75
311.409	84.75
311.639	81.75
311.868	85.75
312.098	86.75
312.328	79.75
312.557	91.75
312.787	78.75
313.017	86.75
313.246	84.75
313.476	79.75
313.706	67.75
313.935	76.75
314.165	87.75
314.394	78.75
314.624	80.75
314.853	81.75
315.083	90.75
315.312	84.75
315.542	88.75
315.771	85.75
316.001	83.75
316.23	74.75
316.46	89.75
316.689	79.75
316.919	93.75
317.148	76.75
317.377	84.75
317.607	89.75
317.836	87.75
318.065	79.75
318.295	77.75
318.524	84.75
318.753	77.75
318.983	85.75
319.212	91.75
319.441	89.75
319.67	84.75
319.9	85.75
320.129	71.75
320.358	87.75
320.587	75.75
320.816	83.75
321.046	93.75
321.275	91.75
321.504	89.75
321.733	89.75
321.962	79.75
322.191	78.75
322.42	70.75
322.649	79.75
322.878	77.75
323.108	73.75
323.337	93.75
323.566	86.75
323.795	96.75
324.024	79.75
324.253	73.75
324.482	85.75
324.71	75.75
324.939	88.75
325.168	88.75
325.397	90.75
325.626	87.75
325.855	89.75
326.084	83.75
326.313	73.75
326.542	85.75
326.77	82.75
326.999	77.75
327.228	96.75
327.457	85.75
327.686	107.75
327.914	89.75
328.143	78.75
328.372	76.75
328.6	74.75
328.829	84.75
329.058	88.75
329.287	92.75
329.515	81.75
329.744	99.75
329.972	79.75
330.201	90.75
330.43	83.75
330.658	84.75
330.887	89.75
331.115	88.75
331.344	85.75
331.572	94.75
331.801	94.75
332.03	88.75
332.258	68.75
332.486	90.75
332.715	79.75
332.943	85.75
333.172	81.75
333.4	66.75
333.629	75.75
333.857	86.75
334.085	85.75
334.314	81.75
334.542	82.75
334.771	100.75
334.999	84.75
335.227	94.75
335.455	86.75
335.684	98.75
335.912	75.75
336.14	84.75
336.369	85.75
336.597	79.75
336.825	83.75
337.053	70.75
337.281	68.75
337.51	87.75
337.738	99.75
337.966	62.75
338.194	84.75
338.422	69.75
338.65	89.75
338.878	79.75
339.106	95.75
339.334	76.75
339.562	83.75
339.79	67.75
340.018	83.75
340.246	90.75
340.474	75.75
340.702	79.75
340.93	83.75
341.158	89.75
341.386	93.75
341.614	87.75
341.842	74.75
342.07	87.75
342.298	74.75
342.526	88.75
342.754	79.75
342.981	77.75
343.209	77.75
343.437	86.75
343.665	76.75
343.893	85.75
344.12	94.75
344.348	86.75
344.576	78.75
344.804	87.75
345.031	85.75
345.259	75.75
345.487	88.75
345.714	78.75
345.942	83.75
346.17	85.75
346.397	72.75
346.625	89.75
346.853	83.75
347.08	91.75
347.308	82.75
347.535	87.75
347.763	96.75
347.99	84.75
348.218	93.75
348.445	78.75
348.673	87.75
348.9	88.75
349.128	85.75
349.355	83.75
349.583	88.75
349.81	77.75
350.037	86.75
350.265	87.75
350.492	80.75
350.72	81.75
350.947	79.75
351.174	79.75
351.402	55.75
351.629	87.75
351.856	80.75
352.083	89.75
352.311	82.75
352.538	80.75
352.765	82.75
352.992	87.75
353.22	81.75
353.447	73.75
353.674	81.75
353.901	89.75
354.128	78.75
354.355	78.75
354.583	82.75
354.81	83.75
355.037	74.75
355.264	83.75
355.491	84.75
355.718	77.75
355.945	86.75
356.172	83.75
356.399	84.75
356.626	71.75
356.853	87.75
357.08	94.75
357.307	93.75
357.534	98.75
357.761	78.75
357.988	79.75
358.215	94.75
358.441	87.75
358.668	80.75
358.895	82.75
359.122	95.75
359.349	88.75
359.576	97.75
359.802	80.75
360.029	79.75
360.256	88.75
360.483	72.75
360.709	70.75
360.936	79.75
361.163	80.75
361.39	82.75
361.616	88.75
361.843	95.75
362.07	93.75
362.296	73.75
362.523	82.75
362.749	79.75
362.976	90.75
363.203	97.75
363.429	83.75
363.656	88.75
363.882	97.75
364.109	95.75
364.335	87.75
364.562	85.75
364.788	74.75
365.015	84.75
365.241	89.75
365.468	89.75
365.694	98.75
365.92	90.75
366.147	71.75
366.373	87.75
366.599	83.75
366.826	79.75
367.052	88.75
367.278	83.75
367.505	88.75
367.731	87.75
367.957	85.75
368.184	88.75
368.41	97.75
368.636	97.75
368.862	87.75
369.089	73.75
369.315	97.75
369.541	72.75
369.767	94.75
369.993	89.75
370.219	73.75
370.445	78.75
370.672	87.75
370.898	84.75
371.124	87.75
371.35	74.75
371.576	95.75
371.802	81.75
372.028	78.75
372.254	84.75
372.48	84.75
372.706	81.75
372.932	66.75
373.158	86.75
373.384	88.75
373.61	91.75
373.835	89.75
374.061	96.75
374.287	72.75
374.513	90.75
374.739	83.75
374.965	70.75
375.191	85.75
375.416	94.75
375.642	83.75
375.868	87.75
376.094	71.75
376.319	72.75
376.545	72.75
376.771	81.75
376.997	81.75
377.222	76.75
377.448	85.75
377.674	80.75
377.899	89.75
378.125	81.75
378.35	85.75
378.576	90.75
378.802	87.75
379.027	83.75
379.253	87.75
379.478	95.75
379.704	76.75
379.929	77.75
380.155	90.75
380.38	78.75
380.606	67.75
380.831	80.75
381.057	80.75
381.282	86.75
381.507	92.75
381.733	86.75
381.958	81.75
382.184	81.75
382.409	66.75
382.634	77.75
382.86	81.75
383.085	78.75
383.31	75.75
383.535	86.75
383.761	83.75
383.986	82.75
384.211	81.75
384.436	79.75
384.662	78.75
384.887	83.75
385.112	82.75
385.337	84.75
385.562	90.75
385.787	76.75
386.013	90.75
386.238	83.75
386.463	78.75
386.688	98.75
386.913	82.75
387.138	81.75
387.363	78.75
387.588	78.75
387.813	76.75
388.038	90.75
388.263	74.75
388.488	81.75
388.713	73.75
388.938	67.75
389.163	79.75
389.387	93.75
389.612	79.75
389.837	74.75
390.062	86.75
390.287	61.75
390.512	81.75
390.736	73.75
390.961	83.75
391.186	98.75
391.411	71.75
391.636	76.75
391.86	71.75
392.085	77.75
392.31	81.75
392.534	75.75
392.759	82.75
392.984	94.75
393.208	106.75
393.433	105.75
393.658	104.75
393.882	65.75
394.107	89.75
394.331	96.75
394.556	86.75
394.78	87.75
395.005	88.75
395.229	65.75
395.454	101.75
395.678	83.75
395.903	89.75
396.127	97.75
396.352	104.75
396.576	86.75
396.801	81.75
397.025	91.75
397.249	85.75
397.474	88.75
397.698	87.75
397.922	80.75
398.147	91.75
398.371	82.75
398.595	74.75
398.82	81.75
399.044	75.75
399.268	78.75
399.492	80.75
399.717	81.75
399.941	85.75
400.165	99.75
400.389	83.75
400.613	79.75
400.837	87.75
401.062	82.75
401.286	67.75
401.51	81.75
401.734	83.75
401.958	86.75
402.182	89.75
402.406	93.75
402.63	81.75
402.854	85.75
403.078	86.75
403.302	83.75
403.526	75.75
403.75	82.75
403.974	86.75
404.198	102.75
404.422	87.75
404.645	91.75
404.869	92.75
405.093	89.75
405.317	86.75
405.541	90.75
405.765	103.75
405.988	97.75
406.212	81.75
406.436	81.75
406.66	91.75
406.883	84.75
407.107	91.75
407.331	75.75
407.555	76.75
407.778	86.75
408.002	73.75
408.226	94.75
408.449	78.75
408.673	84.75
408.896	80.75
409.12	75.75
409.344	90.75
409.567	84.75
409.791	74.75
410.014	85.75
410.238	77.75
410.461	83.75
410.685	80.75
410.908	81.75
411.132	82.75
411.355	80.75
411.578	94.75
411.802	69.75
412.025	73.75
412.249	83.75
412.472	93.75
412.695	86.75
412.919	93.75
413.142	65.75
413.365	79.75
413.589	76.75
413.812	85.75
414.035	87.75
414.258	88.75
414.482	85.75
414.705	81.75
414.928	86.75
415.151	87.75
415.374	69.75
415.597	80.75
415.821	82.75
416.044	82.75
416.267	71.75
416.49	77.75
416.713	84.75
416.936	79.75
417.159	74.75
417.382	83.75
417.605	83.75
417.828	75.75
418.051	77.75
418.274	80.75
418.497	75.75
418.72	93.75
418.943	73.75
419.166	72.75
419.389	88.75
419.611	80.75
419.834	81.75
420.057	81.75
420.28	85.75
420.503	87.75
420.726	72.75
420.948	84.75
421.171	78.75
421.394	95.75
421.617	75.75
421.839	80.75
422.062	90.75
422.285	90.75
422.507	95.75
422.73	103.75
422.953	94.75
423.175	87.75
423.398	82.75
423.621	89.75
423.843	73.75
424.066	71.75
424.288	81.75
424.511	89.75
424.733	76.75
424.956	87.75
425.178	86.75
425.401	79.75
425.623	76.75
425.846	79.75
426.068	86.75
426.291	72.75
426.513	81.75
426.735	90.75
426.958	83.75
427.18	86.75
427.402	90.75
427.625	75.75
427.847	81.75
428.069	85.75
428.292	88.75
428.514	76.75
428.736	82.75
428.958	82.75
429.181	73.75
429.403	87.75
429.625	73.75
429.847	87.75
430.069	83.75
430.292	78.75
430.514	83.75
430.736	74.75
430.958	82.75
431.18	84.75
431.402	73.75
431.624	72.75
431.846	73.75
432.068	81.75
432.29	82.75
432.512	94.75
432.734	66.75
432.956	85.75
433.178	77.75
433.4	92.75
433.622	83.75
433.844	87.75
434.066	78.75
434.287	89.75
434.509	73.75
434.731	72.75
434.953	84.75
435.175	87.75
435.397	84.75
435.618	80.75
435.84	79.75
436.062	81.75
436.284	85.75
436.505	75.75
436.727	84.75
436.949	75.75
437.17	61.75
437.392	82.75
437.614	93.75
437.835	77.75
438.057	75.75
438.278	75.75
438.5	76.75
438.721	81.75
438.943	77.75
439.165	78.75
439.386	68.75
439.608	71.75
439.829	73.75
440.05	76.75
440.272	81.75
440.493	82.75
440.715	93.75
440.936	67.75
441.158	87.75
441.379	93.75
441.6	76.75
441.822	90.75
442.043	79.75
442.264	88.75
442.486	73.75
442.707	86.75
442.928	66.75
443.149	81.75
443.371	77.75
443.592	79.75
443.813	83.75
444.034	79.75
444.255	81.75
444.476	80.75
444.698	87.75
444.919	86.75
445.14	150.75
445.361	100.75
445.582	94.75
445.803	78.75
446.024	79.75
446.245	90.75
446.466	78.75
446.687	84.75
446.908	75.75
447.129	81.75
447.35	72.75
447.571	73.75
447.792	92.75
448.013	72.75
448.234	76.75
448.455	69.75
448.675	85.75
448.896	75.75
449.117	90.75
449.338	91.75
449.559	97.75
449.779	77.75
450	80.75
450.221	82.75
450.442	74.75
450.662	75.75
450.883	73.75
451.104	94.75
451.324	90.75
451.545	82.75
451.766	61.75
451.986	76.75
452.207	85.75
452.428	73.75
452.648	87.75
452.869	73.75
453.089	74.75
453.31	86.75
453.53	86.75
453.751	78.75
453.971	85.75
454.192	70.75
454.412	65.75
454.633	83.75
454.853	82.75
455.073	84.75
455.294	79.75
455.514	81.75
455.734	67.75
455.955	78.75
456.175	81.75
456.395	77.75
456.616	88.75
456.836	78.75
457.056	79.75
457.276	78.75
457.497	84.75
457.717	75.75
457.937	74.75
458.157	76.75
458.377	73.75
458.598	79.75
458.818	71.75
459.038	77.75
459.258	75.75
459.478	82.75
459.698	89.75
459.918	67.75
460.138	73.75
460.358	75.75
460.578	85.75
460.798	71.75
461.018	69.75
461.238	70.75
461.458	82.75
461.678	90.75
461.898	82.75
462.118	80.75
462.338	71.75
462.558	81.75
462.777	84.75
462.997	72.75
463.217	79.75
463.437	85.75
463.657	86.75
463.876	80.75
464.096	83.75
464.316	89.75
464.536	76.75
464.755	66.75
464.975	74.75
465.195	81.75
465.414	84.75
465.634	82.75
465.854	70.75
466.073	76.75
466.293	67.75
466.512	91.75
466.732	69.75
466.951	90.75
467.171	96.75
467.391	86.75
467.61	74.75
467.829	98.75
468.049	85.75
468.268	75.75
468.488	77.75
468.707	93.75
468.927	98.75
469.146	88.75
469.365	91.75
469.585	81.75
469.804	84.75
470.023	89.75
470.243	81.75
470.462	83.75
470.681	86.75
470.901	88.75
471.12	97.75
471.339	87.75
471.558	83.75
471.777	79.75
471.997	75.75
472.216	95.75
472.435	86.75
472.654	75.75
472.873	82.75
473.092	87.75
473.311	95.75
473.53	70.75
473.749	69.75
473.968	77.75
474.187	85.75
474.406	58.75
474.625	86.75
474.844	88.75
475.063	82.75
475.282	76.75
475.501	89.75
475.72	82.75
475.939	87.75
476.158	86.75
476.377	71.75
476.596	82.75
476.814	86.75
477.033	77.75
477.252	73.75
477.471	73.75
477.69	92.75
477.908	91.75
478.127	95.75
478.346	80.75
478.564	75.75
478.783	82.75
479.002	82.75
479.22	77.75
479.439	83.75
479.658	74.75
479.876	75.75
480.095	82.75
480.313	86.75
480.532	79.75
480.751	85.75
480.969	86.75
481.188	87.75
481.406	87.75
481.624	81.75
481.843	75.75
482.061	86.75
482.28	69.75
482.498	86.75
482.717	85.75
482.935	70.75
483.153	78.75
483.372	77.75
483.59	82.75
483.808	76.75
484.027	87.75
484.245	88.75
484.463	83.75
484.681	99.75
484.9	81.75
485.118	80.75
485.336	81.75
485.554	80.75
485.772	82.75
485.99	77.75
486.209	71.75
486.427	86.75
486.645	70.75
486.863	91.75
487.081	69.75
487.299	88.75
487.517	90.75
487.735	82.75
487.953	81.75
488.171	85.75
488.389	86.75
488.607	83.75
488.825	90.75
489.043	73.75
489.261	105.75
489.479	82.75
489.696	88.75
489.914	96.75
490.132	82.75
490.35	87.75
490.568	99.75
490.786	93.75
491.003	74.75
491.221	78.75
491.439	83.75
491.657	79.75
491.874	71.75
492.092	77.75
492.31	87.75
492.527	79.75
492.745	72.75
492.963	77.75
493.18	73.75
493.398	87.75
493.615	81.75
493.833	85.75
494.05	79.75
494.268	85.75
494.485	82.75
494.703	73.75
494.92	85.75
495.138	75.75
495.355	79.75
495.573	101.75
495.79	71.75
496.008	84.75
496.225	77.75
496.442	86.75
496.66	95.75
496.877	97.75
497.094	95.75
497.312	95.75
497.529	89.75
497.746	87.75
497.963	76.75
498.181	96.75
498.398	93.75
498.615	78.75
498.832	94.75
499.049	91.75
499.267	69.75
499.484	66.75
499.701	76.75
499.918	89.75
500.135	81.75
500.352	76.75
500.569	88.75
500.786	93.75
501.003	81.75
501.22	82.75
501.437	89.75
501.654	90.75
501.871	74.75
502.088	65.75
502.305	95.75
502.522	86.75
502.739	84.75
502.956	70.75
503.172	86.75
503.389	88.75
503.606	83.75
503.823	89.75
504.04	87.75
504.256	78.75
504.473	82.75
504.69	86.75
504.907	86.75
505.123	76.75
505.34	88.75
505.557	72.75
505.773	87.75
505.99	75.75
506.207	70.75
506.423	91.75
506.64	76.75
506.856	79.75
507.073	85.75
507.289	88.75
507.506	78.75
507.722	86.75
507.939	82.75
508.155	79.75
508.372	89.75
508.588	76.75
508.805	75.75
509.021	79.75
509.238	79.75
509.454	69.75
509.67	62.75
509.887	84.75
510.103	75.75
510.319	79.75
510.536	77.75
510.752	84.75
510.968	86.75
511.184	82.75
511.401	86.75
511.617	73.75
511.833	87.75
512.049	94.75
512.265	98.75
512.481	76.75
512.698	93.75
512.914	73.75
513.13	86.75
513.346	88.75
513.562	90.75
513.778	93.75
513.994	77.75
514.21	79.75
514.426	95.75
514.642	70.75
514.858	78.75
515.074	89.75
515.29	83.75
515.506	78.75
515.721	84.75
515.937	81.75
516.153	78.75
516.369	83.75
516.585	75.75
516.801	87.75
517.016	93.75
517.232	77.75
517.448	75.75
517.664	70.75
517.879	90.75
518.095	87.75
518.311	72.75
518.527	71.75
518.742	73.75
518.958	71.75
519.173	66.75
519.389	79.75
519.605	93.75
519.82	72.75
520.036	70.75
520.251	85.75
520.467	87.75
520.682	80.75
520.898	86.75
521.113	89.75
521.329	81.75
521.544	83.75
521.76	78.75
521.975	78.75
522.19	86.75
522.406	82.75
522.621	97.75
522.836	97.75
523.052	94.75
523.267	86.75
523.482	89.75
523.698	90.75
523.913	81.75
524.128	76.75
524.343	83.75
524.559	87.75
524.774	87.75
524.989	89.75
525.204	98.75
525.419	82.75
525.634	89.75
525.849	97.75
526.064	90.75
526.28	81.75
526.495	79.75
526.71	89.75
526.925	82.75
527.14	97.75
527.355	80.75
527.57	83.75
527.785	81.75
527.999	83.75
528.214	77.75
528.429	81.75
528.644	83.75
528.859	84.75
529.074	92.75
529.289	87.75
529.503	74.75
529.718	75.75
529.933	74.75
530.148	89.75
530.363	81.75
530.577	79.75
530.792	66.75
531.007	99.75
531.221	81.75
531.436	81.75
531.651	89.75
531.865	85.75
532.08	84.75
532.295	86.75
532.509	82.75
532.724	75.75
532.938	71.75
533.153	66.75
533.367	83.75
533.582	73.75
533.796	89.75
534.011	83.75
534.225	75.75
534.44	77.75
534.654	97.75
534.868	83.75
535.083	89.75
535.297	72.75
535.511	88.75
535.726	86.75
535.94	83.75
536.154	90.75
536.369	89.75
536.583	88.75
536.797	73.75
537.011	79.75
537.225	95.75
537.44	73.75
537.654	84.75
537.868	89.75
538.082	90.75
538.296	71.75
538.51	75.75
538.724	80.75
538.938	75.75
539.153	86.75
539.367	101.75
539.581	79.75
539.795	81.75
540.009	84.75
540.222	88.75
540.436	87.75
540.65	85.75
540.864	82.75
541.078	77.75
541.292	84.75
541.506	87.75
541.72	90.75
541.934	97.75
542.147	82.75
542.361	83.75
542.575	80.75
542.789	76.75
543.002	84.75
543.216	89.75
543.43	95.75
543.644	93.75
543.857	80.75
544.071	82.75
544.285	92.75
544.498	85.75
544.712	78.75
544.925	69.75
545.139	76.75
545.352	69.75
545.566	88.75
545.779	89.75
545.993	88.75
546.206	87.75
546.42	90.75
546.633	73.75
546.847	87.75
547.06	73.75
547.274	87.75
547.487	77.75
547.7	91.75
547.914	92.75
548.127	93.75
548.34	85.75
548.554	83.75
548.767	91.75
548.98	96.75
549.193	78.75
549.407	75.75
549.62	98.75
549.833	75.75
550.046	87.75
550.259	83.75
550.473	87.75
550.686	100.75
550.899	98.75
551.112	86.75
551.325	81.75
551.538	84.75
551.751	82.75
551.964	88.75
552.177	76.75
552.39	79.75
552.603	95.75
552.816	82.75
553.029	88.75
553.242	79.75
553.455	81.75
553.667	82.75
553.88	84.75
554.093	89.75
554.306	84.75
554.519	96.75
554.732	72.75
554.944	75.75
555.157	87.75
555.37	85.75
555.583	90.75
555.795	93.75
556.008	86.75
556.221	82.75
556.433	79.75
556.646	80.75
556.859	78.75
557.071	79.75
557.284	79.75
557.496	82.75
557.709	89.75
557.921	88.75
558.134	94.75
558.346	83.75
558.559	85.75
558.771	93.75
558.984	74.75
559.196	80.75
559.409	74.75
559.621	93.75
559.833	93.75
560.046	90.75
560.258	81.75
560.47	87.75
560.683	85.75
560.895	76.75
561.107	79.75
561.32	98.75
561.532	91.75
561.744	75.75
561.956	84.75
562.168	95.75
562.381	77.75
562.593	90.75
562.805	83.75
563.017	81.75
563.229	90.75
563.441	94.75
563.653	97.75
563.865	85.75
564.077	90.75
564.289	87.75
564.501	87.75
564.713	86.75
564.925	78.75
565.137	81.75
565.349	95.75
565.561	88.75
565.773	77.75
565.985	91.75
566.197	75.75
566.408	95.75
566.62	83.75
566.832	87.75
567.044	85.75
567.255	91.75
567.467	82.75
567.679	79.75
567.891	84.75
568.102	81.75
568.314	87.75
568.526	101.75
568.737	85.75
568.949	98.75
569.161	91.75
569.372	105.75
569.584	85.75
569.795	79.75
570.007	82.75
570.218	83.75
570.43	78.75
570.641	91.75
570.853	57.75
571.064	84.75
571.276	85.75
571.487	84.75
571.698	86.75
571.91	84.75
572.121	84.75
572.333	89.75
572.544	75.75
572.755	74.75
572.966	94.75
573.178	70.75
573.389	88.75
573.6	79.75
573.811	85.75
574.023	83.75
574.234	81.75
574.445	89.75
574.656	93.75
574.867	78.75
575.078	76.75
575.289	86.75
575.501	89.75
575.712	83.75
575.923	84.75
576.134	79.75
576.345	85.75
576.556	75.75
576.767	83.75
576.978	93.75
577.188	96.75
577.399	90.75
577.61	95.75
577.821	87.75
578.032	91.75
578.243	87.75
578.454	75.75
578.665	93.75
578.875	79.75
579.086	74.75
579.297	78.75
579.508	101.75
579.718	91.75
579.929	86.75
580.14	97.75
580.35	90.75
580.561	89.75
580.772	92.75
580.982	83.75
581.193	84.75
581.403	93.75
581.614	95.75
581.825	98.75
582.035	83.75
582.246	93.75
582.456	77.75
582.667	75.75
582.877	68.75
583.087	91.75
583.298	86.75
583.508	84.75
583.719	89.75
583.929	93.75
584.139	75.75
584.35	78.75
584.56	85.75
584.77	93.75
584.981	83.75
585.191	93.75
585.401	84.75
585.611	86.75
585.821	88.75
586.032	87.75
586.242	82.75
586.452	104.75
586.662	92.75
586.872	88.75
587.082	76.75
587.292	76.75
587.502	79.75
587.713	83.75
587.923	89.75
588.133	100.75
588.343	103.75
588.553	105.75
588.762	112.75
588.972	162.75
589.182	326.75
589.392	253.75
589.602	199.75
589.812	266.75
590.022	178.75
590.232	115.75
590.441	107.75
590.651	75.75
590.861	93.75
591.071	88.75
591.281	71.75
591.49	82.75
591.7	92.75
591.91	92.75
592.119	84.75
592.329	80.75
592.539	80.75
592.748	83.75
592.958	78.75
593.167	83.75
593.377	97.75
593.587	88.75
593.796	96.75
594.006	87.75
594.215	84.75
594.424	85.75
594.634	86.75
594.843	81.75
595.053	84.75
595.262	75.75
595.472	87.75
595.681	81.75
595.89	75.75
596.1	88.75
596.309	79.75
596.518	88.75
596.727	96.75
596.937	82.75
597.146	88.75
597.355	86.75
597.564	82.75
597.774	93.75
597.983	89.75
598.192	81.75
598.401	75.75
598.61	87.75
598.819	97.75
599.028	81.75
599.237	77.75
599.446	85.75
599.655	82.75
599.864	95.75
600.073	67.75
600.282	85.75
600.491	85.75
600.7	89.75
600.909	74.75
601.118	84.75
601.327	88.75
601.536	75.75
601.745	82.75
601.953	79.75
602.162	86.75
602.371	78.75
602.58	67.75
602.789	83.75
602.997	86.75
603.206	89.75
603.415	71.75
603.623	75.75
603.832	81.75
604.041	79.75
604.249	87.75
604.458	98.75
604.666	85.75
604.875	93.75
605.084	82.75
605.292	98.75
605.501	86.75
605.709	82.75
605.918	87.75
606.126	90.75
606.334	81.75
606.543	87.75
606.751	90.75
606.96	74.75
607.168	90.75
607.376	89.75
607.585	91.75
607.793	78.75
608.001	82.75
608.21	101.75
608.418	86.75
608.626	82.75
608.834	82.75
609.043	83.75
609.251	73.75
609.459	85.75
609.667	94.75
609.875	94.75
610.083	81.75
610.291	73.75
610.499	87.75
610.707	79.75
610.916	96.75
611.124	81.75
611.332	92.75
611.54	88.75
611.748	88.75
611.955	90.75
612.163	89.75
612.371	81.75
612.579	72.75
612.787	84.75
612.995	73.75
613.203	83.75
613.411	77.75
613.618	86.75
613.826	85.75
614.034	79.75
614.242	82.75
614.449	85.75
614.657	83.75
614.865	82.75
615.072	90.75
615.28	95.75
615.488	97.75
615.695	81.75
615.903	79.75
616.111	89.75
616.318	93.75
616.526	75.75
616.733	91.75
616.941	87.75
617.148	85.75
617.356	88.75
617.563	79.75
617.771	82.75
617.978	83.75
618.185	88.75
618.393	84.75
618.6	80.75
618.807	90.75
619.015	84.75
619.222	86.75
619.429	84.75
619.637	70.75
619.844	64.75
620.051	99.75
620.258	88.75
620.466	85.75
620.673	67.75
620.88	93.75
621.087	76.75
621.294	83.75
621.501	85.75
621.708	72.75
621.915	83.75
622.122	81.75
622.329	99.75
622.536	87.75
622.743	74.75
622.95	87.75
623.157	87.75
623.364	77.75
623.571	84.75
623.778	87.75
623.985	94.75
624.192	79.75
624.399	96.75
624.606	95.75
624.812	83.75
625.019	87.75
625.226	87.75
625.433	89.75
625.639	82.75
625.846	96.75
626.053	84.75
626.259	99.75
626.466	91.75
626.673	99.75
626.879	89.75
627.086	80.75
627.293	76.75
627.499	86.75
627.706	76.75
627.912	80.75
628.119	89.75
628.325	94.75
628.532	82.75
628.738	94.75
628.945	93.75
629.151	74.75
629.357	91.75
629.564	93.75
629.77	80.75
629.976	93.75
630.183	82.75
630.389	90.75
630.595	84.75
630.802	77.75
631.008	93.75
631.214	79.75
631.42	90.75
631.627	85.75
631.833	84.75
632.039	84.75
632.245	83.75
632.451	79.75
632.657	77.75
632.863	71.75
633.069	93.75
633.275	82.75
633.481	76.75
633.688	67.75
633.893	77.75
634.099	89.75
634.305	86.75
634.511	79.75
634.717	95.75
634.923	86.75
635.129	77.75
635.335	76.75
635.541	81.75
635.747	82.75
635.952	71.75
636.158	101.75
636.364	93.75
636.57	66.75
636.775	81.75
636.981	78.75
637.187	82.75
637.392	92.75
637.598	82.75
637.804	87.75
638.009	91.75
638.215	81.75
638.421	80.75
638.626	83.75
638.832	81.75
639.037	84.75
639.243	75.75
639.448	86.75
639.654	78.75
639.859	74.75
640.065	87.75
640.27	98.75
640.475	72.75
640.681	86.75
640.886	75.75
641.091	65.75
641.297	97.75
641.502	88.75
641.707	98.75
641.913	85.75
642.118	85.75
642.323	88.75
642.528	68.75
642.733	93.75
642.939	101.75
643.144	88.75
643.349	80.75
643.554	82.75
643.759	75.75
643.964	102.75
644.169	86.75
644.374	71.75
644.579	70.75
644.784	94.75
644.989	75.75
645.194	81.75
645.399	72.75
645.604	97.75
645.809	98.75
646.014	86.75
646.219	73.75
646.423	90.75
646.628	83.75
646.833	83.75
647.038	85.75
647.243	91.75
647.447	93.75
647.652	89.75
647.857	94.75
648.062	85.75
648.266	81.75
648.471	84.75
648.676	87.75
648.88	74.75
649.085	90.75
649.289	71.75
649.494	89.75
649.698	94.75
649.903	82.75
650.107	79.75
650.312	91.75
650.516	84.75
650.721	83.75
650.925	86.75
651.13	95.75
651.334	87.75
651.539	95.75
651.743	90.75
651.947	71.75
652.152	98.75
652.356	80.75
652.56	83.75
652.764	80.75
652.969	77.75
653.173	90.75
653.377	81.75
653.581	87.75
653.785	101.75
653.99	75.75
654.194	82.75
654.398	95.75
654.602	90.75
654.806	77.75
655.01	85.75
655.214	75.75
655.418	81.75
655.622	66.75
655.826	92.75
656.03	91.75
656.234	71.75
656.438	85.75
656.642	73.75
656.846	85.75
657.049	83.75
657.253	87.75
657.457	88.75
657.661	81.75
657.865	75.75
658.068	80.75
658.272	85.75
658.476	68.75
658.68	76.75
658.883	90.75
659.087	73.75
659.291	85.75
659.494	81.75
659.698	82.75
659.901	88.75
660.105	83.75
660.309	83.75
660.512	86.75
660.716	93.75
660.919	92.75
661.123	86.75
661.326	101.75
661.53	75.75
661.733	82.75
661.936	82.75
662.14	69.75
662.343	86.75
662.546	82.75
662.75	72.75
662.953	83.75
663.156	78.75
663.36	72.75
663.563	87.75
663.766	87.75
663.969	84.75
664.173	75.75
664.376	66.75
664.579	76.75
664.782	65.75
664.985	83.75
665.188	76.75
665.391	83.75
665.594	83.75
665.797	82.75
666	90.75
666.203	71.75
666.406	73.75
666.609	78.75
666.812	85.75
667.015	82.75
667.218	81.75
667.421	77.75
667.624	83.75
667.827	90.75
668.03	91.75
668.232	82.75
668.435	90.75
668.638	75.75
668.841	87.75
669.043	88.75
669.246	75.75
669.449	70.75
669.651	93.75
669.854	83.75
670.057	84.75
670.259	81.75
670.462	75.75
670.665	73.75
670.867	88.75
671.07	78.75
671.272	78.75
671.475	92.75
671.677	94.75
671.88	71.75
672.082	88.75
672.284	74.75
672.487	76.75
672.689	85.75
672.892	73.75
