Data from Lead_15_1_HRD10591_00140.txt Node
Date: Fri Feb 20 11:06:15 EST 2026
User: Yrep
Spectrometer: HR+D1059
Trigger mode: 1
Integration Time (sec): 1.000000E-1
Scans to average: 1
Electric dark correction enabled: true
Nonlinearity correction enabled: false
Boxcar width: 0
XAxis mode: Wavelengths
Number of Pixels in Spectrum: 2048
>>>>>Begin Spectral Data<<<<<
223.165	-10.62
223.4	-10.62
223.635	-10.62
223.869	-26.62
224.104	-22.62
224.338	-31.62
224.573	-3.62
224.808	-32.62
225.042	-18.62
225.277	-2.62
225.511	11.38
225.746	15.38
225.98	14.38
226.215	10.38
226.449	24.38
226.683	7.38
226.918	34.38
227.152	31.38
227.387	35.38
227.621	42.38
227.856	39.38
228.09	43.38
228.324	45.38
228.559	61.38
228.793	69.38
229.027	56.38
229.262	50.38
229.496	58.38
229.73	61.38
229.964	61.38
230.199	76.38
230.433	67.38
230.667	85.38
230.901	84.38
231.136	67.38
231.37	84.38
231.604	68.38
231.838	74.38
232.072	78.38
232.306	78.38
232.541	92.38
232.775	77.38
233.009	80.38
233.243	81.38
233.477	73.38
233.711	77.38
233.945	85.38
234.179	81.38
234.413	77.38
234.647	65.38
234.881	85.38
235.115	77.38
235.349	73.38
235.583	75.38
235.817	69.38
236.051	73.38
236.285	72.38
236.519	80.38
236.753	63.38
236.987	64.38
237.221	77.38
237.455	65.38
237.689	59.38
237.922	65.38
238.156	78.38
238.39	73.38
238.624	77.38
238.858	67.38
239.091	58.38
239.325	83.38
239.559	71.38
239.793	64.38
240.027	77.38
240.26	69.38
240.494	86.38
240.728	83.38
240.961	70.38
241.195	80.38
241.429	75.38
241.662	68.38
241.896	74.38
242.13	65.38
242.363	86.38
242.597	75.38
242.83	83.38
243.064	76.38
243.298	83.38
243.531	81.38
243.765	72.38
243.998	64.38
244.232	75.38
244.465	70.38
244.699	67.38
244.932	92.38
245.166	79.38
245.399	79.38
245.633	74.38
245.866	73.38
246.099	79.38
246.333	67.38
246.566	75.38
246.8	85.38
247.033	81.38
247.266	74.38
247.5	75.38
247.733	73.38
247.966	79.38
248.2	75.38
248.433	87.38
248.666	66.38
248.899	63.38
249.133	73.38
249.366	91.38
249.599	76.38
249.832	79.38
250.066	65.38
250.299	74.38
250.532	77.38
250.765	82.38
250.998	81.38
251.231	69.38
251.465	75.38
251.698	68.38
251.931	72.38
252.164	84.38
252.397	79.38
252.63	72.38
252.863	69.38
253.096	74.38
253.329	64.38
253.562	76.38
253.795	69.38
254.028	65.38
254.261	67.38
254.494	72.38
254.727	77.38
254.96	69.38
255.193	70.38
255.426	76.38
255.659	71.38
255.892	92.38
256.124	75.38
256.357	71.38
256.59	85.38
256.823	57.38
257.056	77.38
257.289	77.38
257.521	87.38
257.754	73.38
257.987	67.38
258.22	75.38
258.452	91.38
258.685	73.38
258.918	71.38
259.151	79.38
259.383	79.38
259.616	79.38
259.849	83.38
260.081	81.38
260.314	68.38
260.547	70.38
260.779	79.38
261.012	78.38
261.244	81.38
261.477	85.38
261.71	61.38
261.942	78.38
262.175	79.38
262.407	87.38
262.64	73.38
262.872	76.38
263.105	81.38
263.337	79.38
263.57	87.38
263.802	60.38
264.035	75.38
264.267	77.38
264.499	78.38
264.732	84.38
264.964	91.38
265.197	77.38
265.429	58.38
265.661	68.38
265.894	81.38
266.126	80.38
266.358	74.38
266.591	73.38
266.823	81.38
267.055	84.38
267.287	69.38
267.52	86.38
267.752	66.38
267.984	80.38
268.216	68.38
268.448	91.38
268.681	76.38
268.913	91.38
269.145	83.38
269.377	75.38
269.609	82.38
269.841	74.38
270.073	73.38
270.306	75.38
270.538	81.38
270.77	74.38
271.002	86.38
271.234	78.38
271.466	74.38
271.698	74.38
271.93	70.38
272.162	77.38
272.394	77.38
272.626	92.38
272.858	93.38
273.09	84.38
273.322	73.38
273.553	79.38
273.785	81.38
274.017	88.38
274.249	102.38
274.481	84.38
274.713	77.38
274.945	75.38
275.176	72.38
275.408	91.38
275.64	93.38
275.872	93.38
276.104	73.38
276.335	73.38
276.567	73.38
276.799	85.38
277.031	71.38
277.262	101.38
277.494	103.38
277.726	81.38
277.957	81.38
278.189	74.38
278.421	86.38
278.652	86.38
278.884	85.38
279.115	78.38
279.347	82.38
279.579	81.38
279.81	83.38
280.042	86.38
280.273	76.38
280.505	80.38
280.736	71.38
280.968	84.38
281.199	79.38
281.431	96.38
281.662	89.38
281.894	77.38
282.125	65.38
282.356	85.38
282.588	85.38
282.819	72.38
283.051	85.38
283.282	69.38
283.513	76.38
283.745	75.38
283.976	65.38
284.207	93.38
284.439	82.38
284.67	81.38
284.901	73.38
285.132	82.38
285.364	86.38
285.595	111.38
285.826	72.38
286.057	95.38
286.288	80.38
286.52	60.38
286.751	70.38
286.982	78.38
287.213	79.38
287.444	77.38
287.675	84.38
287.906	84.38
288.138	88.38
288.369	75.38
288.6	62.38
288.831	83.38
289.062	84.38
289.293	79.38
289.524	89.38
289.755	88.38
289.986	68.38
290.217	92.38
290.448	87.38
290.679	89.38
290.91	77.38
291.141	70.38
291.371	75.38
291.602	70.38
291.833	89.38
292.064	86.38
292.295	69.38
292.526	95.38
292.757	86.38
292.987	77.38
293.218	75.38
293.449	91.38
293.68	79.38
293.91	87.38
294.141	76.38
294.372	91.38
294.603	88.38
294.833	75.38
295.064	79.38
295.295	80.38
295.525	87.38
295.756	68.38
295.987	78.38
296.217	79.38
296.448	83.38
296.679	77.38
296.909	86.38
297.14	83.38
297.37	91.38
297.601	81.38
297.831	83.38
298.062	97.38
298.292	89.38
298.523	91.38
298.753	79.38
298.984	77.38
299.214	84.38
299.445	96.38
299.675	85.38
299.905	87.38
300.136	86.38
300.366	75.38
300.597	86.38
300.827	81.38
301.057	80.38
301.288	79.38
301.518	97.38
301.748	79.38
301.979	96.38
302.209	85.38
302.439	81.38
302.669	86.38
302.9	84.38
303.13	79.38
303.36	75.38
303.59	83.38
303.82	69.38
304.051	83.38
304.281	84.38
304.511	86.38
304.741	76.38
304.971	77.38
305.201	87.38
305.431	77.38
305.661	86.38
305.891	83.38
306.121	93.38
306.352	77.38
306.582	89.38
306.812	86.38
307.042	87.38
307.272	78.38
307.502	75.38
307.731	84.38
307.961	87.38
308.191	93.38
308.421	91.38
308.651	81.38
308.881	91.38
309.111	73.38
309.341	83.38
309.571	86.38
309.8	73.38
310.03	80.38
310.26	87.38
310.49	94.38
310.72	90.38
310.949	93.38
311.179	94.38
311.409	86.38
311.639	83.38
311.868	81.38
312.098	73.38
312.328	69.38
312.557	78.38
312.787	77.38
313.017	85.38
313.246	80.38
313.476	81.38
313.706	68.38
313.935	85.38
314.165	70.38
314.394	81.38
314.624	73.38
314.853	87.38
315.083	83.38
315.312	80.38
315.542	75.38
315.771	85.38
316.001	81.38
316.23	84.38
316.46	76.38
316.689	86.38
316.919	87.38
317.148	80.38
317.377	87.38
317.607	73.38
317.836	82.38
318.065	79.38
318.295	80.38
318.524	84.38
318.753	79.38
318.983	91.38
319.212	83.38
319.441	88.38
319.67	86.38
319.9	68.38
320.129	81.38
320.358	80.38
320.587	88.38
320.816	85.38
321.046	77.38
321.275	83.38
321.504	94.38
321.733	89.38
321.962	88.38
322.191	75.38
322.42	79.38
322.649	71.38
322.878	93.38
323.108	91.38
323.337	90.38
323.566	78.38
323.795	81.38
324.024	91.38
324.253	71.38
324.482	83.38
324.71	78.38
324.939	76.38
325.168	83.38
325.397	93.38
325.626	82.38
325.855	98.38
326.084	78.38
326.313	76.38
326.542	79.38
326.77	73.38
326.999	83.38
327.228	78.38
327.457	75.38
327.686	99.38
327.914	75.38
328.143	75.38
328.372	88.38
328.6	86.38
328.829	80.38
329.058	74.38
329.287	74.38
329.515	91.38
329.744	83.38
329.972	87.38
330.201	83.38
330.43	75.38
330.658	77.38
330.887	80.38
331.115	94.38
331.344	82.38
331.572	80.38
331.801	81.38
332.03	88.38
332.258	83.38
332.486	75.38
332.715	95.38
332.943	73.38
333.172	79.38
333.4	74.38
333.629	80.38
333.857	83.38
334.085	75.38
334.314	93.38
334.542	72.38
334.771	69.38
334.999	88.38
335.227	73.38
335.455	78.38
335.684	75.38
335.912	95.38
336.14	82.38
336.369	84.38
336.597	85.38
336.825	63.38
337.053	69.38
337.281	85.38
337.51	77.38
337.738	83.38
337.966	82.38
338.194	85.38
338.422	82.38
338.65	79.38
338.878	83.38
339.106	75.38
339.334	75.38
339.562	76.38
339.79	85.38
340.018	88.38
340.246	84.38
340.474	73.38
340.702	85.38
340.93	84.38
341.158	78.38
341.386	80.38
341.614	88.38
341.842	81.38
342.07	73.38
342.298	68.38
342.526	83.38
342.754	93.38
342.981	86.38
343.209	86.38
343.437	103.38
343.665	93.38
343.893	84.38
344.12	87.38
344.348	77.38
344.576	79.38
344.804	89.38
345.031	72.38
345.259	83.38
345.487	83.38
345.714	70.38
345.942	81.38
346.17	83.38
346.397	91.38
346.625	79.38
346.853	76.38
347.08	69.38
347.308	74.38
347.535	73.38
347.763	88.38
347.99	90.38
348.218	101.38
348.445	80.38
348.673	85.38
348.9	96.38
349.128	76.38
349.355	66.38
349.583	72.38
349.81	64.38
350.037	76.38
350.265	79.38
350.492	74.38
350.72	86.38
350.947	93.38
351.174	82.38
351.402	75.38
351.629	76.38
351.856	76.38
352.083	67.38
352.311	75.38
352.538	88.38
352.765	83.38
352.992	87.38
353.22	73.38
353.447	67.38
353.674	84.38
353.901	86.38
354.128	70.38
354.355	78.38
354.583	75.38
354.81	94.38
355.037	75.38
355.264	81.38
355.491	70.38
355.718	83.38
355.945	78.38
356.172	69.38
356.399	66.38
356.626	72.38
356.853	71.38
357.08	97.38
357.307	84.38
357.534	79.38
357.761	74.38
357.988	63.38
358.215	73.38
358.441	81.38
358.668	83.38
358.895	81.38
359.122	86.38
359.349	87.38
359.576	87.38
359.802	92.38
360.029	77.38
360.256	72.38
360.483	91.38
360.709	84.38
360.936	95.38
361.163	86.38
361.39	77.38
361.616	97.38
361.843	74.38
362.07	73.38
362.296	78.38
362.523	95.38
362.749	88.38
362.976	75.38
363.203	90.38
363.429	75.38
363.656	88.38
363.882	77.38
364.109	86.38
364.335	69.38
364.562	80.38
364.788	71.38
365.015	73.38
365.241	94.38
365.468	73.38
365.694	72.38
365.92	73.38
366.147	72.38
366.373	80.38
366.599	74.38
366.826	82.38
367.052	87.38
367.278	77.38
367.505	64.38
367.731	87.38
367.957	85.38
368.184	89.38
368.41	83.38
368.636	88.38
368.862	79.38
369.089	78.38
369.315	91.38
369.541	80.38
369.767	79.38
369.993	82.38
370.219	60.38
370.445	72.38
370.672	84.38
370.898	87.38
371.124	77.38
371.35	82.38
371.576	72.38
371.802	67.38
372.028	66.38
372.254	78.38
372.48	85.38
372.706	81.38
372.932	80.38
373.158	75.38
373.384	74.38
373.61	82.38
373.835	80.38
374.061	79.38
374.287	70.38
374.513	73.38
374.739	83.38
374.965	71.38
375.191	90.38
375.416	74.38
375.642	60.38
375.868	81.38
376.094	77.38
376.319	86.38
376.545	75.38
376.771	87.38
376.997	86.38
377.222	71.38
377.448	82.38
377.674	69.38
377.899	82.38
378.125	74.38
378.35	67.38
378.576	71.38
378.802	64.38
379.027	84.38
379.253	79.38
379.478	101.38
379.704	76.38
379.929	79.38
380.155	85.38
380.38	76.38
380.606	86.38
380.831	74.38
381.057	88.38
381.282	95.38
381.507	79.38
381.733	73.38
381.958	70.38
382.184	85.38
382.409	71.38
382.634	83.38
382.86	72.38
383.085	93.38
383.31	91.38
383.535	64.38
383.761	70.38
383.986	78.38
384.211	79.38
384.436	77.38
384.662	89.38
384.887	68.38
385.112	79.38
385.337	71.38
385.562	82.38
385.787	82.38
386.013	71.38
386.238	65.38
386.463	75.38
386.688	98.38
386.913	67.38
387.138	87.38
387.363	83.38
387.588	81.38
387.813	91.38
388.038	72.38
388.263	93.38
388.488	81.38
388.713	79.38
388.938	79.38
389.163	87.38
389.387	71.38
389.612	67.38
389.837	72.38
390.062	73.38
390.287	82.38
390.512	104.38
390.736	81.38
390.961	63.38
391.186	69.38
391.411	101.38
391.636	81.38
391.86	85.38
392.085	71.38
392.31	82.38
392.534	64.38
392.759	83.38
392.984	78.38
393.208	81.38
393.433	91.38
393.658	68.38
393.882	79.38
394.107	80.38
394.331	76.38
394.556	68.38
394.78	76.38
395.005	72.38
395.229	81.38
395.454	79.38
395.678	88.38
395.903	74.38
396.127	83.38
396.352	68.38
396.576	83.38
396.801	98.38
397.025	63.38
397.249	87.38
397.474	86.38
397.698	82.38
397.922	73.38
398.147	84.38
398.371	70.38
398.595	91.38
398.82	88.38
399.044	81.38
399.268	76.38
399.492	81.38
399.717	83.38
399.941	77.38
400.165	91.38
400.389	73.38
400.613	89.38
400.837	80.38
401.062	71.38
401.286	86.38
401.51	92.38
401.734	77.38
401.958	72.38
402.182	79.38
402.406	83.38
402.63	69.38
402.854	77.38
403.078	92.38
403.302	78.38
403.526	87.38
403.75	71.38
403.974	88.38
404.198	77.38
404.422	84.38
404.645	88.38
404.869	84.38
405.093	68.38
405.317	79.38
405.541	77.38
405.765	79.38
405.988	88.38
406.212	66.38
406.436	73.38
406.66	88.38
406.883	65.38
407.107	88.38
407.331	91.38
407.555	80.38
407.778	76.38
408.002	80.38
408.226	85.38
408.449	82.38
408.673	79.38
408.896	70.38
409.12	81.38
409.344	81.38
409.567	77.38
409.791	72.38
410.014	84.38
410.238	86.38
410.461	71.38
410.685	75.38
410.908	81.38
411.132	85.38
411.355	97.38
411.578	79.38
411.802	72.38
412.025	83.38
412.249	69.38
412.472	80.38
412.695	77.38
412.919	95.38
413.142	82.38
413.365	79.38
413.589	75.38
413.812	87.38
414.035	78.38
414.258	71.38
414.482	79.38
414.705	91.38
414.928	86.38
415.151	86.38
415.374	80.38
415.597	79.38
415.821	73.38
416.044	80.38
416.267	65.38
416.49	80.38
416.713	76.38
416.936	76.38
417.159	73.38
417.382	88.38
417.605	67.38
417.828	74.38
418.051	83.38
418.274	73.38
418.497	76.38
418.72	73.38
418.943	80.38
419.166	66.38
419.389	89.38
419.611	71.38
419.834	75.38
420.057	82.38
420.28	78.38
420.503	93.38
420.726	82.38
420.948	79.38
421.171	73.38
421.394	59.38
421.617	72.38
421.839	75.38
422.062	89.38
422.285	95.38
422.507	79.38
422.73	68.38
422.953	80.38
423.175	79.38
423.398	83.38
423.621	84.38
423.843	85.38
424.066	66.38
424.288	72.38
424.511	83.38
424.733	87.38
424.956	81.38
425.178	86.38
425.401	60.38
425.623	67.38
425.846	69.38
426.068	81.38
426.291	69.38
426.513	86.38
426.735	87.38
426.958	86.38
427.18	66.38
427.402	79.38
427.625	57.38
427.847	73.38
428.069	71.38
428.292	72.38
428.514	69.38
428.736	85.38
428.958	75.38
429.181	83.38
429.403	71.38
429.625	74.38
429.847	80.38
430.069	78.38
430.292	84.38
430.514	79.38
430.736	59.38
430.958	83.38
431.18	81.38
431.402	91.38
431.624	78.38
431.846	75.38
432.068	68.38
432.29	83.38
432.512	87.38
432.734	81.38
432.956	92.38
433.178	75.38
433.4	70.38
433.622	85.38
433.844	73.38
434.066	87.38
434.287	80.38
434.509	77.38
434.731	80.38
434.953	60.38
435.175	77.38
435.397	79.38
435.618	83.38
435.84	77.38
436.062	74.38
436.284	79.38
436.505	70.38
436.727	78.38
436.949	74.38
437.17	74.38
437.392	92.38
437.614	83.38
437.835	73.38
438.057	77.38
438.278	79.38
438.5	75.38
438.721	70.38
438.943	79.38
439.165	73.38
439.386	85.38
439.608	64.38
439.829	77.38
440.05	71.38
440.272	73.38
440.493	64.38
440.715	85.38
440.936	73.38
441.158	74.38
441.379	79.38
441.6	91.38
441.822	69.38
442.043	67.38
442.264	71.38
442.486	72.38
442.707	79.38
442.928	63.38
443.149	67.38
443.371	84.38
443.592	80.38
443.813	81.38
444.034	85.38
444.255	80.38
444.476	73.38
444.698	87.38
444.919	85.38
445.14	148.38
445.361	112.38
445.582	77.38
445.803	70.38
446.024	78.38
446.245	83.38
446.466	77.38
446.687	71.38
446.908	70.38
447.129	83.38
447.35	68.38
447.571	80.38
447.792	72.38
448.013	80.38
448.234	92.38
448.455	89.38
448.675	85.38
448.896	67.38
449.117	71.38
449.338	65.38
449.559	89.38
449.779	91.38
450	78.38
450.221	87.38
450.442	65.38
450.662	83.38
450.883	85.38
451.104	73.38
451.324	76.38
451.545	82.38
451.766	74.38
451.986	79.38
452.207	80.38
452.428	81.38
452.648	82.38
452.869	71.38
453.089	76.38
453.31	85.38
453.53	82.38
453.751	86.38
453.971	73.38
454.192	65.38
454.412	80.38
454.633	79.38
454.853	82.38
455.073	86.38
455.294	78.38
455.514	88.38
455.734	92.38
455.955	77.38
456.175	70.38
456.395	89.38
456.616	73.38
456.836	72.38
457.056	77.38
457.276	70.38
457.497	87.38
457.717	82.38
457.937	87.38
458.157	76.38
458.377	81.38
458.598	79.38
458.818	84.38
459.038	70.38
459.258	87.38
459.478	87.38
459.698	73.38
459.918	85.38
460.138	74.38
460.358	70.38
460.578	68.38
460.798	81.38
461.018	79.38
461.238	88.38
461.458	81.38
461.678	60.38
461.898	80.38
462.118	79.38
462.338	79.38
462.558	82.38
462.777	70.38
462.997	68.38
463.217	69.38
463.437	69.38
463.657	78.38
463.876	83.38
464.096	64.38
464.316	69.38
464.536	70.38
464.755	90.38
464.975	78.38
465.195	66.38
465.414	89.38
465.634	87.38
465.854	83.38
466.073	90.38
466.293	75.38
466.512	73.38
466.732	87.38
466.951	80.38
467.171	81.38
467.391	82.38
467.61	68.38
467.829	69.38
468.049	76.38
468.268	79.38
468.488	71.38
468.707	71.38
468.927	91.38
469.146	84.38
469.365	80.38
469.585	73.38
469.804	79.38
470.023	76.38
470.243	61.38
470.462	74.38
470.681	71.38
470.901	80.38
471.12	75.38
471.339	83.38
471.558	84.38
471.777	79.38
471.997	83.38
472.216	86.38
472.435	74.38
472.654	77.38
472.873	92.38
473.092	90.38
473.311	80.38
473.53	74.38
473.749	69.38
473.968	83.38
474.187	84.38
474.406	61.38
474.625	87.38
474.844	78.38
475.063	85.38
475.282	75.38
475.501	76.38
475.72	87.38
475.939	82.38
476.158	76.38
476.377	80.38
476.596	81.38
476.814	75.38
477.033	77.38
477.252	86.38
477.471	82.38
477.69	77.38
477.908	85.38
478.127	74.38
478.346	71.38
478.564	71.38
478.783	79.38
479.002	69.38
479.22	97.38
479.439	73.38
479.658	75.38
479.876	77.38
480.095	64.38
480.313	67.38
480.532	72.38
480.751	79.38
480.969	72.38
481.188	86.38
481.406	79.38
481.624	67.38
481.843	79.38
482.061	87.38
482.28	82.38
482.498	85.38
482.717	84.38
482.935	80.38
483.153	91.38
483.372	97.38
483.59	74.38
483.808	79.38
484.027	76.38
484.245	80.38
484.463	77.38
484.681	91.38
484.9	104.38
485.118	80.38
485.336	92.38
485.554	79.38
485.772	67.38
485.99	74.38
486.209	79.38
486.427	85.38
486.645	94.38
486.863	75.38
487.081	76.38
487.299	86.38
487.517	85.38
487.735	82.38
487.953	73.38
488.171	75.38
488.389	89.38
488.607	88.38
488.825	79.38
489.043	68.38
489.261	86.38
489.479	87.38
489.696	73.38
489.914	80.38
490.132	76.38
490.35	70.38
490.568	75.38
490.786	79.38
491.003	83.38
491.221	63.38
491.439	79.38
491.657	92.38
491.874	75.38
492.092	77.38
492.31	73.38
492.527	71.38
492.745	74.38
492.963	88.38
493.18	77.38
493.398	83.38
493.615	72.38
493.833	84.38
494.05	70.38
494.268	71.38
494.485	77.38
494.703	83.38
494.92	79.38
495.138	77.38
495.355	68.38
495.573	80.38
495.79	85.38
496.008	77.38
496.225	69.38
496.442	88.38
496.66	81.38
496.877	75.38
497.094	77.38
497.312	88.38
497.529	90.38
497.746	84.38
497.963	90.38
498.181	82.38
498.398	71.38
498.615	76.38
498.832	100.38
499.049	84.38
499.267	84.38
499.484	78.38
499.701	78.38
499.918	87.38
500.135	79.38
500.352	76.38
500.569	84.38
500.786	83.38
501.003	73.38
501.22	75.38
501.437	71.38
501.654	59.38
501.871	70.38
502.088	84.38
502.305	83.38
502.522	84.38
502.739	74.38
502.956	80.38
503.172	79.38
503.389	85.38
503.606	80.38
503.823	72.38
504.04	83.38
504.256	81.38
504.473	75.38
504.69	79.38
504.907	80.38
505.123	80.38
505.34	65.38
505.557	81.38
505.773	82.38
505.99	83.38
506.207	84.38
506.423	80.38
506.64	81.38
506.856	76.38
507.073	80.38
507.289	84.38
507.506	79.38
507.722	77.38
507.939	74.38
508.155	81.38
508.372	86.38
508.588	79.38
508.805	85.38
509.021	75.38
509.238	79.38
509.454	68.38
509.67	77.38
509.887	72.38
510.103	89.38
510.319	91.38
510.536	79.38
510.752	87.38
510.968	86.38
511.184	82.38
511.401	80.38
511.617	78.38
511.833	82.38
512.049	73.38
512.265	85.38
512.481	85.38
512.698	80.38
512.914	72.38
513.13	84.38
513.346	82.38
513.562	91.38
513.778	57.38
513.994	74.38
514.21	86.38
514.426	79.38
514.642	76.38
514.858	77.38
515.074	72.38
515.29	81.38
515.506	79.38
515.721	77.38
515.937	96.38
516.153	77.38
516.369	77.38
516.585	73.38
516.801	79.38
517.016	101.38
517.232	81.38
517.448	72.38
517.664	67.38
517.879	69.38
518.095	79.38
518.311	73.38
518.527	75.38
518.742	80.38
518.958	79.38
519.173	82.38
519.389	74.38
519.605	84.38
519.82	81.38
520.036	85.38
520.251	71.38
520.467	81.38
520.682	61.38
520.898	80.38
521.113	87.38
521.329	85.38
521.544	78.38
521.76	85.38
521.975	79.38
522.19	70.38
522.406	75.38
522.621	67.38
522.836	75.38
523.052	81.38
523.267	87.38
523.482	81.38
523.698	79.38
523.913	80.38
524.128	85.38
524.343	84.38
524.559	79.38
524.774	77.38
524.989	72.38
525.204	70.38
525.419	80.38
525.634	75.38
525.849	74.38
526.064	69.38
526.28	80.38
526.495	81.38
526.71	79.38
526.925	73.38
527.14	75.38
527.355	77.38
527.57	73.38
527.785	75.38
527.999	88.38
528.214	85.38
528.429	94.38
528.644	77.38
528.859	75.38
529.074	79.38
529.289	71.38
529.503	69.38
529.718	81.38
529.933	84.38
530.148	81.38
530.363	83.38
530.577	77.38
530.792	85.38
531.007	85.38
531.221	68.38
531.436	76.38
531.651	86.38
531.865	81.38
532.08	82.38
532.295	89.38
532.509	85.38
532.724	86.38
532.938	82.38
533.153	91.38
533.367	76.38
533.582	84.38
533.796	79.38
534.011	77.38
534.225	81.38
534.44	72.38
534.654	82.38
534.868	81.38
535.083	69.38
535.297	82.38
535.511	79.38
535.726	78.38
535.94	73.38
536.154	85.38
536.369	97.38
536.583	79.38
536.797	83.38
537.011	78.38
537.225	87.38
537.44	71.38
537.654	70.38
537.868	82.38
538.082	79.38
538.296	84.38
538.51	81.38
538.724	73.38
538.938	86.38
539.153	88.38
539.367	67.38
539.581	83.38
539.795	86.38
540.009	91.38
540.222	98.38
540.436	88.38
540.65	87.38
540.864	72.38
541.078	71.38
541.292	77.38
541.506	77.38
541.72	94.38
541.934	92.38
542.147	73.38
542.361	92.38
542.575	74.38
542.789	91.38
543.002	86.38
543.216	77.38
543.43	80.38
543.644	82.38
543.857	85.38
544.071	73.38
544.285	71.38
544.498	74.38
544.712	83.38
544.925	74.38
545.139	81.38
545.352	87.38
545.566	85.38
545.779	78.38
545.993	84.38
546.206	85.38
546.42	89.38
546.633	99.38
546.847	76.38
547.06	89.38
547.274	81.38
547.487	80.38
547.7	83.38
547.914	79.38
548.127	90.38
548.34	76.38
548.554	81.38
548.767	80.38
548.98	79.38
549.193	87.38
549.407	78.38
549.62	83.38
549.833	87.38
550.046	73.38
550.259	74.38
550.473	81.38
550.686	82.38
550.899	91.38
551.112	73.38
551.325	88.38
551.538	87.38
551.751	103.38
551.964	79.38
552.177	93.38
552.39	83.38
552.603	74.38
552.816	75.38
553.029	87.38
553.242	93.38
553.455	79.38
553.667	81.38
553.88	86.38
554.093	83.38
554.306	81.38
554.519	88.38
554.732	87.38
554.944	73.38
555.157	78.38
555.37	86.38
555.583	101.38
555.795	78.38
556.008	75.38
556.221	87.38
556.433	87.38
556.646	92.38
556.859	71.38
557.071	73.38
557.284	89.38
557.496	71.38
557.709	76.38
557.921	82.38
558.134	83.38
558.346	76.38
558.559	88.38
558.771	83.38
558.984	83.38
559.196	83.38
559.409	72.38
559.621	89.38
559.833	96.38
560.046	88.38
560.258	80.38
560.47	80.38
560.683	80.38
560.895	93.38
561.107	100.38
561.32	86.38
561.532	92.38
561.744	94.38
561.956	91.38
562.168	69.38
562.381	87.38
562.593	76.38
562.805	78.38
563.017	85.38
563.229	79.38
563.441	82.38
563.653	71.38
563.865	79.38
564.077	85.38
564.289	87.38
564.501	83.38
564.713	75.38
564.925	70.38
565.137	75.38
565.349	80.38
565.561	70.38
565.773	97.38
565.985	86.38
566.197	83.38
566.408	85.38
566.62	75.38
566.832	86.38
567.044	77.38
567.255	93.38
567.467	80.38
567.679	75.38
567.891	78.38
568.102	88.38
568.314	74.38
568.526	57.38
568.737	76.38
568.949	86.38
569.161	88.38
569.372	68.38
569.584	70.38
569.795	81.38
570.007	80.38
570.218	96.38
570.43	74.38
570.641	80.38
570.853	76.38
571.064	72.38
571.276	92.38
571.487	81.38
571.698	71.38
571.91	82.38
572.121	81.38
572.333	74.38
572.544	75.38
572.755	81.38
572.966	85.38
573.178	81.38
573.389	86.38
573.6	87.38
573.811	90.38
574.023	89.38
574.234	91.38
574.445	93.38
574.656	83.38
574.867	74.38
575.078	74.38
575.289	83.38
575.501	87.38
575.712	64.38
575.923	79.38
576.134	71.38
576.345	70.38
576.556	71.38
576.767	80.38
576.978	86.38
577.188	84.38
577.399	71.38
577.61	81.38
577.821	72.38
578.032	84.38
578.243	84.38
578.454	88.38
578.665	85.38
578.875	69.38
579.086	79.38
579.297	87.38
579.508	64.38
579.718	91.38
579.929	89.38
580.14	70.38
580.35	72.38
580.561	92.38
580.772	72.38
580.982	75.38
581.193	67.38
581.403	95.38
581.614	69.38
581.825	72.38
582.035	74.38
582.246	87.38
582.456	63.38
582.667	84.38
582.877	83.38
583.087	75.38
583.298	100.38
583.508	84.38
583.719	79.38
583.929	85.38
584.139	73.38
584.35	80.38
584.56	77.38
584.77	83.38
584.981	91.38
585.191	86.38
585.401	73.38
585.611	104.38
585.821	89.38
586.032	64.38
586.242	85.38
586.452	88.38
586.662	72.38
586.872	93.38
587.082	67.38
587.292	77.38
587.502	66.38
587.713	79.38
587.923	81.38
588.133	79.38
588.343	81.38
588.553	85.38
588.762	88.38
588.972	88.38
589.182	96.38
589.392	88.38
589.602	78.38
589.812	88.38
590.022	87.38
590.232	78.38
590.441	79.38
590.651	90.38
590.861	93.38
591.071	77.38
591.281	85.38
591.49	92.38
591.7	77.38
591.91	75.38
592.119	79.38
592.329	84.38
592.539	90.38
592.748	97.38
592.958	74.38
593.167	88.38
593.377	66.38
593.587	81.38
593.796	71.38
594.006	65.38
594.215	74.38
594.424	88.38
594.634	88.38
594.843	96.38
595.053	62.38
595.262	81.38
595.472	79.38
595.681	87.38
595.89	78.38
596.1	81.38
596.309	83.38
596.518	87.38
596.727	92.38
596.937	104.38
597.146	87.38
597.355	83.38
597.564	87.38
597.774	81.38
597.983	82.38
598.192	74.38
598.401	88.38
598.61	87.38
598.819	80.38
599.028	87.38
599.237	82.38
599.446	85.38
599.655	76.38
599.864	86.38
600.073	76.38
600.282	83.38
600.491	87.38
600.7	74.38
600.909	80.38
601.118	80.38
601.327	81.38
601.536	71.38
601.745	93.38
601.953	87.38
602.162	85.38
602.371	104.38
602.58	86.38
602.789	83.38
602.997	83.38
603.206	99.38
603.415	71.38
603.623	83.38
603.832	78.38
604.041	82.38
604.249	88.38
604.458	67.38
604.666	75.38
604.875	74.38
605.084	76.38
605.292	80.38
605.501	77.38
605.709	84.38
605.918	72.38
606.126	76.38
606.334	91.38
606.543	78.38
606.751	78.38
606.96	92.38
607.168	79.38
607.376	73.38
607.585	93.38
607.793	69.38
608.001	67.38
608.21	73.38
608.418	80.38
608.626	71.38
608.834	81.38
609.043	79.38
609.251	77.38
609.459	81.38
609.667	85.38
609.875	79.38
610.083	74.38
610.291	82.38
610.499	84.38
610.707	81.38
610.916	87.38
611.124	87.38
611.332	77.38
611.54	92.38
611.748	79.38
611.955	74.38
612.163	84.38
612.371	79.38
612.579	74.38
612.787	59.38
612.995	70.38
613.203	72.38
613.411	86.38
613.618	93.38
613.826	81.38
614.034	72.38
614.242	95.38
614.449	91.38
614.657	81.38
614.865	84.38
615.072	86.38
615.28	81.38
615.488	73.38
615.695	83.38
615.903	87.38
616.111	77.38
616.318	77.38
616.526	86.38
616.733	85.38
616.941	83.38
617.148	87.38
617.356	83.38
617.563	69.38
617.771	73.38
617.978	93.38
618.185	85.38
618.393	84.38
618.6	70.38
618.807	80.38
619.015	78.38
619.222	77.38
619.429	81.38
619.637	87.38
619.844	83.38
620.051	92.38
620.258	87.38
620.466	82.38
620.673	88.38
620.88	72.38
621.087	78.38
621.294	83.38
621.501	93.38
621.708	71.38
621.915	75.38
622.122	65.38
622.329	72.38
622.536	81.38
622.743	88.38
622.95	84.38
623.157	80.38
623.364	84.38
623.571	94.38
623.778	95.38
623.985	95.38
624.192	98.38
624.399	81.38
624.606	81.38
624.812	91.38
625.019	87.38
625.226	84.38
625.433	84.38
625.639	85.38
625.846	73.38
626.053	88.38
626.259	83.38
626.466	79.38
626.673	83.38
626.879	88.38
627.086	78.38
627.293	83.38
627.499	80.38
627.706	70.38
627.912	83.38
628.119	77.38
628.325	79.38
628.532	79.38
628.738	76.38
628.945	73.38
629.151	73.38
629.357	95.38
629.564	77.38
629.77	73.38
629.976	79.38
630.183	82.38
630.389	88.38
630.595	75.38
630.802	81.38
631.008	78.38
631.214	74.38
631.42	87.38
631.627	98.38
631.833	85.38
632.039	73.38
632.245	80.38
632.451	94.38
632.657	87.38
632.863	91.38
633.069	82.38
633.275	82.38
633.481	79.38
633.688	81.38
633.893	69.38
634.099	79.38
634.305	85.38
634.511	99.38
634.717	83.38
634.923	73.38
635.129	85.38
635.335	82.38
635.541	79.38
635.747	79.38
635.952	86.38
636.158	73.38
636.364	82.38
636.57	89.38
636.775	86.38
636.981	76.38
637.187	74.38
637.392	75.38
637.598	67.38
637.804	86.38
638.009	71.38
638.215	84.38
638.421	77.38
638.626	85.38
638.832	83.38
639.037	83.38
639.243	63.38
639.448	71.38
639.654	79.38
639.859	86.38
640.065	85.38
640.27	79.38
640.475	78.38
640.681	85.38
640.886	77.38
641.091	77.38
641.297	89.38
641.502	80.38
641.707	96.38
641.913	81.38
642.118	88.38
642.323	85.38
642.528	79.38
642.733	91.38
642.939	79.38
643.144	89.38
643.349	73.38
643.554	81.38
643.759	101.38
643.964	90.38
644.169	101.38
644.374	81.38
644.579	84.38
644.784	89.38
644.989	89.38
645.194	81.38
645.399	62.38
645.604	67.38
645.809	73.38
646.014	79.38
646.219	79.38
646.423	75.38
646.628	79.38
646.833	81.38
647.038	80.38
647.243	87.38
647.447	77.38
647.652	82.38
647.857	72.38
648.062	97.38
648.266	85.38
648.471	77.38
648.676	86.38
648.88	77.38
649.085	81.38
649.289	91.38
649.494	71.38
649.698	88.38
649.903	80.38
650.107	81.38
650.312	91.38
650.516	71.38
650.721	65.38
650.925	82.38
651.13	85.38
651.334	73.38
651.539	85.38
651.743	94.38
651.947	87.38
652.152	79.38
652.356	91.38
652.56	72.38
652.764	71.38
652.969	78.38
653.173	79.38
653.377	84.38
653.581	81.38
653.785	87.38
653.99	85.38
654.194	76.38
654.398	69.38
654.602	76.38
654.806	72.38
655.01	84.38
655.214	83.38
655.418	72.38
655.622	67.38
655.826	77.38
656.03	87.38
656.234	74.38
656.438	81.38
656.642	83.38
656.846	92.38
657.049	72.38
657.253	93.38
657.457	82.38
657.661	74.38
657.865	82.38
658.068	76.38
658.272	70.38
658.476	83.38
658.68	87.38
658.883	68.38
659.087	87.38
659.291	77.38
659.494	76.38
659.698	89.38
659.901	79.38
660.105	79.38
660.309	69.38
660.512	94.38
660.716	81.38
660.919	85.38
661.123	78.38
661.326	77.38
661.53	69.38
661.733	84.38
661.936	77.38
662.14	72.38
662.343	88.38
662.546	89.38
662.75	96.38
662.953	81.38
663.156	79.38
663.36	78.38
663.563	81.38
663.766	83.38
663.969	79.38
664.173	83.38
664.376	86.38
664.579	81.38
664.782	81.38
664.985	95.38
665.188	79.38
665.391	71.38
665.594	77.38
665.797	81.38
666	78.38
666.203	83.38
666.406	86.38
666.609	86.38
666.812	76.38
667.015	89.38
667.218	71.38
667.421	85.38
667.624	71.38
667.827	84.38
668.03	78.38
668.232	87.38
668.435	62.38
668.638	79.38
668.841	77.38
669.043	77.38
669.246	80.38
669.449	79.38
669.651	80.38
669.854	78.38
670.057	77.38
670.259	76.38
670.462	73.38
670.665	75.38
670.867	54.38
671.07	73.38
671.272	87.38
671.475	89.38
671.677	81.38
671.88	80.38
672.082	72.38
672.284	76.38
672.487	85.38
672.689	93.38
672.892	81.38
