Data from Lead_15_1_HRD10591_00033.txt Node
Date: Fri Feb 20 11:04:56 EST 2026
User: Yrep
Spectrometer: HR+D1059
Trigger mode: 1
Integration Time (sec): 1.000000E-1
Scans to average: 1
Electric dark correction enabled: true
Nonlinearity correction enabled: false
Boxcar width: 0
XAxis mode: Wavelengths
Number of Pixels in Spectrum: 2048
>>>>>Begin Spectral Data<<<<<
223.165	-22
223.4	-22
223.635	-22
223.869	-19
224.104	-25
224.338	-10
224.573	-6
224.808	-22
225.042	-24
225.277	3
225.511	-14
225.746	12
225.98	16
226.215	7
226.449	10
226.683	26
226.918	31
227.152	37
227.387	34
227.621	28
227.856	48
228.09	52
228.324	44
228.559	62
228.793	56
229.027	68
229.262	78
229.496	57
229.73	71
229.964	72
230.199	69
230.433	73
230.667	74
230.901	72
231.136	82
231.37	69
231.604	71
231.838	68
232.072	72
232.306	82
232.541	66
232.775	86
233.009	70
233.243	84
233.477	78
233.711	74
233.945	78
234.179	80
234.413	66
234.647	98
234.881	93
235.115	84
235.349	65
235.583	80
235.817	82
236.051	75
236.285	81
236.519	76
236.753	80
236.987	80
237.221	74
237.455	74
237.689	74
237.922	84
238.156	66
238.39	64
238.624	89
238.858	64
239.091	72
239.325	70
239.559	75
239.793	80
240.027	79
240.26	68
240.494	81
240.728	75
240.961	80
241.195	80
241.429	66
241.662	59
241.896	75
242.13	78
242.363	77
242.597	79
242.83	76
243.064	64
243.298	67
243.531	72
243.765	77
243.998	74
244.232	66
244.465	69
244.699	79
244.932	72
245.166	82
245.399	81
245.633	81
245.866	85
246.099	77
246.333	81
246.566	80
246.8	77
247.033	81
247.266	63
247.5	80
247.733	70
247.966	78
248.2	64
248.433	70
248.666	84
248.899	83
249.133	82
249.366	72
249.599	79
249.832	79
250.066	80
250.299	91
250.532	99
250.765	78
250.998	82
251.231	71
251.465	74
251.698	77
251.931	71
252.164	76
252.397	65
252.63	72
252.863	87
253.096	70
253.329	80
253.562	71
253.795	85
254.028	78
254.261	75
254.494	70
254.727	89
254.96	84
255.193	88
255.426	60
255.659	65
255.892	85
256.124	93
256.357	79
256.59	92
256.823	76
257.056	86
257.289	73
257.521	69
257.754	72
257.987	75
258.22	88
258.452	84
258.685	80
258.918	83
259.151	79
259.383	79
259.616	71
259.849	72
260.081	73
260.314	75
260.547	81
260.779	73
261.012	68
261.244	82
261.477	82
261.71	81
261.942	73
262.175	84
262.407	88
262.64	81
262.872	80
263.105	87
263.337	77
263.57	79
263.802	64
264.035	78
264.267	89
264.499	85
264.732	80
264.964	74
265.197	73
265.429	71
265.661	77
265.894	85
266.126	87
266.358	89
266.591	87
266.823	90
267.055	83
267.287	86
267.52	79
267.752	86
267.984	78
268.216	90
268.448	93
268.681	80
268.913	85
269.145	80
269.377	79
269.609	82
269.841	62
270.073	82
270.306	81
270.538	77
270.77	74
271.002	74
271.234	78
271.466	79
271.698	88
271.93	80
272.162	77
272.394	94
272.626	91
272.858	72
273.09	83
273.322	101
273.553	89
273.785	64
274.017	82
274.249	88
274.481	72
274.713	71
274.945	68
275.176	85
275.408	93
275.64	92
275.872	88
276.104	81
276.335	95
276.567	82
276.799	65
277.031	80
277.262	91
277.494	82
277.726	69
277.957	76
278.189	74
278.421	74
278.652	91
278.884	88
279.115	87
279.347	86
279.579	86
279.81	96
280.042	87
280.273	81
280.505	80
280.736	70
280.968	74
281.199	95
281.431	70
281.662	80
281.894	88
282.125	83
282.356	80
282.588	84
282.819	74
283.051	69
283.282	83
283.513	68
283.745	74
283.976	70
284.207	79
284.439	94
284.67	84
284.901	80
285.132	94
285.364	100
285.595	78
285.826	74
286.057	75
286.288	81
286.52	88
286.751	86
286.982	85
287.213	69
287.444	94
287.675	78
287.906	76
288.138	80
288.369	90
288.6	93
288.831	71
289.062	89
289.293	84
289.524	65
289.755	72
289.986	80
290.217	93
290.448	83
290.679	87
290.91	94
291.141	84
291.371	67
291.602	81
291.833	80
292.064	79
292.295	84
292.526	86
292.757	70
292.987	83
293.218	79
293.449	80
293.68	82
293.91	81
294.141	85
294.372	84
294.603	95
294.833	71
295.064	84
295.295	82
295.525	72
295.756	80
295.987	83
296.217	73
296.448	75
296.679	85
296.909	94
297.14	85
297.37	87
297.601	80
297.831	80
298.062	71
298.292	74
298.523	93
298.753	74
298.984	90
299.214	85
299.445	75
299.675	79
299.905	84
300.136	71
300.366	82
300.597	76
300.827	79
301.057	78
301.288	84
301.518	76
301.748	93
301.979	92
302.209	80
302.439	77
302.669	80
302.9	82
303.13	91
303.36	78
303.59	92
303.82	81
304.051	74
304.281	84
304.511	83
304.741	85
304.971	74
305.201	93
305.431	71
305.661	82
305.891	72
306.121	67
306.352	80
306.582	80
306.812	94
307.042	81
307.272	75
307.502	88
307.731	69
307.961	82
308.191	81
308.421	94
308.651	81
308.881	75
309.111	70
309.341	94
309.571	96
309.8	72
310.03	70
310.26	73
310.49	84
310.72	72
310.949	87
311.179	74
311.409	80
311.639	76
311.868	77
312.098	76
312.328	84
312.557	77
312.787	85
313.017	89
313.246	74
313.476	74
313.706	74
313.935	88
314.165	89
314.394	74
314.624	82
314.853	81
315.083	89
315.312	94
315.542	82
315.771	101
316.001	87
316.23	80
316.46	71
316.689	81
316.919	75
317.148	76
317.377	86
317.607	86
317.836	85
318.065	77
318.295	85
318.524	81
318.753	82
318.983	88
319.212	98
319.441	83
319.67	84
319.9	81
320.129	87
320.358	78
320.587	75
320.816	87
321.046	92
321.275	72
321.504	65
321.733	76
321.962	82
322.191	82
322.42	77
322.649	80
322.878	74
323.108	88
323.337	75
323.566	75
323.795	77
324.024	85
324.253	90
324.482	91
324.71	80
324.939	86
325.168	81
325.397	73
325.626	72
325.855	73
326.084	85
326.313	73
326.542	74
326.77	79
326.999	84
327.228	88
327.457	76
327.686	75
327.914	90
328.143	82
328.372	80
328.6	88
328.829	91
329.058	97
329.287	84
329.515	92
329.744	81
329.972	84
330.201	91
330.43	102
330.658	82
330.887	88
331.115	90
331.344	87
331.572	90
331.801	84
332.03	90
332.258	101
332.486	72
332.715	86
332.943	78
333.172	88
333.4	83
333.629	85
333.857	71
334.085	78
334.314	94
334.542	82
334.771	86
334.999	74
335.227	73
335.455	78
335.684	84
335.912	93
336.14	86
336.369	82
336.597	88
336.825	79
337.053	84
337.281	84
337.51	85
337.738	71
337.966	76
338.194	80
338.422	74
338.65	86
338.878	81
339.106	83
339.334	100
339.562	77
339.79	66
340.018	88
340.246	84
340.474	80
340.702	89
340.93	85
341.158	92
341.386	81
341.614	83
341.842	78
342.07	74
342.298	86
342.526	80
342.754	91
342.981	89
343.209	87
343.437	97
343.665	88
343.893	78
344.12	81
344.348	90
344.576	72
344.804	75
345.031	74
345.259	73
345.487	87
345.714	75
345.942	75
346.17	92
346.397	88
346.625	90
346.853	86
347.08	84
347.308	85
347.535	95
347.763	84
347.99	88
348.218	85
348.445	80
348.673	79
348.9	77
349.128	93
349.355	78
349.583	85
349.81	70
350.037	92
350.265	84
350.492	76
350.72	86
350.947	83
351.174	81
351.402	72
351.629	77
351.856	80
352.083	76
352.311	81
352.538	95
352.765	67
352.992	92
353.22	80
353.447	92
353.674	74
353.901	90
354.128	73
354.355	78
354.583	74
354.81	76
355.037	88
355.264	78
355.491	78
355.718	69
355.945	84
356.172	75
356.399	85
356.626	84
356.853	84
357.08	81
357.307	98
357.534	64
357.761	77
357.988	78
358.215	72
358.441	81
358.668	81
358.895	89
359.122	72
359.349	74
359.576	69
359.802	73
360.029	88
360.256	80
360.483	73
360.709	88
360.936	72
361.163	93
361.39	82
361.616	80
361.843	73
362.07	75
362.296	83
362.523	87
362.749	96
362.976	84
363.203	97
363.429	83
363.656	76
363.882	88
364.109	88
364.335	73
364.562	75
364.788	70
365.015	72
365.241	101
365.468	89
365.694	70
365.92	80
366.147	92
366.373	80
366.599	84
366.826	75
367.052	81
367.278	92
367.505	84
367.731	81
367.957	92
368.184	94
368.41	86
368.636	81
368.862	74
369.089	87
369.315	91
369.541	81
369.767	87
369.993	88
370.219	85
370.445	85
370.672	88
370.898	86
371.124	82
371.35	88
371.576	89
371.802	74
372.028	66
372.254	87
372.48	74
372.706	71
372.932	82
373.158	83
373.384	80
373.61	73
373.835	84
374.061	94
374.287	80
374.513	94
374.739	90
374.965	72
375.191	82
375.416	94
375.642	97
375.868	84
376.094	94
376.319	75
376.545	86
376.771	86
376.997	81
377.222	76
377.448	62
377.674	80
377.899	78
378.125	92
378.35	81
378.576	76
378.802	84
379.027	82
379.253	69
379.478	87
379.704	86
379.929	88
380.155	78
380.38	79
380.606	80
380.831	103
381.057	87
381.282	88
381.507	72
381.733	76
381.958	68
382.184	70
382.409	88
382.634	74
382.86	82
383.085	79
383.31	70
383.535	78
383.761	70
383.986	69
384.211	77
384.436	65
384.662	75
384.887	83
385.112	80
385.337	94
385.562	78
385.787	66
386.013	75
386.238	78
386.463	74
386.688	86
386.913	80
387.138	80
387.363	86
387.588	79
387.813	90
388.038	79
388.263	84
388.488	85
388.713	85
388.938	72
389.163	94
389.387	62
389.612	88
389.837	85
390.062	84
390.287	79
390.512	84
390.736	82
390.961	70
391.186	87
391.411	78
391.636	79
391.86	84
392.085	88
392.31	75
392.534	80
392.759	91
392.984	80
393.208	88
393.433	79
393.658	92
393.882	92
394.107	93
394.331	86
394.556	77
394.78	83
395.005	81
395.229	82
395.454	88
395.678	79
395.903	86
396.127	79
396.352	93
396.576	86
396.801	74
397.025	88
397.249	96
397.474	85
397.698	71
397.922	84
398.147	78
398.371	81
398.595	78
398.82	75
399.044	80
399.268	83
399.492	82
399.717	78
399.941	68
400.165	82
400.389	74
400.613	86
400.837	81
401.062	87
401.286	82
401.51	90
401.734	89
401.958	88
402.182	80
402.406	73
402.63	88
402.854	74
403.078	85
403.302	89
403.526	75
403.75	60
403.974	76
404.198	80
404.422	83
404.645	78
404.869	92
405.093	73
405.317	83
405.541	81
405.765	66
405.988	85
406.212	87
406.436	85
406.66	95
406.883	86
407.107	82
407.331	85
407.555	73
407.778	85
408.002	75
408.226	70
408.449	78
408.673	83
408.896	87
409.12	81
409.344	70
409.567	89
409.791	84
410.014	75
410.238	74
410.461	73
410.685	81
410.908	86
411.132	80
411.355	86
411.578	85
411.802	75
412.025	74
412.249	75
412.472	71
412.695	86
412.919	90
413.142	88
413.365	87
413.589	74
413.812	79
414.035	95
414.258	73
414.482	88
414.705	96
414.928	81
415.151	81
415.374	74
415.597	76
415.821	89
416.044	78
416.267	83
416.49	97
416.713	90
416.936	76
417.159	80
417.382	75
417.605	82
417.828	77
418.051	81
418.274	79
418.497	65
418.72	74
418.943	83
419.166	82
419.389	71
419.611	88
419.834	84
420.057	85
420.28	86
420.503	88
420.726	84
420.948	82
421.171	74
421.394	78
421.617	86
421.839	79
422.062	71
422.285	85
422.507	72
422.73	82
422.953	84
423.175	80
423.398	99
423.621	78
423.843	80
424.066	78
424.288	77
424.511	71
424.733	84
424.956	76
425.178	74
425.401	73
425.623	92
425.846	91
426.068	81
426.291	76
426.513	85
426.735	66
426.958	82
427.18	64
427.402	86
427.625	81
427.847	61
428.069	82
428.292	92
428.514	76
428.736	66
428.958	81
429.181	83
429.403	78
429.625	76
429.847	87
430.069	73
430.292	72
430.514	85
430.736	87
430.958	82
431.18	81
431.402	80
431.624	79
431.846	75
432.068	89
432.29	85
432.512	88
432.734	71
432.956	71
433.178	71
433.4	88
433.622	79
433.844	85
434.066	81
434.287	78
434.509	80
434.731	79
434.953	88
435.175	63
435.397	73
435.618	74
435.84	69
436.062	74
436.284	73
436.505	81
436.727	83
436.949	80
437.17	71
437.392	68
437.614	83
437.835	78
438.057	79
438.278	66
438.5	80
438.721	79
438.943	68
439.165	92
439.386	80
439.608	76
439.829	84
440.05	89
440.272	88
440.493	87
440.715	61
440.936	74
441.158	82
441.379	85
441.6	76
441.822	75
442.043	72
442.264	78
442.486	75
442.707	68
442.928	75
443.149	70
443.371	102
443.592	80
443.813	92
444.034	91
444.255	68
444.476	76
444.698	96
444.919	80
445.14	152
445.361	113
445.582	98
445.803	77
446.024	90
446.245	76
446.466	73
446.687	81
446.908	99
447.129	83
447.35	74
447.571	81
447.792	80
448.013	76
448.234	94
448.455	88
448.675	89
448.896	65
449.117	71
449.338	79
449.559	79
449.779	81
450	78
450.221	90
450.442	66
450.662	80
450.883	74
451.104	81
451.324	84
451.545	64
451.766	74
451.986	80
452.207	86
452.428	82
452.648	72
452.869	81
453.089	89
453.31	74
453.53	68
453.751	83
453.971	73
454.192	72
454.412	74
454.633	87
454.853	80
455.073	80
455.294	70
455.514	78
455.734	82
455.955	72
456.175	80
456.395	82
456.616	74
456.836	81
457.056	74
457.276	74
457.497	80
457.717	90
457.937	74
458.157	94
458.377	84
458.598	66
458.818	76
459.038	80
459.258	65
459.478	88
459.698	78
459.918	80
460.138	75
460.358	82
460.578	81
460.798	80
461.018	80
461.238	73
461.458	84
461.678	84
461.898	68
462.118	94
462.338	81
462.558	83
462.777	88
462.997	73
463.217	84
463.437	78
463.657	82
463.876	78
464.096	78
464.316	64
464.536	64
464.755	74
464.975	80
465.195	99
465.414	95
465.634	86
465.854	93
466.073	87
466.293	78
466.512	82
466.732	87
466.951	76
467.171	75
467.391	89
467.61	85
467.829	88
468.049	97
468.268	69
468.488	69
468.707	89
468.927	82
469.146	84
469.365	79
469.585	89
469.804	90
470.023	70
470.243	88
470.462	70
470.681	91
470.901	76
471.12	76
471.339	80
471.558	81
471.777	73
471.997	81
472.216	90
472.435	81
472.654	84
472.873	70
473.092	85
473.311	73
473.53	65
473.749	85
473.968	88
474.187	76
474.406	80
474.625	80
474.844	80
475.063	74
475.282	80
475.501	80
475.72	88
475.939	90
476.158	76
476.377	81
476.596	79
476.814	81
477.033	88
477.252	90
477.471	89
477.69	87
477.908	90
478.127	88
478.346	80
478.564	74
478.783	97
479.002	70
479.22	86
479.439	79
479.658	89
479.876	87
480.095	73
480.313	74
480.532	64
480.751	89
480.969	68
481.188	76
481.406	86
481.624	77
481.843	82
482.061	88
482.28	75
482.498	96
482.717	81
482.935	69
483.153	72
483.372	71
483.59	88
483.808	86
484.027	87
484.245	70
484.463	80
484.681	72
484.9	69
485.118	79
485.336	72
485.554	85
485.772	88
485.99	76
486.209	85
486.427	82
486.645	67
486.863	81
487.081	72
487.299	70
487.517	78
487.735	75
487.953	86
488.171	80
488.389	84
488.607	87
488.825	87
489.043	72
489.261	70
489.479	97
489.696	81
489.914	93
490.132	88
490.35	82
490.568	84
490.786	82
491.003	80
491.221	85
491.439	75
491.657	75
491.874	81
492.092	78
492.31	75
492.527	93
492.745	80
492.963	84
493.18	89
493.398	79
493.615	79
493.833	86
494.05	77
494.268	87
494.485	84
494.703	88
494.92	77
495.138	89
495.355	87
495.573	68
495.79	72
496.008	83
496.225	84
496.442	75
496.66	78
496.877	90
497.094	86
497.312	84
497.529	85
497.746	87
497.963	81
498.181	85
498.398	80
498.615	80
498.832	81
499.049	67
499.267	83
499.484	82
499.701	90
499.918	89
500.135	72
500.352	81
500.569	74
500.786	74
501.003	72
501.22	96
501.437	96
501.654	93
501.871	84
502.088	79
502.305	70
502.522	88
502.739	90
502.956	95
503.172	87
503.389	85
503.606	81
503.823	84
504.04	72
504.256	89
504.473	88
504.69	84
504.907	78
505.123	91
505.34	84
505.557	85
505.773	87
505.99	89
506.207	85
506.423	81
506.64	85
506.856	88
507.073	82
507.289	92
507.506	81
507.722	88
507.939	78
508.155	88
508.372	84
508.588	75
508.805	82
509.021	73
509.238	79
509.454	86
509.67	77
509.887	70
510.103	70
510.319	86
510.536	73
510.752	97
510.968	88
511.184	86
511.401	81
511.617	91
511.833	84
512.049	84
512.265	78
512.481	67
512.698	77
512.914	80
513.13	87
513.346	86
513.562	89
513.778	80
513.994	66
514.21	60
514.426	78
514.642	75
514.858	89
515.074	82
515.29	85
515.506	92
515.721	83
515.937	80
516.153	81
516.369	68
516.585	70
516.801	88
517.016	85
517.232	79
517.448	82
517.664	81
517.879	87
518.095	87
518.311	79
518.527	85
518.742	73
518.958	87
519.173	70
519.389	72
519.605	69
519.82	64
520.036	82
520.251	68
520.467	77
520.682	81
520.898	91
521.113	83
521.329	76
521.544	73
521.76	75
521.975	85
522.19	80
522.406	80
522.621	81
522.836	71
523.052	80
523.267	95
523.482	79
523.698	75
523.913	82
524.128	79
524.343	80
524.559	87
524.774	94
524.989	100
525.204	78
525.419	77
525.634	85
525.849	89
526.064	76
526.28	74
526.495	70
526.71	86
526.925	87
527.14	72
527.355	77
527.57	89
527.785	75
527.999	84
528.214	74
528.429	85
528.644	84
528.859	80
529.074	73
529.289	76
529.503	88
529.718	89
529.933	71
530.148	72
530.363	87
530.577	74
530.792	92
531.007	84
531.221	71
531.436	88
531.651	66
531.865	88
532.08	72
532.295	83
532.509	65
532.724	82
532.938	84
533.153	88
533.367	93
533.582	82
533.796	84
534.011	82
534.225	66
534.44	91
534.654	69
534.868	84
535.083	82
535.297	89
535.511	86
535.726	75
535.94	72
536.154	83
536.369	82
536.583	80
536.797	85
537.011	87
537.225	80
537.44	76
537.654	71
537.868	78
538.082	90
538.296	72
538.51	80
538.724	88
538.938	76
539.153	88
539.367	82
539.581	69
539.795	82
540.009	92
540.222	86
540.436	84
540.65	80
540.864	78
541.078	81
541.292	85
541.506	74
541.72	90
541.934	93
542.147	81
542.361	87
542.575	81
542.789	73
543.002	85
543.216	83
543.43	77
543.644	92
543.857	68
544.071	73
544.285	101
544.498	90
544.712	89
544.925	72
545.139	80
545.352	73
545.566	86
545.779	74
545.993	77
546.206	80
546.42	84
546.633	76
546.847	95
547.06	82
547.274	83
547.487	84
547.7	102
547.914	97
548.127	94
548.34	85
548.554	88
548.767	91
548.98	84
549.193	72
549.407	79
549.62	68
549.833	72
550.046	69
550.259	84
550.473	73
550.686	88
550.899	94
551.112	85
551.325	79
551.538	78
551.751	78
551.964	80
552.177	96
552.39	84
552.603	86
552.816	80
553.029	84
553.242	78
553.455	79
553.667	98
553.88	77
554.093	86
554.306	80
554.519	99
554.732	75
554.944	92
555.157	80
555.37	80
555.583	85
555.795	98
556.008	88
556.221	80
556.433	87
556.646	100
556.859	96
557.071	82
557.284	83
557.496	71
557.709	78
557.921	82
558.134	87
558.346	91
558.559	92
558.771	68
558.984	80
559.196	92
559.409	80
559.621	83
559.833	72
560.046	92
560.258	80
560.47	74
560.683	93
560.895	84
561.107	81
561.32	92
561.532	72
561.744	94
561.956	102
562.168	78
562.381	85
562.593	100
562.805	82
563.017	75
563.229	71
563.441	69
563.653	81
563.865	92
564.077	82
564.289	76
564.501	105
564.713	70
564.925	80
565.137	84
565.349	93
565.561	91
565.773	104
565.985	98
566.197	87
566.408	80
566.62	86
566.832	92
567.044	83
567.255	69
567.467	87
567.679	92
567.891	92
568.102	72
568.314	84
568.526	82
568.737	90
568.949	85
569.161	78
569.372	81
569.584	78
569.795	75
570.007	82
570.218	73
570.43	88
570.641	80
570.853	78
571.064	86
571.276	96
571.487	90
571.698	76
571.91	82
572.121	86
572.333	73
572.544	86
572.755	80
572.966	74
573.178	81
573.389	83
573.6	82
573.811	80
574.023	96
574.234	77
574.445	85
574.656	73
574.867	70
575.078	90
575.289	77
575.501	77
575.712	86
575.923	104
576.134	90
576.345	75
576.556	80
576.767	74
576.978	87
577.188	79
577.399	86
577.61	84
577.821	89
578.032	86
578.243	66
578.454	90
578.665	91
578.875	86
579.086	80
579.297	83
579.508	74
579.718	95
579.929	94
580.14	87
580.35	86
580.561	84
580.772	79
580.982	83
581.193	105
581.403	82
581.614	74
581.825	97
582.035	82
582.246	84
582.456	69
582.667	79
582.877	81
583.087	74
583.298	89
583.508	88
583.719	84
583.929	91
584.139	93
584.35	74
584.56	88
584.77	91
584.981	79
585.191	97
585.401	84
585.611	75
585.821	86
586.032	83
586.242	84
586.452	88
586.662	90
586.872	72
587.082	72
587.292	80
587.502	98
587.713	80
587.923	89
588.133	88
588.343	74
588.553	93
588.762	94
588.972	80
589.182	58
589.392	73
589.602	82
589.812	89
590.022	79
590.232	95
590.441	78
590.651	92
590.861	80
591.071	78
591.281	95
591.49	83
591.7	80
591.91	92
592.119	68
592.329	67
592.539	90
592.748	78
592.958	69
593.167	94
593.377	82
593.587	80
593.796	98
594.006	93
594.215	94
594.424	72
594.634	65
594.843	70
595.053	69
595.262	85
595.472	79
595.681	76
595.89	75
596.1	87
596.309	96
596.518	87
596.727	86
596.937	98
597.146	83
597.355	70
597.564	76
597.774	86
597.983	76
598.192	76
598.401	66
598.61	89
598.819	80
599.028	73
599.237	88
599.446	72
599.655	81
599.864	88
600.073	74
600.282	77
600.491	89
600.7	76
600.909	83
601.118	81
601.327	85
601.536	84
601.745	80
601.953	82
602.162	75
602.371	82
602.58	76
602.789	82
602.997	83
603.206	75
603.415	80
603.623	68
603.832	68
604.041	87
604.249	82
604.458	86
604.666	80
604.875	81
605.084	89
605.292	79
605.501	74
605.709	76
605.918	86
606.126	61
606.334	80
606.543	96
606.751	79
606.96	90
607.168	93
607.376	49
607.585	84
607.793	79
608.001	86
608.21	81
608.418	83
608.626	78
608.834	88
609.043	88
609.251	73
609.459	79
609.667	78
609.875	76
610.083	90
610.291	86
610.499	81
610.707	84
610.916	86
611.124	72
611.332	77
611.54	71
611.748	85
611.955	76
612.163	89
612.371	74
612.579	71
612.787	76
612.995	87
613.203	95
613.411	84
613.618	86
613.826	95
614.034	87
614.242	89
614.449	85
614.657	73
614.865	84
615.072	74
615.28	78
615.488	72
615.695	75
615.903	82
616.111	76
616.318	93
616.526	76
616.733	77
616.941	70
617.148	76
617.356	72
617.563	76
617.771	82
617.978	73
618.185	84
618.393	75
618.6	83
618.807	76
619.015	64
619.222	75
619.429	72
619.637	73
619.844	82
620.051	87
620.258	98
620.466	77
620.673	93
620.88	73
621.087	84
621.294	73
621.501	77
621.708	80
621.915	81
622.122	73
622.329	73
622.536	79
622.743	85
622.95	86
623.157	89
623.364	71
623.571	88
623.778	87
623.985	82
624.192	92
624.399	70
624.606	82
624.812	86
625.019	103
625.226	73
625.433	80
625.639	94
625.846	81
626.053	93
626.259	89
626.466	72
626.673	69
626.879	75
627.086	78
627.293	84
627.499	90
627.706	94
627.912	87
628.119	78
628.325	80
628.532	88
628.738	70
628.945	80
629.151	70
629.357	80
629.564	82
629.77	85
629.976	82
630.183	75
630.389	81
630.595	65
630.802	76
631.008	76
631.214	83
631.42	65
631.627	95
631.833	100
632.039	82
632.245	69
632.451	80
632.657	85
632.863	75
633.069	103
633.275	85
633.481	85
633.688	86
633.893	88
634.099	86
634.305	89
634.511	65
634.717	89
634.923	75
635.129	88
635.335	87
635.541	64
635.747	62
635.952	88
636.158	80
636.364	81
636.57	82
636.775	97
636.981	82
637.187	92
637.392	99
637.598	112
637.804	88
638.009	88
638.215	83
638.421	88
638.626	78
638.832	94
639.037	86
639.243	84
639.448	82
639.654	97
639.859	56
640.065	64
640.27	80
640.475	75
640.681	73
640.886	80
641.091	88
641.297	90
641.502	86
641.707	78
641.913	87
642.118	74
642.323	96
642.528	89
642.733	82
642.939	81
643.144	92
643.349	96
643.554	79
643.759	69
643.964	77
644.169	84
644.374	61
644.579	78
644.784	98
644.989	80
645.194	81
645.399	89
645.604	101
645.809	95
646.014	86
646.219	78
646.423	90
646.628	80
646.833	65
647.038	85
647.243	75
647.447	78
647.652	83
647.857	79
648.062	86
648.266	87
648.471	78
648.676	92
648.88	79
649.085	85
649.289	88
649.494	97
649.698	82
649.903	80
650.107	85
650.312	75
650.516	71
650.721	95
650.925	86
651.13	92
651.334	82
651.539	79
651.743	72
651.947	90
652.152	92
652.356	73
652.56	73
652.764	72
652.969	72
653.173	85
653.377	87
653.581	87
653.785	83
653.99	84
654.194	93
654.398	86
654.602	73
654.806	84
655.01	72
655.214	79
655.418	81
655.622	85
655.826	75
656.03	85
656.234	74
656.438	80
656.642	87
656.846	99
657.049	80
657.253	97
657.457	83
657.661	73
657.865	78
658.068	85
658.272	79
658.476	82
658.68	88
658.883	89
659.087	90
659.291	74
659.494	93
659.698	84
659.901	82
660.105	72
660.309	80
660.512	75
660.716	89
660.919	88
661.123	85
661.326	89
661.53	77
661.733	81
661.936	74
662.14	82
662.343	76
662.546	84
662.75	95
662.953	73
663.156	89
663.36	89
663.563	77
663.766	72
663.969	87
664.173	78
664.376	87
664.579	83
664.782	75
664.985	79
665.188	93
665.391	89
665.594	84
665.797	91
666	66
666.203	74
666.406	93
666.609	81
666.812	90
667.015	76
667.218	72
667.421	82
667.624	84
667.827	89
668.03	72
668.232	95
668.435	82
668.638	66
668.841	72
669.043	98
669.246	73
669.449	86
669.651	86
669.854	84
670.057	90
670.259	92
670.462	88
670.665	82
670.867	78
671.07	78
671.272	74
671.475	96
671.677	87
671.88	74
672.082	71
672.284	63
672.487	82
672.689	73
672.892	81
