Data from Lead_15_1_HRD10591_00049.txt Node
Date: Fri Feb 20 11:05:45 EST 2026
User: Yrep
Spectrometer: HR+D1059
Trigger mode: 1
Integration Time (sec): 1.000000E-1
Scans to average: 1
Electric dark correction enabled: true
Nonlinearity correction enabled: false
Boxcar width: 0
XAxis mode: Wavelengths
Number of Pixels in Spectrum: 2048
>>>>>Begin Spectral Data<<<<<
223.165	-11.06
223.4	-11.06
223.635	-11.06
223.869	-8.06
224.104	-8.06
224.338	-26.06
224.573	-17.06
224.808	-15.06
225.042	1.94
225.277	-6.06
225.511	-10.06
225.746	6.94
225.98	0.94
226.215	5.94
226.449	17.94
226.683	30.94
226.918	14.94
227.152	21.94
227.387	23.94
227.621	32.94
227.856	42.94
228.09	42.94
228.324	51.94
228.559	54.94
228.793	52.94
229.027	56.94
229.262	57.94
229.496	75.94
229.73	54.94
229.964	68.94
230.199	73.94
230.433	70.94
230.667	71.94
230.901	81.94
231.136	61.94
231.37	82.94
231.604	73.94
231.838	79.94
232.072	68.94
232.306	85.94
232.541	76.94
232.775	71.94
233.009	77.94
233.243	81.94
233.477	82.94
233.711	73.94
233.945	79.94
234.179	84.94
234.413	87.94
234.647	88.94
234.881	78.94
235.115	77.94
235.349	80.94
235.583	75.94
235.817	76.94
236.051	73.94
236.285	81.94
236.519	69.94
236.753	74.94
236.987	69.94
237.221	87.94
237.455	79.94
237.689	71.94
237.922	78.94
238.156	74.94
238.39	75.94
238.624	72.94
238.858	61.94
239.091	79.94
239.325	58.94
239.559	68.94
239.793	81.94
240.027	71.94
240.26	79.94
240.494	71.94
240.728	76.94
240.961	65.94
241.195	80.94
241.429	66.94
241.662	82.94
241.896	80.94
242.13	80.94
242.363	68.94
242.597	67.94
242.83	73.94
243.064	66.94
243.298	88.94
243.531	81.94
243.765	75.94
243.998	85.94
244.232	83.94
244.465	90.94
244.699	90.94
244.932	82.94
245.166	78.94
245.399	70.94
245.633	75.94
245.866	87.94
246.099	83.94
246.333	77.94
246.566	74.94
246.8	80.94
247.033	75.94
247.266	79.94
247.5	87.94
247.733	82.94
247.966	67.94
248.2	73.94
248.433	83.94
248.666	64.94
248.899	79.94
249.133	76.94
249.366	71.94
249.599	73.94
249.832	69.94
250.066	88.94
250.299	98.94
250.532	89.94
250.765	81.94
250.998	96.94
251.231	86.94
251.465	79.94
251.698	76.94
251.931	79.94
252.164	86.94
252.397	70.94
252.63	73.94
252.863	71.94
253.096	73.94
253.329	80.94
253.562	69.94
253.795	82.94
254.028	69.94
254.261	72.94
254.494	78.94
254.727	85.94
254.96	72.94
255.193	69.94
255.426	85.94
255.659	86.94
255.892	72.94
256.124	73.94
256.357	85.94
256.59	83.94
256.823	88.94
257.056	82.94
257.289	74.94
257.521	68.94
257.754	68.94
257.987	76.94
258.22	72.94
258.452	76.94
258.685	85.94
258.918	83.94
259.151	76.94
259.383	73.94
259.616	81.94
259.849	75.94
260.081	83.94
260.314	83.94
260.547	71.94
260.779	87.94
261.012	90.94
261.244	72.94
261.477	79.94
261.71	63.94
261.942	79.94
262.175	82.94
262.407	79.94
262.64	78.94
262.872	72.94
263.105	75.94
263.337	88.94
263.57	75.94
263.802	73.94
264.035	93.94
264.267	93.94
264.499	83.94
264.732	86.94
264.964	69.94
265.197	71.94
265.429	89.94
265.661	72.94
265.894	71.94
266.126	87.94
266.358	75.94
266.591	92.94
266.823	81.94
267.055	79.94
267.287	79.94
267.52	85.94
267.752	78.94
267.984	78.94
268.216	79.94
268.448	90.94
268.681	74.94
268.913	67.94
269.145	81.94
269.377	81.94
269.609	89.94
269.841	86.94
270.073	66.94
270.306	76.94
270.538	75.94
270.77	81.94
271.002	82.94
271.234	93.94
271.466	67.94
271.698	90.94
271.93	69.94
272.162	75.94
272.394	88.94
272.626	80.94
272.858	85.94
273.09	77.94
273.322	85.94
273.553	82.94
273.785	75.94
274.017	72.94
274.249	87.94
274.481	85.94
274.713	79.94
274.945	75.94
275.176	75.94
275.408	83.94
275.64	75.94
275.872	83.94
276.104	73.94
276.335	75.94
276.567	86.94
276.799	74.94
277.031	65.94
277.262	86.94
277.494	81.94
277.726	79.94
277.957	84.94
278.189	93.94
278.421	76.94
278.652	90.94
278.884	79.94
279.115	90.94
279.347	78.94
279.579	76.94
279.81	83.94
280.042	81.94
280.273	87.94
280.505	74.94
280.736	82.94
280.968	75.94
281.199	83.94
281.431	76.94
281.662	99.94
281.894	82.94
282.125	96.94
282.356	75.94
282.588	96.94
282.819	93.94
283.051	84.94
283.282	79.94
283.513	89.94
283.745	83.94
283.976	83.94
284.207	97.94
284.439	89.94
284.67	82.94
284.901	78.94
285.132	87.94
285.364	65.94
285.595	83.94
285.826	97.94
286.057	71.94
286.288	79.94
286.52	72.94
286.751	95.94
286.982	79.94
287.213	75.94
287.444	73.94
287.675	85.94
287.906	89.94
288.138	67.94
288.369	96.94
288.6	79.94
288.831	94.94
289.062	85.94
289.293	71.94
289.524	81.94
289.755	95.94
289.986	81.94
290.217	97.94
290.448	101.94
290.679	87.94
290.91	92.94
291.141	87.94
291.371	73.94
291.602	88.94
291.833	83.94
292.064	85.94
292.295	78.94
292.526	79.94
292.757	84.94
292.987	82.94
293.218	101.94
293.449	80.94
293.68	83.94
293.91	82.94
294.141	91.94
294.372	81.94
294.603	92.94
294.833	73.94
295.064	91.94
295.295	98.94
295.525	75.94
295.756	90.94
295.987	80.94
296.217	91.94
296.448	94.94
296.679	87.94
296.909	87.94
297.14	67.94
297.37	73.94
297.601	76.94
297.831	84.94
298.062	89.94
298.292	86.94
298.523	93.94
298.753	78.94
298.984	90.94
299.214	78.94
299.445	74.94
299.675	79.94
299.905	76.94
300.136	81.94
300.366	88.94
300.597	85.94
300.827	80.94
301.057	83.94
301.288	82.94
301.518	79.94
301.748	75.94
301.979	77.94
302.209	73.94
302.439	76.94
302.669	85.94
302.9	73.94
303.13	97.94
303.36	88.94
303.59	89.94
303.82	73.94
304.051	76.94
304.281	81.94
304.511	85.94
304.741	71.94
304.971	70.94
305.201	76.94
305.431	83.94
305.661	66.94
305.891	85.94
306.121	79.94
306.352	82.94
306.582	71.94
306.812	98.94
307.042	88.94
307.272	83.94
307.502	80.94
307.731	80.94
307.961	80.94
308.191	84.94
308.421	87.94
308.651	91.94
308.881	93.94
309.111	93.94
309.341	86.94
309.571	93.94
309.8	92.94
310.03	92.94
310.26	79.94
310.49	83.94
310.72	75.94
310.949	79.94
311.179	69.94
311.409	70.94
311.639	81.94
311.868	87.94
312.098	83.94
312.328	78.94
312.557	68.94
312.787	81.94
313.017	89.94
313.246	86.94
313.476	96.94
313.706	90.94
313.935	85.94
314.165	69.94
314.394	77.94
314.624	95.94
314.853	84.94
315.083	82.94
315.312	87.94
315.542	86.94
315.771	101.94
316.001	72.94
316.23	75.94
316.46	73.94
316.689	82.94
316.919	86.94
317.148	93.94
317.377	80.94
317.607	93.94
317.836	79.94
318.065	74.94
318.295	88.94
318.524	87.94
318.753	76.94
318.983	88.94
319.212	94.94
319.441	72.94
319.67	88.94
319.9	87.94
320.129	73.94
320.358	84.94
320.587	86.94
320.816	93.94
321.046	90.94
321.275	85.94
321.504	83.94
321.733	89.94
321.962	88.94
322.191	94.94
322.42	86.94
322.649	83.94
322.878	86.94
323.108	81.94
323.337	89.94
323.566	85.94
323.795	87.94
324.024	80.94
324.253	73.94
324.482	86.94
324.71	92.94
324.939	81.94
325.168	79.94
325.397	81.94
325.626	86.94
325.855	75.94
326.084	101.94
326.313	88.94
326.542	89.94
326.77	88.94
326.999	93.94
327.228	93.94
327.457	88.94
327.686	83.94
327.914	85.94
328.143	88.94
328.372	96.94
328.6	88.94
328.829	99.94
329.058	81.94
329.287	82.94
329.515	87.94
329.744	76.94
329.972	79.94
330.201	89.94
330.43	95.94
330.658	87.94
330.887	86.94
331.115	81.94
331.344	87.94
331.572	96.94
331.801	80.94
332.03	104.94
332.258	86.94
332.486	81.94
332.715	81.94
332.943	87.94
333.172	78.94
333.4	69.94
333.629	85.94
333.857	87.94
334.085	95.94
334.314	82.94
334.542	87.94
334.771	92.94
334.999	81.94
335.227	85.94
335.455	89.94
335.684	88.94
335.912	83.94
336.14	83.94
336.369	68.94
336.597	87.94
336.825	91.94
337.053	84.94
337.281	89.94
337.51	81.94
337.738	84.94
337.966	73.94
338.194	81.94
338.422	81.94
338.65	65.94
338.878	85.94
339.106	82.94
339.334	95.94
339.562	100.94
339.79	86.94
340.018	83.94
340.246	79.94
340.474	75.94
340.702	85.94
340.93	85.94
341.158	77.94
341.386	71.94
341.614	86.94
341.842	102.94
342.07	78.94
342.298	80.94
342.526	84.94
342.754	93.94
342.981	87.94
343.209	87.94
343.437	95.94
343.665	88.94
343.893	88.94
344.12	79.94
344.348	93.94
344.576	72.94
344.804	85.94
345.031	87.94
345.259	85.94
345.487	73.94
345.714	82.94
345.942	79.94
346.17	84.94
346.397	82.94
346.625	83.94
346.853	73.94
347.08	87.94
347.308	99.94
347.535	76.94
347.763	72.94
347.99	81.94
348.218	91.94
348.445	86.94
348.673	76.94
348.9	91.94
349.128	93.94
349.355	77.94
349.583	82.94
349.81	83.94
350.037	93.94
350.265	76.94
350.492	71.94
350.72	84.94
350.947	67.94
351.174	89.94
351.402	82.94
351.629	90.94
351.856	93.94
352.083	72.94
352.311	81.94
352.538	74.94
352.765	88.94
352.992	87.94
353.22	85.94
353.447	80.94
353.674	90.94
353.901	93.94
354.128	78.94
354.355	79.94
354.583	85.94
354.81	98.94
355.037	74.94
355.264	98.94
355.491	74.94
355.718	91.94
355.945	63.94
356.172	74.94
356.399	95.94
356.626	87.94
356.853	103.94
357.08	107.94
357.307	98.94
357.534	85.94
357.761	85.94
357.988	97.94
358.215	89.94
358.441	87.94
358.668	90.94
358.895	89.94
359.122	81.94
359.349	82.94
359.576	99.94
359.802	94.94
360.029	73.94
360.256	86.94
360.483	77.94
360.709	87.94
360.936	90.94
361.163	81.94
361.39	91.94
361.616	92.94
361.843	79.94
362.07	86.94
362.296	90.94
362.523	60.94
362.749	85.94
362.976	87.94
363.203	92.94
363.429	95.94
363.656	100.94
363.882	109.94
364.109	118.94
364.335	89.94
364.562	85.94
364.788	100.94
365.015	98.94
365.241	81.94
365.468	83.94
365.694	89.94
365.92	74.94
366.147	91.94
366.373	73.94
366.599	85.94
366.826	68.94
367.052	71.94
367.278	82.94
367.505	90.94
367.731	96.94
367.957	94.94
368.184	96.94
368.41	113.94
368.636	116.94
368.862	87.94
369.089	93.94
369.315	94.94
369.541	87.94
369.767	71.94
369.993	75.94
370.219	78.94
370.445	96.94
370.672	91.94
370.898	90.94
371.124	86.94
371.35	85.94
371.576	85.94
371.802	83.94
372.028	86.94
372.254	94.94
372.48	79.94
372.706	91.94
372.932	84.94
373.158	93.94
373.384	90.94
373.61	78.94
373.835	86.94
374.061	93.94
374.287	80.94
374.513	80.94
374.739	86.94
374.965	86.94
375.191	71.94
375.416	95.94
375.642	83.94
375.868	78.94
376.094	84.94
376.319	70.94
376.545	89.94
376.771	83.94
376.997	80.94
377.222	88.94
377.448	90.94
377.674	61.94
377.899	73.94
378.125	92.94
378.35	90.94
378.576	86.94
378.802	76.94
379.027	93.94
379.253	79.94
379.478	88.94
379.704	76.94
379.929	71.94
380.155	78.94
380.38	74.94
380.606	82.94
380.831	80.94
381.057	72.94
381.282	95.94
381.507	82.94
381.733	75.94
381.958	93.94
382.184	83.94
382.409	84.94
382.634	82.94
382.86	78.94
383.085	85.94
383.31	85.94
383.535	74.94
383.761	73.94
383.986	102.94
384.211	93.94
384.436	81.94
384.662	76.94
384.887	76.94
385.112	81.94
385.337	79.94
385.562	75.94
385.787	103.94
386.013	100.94
386.238	81.94
386.463	74.94
386.688	114.94
386.913	85.94
387.138	84.94
387.363	70.94
387.588	87.94
387.813	88.94
388.038	69.94
388.263	77.94
388.488	79.94
388.713	84.94
388.938	72.94
389.163	85.94
389.387	82.94
389.612	87.94
389.837	85.94
390.062	81.94
390.287	76.94
390.512	79.94
390.736	81.94
390.961	78.94
391.186	76.94
391.411	78.94
391.636	85.94
391.86	99.94
392.085	95.94
392.31	78.94
392.534	92.94
392.759	86.94
392.984	86.94
393.208	118.94
393.433	141.94
393.658	115.94
393.882	93.94
394.107	92.94
394.331	121.94
394.556	119.94
394.78	92.94
395.005	91.94
395.229	87.94
395.454	79.94
395.678	80.94
395.903	106.94
396.127	132.94
396.352	133.94
396.576	110.94
396.801	131.94
397.025	110.94
397.249	95.94
397.474	83.94
397.698	76.94
397.922	80.94
398.147	80.94
398.371	91.94
398.595	98.94
398.82	89.94
399.044	85.94
399.268	85.94
399.492	93.94
399.717	68.94
399.941	62.94
400.165	82.94
400.389	90.94
400.613	75.94
400.837	83.94
401.062	85.94
401.286	80.94
401.51	89.94
401.734	84.94
401.958	81.94
402.182	88.94
402.406	87.94
402.63	81.94
402.854	86.94
403.078	91.94
403.302	93.94
403.526	90.94
403.75	88.94
403.974	95.94
404.198	111.94
404.422	143.94
404.645	159.94
404.869	123.94
405.093	109.94
405.317	70.94
405.541	85.94
405.765	130.94
405.988	140.94
406.212	104.94
406.436	79.94
406.66	96.94
406.883	92.94
407.107	85.94
407.331	90.94
407.555	87.94
407.778	82.94
408.002	77.94
408.226	75.94
408.449	60.94
408.673	94.94
408.896	82.94
409.12	84.94
409.344	85.94
409.567	71.94
409.791	76.94
410.014	71.94
410.238	81.94
410.461	83.94
410.685	87.94
410.908	84.94
411.132	89.94
411.355	78.94
411.578	89.94
411.802	79.94
412.025	98.94
412.249	83.94
412.472	82.94
412.695	73.94
412.919	77.94
413.142	85.94
413.365	76.94
413.589	73.94
413.812	63.94
414.035	77.94
414.258	82.94
414.482	68.94
414.705	79.94
414.928	84.94
415.151	80.94
415.374	75.94
415.597	79.94
415.821	80.94
416.044	77.94
416.267	79.94
416.49	84.94
416.713	100.94
416.936	89.94
417.159	86.94
417.382	88.94
417.605	74.94
417.828	84.94
418.051	90.94
418.274	80.94
418.497	79.94
418.72	81.94
418.943	80.94
419.166	88.94
419.389	71.94
419.611	84.94
419.834	79.94
420.057	73.94
420.28	83.94
420.503	102.94
420.726	86.94
420.948	90.94
421.171	80.94
421.394	91.94
421.617	70.94
421.839	83.94
422.062	92.94
422.285	96.94
422.507	100.94
422.73	141.94
422.953	130.94
423.175	84.94
423.398	89.94
423.621	91.94
423.843	83.94
424.066	78.94
424.288	86.94
424.511	89.94
424.733	79.94
424.956	76.94
425.178	84.94
425.401	86.94
425.623	73.94
425.846	69.94
426.068	86.94
426.291	79.94
426.513	81.94
426.735	88.94
426.958	85.94
427.18	72.94
427.402	88.94
427.625	113.94
427.847	74.94
428.069	75.94
428.292	80.94
428.514	69.94
428.736	79.94
428.958	63.94
429.181	87.94
429.403	77.94
429.625	82.94
429.847	97.94
430.069	91.94
430.292	100.94
430.514	85.94
430.736	90.94
430.958	87.94
431.18	82.94
431.402	77.94
431.624	66.94
431.846	86.94
432.068	87.94
432.29	69.94
432.512	88.94
432.734	83.94
432.956	75.94
433.178	90.94
433.4	75.94
433.622	80.94
433.844	87.94
434.066	78.94
434.287	81.94
434.509	93.94
434.731	87.94
434.953	82.94
435.175	82.94
435.397	85.94
435.618	83.94
435.84	82.94
436.062	87.94
436.284	88.94
436.505	101.94
436.727	73.94
436.949	88.94
437.17	77.94
437.392	79.94
437.614	75.94
437.835	81.94
438.057	61.94
438.278	90.94
438.5	88.94
438.721	81.94
438.943	82.94
439.165	92.94
439.386	74.94
439.608	89.94
439.829	66.94
440.05	86.94
440.272	68.94
440.493	84.94
440.715	85.94
440.936	89.94
441.158	95.94
441.379	78.94
441.6	98.94
441.822	70.94
442.043	73.94
442.264	72.94
442.486	93.94
442.707	88.94
442.928	89.94
443.149	82.94
443.371	103.94
443.592	93.94
443.813	91.94
444.034	76.94
444.255	85.94
444.476	81.94
444.698	86.94
444.919	83.94
445.14	143.94
445.361	120.94
445.582	98.94
445.803	89.94
446.024	87.94
446.245	82.94
446.466	66.94
446.687	64.94
446.908	68.94
447.129	97.94
447.35	89.94
447.571	73.94
447.792	90.94
448.013	83.94
448.234	80.94
448.455	79.94
448.675	81.94
448.896	81.94
449.117	86.94
449.338	89.94
449.559	89.94
449.779	91.94
450	86.94
450.221	79.94
450.442	88.94
450.662	71.94
450.883	79.94
451.104	87.94
451.324	87.94
451.545	69.94
451.766	84.94
451.986	88.94
452.207	89.94
452.428	83.94
452.648	84.94
452.869	93.94
453.089	87.94
453.31	84.94
453.53	84.94
453.751	78.94
453.971	86.94
454.192	81.94
454.412	72.94
454.633	86.94
454.853	86.94
455.073	86.94
455.294	85.94
455.514	78.94
455.734	71.94
455.955	73.94
456.175	74.94
456.395	80.94
456.616	69.94
456.836	75.94
457.056	87.94
457.276	71.94
457.497	75.94
457.717	79.94
457.937	77.94
458.157	78.94
458.377	81.94
458.598	72.94
458.818	74.94
459.038	74.94
459.258	96.94
459.478	90.94
459.698	83.94
459.918	86.94
460.138	85.94
460.358	73.94
460.578	82.94
460.798	80.94
461.018	89.94
461.238	91.94
461.458	100.94
461.678	99.94
461.898	83.94
462.118	87.94
462.338	82.94
462.558	87.94
462.777	83.94
462.997	87.94
463.217	86.94
463.437	90.94
463.657	96.94
463.876	84.94
464.096	80.94
464.316	89.94
464.536	91.94
464.755	83.94
464.975	79.94
465.195	81.94
465.414	94.94
465.634	85.94
465.854	76.94
466.073	86.94
466.293	79.94
466.512	73.94
466.732	87.94
466.951	83.94
467.171	81.94
467.391	99.94
467.61	83.94
467.829	85.94
468.049	80.94
468.268	77.94
468.488	75.94
468.707	87.94
468.927	86.94
469.146	93.94
469.365	90.94
469.585	87.94
469.804	78.94
470.023	83.94
470.243	84.94
470.462	73.94
470.681	79.94
470.901	81.94
471.12	94.94
471.339	90.94
471.558	75.94
471.777	88.94
471.997	79.94
472.216	87.94
472.435	80.94
472.654	68.94
472.873	73.94
473.092	73.94
473.311	90.94
473.53	76.94
473.749	87.94
473.968	94.94
474.187	73.94
474.406	63.94
474.625	89.94
474.844	83.94
475.063	79.94
475.282	70.94
475.501	86.94
475.72	87.94
475.939	78.94
476.158	87.94
476.377	81.94
476.596	73.94
476.814	75.94
477.033	82.94
477.252	70.94
477.471	75.94
477.69	85.94
477.908	87.94
478.127	84.94
478.346	72.94
478.564	75.94
478.783	83.94
479.002	88.94
479.22	78.94
479.439	90.94
479.658	87.94
479.876	86.94
480.095	79.94
480.313	78.94
480.532	72.94
480.751	83.94
480.969	69.94
481.188	80.94
481.406	79.94
481.624	85.94
481.843	73.94
482.061	82.94
482.28	79.94
482.498	85.94
482.717	84.94
482.935	88.94
483.153	87.94
483.372	80.94
483.59	95.94
483.808	95.94
484.027	83.94
484.245	91.94
484.463	87.94
484.681	71.94
484.9	84.94
485.118	87.94
485.336	87.94
485.554	82.94
485.772	83.94
485.99	94.94
486.209	83.94
486.427	91.94
486.645	78.94
486.863	70.94
487.081	86.94
487.299	73.94
487.517	70.94
487.735	95.94
487.953	89.94
488.171	79.94
488.389	84.94
488.607	84.94
488.825	87.94
489.043	81.94
489.261	93.94
489.479	93.94
489.696	93.94
489.914	87.94
490.132	89.94
490.35	88.94
490.568	82.94
490.786	87.94
491.003	73.94
491.221	80.94
491.439	75.94
491.657	87.94
491.874	82.94
492.092	88.94
492.31	81.94
492.527	87.94
492.745	94.94
492.963	80.94
493.18	80.94
493.398	91.94
493.615	95.94
493.833	73.94
494.05	70.94
494.268	88.94
494.485	96.94
494.703	78.94
494.92	92.94
495.138	83.94
495.355	89.94
495.573	95.94
495.79	70.94
496.008	86.94
496.225	97.94
496.442	99.94
496.66	94.94
496.877	94.94
497.094	89.94
497.312	79.94
497.529	95.94
497.746	80.94
497.963	83.94
498.181	90.94
498.398	84.94
498.615	76.94
498.832	73.94
499.049	74.94
499.267	89.94
499.484	86.94
499.701	98.94
499.918	79.94
500.135	90.94
500.352	85.94
500.569	84.94
500.786	91.94
501.003	90.94
501.22	100.94
501.437	90.94
501.654	86.94
501.871	82.94
502.088	82.94
502.305	87.94
502.522	81.94
502.739	90.94
502.956	75.94
503.172	87.94
503.389	83.94
503.606	75.94
503.823	83.94
504.04	80.94
504.256	84.94
504.473	77.94
504.69	73.94
504.907	91.94
505.123	75.94
505.34	86.94
505.557	87.94
505.773	82.94
505.99	90.94
506.207	74.94
506.423	67.94
506.64	87.94
506.856	72.94
507.073	78.94
507.289	82.94
507.506	105.94
507.722	83.94
507.939	68.94
508.155	97.94
508.372	95.94
508.588	89.94
508.805	100.94
509.021	96.94
509.238	98.94
509.454	94.94
509.67	82.94
509.887	90.94
510.103	84.94
510.319	81.94
510.536	83.94
510.752	91.94
510.968	100.94
511.184	81.94
511.401	80.94
511.617	103.94
511.833	79.94
512.049	80.94
512.265	87.94
512.481	87.94
512.698	100.94
512.914	92.94
513.13	97.94
513.346	78.94
513.562	93.94
513.778	87.94
513.994	95.94
514.21	105.94
514.426	96.94
514.642	87.94
514.858	81.94
515.074	95.94
515.29	88.94
515.506	100.94
515.721	81.94
515.937	88.94
516.153	87.94
516.369	83.94
516.585	74.94
516.801	81.94
517.016	80.94
517.232	88.94
517.448	97.94
517.664	79.94
517.879	85.94
518.095	96.94
518.311	88.94
518.527	98.94
518.742	73.94
518.958	86.94
519.173	97.94
519.389	100.94
519.605	89.94
519.82	89.94
520.036	74.94
520.251	90.94
520.467	79.94
520.682	76.94
520.898	78.94
521.113	87.94
521.329	115.94
521.544	77.94
521.76	81.94
521.975	84.94
522.19	78.94
522.406	93.94
522.621	72.94
522.836	85.94
523.052	88.94
523.267	89.94
523.482	82.94
523.698	85.94
523.913	94.94
524.128	81.94
524.343	85.94
524.559	89.94
524.774	83.94
524.989	74.94
525.204	97.94
525.419	87.94
525.634	84.94
525.849	92.94
526.064	79.94
526.28	71.94
526.495	86.94
526.71	93.94
526.925	97.94
527.14	89.94
527.355	96.94
527.57	84.94
527.785	97.94
527.999	94.94
528.214	75.94
528.429	97.94
528.644	91.94
528.859	88.94
529.074	89.94
529.289	85.94
529.503	71.94
529.718	77.94
529.933	78.94
530.148	82.94
530.363	84.94
530.577	87.94
530.792	91.94
531.007	88.94
531.221	93.94
531.436	84.94
531.651	88.94
531.865	88.94
532.08	87.94
532.295	87.94
532.509	95.94
532.724	88.94
532.938	88.94
533.153	85.94
533.367	89.94
533.582	95.94
533.796	69.94
534.011	93.94
534.225	88.94
534.44	90.94
534.654	93.94
534.868	92.94
535.083	96.94
535.297	89.94
535.511	83.94
535.726	76.94
535.94	94.94
536.154	78.94
536.369	105.94
536.583	97.94
536.797	85.94
537.011	94.94
537.225	85.94
537.44	69.94
537.654	90.94
537.868	89.94
538.082	73.94
538.296	91.94
538.51	83.94
538.724	85.94
538.938	81.94
539.153	89.94
539.367	75.94
539.581	93.94
539.795	91.94
540.009	75.94
540.222	87.94
540.436	77.94
540.65	80.94
540.864	75.94
541.078	92.94
541.292	89.94
541.506	75.94
541.72	83.94
541.934	76.94
542.147	78.94
542.361	75.94
542.575	85.94
542.789	81.94
543.002	94.94
543.216	85.94
543.43	90.94
543.644	86.94
543.857	90.94
544.071	85.94
544.285	83.94
544.498	91.94
544.712	92.94
544.925	81.94
545.139	75.94
545.352	74.94
545.566	76.94
545.779	87.94
545.993	74.94
546.206	81.94
546.42	78.94
546.633	91.94
546.847	89.94
547.06	89.94
547.274	91.94
547.487	84.94
547.7	87.94
547.914	73.94
548.127	75.94
548.34	93.94
548.554	85.94
548.767	97.94
548.98	88.94
549.193	85.94
549.407	90.94
549.62	91.94
549.833	83.94
550.046	88.94
550.259	79.94
550.473	82.94
550.686	87.94
550.899	86.94
551.112	89.94
551.325	93.94
551.538	77.94
551.751	76.94
551.964	74.94
552.177	99.94
552.39	88.94
552.603	99.94
552.816	92.94
553.029	94.94
553.242	85.94
553.455	92.94
553.667	75.94
553.88	81.94
554.093	65.94
554.306	71.94
554.519	81.94
554.732	95.94
554.944	81.94
555.157	79.94
555.37	80.94
555.583	96.94
555.795	99.94
556.008	78.94
556.221	90.94
556.433	98.94
556.646	78.94
556.859	90.94
557.071	86.94
557.284	83.94
557.496	80.94
557.709	86.94
557.921	86.94
558.134	90.94
558.346	82.94
558.559	80.94
558.771	78.94
558.984	98.94
559.196	87.94
559.409	97.94
559.621	89.94
559.833	97.94
560.046	83.94
560.258	97.94
560.47	74.94
560.683	91.94
560.895	89.94
561.107	93.94
561.32	92.94
561.532	96.94
561.744	98.94
561.956	90.94
562.168	75.94
562.381	90.94
562.593	93.94
562.805	83.94
563.017	55.94
563.229	76.94
563.441	90.94
563.653	87.94
563.865	93.94
564.077	83.94
564.289	95.94
564.501	98.94
564.713	81.94
564.925	76.94
565.137	89.94
565.349	87.94
565.561	97.94
565.773	89.94
565.985	83.94
566.197	79.94
566.408	76.94
566.62	93.94
566.832	69.94
567.044	84.94
567.255	85.94
567.467	71.94
567.679	104.94
567.891	94.94
568.102	98.94
568.314	83.94
568.526	87.94
568.737	106.94
568.949	87.94
569.161	112.94
569.372	89.94
569.584	91.94
569.795	99.94
570.007	87.94
570.218	89.94
570.43	84.94
570.641	85.94
570.853	85.94
571.064	74.94
571.276	86.94
571.487	85.94
571.698	86.94
571.91	90.94
572.121	87.94
572.333	98.94
572.544	84.94
572.755	93.94
572.966	81.94
573.178	91.94
573.389	102.94
573.6	91.94
573.811	87.94
574.023	82.94
574.234	88.94
574.445	99.94
574.656	93.94
574.867	82.94
575.078	95.94
575.289	98.94
575.501	87.94
575.712	82.94
575.923	90.94
576.134	88.94
576.345	86.94
576.556	93.94
576.767	87.94
576.978	105.94
577.188	93.94
577.399	90.94
577.61	93.94
577.821	83.94
578.032	71.94
578.243	103.94
578.454	97.94
578.665	89.94
578.875	91.94
579.086	87.94
579.297	99.94
579.508	89.94
579.718	80.94
579.929	93.94
580.14	95.94
580.35	89.94
580.561	103.94
580.772	87.94
580.982	78.94
581.193	86.94
581.403	94.94
581.614	92.94
581.825	93.94
582.035	80.94
582.246	87.94
582.456	101.94
582.667	74.94
582.877	88.94
583.087	89.94
583.298	77.94
583.508	84.94
583.719	102.94
583.929	85.94
584.139	85.94
584.35	80.94
584.56	75.94
584.77	85.94
584.981	85.94
585.191	89.94
585.401	107.94
585.611	98.94
585.821	105.94
586.032	88.94
586.242	98.94
586.452	94.94
586.662	85.94
586.872	98.94
587.082	83.94
587.292	95.94
587.502	84.94
587.713	89.94
587.923	98.94
588.133	96.94
588.343	93.94
588.553	106.94
588.762	155.94
588.972	263.94
589.182	572.94
589.392	416.94
589.602	312.94
589.812	483.94
590.022	293.94
590.232	129.94
590.441	110.94
590.651	103.94
590.861	96.94
591.071	87.94
591.281	89.94
591.49	81.94
591.7	89.94
591.91	82.94
592.119	74.94
592.329	82.94
592.539	85.94
592.748	100.94
592.958	88.94
593.167	95.94
593.377	76.94
593.587	86.94
593.796	89.94
594.006	94.94
594.215	88.94
594.424	91.94
594.634	84.94
594.843	82.94
595.053	85.94
595.262	97.94
595.472	86.94
595.681	80.94
595.89	89.94
596.1	90.94
596.309	93.94
596.518	81.94
596.727	95.94
596.937	86.94
597.146	77.94
597.355	89.94
597.564	73.94
597.774	91.94
597.983	83.94
598.192	75.94
598.401	88.94
598.61	89.94
598.819	66.94
599.028	75.94
599.237	85.94
599.446	83.94
599.655	89.94
599.864	99.94
600.073	97.94
600.282	98.94
600.491	81.94
600.7	79.94
600.909	93.94
601.118	80.94
601.327	88.94
601.536	89.94
601.745	86.94
601.953	89.94
602.162	102.94
602.371	90.94
602.58	67.94
602.789	84.94
602.997	75.94
603.206	81.94
603.415	73.94
603.623	75.94
603.832	95.94
604.041	89.94
604.249	78.94
604.458	90.94
604.666	81.94
604.875	79.94
605.084	82.94
605.292	87.94
605.501	90.94
605.709	94.94
605.918	76.94
606.126	90.94
606.334	86.94
606.543	86.94
606.751	96.94
606.96	81.94
607.168	86.94
607.376	82.94
607.585	84.94
607.793	87.94
608.001	85.94
608.21	76.94
608.418	90.94
608.626	94.94
608.834	89.94
609.043	93.94
609.251	81.94
609.459	80.94
609.667	86.94
609.875	80.94
610.083	84.94
610.291	93.94
610.499	81.94
610.707	83.94
610.916	87.94
611.124	85.94
611.332	85.94
611.54	90.94
611.748	88.94
611.955	86.94
612.163	89.94
612.371	102.94
612.579	100.94
612.787	85.94
612.995	83.94
613.203	85.94
613.411	77.94
613.618	95.94
613.826	87.94
614.034	82.94
614.242	82.94
614.449	92.94
614.657	72.94
614.865	79.94
615.072	82.94
615.28	84.94
615.488	87.94
615.695	78.94
615.903	80.94
616.111	80.94
616.318	89.94
616.526	98.94
616.733	73.94
616.941	79.94
617.148	88.94
617.356	83.94
617.563	97.94
617.771	90.94
617.978	96.94
618.185	84.94
618.393	93.94
618.6	90.94
618.807	93.94
619.015	85.94
619.222	81.94
619.429	77.94
619.637	72.94
619.844	84.94
620.051	75.94
620.258	91.94
620.466	80.94
620.673	87.94
620.88	89.94
621.087	82.94
621.294	90.94
621.501	85.94
621.708	77.94
621.915	89.94
622.122	88.94
622.329	89.94
622.536	84.94
622.743	89.94
622.95	101.94
623.157	87.94
623.364	81.94
623.571	80.94
623.778	87.94
623.985	93.94
624.192	72.94
624.399	91.94
624.606	85.94
624.812	72.94
625.019	74.94
625.226	90.94
625.433	69.94
625.639	75.94
625.846	81.94
626.053	86.94
626.259	81.94
626.466	78.94
626.673	83.94
626.879	95.94
627.086	86.94
627.293	85.94
627.499	83.94
627.706	72.94
627.912	87.94
628.119	78.94
628.325	75.94
628.532	78.94
628.738	84.94
628.945	82.94
629.151	87.94
629.357	75.94
629.564	86.94
629.77	69.94
629.976	83.94
630.183	75.94
630.389	77.94
630.595	95.94
630.802	79.94
631.008	93.94
631.214	86.94
631.42	85.94
631.627	70.94
631.833	79.94
632.039	86.94
632.245	67.94
632.451	87.94
632.657	91.94
632.863	87.94
633.069	92.94
633.275	82.94
633.481	75.94
633.688	82.94
633.893	79.94
634.099	80.94
634.305	100.94
634.511	91.94
634.717	82.94
634.923	80.94
635.129	72.94
635.335	88.94
635.541	98.94
635.747	82.94
635.952	76.94
636.158	84.94
636.364	87.94
636.57	93.94
636.775	87.94
636.981	93.94
637.187	93.94
637.392	78.94
637.598	78.94
637.804	82.94
638.009	83.94
638.215	89.94
638.421	85.94
638.626	103.94
638.832	82.94
639.037	86.94
639.243	74.94
639.448	77.94
639.654	81.94
639.859	79.94
640.065	80.94
640.27	87.94
640.475	87.94
640.681	83.94
640.886	75.94
641.091	80.94
641.297	73.94
641.502	74.94
641.707	80.94
641.913	79.94
642.118	70.94
642.323	85.94
642.528	86.94
642.733	85.94
642.939	75.94
643.144	89.94
643.349	97.94
643.554	81.94
643.759	84.94
643.964	83.94
644.169	82.94
644.374	94.94
644.579	83.94
644.784	89.94
644.989	94.94
645.194	99.94
645.399	81.94
645.604	86.94
645.809	91.94
646.014	79.94
646.219	72.94
646.423	88.94
646.628	78.94
646.833	82.94
647.038	87.94
647.243	77.94
647.447	77.94
647.652	78.94
647.857	75.94
648.062	83.94
648.266	86.94
648.471	83.94
648.676	76.94
648.88	79.94
649.085	71.94
649.289	83.94
649.494	79.94
649.698	80.94
649.903	76.94
650.107	86.94
650.312	93.94
650.516	85.94
650.721	77.94
650.925	86.94
651.13	76.94
651.334	88.94
651.539	79.94
651.743	91.94
651.947	77.94
652.152	89.94
652.356	84.94
652.56	76.94
652.764	92.94
652.969	81.94
653.173	77.94
653.377	84.94
653.581	82.94
653.785	89.94
653.99	90.94
654.194	89.94
654.398	95.94
654.602	70.94
654.806	88.94
655.01	89.94
655.214	81.94
655.418	71.94
655.622	80.94
655.826	85.94
656.03	84.94
656.234	82.94
656.438	77.94
656.642	71.94
656.846	73.94
657.049	95.94
657.253	91.94
657.457	94.94
657.661	84.94
657.865	71.94
658.068	76.94
658.272	66.94
658.476	78.94
658.68	91.94
658.883	84.94
659.087	93.94
659.291	79.94
659.494	83.94
659.698	73.94
659.901	93.94
660.105	92.94
660.309	78.94
660.512	72.94
660.716	97.94
660.919	86.94
661.123	79.94
661.326	96.94
661.53	83.94
661.733	75.94
661.936	67.94
662.14	70.94
662.343	83.94
662.546	86.94
662.75	84.94
662.953	81.94
663.156	94.94
663.36	75.94
663.563	80.94
663.766	75.94
663.969	77.94
664.173	76.94
664.376	83.94
664.579	76.94
664.782	79.94
664.985	73.94
665.188	75.94
665.391	89.94
665.594	73.94
665.797	78.94
666	76.94
666.203	79.94
666.406	75.94
666.609	82.94
666.812	80.94
667.015	76.94
667.218	85.94
667.421	77.94
667.624	87.94
667.827	87.94
668.03	89.94
668.232	85.94
668.435	81.94
668.638	79.94
668.841	79.94
669.043	84.94
669.246	72.94
669.449	82.94
669.651	76.94
669.854	74.94
670.057	85.94
670.259	65.94
670.462	87.94
670.665	85.94
670.867	83.94
671.07	74.94
671.272	74.94
671.475	82.94
671.677	79.94
671.88	81.94
672.082	80.94
672.284	75.94
672.487	68.94
672.689	73.94
672.892	74.94
