Data from Lead_15_1_HRD10591_00013.txt Node
Date: Fri Feb 20 11:04:47 EST 2026
User: Yrep
Spectrometer: HR+D1059
Trigger mode: 1
Integration Time (sec): 1.000000E-1
Scans to average: 1
Electric dark correction enabled: true
Nonlinearity correction enabled: false
Boxcar width: 0
XAxis mode: Wavelengths
Number of Pixels in Spectrum: 2048
>>>>>Begin Spectral Data<<<<<
223.165	-25.81
223.4	-25.81
223.635	-25.81
223.869	-21.81
224.104	-15.81
224.338	-3.81
224.573	-18.81
224.808	-18.81
225.042	-6.81
225.277	0.19
225.511	2.19
225.746	2.19
225.98	3.19
226.215	2.19
226.449	23.19
226.683	12.19
226.918	26.19
227.152	40.19
227.387	34.19
227.621	34.19
227.856	33.19
228.09	44.19
228.324	52.19
228.559	58.19
228.793	62.19
229.027	50.19
229.262	58.19
229.496	70.19
229.73	77.19
229.964	66.19
230.199	63.19
230.433	72.19
230.667	58.19
230.901	62.19
231.136	62.19
231.37	72.19
231.604	74.19
231.838	66.19
232.072	74.19
232.306	84.19
232.541	75.19
232.775	86.19
233.009	65.19
233.243	81.19
233.477	77.19
233.711	78.19
233.945	82.19
234.179	81.19
234.413	70.19
234.647	71.19
234.881	70.19
235.115	64.19
235.349	75.19
235.583	88.19
235.817	72.19
236.051	82.19
236.285	69.19
236.519	76.19
236.753	68.19
236.987	84.19
237.221	80.19
237.455	93.19
237.689	88.19
237.922	66.19
238.156	76.19
238.39	82.19
238.624	82.19
238.858	72.19
239.091	78.19
239.325	74.19
239.559	79.19
239.793	62.19
240.027	71.19
240.26	68.19
240.494	83.19
240.728	68.19
240.961	71.19
241.195	72.19
241.429	71.19
241.662	82.19
241.896	75.19
242.13	82.19
242.363	73.19
242.597	77.19
242.83	66.19
243.064	69.19
243.298	76.19
243.531	67.19
243.765	66.19
243.998	83.19
244.232	79.19
244.465	79.19
244.699	75.19
244.932	65.19
245.166	70.19
245.399	80.19
245.633	76.19
245.866	84.19
246.099	75.19
246.333	70.19
246.566	64.19
246.8	91.19
247.033	86.19
247.266	70.19
247.5	86.19
247.733	87.19
247.966	87.19
248.2	71.19
248.433	90.19
248.666	77.19
248.899	74.19
249.133	73.19
249.366	87.19
249.599	88.19
249.832	88.19
250.066	88.19
250.299	79.19
250.532	71.19
250.765	66.19
250.998	76.19
251.231	78.19
251.465	67.19
251.698	69.19
251.931	70.19
252.164	75.19
252.397	87.19
252.63	62.19
252.863	87.19
253.096	80.19
253.329	79.19
253.562	76.19
253.795	94.19
254.028	86.19
254.261	72.19
254.494	64.19
254.727	77.19
254.96	72.19
255.193	67.19
255.426	64.19
255.659	62.19
255.892	83.19
256.124	73.19
256.357	69.19
256.59	71.19
256.823	73.19
257.056	72.19
257.289	87.19
257.521	86.19
257.754	90.19
257.987	93.19
258.22	76.19
258.452	73.19
258.685	74.19
258.918	86.19
259.151	75.19
259.383	88.19
259.616	74.19
259.849	73.19
260.081	86.19
260.314	93.19
260.547	59.19
260.779	70.19
261.012	72.19
261.244	71.19
261.477	84.19
261.71	79.19
261.942	75.19
262.175	79.19
262.407	76.19
262.64	73.19
262.872	83.19
263.105	86.19
263.337	68.19
263.57	65.19
263.802	70.19
264.035	93.19
264.267	78.19
264.499	77.19
264.732	88.19
264.964	74.19
265.197	80.19
265.429	85.19
265.661	80.19
265.894	83.19
266.126	79.19
266.358	84.19
266.591	84.19
266.823	80.19
267.055	89.19
267.287	72.19
267.52	76.19
267.752	83.19
267.984	62.19
268.216	79.19
268.448	62.19
268.681	73.19
268.913	64.19
269.145	79.19
269.377	69.19
269.609	71.19
269.841	87.19
270.073	78.19
270.306	84.19
270.538	85.19
270.77	80.19
271.002	80.19
271.234	79.19
271.466	78.19
271.698	95.19
271.93	85.19
272.162	78.19
272.394	85.19
272.626	90.19
272.858	72.19
273.09	78.19
273.322	80.19
273.553	86.19
273.785	84.19
274.017	76.19
274.249	87.19
274.481	78.19
274.713	69.19
274.945	81.19
275.176	82.19
275.408	84.19
275.64	71.19
275.872	75.19
276.104	82.19
276.335	81.19
276.567	92.19
276.799	85.19
277.031	82.19
277.262	72.19
277.494	80.19
277.726	83.19
277.957	91.19
278.189	82.19
278.421	89.19
278.652	78.19
278.884	85.19
279.115	80.19
279.347	77.19
279.579	63.19
279.81	76.19
280.042	80.19
280.273	79.19
280.505	76.19
280.736	76.19
280.968	76.19
281.199	85.19
281.431	86.19
281.662	76.19
281.894	87.19
282.125	89.19
282.356	85.19
282.588	80.19
282.819	87.19
283.051	70.19
283.282	74.19
283.513	82.19
283.745	79.19
283.976	82.19
284.207	78.19
284.439	63.19
284.67	95.19
284.901	82.19
285.132	69.19
285.364	83.19
285.595	84.19
285.826	83.19
286.057	89.19
286.288	84.19
286.52	73.19
286.751	86.19
286.982	82.19
287.213	63.19
287.444	90.19
287.675	79.19
287.906	78.19
288.138	80.19
288.369	87.19
288.6	79.19
288.831	80.19
289.062	85.19
289.293	71.19
289.524	78.19
289.755	75.19
289.986	78.19
290.217	82.19
290.448	74.19
290.679	95.19
290.91	86.19
291.141	68.19
291.371	79.19
291.602	91.19
291.833	88.19
292.064	88.19
292.295	86.19
292.526	87.19
292.757	84.19
292.987	82.19
293.218	71.19
293.449	78.19
293.68	99.19
293.91	82.19
294.141	77.19
294.372	87.19
294.603	84.19
294.833	92.19
295.064	80.19
295.295	79.19
295.525	77.19
295.756	78.19
295.987	79.19
296.217	90.19
296.448	90.19
296.679	84.19
296.909	78.19
297.14	90.19
297.37	80.19
297.601	73.19
297.831	74.19
298.062	87.19
298.292	88.19
298.523	84.19
298.753	83.19
298.984	65.19
299.214	91.19
299.445	87.19
299.675	82.19
299.905	78.19
300.136	85.19
300.366	73.19
300.597	85.19
300.827	85.19
301.057	84.19
301.288	91.19
301.518	77.19
301.748	76.19
301.979	102.19
302.209	80.19
302.439	76.19
302.669	85.19
302.9	81.19
303.13	70.19
303.36	73.19
303.59	70.19
303.82	74.19
304.051	76.19
304.281	90.19
304.511	88.19
304.741	72.19
304.971	70.19
305.201	83.19
305.431	82.19
305.661	70.19
305.891	82.19
306.121	85.19
306.352	83.19
306.582	78.19
306.812	73.19
307.042	79.19
307.272	88.19
307.502	94.19
307.731	76.19
307.961	84.19
308.191	82.19
308.421	70.19
308.651	81.19
308.881	91.19
309.111	84.19
309.341	80.19
309.571	75.19
309.8	71.19
310.03	76.19
310.26	80.19
310.49	80.19
310.72	86.19
310.949	77.19
311.179	71.19
311.409	69.19
311.639	80.19
311.868	71.19
312.098	86.19
312.328	74.19
312.557	78.19
312.787	85.19
313.017	81.19
313.246	80.19
313.476	87.19
313.706	83.19
313.935	76.19
314.165	94.19
314.394	78.19
314.624	79.19
314.853	84.19
315.083	65.19
315.312	83.19
315.542	95.19
315.771	84.19
316.001	71.19
316.23	71.19
316.46	83.19
316.689	80.19
316.919	86.19
317.148	79.19
317.377	79.19
317.607	81.19
317.836	96.19
318.065	74.19
318.295	75.19
318.524	82.19
318.753	72.19
318.983	82.19
319.212	86.19
319.441	75.19
319.67	83.19
319.9	82.19
320.129	71.19
320.358	77.19
320.587	100.19
320.816	82.19
321.046	91.19
321.275	75.19
321.504	77.19
321.733	86.19
321.962	72.19
322.191	79.19
322.42	96.19
322.649	78.19
322.878	70.19
323.108	82.19
323.337	84.19
323.566	92.19
323.795	91.19
324.024	92.19
324.253	83.19
324.482	77.19
324.71	90.19
324.939	91.19
325.168	84.19
325.397	69.19
325.626	90.19
325.855	84.19
326.084	92.19
326.313	78.19
326.542	84.19
326.77	85.19
326.999	87.19
327.228	96.19
327.457	86.19
327.686	91.19
327.914	85.19
328.143	98.19
328.372	80.19
328.6	76.19
328.829	84.19
329.058	83.19
329.287	60.19
329.515	76.19
329.744	80.19
329.972	72.19
330.201	86.19
330.43	76.19
330.658	83.19
330.887	83.19
331.115	76.19
331.344	96.19
331.572	94.19
331.801	79.19
332.03	77.19
332.258	94.19
332.486	83.19
332.715	91.19
332.943	71.19
333.172	78.19
333.4	70.19
333.629	84.19
333.857	80.19
334.085	90.19
334.314	67.19
334.542	69.19
334.771	90.19
334.999	80.19
335.227	83.19
335.455	78.19
335.684	89.19
335.912	73.19
336.14	75.19
336.369	68.19
336.597	73.19
336.825	84.19
337.053	80.19
337.281	82.19
337.51	86.19
337.738	81.19
337.966	83.19
338.194	84.19
338.422	93.19
338.65	72.19
338.878	87.19
339.106	79.19
339.334	71.19
339.562	69.19
339.79	86.19
340.018	71.19
340.246	76.19
340.474	83.19
340.702	74.19
340.93	77.19
341.158	79.19
341.386	91.19
341.614	90.19
341.842	68.19
342.07	69.19
342.298	72.19
342.526	79.19
342.754	72.19
342.981	82.19
343.209	79.19
343.437	94.19
343.665	77.19
343.893	84.19
344.12	81.19
344.348	67.19
344.576	76.19
344.804	86.19
345.031	84.19
345.259	80.19
345.487	75.19
345.714	73.19
345.942	73.19
346.17	75.19
346.397	82.19
346.625	83.19
346.853	72.19
347.08	76.19
347.308	70.19
347.535	51.19
347.763	68.19
347.99	96.19
348.218	79.19
348.445	98.19
348.673	71.19
348.9	84.19
349.128	75.19
349.355	60.19
349.583	84.19
349.81	76.19
350.037	77.19
350.265	88.19
350.492	80.19
350.72	82.19
350.947	81.19
351.174	55.19
351.402	84.19
351.629	79.19
351.856	87.19
352.083	94.19
352.311	78.19
352.538	90.19
352.765	74.19
352.992	84.19
353.22	86.19
353.447	83.19
353.674	84.19
353.901	86.19
354.128	87.19
354.355	78.19
354.583	85.19
354.81	89.19
355.037	75.19
355.264	73.19
355.491	83.19
355.718	87.19
355.945	70.19
356.172	81.19
356.399	82.19
356.626	83.19
356.853	82.19
357.08	84.19
357.307	72.19
357.534	77.19
357.761	82.19
357.988	72.19
358.215	73.19
358.441	84.19
358.668	84.19
358.895	75.19
359.122	87.19
359.349	75.19
359.576	78.19
359.802	91.19
360.029	106.19
360.256	98.19
360.483	67.19
360.709	78.19
360.936	98.19
361.163	78.19
361.39	68.19
361.616	78.19
361.843	88.19
362.07	88.19
362.296	86.19
362.523	87.19
362.749	76.19
362.976	58.19
363.203	76.19
363.429	87.19
363.656	80.19
363.882	95.19
364.109	78.19
364.335	88.19
364.562	71.19
364.788	90.19
365.015	80.19
365.241	74.19
365.468	87.19
365.694	77.19
365.92	76.19
366.147	80.19
366.373	68.19
366.599	78.19
366.826	65.19
367.052	70.19
367.278	80.19
367.505	95.19
367.731	80.19
367.957	68.19
368.184	69.19
368.41	86.19
368.636	69.19
368.862	82.19
369.089	78.19
369.315	72.19
369.541	79.19
369.767	78.19
369.993	80.19
370.219	78.19
370.445	79.19
370.672	75.19
370.898	82.19
371.124	80.19
371.35	84.19
371.576	78.19
371.802	78.19
372.028	88.19
372.254	85.19
372.48	65.19
372.706	82.19
372.932	78.19
373.158	90.19
373.384	80.19
373.61	76.19
373.835	70.19
374.061	90.19
374.287	83.19
374.513	67.19
374.739	76.19
374.965	74.19
375.191	82.19
375.416	84.19
375.642	73.19
375.868	76.19
376.094	87.19
376.319	63.19
376.545	88.19
376.771	74.19
376.997	76.19
377.222	83.19
377.448	84.19
377.674	85.19
377.899	78.19
378.125	66.19
378.35	72.19
378.576	72.19
378.802	61.19
379.027	84.19
379.253	78.19
379.478	80.19
379.704	71.19
379.929	79.19
380.155	59.19
380.38	63.19
380.606	78.19
380.831	74.19
381.057	82.19
381.282	87.19
381.507	71.19
381.733	86.19
381.958	79.19
382.184	69.19
382.409	76.19
382.634	76.19
382.86	74.19
383.085	83.19
383.31	74.19
383.535	81.19
383.761	85.19
383.986	81.19
384.211	77.19
384.436	84.19
384.662	68.19
384.887	82.19
385.112	68.19
385.337	84.19
385.562	70.19
385.787	86.19
386.013	89.19
386.238	84.19
386.463	74.19
386.688	86.19
386.913	79.19
387.138	80.19
387.363	70.19
387.588	60.19
387.813	90.19
388.038	77.19
388.263	80.19
388.488	71.19
388.713	62.19
388.938	68.19
389.163	63.19
389.387	74.19
389.612	72.19
389.837	72.19
390.062	103.19
390.287	76.19
390.512	80.19
390.736	87.19
390.961	72.19
391.186	71.19
391.411	88.19
391.636	82.19
391.86	82.19
392.085	87.19
392.31	72.19
392.534	73.19
392.759	83.19
392.984	91.19
393.208	71.19
393.433	75.19
393.658	82.19
393.882	67.19
394.107	86.19
394.331	70.19
394.556	76.19
394.78	93.19
395.005	76.19
395.229	69.19
395.454	82.19
395.678	78.19
395.903	83.19
396.127	94.19
396.352	70.19
396.576	80.19
396.801	81.19
397.025	74.19
397.249	81.19
397.474	92.19
397.698	93.19
397.922	68.19
398.147	70.19
398.371	76.19
398.595	79.19
398.82	70.19
399.044	70.19
399.268	85.19
399.492	90.19
399.717	65.19
399.941	79.19
400.165	81.19
400.389	76.19
400.613	70.19
400.837	74.19
401.062	80.19
401.286	72.19
401.51	74.19
401.734	101.19
401.958	86.19
402.182	74.19
402.406	63.19
402.63	89.19
402.854	85.19
403.078	65.19
403.302	93.19
403.526	78.19
403.75	82.19
403.974	75.19
404.198	74.19
404.422	83.19
404.645	74.19
404.869	80.19
405.093	78.19
405.317	73.19
405.541	88.19
405.765	82.19
405.988	97.19
406.212	70.19
406.436	91.19
406.66	84.19
406.883	81.19
407.107	83.19
407.331	68.19
407.555	60.19
407.778	75.19
408.002	73.19
408.226	83.19
408.449	69.19
408.673	70.19
408.896	70.19
409.12	70.19
409.344	88.19
409.567	73.19
409.791	76.19
410.014	94.19
410.238	106.19
410.461	73.19
410.685	79.19
410.908	68.19
411.132	90.19
411.355	73.19
411.578	66.19
411.802	68.19
412.025	91.19
412.249	80.19
412.472	75.19
412.695	72.19
412.919	78.19
413.142	78.19
413.365	81.19
413.589	77.19
413.812	68.19
414.035	78.19
414.258	76.19
414.482	69.19
414.705	84.19
414.928	78.19
415.151	73.19
415.374	82.19
415.597	74.19
415.821	74.19
416.044	88.19
416.267	85.19
416.49	79.19
416.713	84.19
416.936	86.19
417.159	77.19
417.382	77.19
417.605	70.19
417.828	82.19
418.051	83.19
418.274	84.19
418.497	71.19
418.72	70.19
418.943	85.19
419.166	74.19
419.389	94.19
419.611	82.19
419.834	79.19
420.057	70.19
420.28	76.19
420.503	78.19
420.726	79.19
420.948	72.19
421.171	77.19
421.394	83.19
421.617	70.19
421.839	78.19
422.062	64.19
422.285	65.19
422.507	86.19
422.73	78.19
422.953	76.19
423.175	76.19
423.398	82.19
423.621	62.19
423.843	76.19
424.066	86.19
424.288	79.19
424.511	74.19
424.733	71.19
424.956	72.19
425.178	69.19
425.401	78.19
425.623	76.19
425.846	70.19
426.068	73.19
426.291	73.19
426.513	63.19
426.735	80.19
426.958	85.19
427.18	69.19
427.402	78.19
427.625	80.19
427.847	71.19
428.069	77.19
428.292	80.19
428.514	80.19
428.736	81.19
428.958	67.19
429.181	67.19
429.403	53.19
429.625	73.19
429.847	86.19
430.069	85.19
430.292	80.19
430.514	64.19
430.736	96.19
430.958	81.19
431.18	60.19
431.402	68.19
431.624	78.19
431.846	81.19
432.068	76.19
432.29	74.19
432.512	99.19
432.734	78.19
432.956	74.19
433.178	73.19
433.4	88.19
433.622	68.19
433.844	82.19
434.066	74.19
434.287	86.19
434.509	84.19
434.731	88.19
434.953	79.19
435.175	85.19
435.397	72.19
435.618	71.19
435.84	63.19
436.062	79.19
436.284	80.19
436.505	74.19
436.727	75.19
436.949	69.19
437.17	77.19
437.392	78.19
437.614	62.19
437.835	71.19
438.057	88.19
438.278	78.19
438.5	76.19
438.721	68.19
438.943	84.19
439.165	84.19
439.386	69.19
439.608	85.19
439.829	85.19
440.05	68.19
440.272	76.19
440.493	85.19
440.715	86.19
440.936	71.19
441.158	68.19
441.379	79.19
441.6	74.19
441.822	99.19
442.043	90.19
442.264	77.19
442.486	84.19
442.707	87.19
442.928	92.19
443.149	100.19
443.371	80.19
443.592	84.19
443.813	88.19
444.034	67.19
444.255	78.19
444.476	62.19
444.698	81.19
444.919	81.19
445.14	144.19
445.361	132.19
445.582	93.19
445.803	72.19
446.024	67.19
446.245	84.19
446.466	76.19
446.687	78.19
446.908	91.19
447.129	76.19
447.35	78.19
447.571	89.19
447.792	81.19
448.013	71.19
448.234	83.19
448.455	62.19
448.675	64.19
448.896	80.19
449.117	85.19
449.338	74.19
449.559	69.19
449.779	79.19
450	74.19
450.221	93.19
450.442	85.19
450.662	76.19
450.883	82.19
451.104	83.19
451.324	78.19
451.545	76.19
451.766	79.19
451.986	82.19
452.207	66.19
452.428	63.19
452.648	76.19
452.869	72.19
453.089	90.19
453.31	74.19
453.53	70.19
453.751	74.19
453.971	70.19
454.192	74.19
454.412	78.19
454.633	88.19
454.853	94.19
455.073	81.19
455.294	62.19
455.514	69.19
455.734	82.19
455.955	69.19
456.175	90.19
456.395	91.19
456.616	77.19
456.836	75.19
457.056	78.19
457.276	69.19
457.497	83.19
457.717	80.19
457.937	78.19
458.157	89.19
458.377	69.19
458.598	84.19
458.818	69.19
459.038	81.19
459.258	84.19
459.478	79.19
459.698	82.19
459.918	80.19
460.138	73.19
460.358	82.19
460.578	85.19
460.798	79.19
461.018	72.19
461.238	80.19
461.458	71.19
461.678	80.19
461.898	70.19
462.118	85.19
462.338	65.19
462.558	80.19
462.777	56.19
462.997	71.19
463.217	78.19
463.437	87.19
463.657	92.19
463.876	69.19
464.096	78.19
464.316	66.19
464.536	80.19
464.755	67.19
464.975	92.19
465.195	84.19
465.414	77.19
465.634	94.19
465.854	55.19
466.073	80.19
466.293	82.19
466.512	60.19
466.732	76.19
466.951	94.19
467.171	79.19
467.391	86.19
467.61	67.19
467.829	71.19
468.049	74.19
468.268	83.19
468.488	91.19
468.707	86.19
468.927	74.19
469.146	93.19
469.365	87.19
469.585	85.19
469.804	56.19
470.023	77.19
470.243	79.19
470.462	75.19
470.681	87.19
470.901	87.19
471.12	75.19
471.339	89.19
471.558	70.19
471.777	75.19
471.997	90.19
472.216	79.19
472.435	80.19
472.654	83.19
472.873	90.19
473.092	90.19
473.311	85.19
473.53	82.19
473.749	73.19
473.968	87.19
474.187	82.19
474.406	88.19
474.625	84.19
474.844	85.19
475.063	89.19
475.282	75.19
475.501	85.19
475.72	84.19
475.939	74.19
476.158	81.19
476.377	70.19
476.596	80.19
476.814	86.19
477.033	86.19
477.252	80.19
477.471	66.19
477.69	67.19
477.908	60.19
478.127	81.19
478.346	71.19
478.564	84.19
478.783	76.19
479.002	78.19
479.22	74.19
479.439	79.19
479.658	76.19
479.876	82.19
480.095	90.19
480.313	85.19
480.532	78.19
480.751	78.19
480.969	87.19
481.188	85.19
481.406	76.19
481.624	82.19
481.843	79.19
482.061	62.19
482.28	81.19
482.498	87.19
482.717	78.19
482.935	79.19
483.153	74.19
483.372	81.19
483.59	84.19
483.808	88.19
484.027	87.19
484.245	72.19
484.463	79.19
484.681	87.19
484.9	71.19
485.118	88.19
485.336	65.19
485.554	86.19
485.772	73.19
485.99	87.19
486.209	84.19
486.427	77.19
486.645	83.19
486.863	97.19
487.081	79.19
487.299	59.19
487.517	71.19
487.735	91.19
487.953	67.19
488.171	90.19
488.389	84.19
488.607	79.19
488.825	70.19
489.043	74.19
489.261	84.19
489.479	77.19
489.696	68.19
489.914	73.19
490.132	79.19
490.35	82.19
490.568	78.19
490.786	77.19
491.003	80.19
491.221	70.19
491.439	74.19
491.657	81.19
491.874	70.19
492.092	79.19
492.31	88.19
492.527	88.19
492.745	84.19
492.963	72.19
493.18	86.19
493.398	72.19
493.615	80.19
493.833	78.19
494.05	73.19
494.268	79.19
494.485	59.19
494.703	88.19
494.92	82.19
495.138	78.19
495.355	93.19
495.573	82.19
495.79	63.19
496.008	79.19
496.225	71.19
496.442	84.19
496.66	88.19
496.877	82.19
497.094	77.19
497.312	83.19
497.529	70.19
497.746	81.19
497.963	96.19
498.181	78.19
498.398	74.19
498.615	75.19
498.832	80.19
499.049	71.19
499.267	83.19
499.484	83.19
499.701	70.19
499.918	64.19
500.135	68.19
500.352	66.19
500.569	80.19
500.786	75.19
501.003	72.19
501.22	74.19
501.437	78.19
501.654	69.19
501.871	76.19
502.088	78.19
502.305	78.19
502.522	96.19
502.739	84.19
502.956	90.19
503.172	86.19
503.389	96.19
503.606	80.19
503.823	98.19
504.04	83.19
504.256	64.19
504.473	75.19
504.69	84.19
504.907	83.19
505.123	79.19
505.34	79.19
505.557	81.19
505.773	82.19
505.99	91.19
506.207	73.19
506.423	78.19
506.64	86.19
506.856	82.19
507.073	88.19
507.289	82.19
507.506	55.19
507.722	84.19
507.939	73.19
508.155	87.19
508.372	82.19
508.588	66.19
508.805	73.19
509.021	90.19
509.238	84.19
509.454	86.19
509.67	90.19
509.887	81.19
510.103	69.19
510.319	89.19
510.536	93.19
510.752	93.19
510.968	74.19
511.184	68.19
511.401	62.19
511.617	83.19
511.833	88.19
512.049	78.19
512.265	82.19
512.481	86.19
512.698	87.19
512.914	84.19
513.13	79.19
513.346	81.19
513.562	79.19
513.778	88.19
513.994	70.19
514.21	85.19
514.426	82.19
514.642	86.19
514.858	85.19
515.074	80.19
515.29	76.19
515.506	79.19
515.721	74.19
515.937	82.19
516.153	74.19
516.369	57.19
516.585	90.19
516.801	87.19
517.016	89.19
517.232	87.19
517.448	77.19
517.664	84.19
517.879	75.19
518.095	88.19
518.311	70.19
518.527	76.19
518.742	92.19
518.958	86.19
519.173	78.19
519.389	76.19
519.605	84.19
519.82	72.19
520.036	69.19
520.251	86.19
520.467	86.19
520.682	75.19
520.898	90.19
521.113	69.19
521.329	81.19
521.544	76.19
521.76	82.19
521.975	88.19
522.19	94.19
522.406	79.19
522.621	84.19
522.836	82.19
523.052	82.19
523.267	91.19
523.482	85.19
523.698	72.19
523.913	87.19
524.128	71.19
524.343	73.19
524.559	70.19
524.774	83.19
524.989	76.19
525.204	73.19
525.419	84.19
525.634	79.19
525.849	92.19
526.064	88.19
526.28	83.19
526.495	82.19
526.71	74.19
526.925	64.19
527.14	86.19
527.355	69.19
527.57	91.19
527.785	85.19
527.999	73.19
528.214	77.19
528.429	87.19
528.644	90.19
528.859	75.19
529.074	83.19
529.289	88.19
529.503	71.19
529.718	66.19
529.933	96.19
530.148	67.19
530.363	98.19
530.577	82.19
530.792	92.19
531.007	84.19
531.221	84.19
531.436	79.19
531.651	78.19
531.865	81.19
532.08	76.19
532.295	95.19
532.509	82.19
532.724	74.19
532.938	80.19
533.153	84.19
533.367	77.19
533.582	75.19
533.796	81.19
534.011	57.19
534.225	86.19
534.44	76.19
534.654	73.19
534.868	75.19
535.083	72.19
535.297	73.19
535.511	83.19
535.726	79.19
535.94	87.19
536.154	83.19
536.369	66.19
536.583	85.19
536.797	92.19
537.011	81.19
537.225	88.19
537.44	69.19
537.654	74.19
537.868	78.19
538.082	93.19
538.296	77.19
538.51	79.19
538.724	79.19
538.938	71.19
539.153	90.19
539.367	85.19
539.581	84.19
539.795	93.19
540.009	73.19
540.222	98.19
540.436	91.19
540.65	81.19
540.864	84.19
541.078	86.19
541.292	79.19
541.506	86.19
541.72	78.19
541.934	70.19
542.147	69.19
542.361	76.19
542.575	76.19
542.789	80.19
543.002	83.19
543.216	80.19
543.43	89.19
543.644	62.19
543.857	84.19
544.071	95.19
544.285	90.19
544.498	82.19
544.712	79.19
544.925	98.19
545.139	86.19
545.352	83.19
545.566	80.19
545.779	88.19
545.993	73.19
546.206	82.19
546.42	83.19
546.633	73.19
546.847	88.19
547.06	84.19
547.274	88.19
547.487	93.19
547.7	78.19
547.914	71.19
548.127	93.19
548.34	89.19
548.554	78.19
548.767	70.19
548.98	82.19
549.193	80.19
549.407	74.19
549.62	86.19
549.833	75.19
550.046	86.19
550.259	88.19
550.473	76.19
550.686	67.19
550.899	71.19
551.112	82.19
551.325	84.19
551.538	81.19
551.751	74.19
551.964	80.19
552.177	90.19
552.39	80.19
552.603	88.19
552.816	90.19
553.029	76.19
553.242	73.19
553.455	89.19
553.667	105.19
553.88	91.19
554.093	106.19
554.306	84.19
554.519	82.19
554.732	85.19
554.944	80.19
555.157	84.19
555.37	79.19
555.583	65.19
555.795	92.19
556.008	86.19
556.221	90.19
556.433	76.19
556.646	84.19
556.859	82.19
557.071	84.19
557.284	70.19
557.496	90.19
557.709	77.19
557.921	72.19
558.134	83.19
558.346	78.19
558.559	83.19
558.771	76.19
558.984	86.19
559.196	79.19
559.409	79.19
559.621	91.19
559.833	87.19
560.046	82.19
560.258	88.19
560.47	86.19
560.683	86.19
560.895	81.19
561.107	92.19
561.32	72.19
561.532	95.19
561.744	82.19
561.956	85.19
562.168	79.19
562.381	73.19
562.593	79.19
562.805	93.19
563.017	82.19
563.229	70.19
563.441	82.19
563.653	84.19
563.865	75.19
564.077	79.19
564.289	87.19
564.501	97.19
564.713	90.19
564.925	85.19
565.137	79.19
565.349	80.19
565.561	68.19
565.773	94.19
565.985	79.19
566.197	83.19
566.408	87.19
566.62	83.19
566.832	87.19
567.044	83.19
567.255	83.19
567.467	82.19
567.679	79.19
567.891	78.19
568.102	91.19
568.314	79.19
568.526	79.19
568.737	99.19
568.949	96.19
569.161	90.19
569.372	71.19
569.584	87.19
569.795	85.19
570.007	72.19
570.218	92.19
570.43	86.19
570.641	69.19
570.853	80.19
571.064	86.19
571.276	67.19
571.487	75.19
571.698	100.19
571.91	94.19
572.121	78.19
572.333	90.19
572.544	73.19
572.755	82.19
572.966	71.19
573.178	84.19
573.389	88.19
573.6	76.19
573.811	84.19
574.023	83.19
574.234	80.19
574.445	75.19
574.656	84.19
574.867	81.19
575.078	84.19
575.289	90.19
575.501	72.19
575.712	91.19
575.923	88.19
576.134	86.19
576.345	87.19
576.556	78.19
576.767	85.19
576.978	95.19
577.188	66.19
577.399	86.19
577.61	78.19
577.821	78.19
578.032	88.19
578.243	79.19
578.454	78.19
578.665	82.19
578.875	75.19
579.086	83.19
579.297	76.19
579.508	72.19
579.718	72.19
579.929	61.19
580.14	94.19
580.35	79.19
580.561	78.19
580.772	76.19
580.982	77.19
581.193	75.19
581.403	87.19
581.614	65.19
581.825	84.19
582.035	80.19
582.246	87.19
582.456	90.19
582.667	79.19
582.877	82.19
583.087	74.19
583.298	82.19
583.508	93.19
583.719	74.19
583.929	88.19
584.139	74.19
584.35	78.19
584.56	90.19
584.77	91.19
584.981	82.19
585.191	76.19
585.401	90.19
585.611	83.19
585.821	68.19
586.032	84.19
586.242	79.19
586.452	75.19
586.662	85.19
586.872	91.19
587.082	82.19
587.292	64.19
587.502	82.19
587.713	69.19
587.923	87.19
588.133	70.19
588.343	90.19
588.553	84.19
588.762	72.19
588.972	84.19
589.182	113.19
589.392	98.19
589.602	89.19
589.812	96.19
590.022	91.19
590.232	89.19
590.441	84.19
590.651	76.19
590.861	79.19
591.071	69.19
591.281	63.19
591.49	75.19
591.7	88.19
591.91	73.19
592.119	83.19
592.329	82.19
592.539	91.19
592.748	95.19
592.958	62.19
593.167	84.19
593.377	85.19
593.587	81.19
593.796	85.19
594.006	96.19
594.215	76.19
594.424	92.19
594.634	75.19
594.843	69.19
595.053	76.19
595.262	73.19
595.472	85.19
595.681	71.19
595.89	79.19
596.1	94.19
596.309	71.19
596.518	88.19
596.727	78.19
596.937	86.19
597.146	86.19
597.355	98.19
597.564	82.19
597.774	83.19
597.983	80.19
598.192	82.19
598.401	81.19
598.61	93.19
598.819	83.19
599.028	80.19
599.237	78.19
599.446	82.19
599.655	72.19
599.864	82.19
600.073	80.19
600.282	87.19
600.491	72.19
600.7	59.19
600.909	85.19
601.118	85.19
601.327	79.19
601.536	86.19
601.745	75.19
601.953	76.19
602.162	69.19
602.371	76.19
602.58	67.19
602.789	89.19
602.997	80.19
603.206	81.19
603.415	72.19
603.623	76.19
603.832	74.19
604.041	88.19
604.249	92.19
604.458	92.19
604.666	86.19
604.875	67.19
605.084	79.19
605.292	79.19
605.501	90.19
605.709	88.19
605.918	70.19
606.126	72.19
606.334	72.19
606.543	79.19
606.751	87.19
606.96	70.19
607.168	67.19
607.376	92.19
607.585	71.19
607.793	97.19
608.001	91.19
608.21	89.19
608.418	83.19
608.626	76.19
608.834	68.19
609.043	88.19
609.251	72.19
609.459	89.19
609.667	86.19
609.875	90.19
610.083	84.19
610.291	87.19
610.499	89.19
610.707	76.19
610.916	78.19
611.124	81.19
611.332	84.19
611.54	84.19
611.748	98.19
611.955	80.19
612.163	91.19
612.371	61.19
612.579	53.19
612.787	75.19
612.995	79.19
613.203	82.19
613.411	97.19
613.618	76.19
613.826	84.19
614.034	94.19
614.242	93.19
614.449	86.19
614.657	82.19
614.865	80.19
615.072	70.19
615.28	83.19
615.488	73.19
615.695	90.19
615.903	86.19
616.111	76.19
616.318	83.19
616.526	90.19
616.733	69.19
616.941	70.19
617.148	76.19
617.356	72.19
617.563	83.19
617.771	78.19
617.978	82.19
618.185	76.19
618.393	80.19
618.6	80.19
618.807	70.19
619.015	74.19
619.222	78.19
619.429	76.19
619.637	79.19
619.844	81.19
620.051	73.19
620.258	67.19
620.466	80.19
620.673	76.19
620.88	84.19
621.087	74.19
621.294	75.19
621.501	80.19
621.708	75.19
621.915	80.19
622.122	66.19
622.329	76.19
622.536	96.19
622.743	84.19
622.95	81.19
623.157	90.19
623.364	81.19
623.571	78.19
623.778	73.19
623.985	63.19
624.192	90.19
624.399	78.19
624.606	90.19
624.812	76.19
625.019	79.19
625.226	80.19
625.433	84.19
625.639	77.19
625.846	76.19
626.053	69.19
626.259	82.19
626.466	86.19
626.673	86.19
626.879	85.19
627.086	75.19
627.293	80.19
627.499	75.19
627.706	85.19
627.912	76.19
628.119	84.19
628.325	97.19
628.532	86.19
628.738	86.19
628.945	89.19
629.151	64.19
629.357	79.19
629.564	90.19
629.77	96.19
629.976	82.19
630.183	96.19
630.389	76.19
630.595	83.19
630.802	85.19
631.008	90.19
631.214	74.19
631.42	86.19
631.627	81.19
631.833	70.19
632.039	90.19
632.245	87.19
632.451	80.19
632.657	82.19
632.863	77.19
633.069	94.19
633.275	83.19
633.481	78.19
633.688	76.19
633.893	92.19
634.099	77.19
634.305	94.19
634.511	76.19
634.717	72.19
634.923	78.19
635.129	70.19
635.335	78.19
635.541	82.19
635.747	84.19
635.952	80.19
636.158	78.19
636.364	87.19
636.57	88.19
636.775	79.19
636.981	85.19
637.187	76.19
637.392	75.19
637.598	84.19
637.804	79.19
638.009	75.19
638.215	79.19
638.421	78.19
638.626	79.19
638.832	69.19
639.037	75.19
639.243	72.19
639.448	86.19
639.654	84.19
639.859	101.19
640.065	67.19
640.27	80.19
640.475	88.19
640.681	65.19
640.886	70.19
641.091	75.19
641.297	66.19
641.502	80.19
641.707	78.19
641.913	79.19
642.118	84.19
642.323	72.19
642.528	97.19
642.733	73.19
642.939	81.19
643.144	79.19
643.349	80.19
643.554	73.19
643.759	80.19
643.964	84.19
644.169	78.19
644.374	56.19
644.579	72.19
644.784	74.19
644.989	74.19
645.194	91.19
645.399	85.19
645.604	79.19
645.809	78.19
646.014	77.19
646.219	75.19
646.423	87.19
646.628	72.19
646.833	64.19
647.038	63.19
647.243	91.19
647.447	102.19
647.652	86.19
647.857	69.19
648.062	83.19
648.266	72.19
648.471	79.19
648.676	70.19
648.88	82.19
649.085	79.19
649.289	84.19
649.494	89.19
649.698	66.19
649.903	71.19
650.107	80.19
650.312	80.19
650.516	78.19
650.721	78.19
650.925	71.19
651.13	83.19
651.334	90.19
651.539	78.19
651.743	70.19
651.947	75.19
652.152	75.19
652.356	82.19
652.56	75.19
652.764	84.19
652.969	83.19
653.173	82.19
653.377	83.19
653.581	76.19
653.785	79.19
653.99	82.19
654.194	87.19
654.398	66.19
654.602	80.19
654.806	75.19
655.01	85.19
655.214	76.19
655.418	78.19
655.622	78.19
655.826	66.19
656.03	75.19
656.234	70.19
656.438	68.19
656.642	77.19
656.846	68.19
657.049	77.19
657.253	86.19
657.457	81.19
657.661	70.19
657.865	69.19
658.068	81.19
658.272	86.19
658.476	70.19
658.68	86.19
658.883	69.19
659.087	70.19
659.291	75.19
659.494	73.19
659.698	77.19
659.901	86.19
660.105	91.19
660.309	79.19
660.512	87.19
660.716	83.19
660.919	80.19
661.123	80.19
661.326	78.19
661.53	70.19
661.733	88.19
661.936	83.19
662.14	70.19
662.343	87.19
662.546	79.19
662.75	66.19
662.953	74.19
663.156	76.19
663.36	79.19
663.563	73.19
663.766	69.19
663.969	80.19
664.173	73.19
664.376	68.19
664.579	78.19
664.782	80.19
664.985	67.19
665.188	81.19
665.391	76.19
665.594	70.19
665.797	74.19
666	76.19
666.203	77.19
666.406	63.19
666.609	78.19
666.812	76.19
667.015	76.19
667.218	77.19
667.421	73.19
667.624	63.19
667.827	85.19
668.03	83.19
668.232	85.19
668.435	80.19
668.638	78.19
668.841	69.19
669.043	70.19
669.246	77.19
669.449	75.19
669.651	72.19
669.854	84.19
670.057	97.19
670.259	71.19
670.462	71.19
670.665	77.19
670.867	80.19
671.07	69.19
671.272	83.19
671.475	90.19
671.677	76.19
671.88	75.19
672.082	70.19
672.284	74.19
672.487	66.19
672.689	78.19
672.892	88.19
