Data from Dry_Prop_25_1_HRD10591_00011.txt Node
Date: Wed Dec 03 14:37:42 EST 2025
User: Yrep
Spectrometer: HR+D1059
Trigger mode: 1
Integration Time (sec): 1.000000E-1
Scans to average: 1
Electric dark correction enabled: true
Nonlinearity correction enabled: false
Boxcar width: 0
XAxis mode: Wavelengths
Number of Pixels in Spectrum: 2048
>>>>>Begin Spectral Data<<<<<
223.165	-14.56
223.4	-14.56
223.635	-14.56
223.869	-22.56
224.104	-9.56
224.338	-11.56
224.573	-14.56
224.808	-21.56
225.042	-2.56
225.277	-15.56
225.511	1.44
225.746	-4.56
225.98	7.44
226.215	9.44
226.449	13.44
226.683	23.44
226.918	29.44
227.152	32.44
227.387	28.44
227.621	33.44
227.856	34.44
228.09	48.44
228.324	60.44
228.559	61.44
228.793	66.44
229.027	57.44
229.262	52.44
229.496	80.44
229.73	65.44
229.964	64.44
230.199	78.44
230.433	81.44
230.667	69.44
230.901	71.44
231.136	58.44
231.37	78.44
231.604	73.44
231.838	66.44
232.072	70.44
232.306	83.44
232.541	59.44
232.775	71.44
233.009	92.44
233.243	78.44
233.477	65.44
233.711	79.44
233.945	73.44
234.179	82.44
234.413	80.44
234.647	82.44
234.881	93.44
235.115	94.44
235.349	76.44
235.583	74.44
235.817	67.44
236.051	78.44
236.285	56.44
236.519	67.44
236.753	84.44
236.987	75.44
237.221	78.44
237.455	77.44
237.689	76.44
237.922	73.44
238.156	73.44
238.39	66.44
238.624	83.44
238.858	78.44
239.091	60.44
239.325	83.44
239.559	70.44
239.793	71.44
240.027	77.44
240.26	70.44
240.494	73.44
240.728	67.44
240.961	79.44
241.195	73.44
241.429	69.44
241.662	72.44
241.896	71.44
242.13	78.44
242.363	80.44
242.597	82.44
242.83	75.44
243.064	79.44
243.298	78.44
243.531	71.44
243.765	76.44
243.998	91.44
244.232	91.44
244.465	80.44
244.699	73.44
244.932	76.44
245.166	83.44
245.399	73.44
245.633	87.44
245.866	64.44
246.099	76.44
246.333	71.44
246.566	78.44
246.8	69.44
247.033	86.44
247.266	79.44
247.5	83.44
247.733	77.44
247.966	70.44
248.2	67.44
248.433	89.44
248.666	86.44
248.899	83.44
249.133	75.44
249.366	86.44
249.599	80.44
249.832	85.44
250.066	89.44
250.299	61.44
250.532	71.44
250.765	82.44
250.998	85.44
251.231	69.44
251.465	92.44
251.698	65.44
251.931	78.44
252.164	70.44
252.397	76.44
252.63	92.44
252.863	81.44
253.096	73.44
253.329	81.44
253.562	84.44
253.795	71.44
254.028	91.44
254.261	82.44
254.494	78.44
254.727	79.44
254.96	78.44
255.193	65.44
255.426	88.44
255.659	84.44
255.892	82.44
256.124	89.44
256.357	90.44
256.59	82.44
256.823	65.44
257.056	76.44
257.289	82.44
257.521	59.44
257.754	73.44
257.987	83.44
258.22	81.44
258.452	84.44
258.685	79.44
258.918	83.44
259.151	78.44
259.383	93.44
259.616	94.44
259.849	89.44
260.081	78.44
260.314	87.44
260.547	76.44
260.779	84.44
261.012	85.44
261.244	82.44
261.477	89.44
261.71	74.44
261.942	81.44
262.175	71.44
262.407	68.44
262.64	66.44
262.872	76.44
263.105	72.44
263.337	85.44
263.57	82.44
263.802	71.44
264.035	71.44
264.267	81.44
264.499	76.44
264.732	82.44
264.964	84.44
265.197	79.44
265.429	84.44
265.661	77.44
265.894	86.44
266.126	92.44
266.358	93.44
266.591	74.44
266.823	74.44
267.055	91.44
267.287	93.44
267.52	97.44
267.752	75.44
267.984	89.44
268.216	77.44
268.448	73.44
268.681	89.44
268.913	84.44
269.145	91.44
269.377	77.44
269.609	71.44
269.841	79.44
270.073	82.44
270.306	85.44
270.538	90.44
270.77	68.44
271.002	94.44
271.234	86.44
271.466	82.44
271.698	93.44
271.93	89.44
272.162	89.44
272.394	85.44
272.626	101.44
272.858	80.44
273.09	79.44
273.322	87.44
273.553	87.44
273.785	97.44
274.017	83.44
274.249	80.44
274.481	74.44
274.713	84.44
274.945	81.44
275.176	63.44
275.408	75.44
275.64	87.44
275.872	87.44
276.104	76.44
276.335	88.44
276.567	89.44
276.799	92.44
277.031	89.44
277.262	92.44
277.494	91.44
277.726	83.44
277.957	84.44
278.189	74.44
278.421	94.44
278.652	96.44
278.884	77.44
279.115	82.44
279.347	95.44
279.579	73.44
279.81	95.44
280.042	102.44
280.273	93.44
280.505	70.44
280.736	76.44
280.968	84.44
281.199	77.44
281.431	83.44
281.662	87.44
281.894	94.44
282.125	103.44
282.356	95.44
282.588	79.44
282.819	75.44
283.051	79.44
283.282	89.44
283.513	82.44
283.745	87.44
283.976	81.44
284.207	68.44
284.439	85.44
284.67	98.44
284.901	79.44
285.132	74.44
285.364	75.44
285.595	91.44
285.826	84.44
286.057	87.44
286.288	75.44
286.52	79.44
286.751	87.44
286.982	71.44
287.213	76.44
287.444	83.44
287.675	95.44
287.906	86.44
288.138	79.44
288.369	78.44
288.6	79.44
288.831	83.44
289.062	76.44
289.293	92.44
289.524	79.44
289.755	82.44
289.986	91.44
290.217	89.44
290.448	91.44
290.679	89.44
290.91	94.44
291.141	77.44
291.371	77.44
291.602	86.44
291.833	86.44
292.064	89.44
292.295	75.44
292.526	91.44
292.757	91.44
292.987	107.44
293.218	66.44
293.449	71.44
293.68	83.44
293.91	94.44
294.141	98.44
294.372	86.44
294.603	74.44
294.833	84.44
295.064	74.44
295.295	64.44
295.525	68.44
295.756	78.44
295.987	76.44
296.217	84.44
296.448	82.44
296.679	93.44
296.909	79.44
297.14	96.44
297.37	77.44
297.601	75.44
297.831	87.44
298.062	82.44
298.292	79.44
298.523	83.44
298.753	84.44
298.984	86.44
299.214	98.44
299.445	78.44
299.675	84.44
299.905	80.44
300.136	79.44
300.366	97.44
300.597	86.44
300.827	83.44
301.057	71.44
301.288	75.44
301.518	81.44
301.748	93.44
301.979	100.44
302.209	76.44
302.439	93.44
302.669	90.44
302.9	80.44
303.13	90.44
303.36	96.44
303.59	81.44
303.82	99.44
304.051	96.44
304.281	78.44
304.511	73.44
304.741	82.44
304.971	84.44
305.201	61.44
305.431	82.44
305.661	85.44
305.891	75.44
306.121	75.44
306.352	82.44
306.582	68.44
306.812	80.44
307.042	71.44
307.272	86.44
307.502	78.44
307.731	85.44
307.961	99.44
308.191	67.44
308.421	76.44
308.651	91.44
308.881	67.44
309.111	68.44
309.341	68.44
309.571	95.44
309.8	94.44
310.03	92.44
310.26	98.44
310.49	65.44
310.72	93.44
310.949	80.44
311.179	84.44
311.409	79.44
311.639	85.44
311.868	87.44
312.098	83.44
312.328	101.44
312.557	78.44
312.787	84.44
313.017	85.44
313.246	84.44
313.476	78.44
313.706	66.44
313.935	69.44
314.165	73.44
314.394	82.44
314.624	81.44
314.853	79.44
315.083	83.44
315.312	92.44
315.542	91.44
315.771	81.44
316.001	89.44
316.23	80.44
316.46	94.44
316.689	80.44
316.919	84.44
317.148	85.44
317.377	89.44
317.607	78.44
317.836	86.44
318.065	89.44
318.295	91.44
318.524	68.44
318.753	93.44
318.983	69.44
319.212	88.44
319.441	85.44
319.67	80.44
319.9	86.44
320.129	86.44
320.358	82.44
320.587	63.44
320.816	74.44
321.046	97.44
321.275	89.44
321.504	67.44
321.733	73.44
321.962	66.44
322.191	75.44
322.42	89.44
322.649	78.44
322.878	96.44
323.108	86.44
323.337	85.44
323.566	76.44
323.795	85.44
324.024	87.44
324.253	84.44
324.482	97.44
324.71	91.44
324.939	82.44
325.168	91.44
325.397	78.44
325.626	92.44
325.855	81.44
326.084	81.44
326.313	75.44
326.542	78.44
326.77	69.44
326.999	65.44
327.228	73.44
327.457	68.44
327.686	85.44
327.914	69.44
328.143	75.44
328.372	91.44
328.6	71.44
328.829	81.44
329.058	85.44
329.287	103.44
329.515	77.44
329.744	88.44
329.972	90.44
330.201	83.44
330.43	79.44
330.658	78.44
330.887	97.44
331.115	99.44
331.344	96.44
331.572	65.44
331.801	79.44
332.03	78.44
332.258	92.44
332.486	77.44
332.715	78.44
332.943	83.44
333.172	81.44
333.4	85.44
333.629	83.44
333.857	97.44
334.085	93.44
334.314	78.44
334.542	83.44
334.771	98.44
334.999	83.44
335.227	73.44
335.455	93.44
335.684	94.44
335.912	93.44
336.14	68.44
336.369	95.44
336.597	91.44
336.825	79.44
337.053	67.44
337.281	93.44
337.51	77.44
337.738	85.44
337.966	89.44
338.194	83.44
338.422	84.44
338.65	84.44
338.878	92.44
339.106	74.44
339.334	79.44
339.562	84.44
339.79	85.44
340.018	83.44
340.246	77.44
340.474	85.44
340.702	83.44
340.93	93.44
341.158	91.44
341.386	69.44
341.614	80.44
341.842	76.44
342.07	87.44
342.298	85.44
342.526	74.44
342.754	89.44
342.981	82.44
343.209	79.44
343.437	82.44
343.665	77.44
343.893	75.44
344.12	73.44
344.348	78.44
344.576	91.44
344.804	77.44
345.031	73.44
345.259	81.44
345.487	85.44
345.714	71.44
345.942	66.44
346.17	93.44
346.397	82.44
346.625	86.44
346.853	75.44
347.08	80.44
347.308	77.44
347.535	69.44
347.763	63.44
347.99	80.44
348.218	95.44
348.445	95.44
348.673	93.44
348.9	93.44
349.128	81.44
349.355	79.44
349.583	72.44
349.81	62.44
350.037	83.44
350.265	85.44
350.492	100.44
350.72	85.44
350.947	79.44
351.174	89.44
351.402	74.44
351.629	87.44
351.856	89.44
352.083	91.44
352.311	76.44
352.538	82.44
352.765	68.44
352.992	91.44
353.22	86.44
353.447	83.44
353.674	78.44
353.901	81.44
354.128	86.44
354.355	78.44
354.583	80.44
354.81	70.44
355.037	56.44
355.264	86.44
355.491	93.44
355.718	83.44
355.945	70.44
356.172	80.44
356.399	90.44
356.626	77.44
356.853	86.44
357.08	75.44
357.307	79.44
357.534	76.44
357.761	84.44
357.988	80.44
358.215	77.44
358.441	77.44
358.668	83.44
358.895	89.44
359.122	91.44
359.349	74.44
359.576	90.44
359.802	78.44
360.029	68.44
360.256	90.44
360.483	81.44
360.709	90.44
360.936	90.44
361.163	86.44
361.39	79.44
361.616	89.44
361.843	81.44
362.07	97.44
362.296	93.44
362.523	92.44
362.749	81.44
362.976	73.44
363.203	77.44
363.429	84.44
363.656	76.44
363.882	91.44
364.109	91.44
364.335	86.44
364.562	76.44
364.788	72.44
365.015	91.44
365.241	90.44
365.468	79.44
365.694	96.44
365.92	81.44
366.147	73.44
366.373	67.44
366.599	75.44
366.826	92.44
367.052	78.44
367.278	74.44
367.505	70.44
367.731	85.44
367.957	83.44
368.184	86.44
368.41	85.44
368.636	90.44
368.862	82.44
369.089	85.44
369.315	81.44
369.541	79.44
369.767	83.44
369.993	80.44
370.219	75.44
370.445	84.44
370.672	73.44
370.898	84.44
371.124	73.44
371.35	86.44
371.576	81.44
371.802	86.44
372.028	85.44
372.254	83.44
372.48	79.44
372.706	72.44
372.932	92.44
373.158	79.44
373.384	76.44
373.61	73.44
373.835	78.44
374.061	82.44
374.287	71.44
374.513	78.44
374.739	86.44
374.965	79.44
375.191	79.44
375.416	91.44
375.642	86.44
375.868	91.44
376.094	70.44
376.319	92.44
376.545	83.44
376.771	74.44
376.997	87.44
377.222	81.44
377.448	78.44
377.674	79.44
377.899	86.44
378.125	79.44
378.35	82.44
378.576	91.44
378.802	78.44
379.027	82.44
379.253	111.44
379.478	86.44
379.704	74.44
379.929	90.44
380.155	82.44
380.38	83.44
380.606	79.44
380.831	86.44
381.057	93.44
381.282	77.44
381.507	81.44
381.733	91.44
381.958	89.44
382.184	94.44
382.409	73.44
382.634	93.44
382.86	81.44
383.085	76.44
383.31	73.44
383.535	67.44
383.761	77.44
383.986	86.44
384.211	81.44
384.436	86.44
384.662	87.44
384.887	81.44
385.112	85.44
385.337	69.44
385.562	82.44
385.787	83.44
386.013	85.44
386.238	83.44
386.463	81.44
386.688	96.44
386.913	94.44
387.138	75.44
387.363	76.44
387.588	79.44
387.813	76.44
388.038	81.44
388.263	83.44
388.488	70.44
388.713	77.44
388.938	78.44
389.163	73.44
389.387	82.44
389.612	76.44
389.837	96.44
390.062	84.44
390.287	70.44
390.512	99.44
390.736	79.44
390.961	107.44
391.186	84.44
391.411	79.44
391.636	73.44
391.86	81.44
392.085	77.44
392.31	78.44
392.534	80.44
392.759	82.44
392.984	76.44
393.208	65.44
393.433	90.44
393.658	85.44
393.882	83.44
394.107	86.44
394.331	91.44
394.556	100.44
394.78	75.44
395.005	89.44
395.229	75.44
395.454	81.44
395.678	75.44
395.903	78.44
396.127	74.44
396.352	77.44
396.576	83.44
396.801	72.44
397.025	81.44
397.249	103.44
397.474	75.44
397.698	82.44
397.922	91.44
398.147	67.44
398.371	82.44
398.595	76.44
398.82	85.44
399.044	84.44
399.268	80.44
399.492	70.44
399.717	83.44
399.941	77.44
400.165	80.44
400.389	97.44
400.613	96.44
400.837	82.44
401.062	83.44
401.286	69.44
401.51	80.44
401.734	78.44
401.958	86.44
402.182	73.44
402.406	89.44
402.63	90.44
402.854	60.44
403.078	81.44
403.302	79.44
403.526	82.44
403.75	103.44
403.974	76.44
404.198	78.44
404.422	79.44
404.645	89.44
404.869	91.44
405.093	73.44
405.317	99.44
405.541	80.44
405.765	88.44
405.988	77.44
406.212	79.44
406.436	73.44
406.66	80.44
406.883	80.44
407.107	74.44
407.331	91.44
407.555	77.44
407.778	88.44
408.002	76.44
408.226	91.44
408.449	77.44
408.673	71.44
408.896	76.44
409.12	73.44
409.344	77.44
409.567	81.44
409.791	87.44
410.014	95.44
410.238	96.44
410.461	72.44
410.685	81.44
410.908	86.44
411.132	81.44
411.355	68.44
411.578	75.44
411.802	77.44
412.025	68.44
412.249	86.44
412.472	82.44
412.695	83.44
412.919	66.44
413.142	79.44
413.365	82.44
413.589	94.44
413.812	78.44
414.035	73.44
414.258	79.44
414.482	83.44
414.705	82.44
414.928	92.44
415.151	82.44
415.374	76.44
415.597	79.44
415.821	83.44
416.044	79.44
416.267	90.44
416.49	89.44
416.713	76.44
416.936	75.44
417.159	61.44
417.382	94.44
417.605	77.44
417.828	86.44
418.051	81.44
418.274	85.44
418.497	79.44
418.72	79.44
418.943	85.44
419.166	83.44
419.389	87.44
419.611	84.44
419.834	81.44
420.057	69.44
420.28	70.44
420.503	75.44
420.726	62.44
420.948	74.44
421.171	74.44
421.394	66.44
421.617	70.44
421.839	74.44
422.062	77.44
422.285	83.44
422.507	77.44
422.73	70.44
422.953	73.44
423.175	90.44
423.398	81.44
423.621	91.44
423.843	74.44
424.066	77.44
424.288	91.44
424.511	93.44
424.733	84.44
424.956	74.44
425.178	92.44
425.401	94.44
425.623	83.44
425.846	78.44
426.068	68.44
426.291	76.44
426.513	78.44
426.735	86.44
426.958	71.44
427.18	91.44
427.402	76.44
427.625	89.44
427.847	80.44
428.069	75.44
428.292	95.44
428.514	86.44
428.736	83.44
428.958	90.44
429.181	75.44
429.403	87.44
429.625	81.44
429.847	93.44
430.069	73.44
430.292	93.44
430.514	85.44
430.736	84.44
430.958	81.44
431.18	73.44
431.402	79.44
431.624	85.44
431.846	74.44
432.068	76.44
432.29	83.44
432.512	90.44
432.734	73.44
432.956	83.44
433.178	83.44
433.4	74.44
433.622	86.44
433.844	70.44
434.066	68.44
434.287	75.44
434.509	73.44
434.731	82.44
434.953	79.44
435.175	81.44
435.397	75.44
435.618	67.44
435.84	72.44
436.062	89.44
436.284	70.44
436.505	73.44
436.727	83.44
436.949	85.44
437.17	77.44
437.392	73.44
437.614	79.44
437.835	70.44
438.057	67.44
438.278	83.44
438.5	74.44
438.721	73.44
438.943	67.44
439.165	91.44
439.386	77.44
439.608	82.44
439.829	90.44
440.05	87.44
440.272	72.44
440.493	74.44
440.715	75.44
440.936	91.44
441.158	85.44
441.379	81.44
441.6	82.44
441.822	83.44
442.043	92.44
442.264	83.44
442.486	84.44
442.707	87.44
442.928	92.44
443.149	90.44
443.371	93.44
443.592	83.44
443.813	79.44
444.034	73.44
444.255	78.44
444.476	69.44
444.698	75.44
444.919	77.44
445.14	166.44
445.361	108.44
445.582	79.44
445.803	72.44
446.024	83.44
446.245	74.44
446.466	85.44
446.687	65.44
446.908	89.44
447.129	76.44
447.35	87.44
447.571	82.44
447.792	89.44
448.013	76.44
448.234	95.44
448.455	90.44
448.675	80.44
448.896	76.44
449.117	76.44
449.338	85.44
449.559	80.44
449.779	90.44
450	68.44
450.221	82.44
450.442	83.44
450.662	71.44
450.883	83.44
451.104	73.44
451.324	81.44
451.545	71.44
451.766	66.44
451.986	72.44
452.207	67.44
452.428	78.44
452.648	71.44
452.869	88.44
453.089	66.44
453.31	83.44
453.53	77.44
453.751	74.44
453.971	98.44
454.192	81.44
454.412	80.44
454.633	80.44
454.853	75.44
455.073	83.44
455.294	70.44
455.514	71.44
455.734	94.44
455.955	83.44
456.175	79.44
456.395	73.44
456.616	79.44
456.836	75.44
457.056	86.44
457.276	68.44
457.497	86.44
457.717	70.44
457.937	74.44
458.157	81.44
458.377	82.44
458.598	83.44
458.818	81.44
459.038	73.44
459.258	80.44
459.478	81.44
459.698	71.44
459.918	78.44
460.138	82.44
460.358	94.44
460.578	87.44
460.798	86.44
461.018	92.44
461.238	85.44
461.458	78.44
461.678	76.44
461.898	79.44
462.118	78.44
462.338	75.44
462.558	86.44
462.777	86.44
462.997	83.44
463.217	66.44
463.437	81.44
463.657	74.44
463.876	90.44
464.096	94.44
464.316	80.44
464.536	81.44
464.755	87.44
464.975	85.44
465.195	70.44
465.414	82.44
465.634	89.44
465.854	82.44
466.073	80.44
466.293	88.44
466.512	71.44
466.732	78.44
466.951	64.44
467.171	74.44
467.391	86.44
467.61	82.44
467.829	78.44
468.049	81.44
468.268	78.44
468.488	97.44
468.707	82.44
468.927	77.44
469.146	91.44
469.365	85.44
469.585	73.44
469.804	75.44
470.023	77.44
470.243	83.44
470.462	72.44
470.681	84.44
470.901	94.44
471.12	86.44
471.339	80.44
471.558	86.44
471.777	90.44
471.997	85.44
472.216	79.44
472.435	82.44
472.654	74.44
472.873	85.44
473.092	95.44
473.311	72.44
473.53	81.44
473.749	82.44
473.968	93.44
474.187	77.44
474.406	71.44
474.625	76.44
474.844	77.44
475.063	81.44
475.282	76.44
475.501	79.44
475.72	84.44
475.939	75.44
476.158	85.44
476.377	80.44
476.596	77.44
476.814	73.44
477.033	78.44
477.252	82.44
477.471	80.44
477.69	69.44
477.908	82.44
478.127	95.44
478.346	91.44
478.564	76.44
478.783	79.44
479.002	89.44
479.22	82.44
479.439	77.44
479.658	82.44
479.876	80.44
480.095	83.44
480.313	83.44
480.532	89.44
480.751	97.44
480.969	69.44
481.188	91.44
481.406	76.44
481.624	77.44
481.843	83.44
482.061	91.44
482.28	85.44
482.498	86.44
482.717	83.44
482.935	86.44
483.153	81.44
483.372	86.44
483.59	89.44
483.808	88.44
484.027	84.44
484.245	81.44
484.463	100.44
484.681	85.44
484.9	76.44
485.118	90.44
485.336	83.44
485.554	70.44
485.772	70.44
485.99	77.44
486.209	81.44
486.427	86.44
486.645	89.44
486.863	81.44
487.081	83.44
487.299	84.44
487.517	100.44
487.735	89.44
487.953	98.44
488.171	82.44
488.389	78.44
488.607	79.44
488.825	76.44
489.043	76.44
489.261	65.44
489.479	82.44
489.696	93.44
489.914	67.44
490.132	95.44
490.35	82.44
490.568	93.44
490.786	93.44
491.003	76.44
491.221	90.44
491.439	85.44
491.657	74.44
491.874	90.44
492.092	83.44
492.31	73.44
492.527	91.44
492.745	94.44
492.963	77.44
493.18	90.44
493.398	89.44
493.615	77.44
493.833	86.44
494.05	94.44
494.268	89.44
494.485	82.44
494.703	75.44
494.92	77.44
495.138	87.44
495.355	77.44
495.573	91.44
495.79	88.44
496.008	84.44
496.225	73.44
496.442	90.44
496.66	79.44
496.877	97.44
497.094	70.44
497.312	87.44
497.529	86.44
497.746	76.44
497.963	89.44
498.181	83.44
498.398	78.44
498.615	94.44
498.832	91.44
499.049	78.44
499.267	83.44
499.484	82.44
499.701	76.44
499.918	91.44
500.135	80.44
500.352	86.44
500.569	81.44
500.786	87.44
501.003	84.44
501.22	85.44
501.437	82.44
501.654	79.44
501.871	78.44
502.088	63.44
502.305	104.44
502.522	83.44
502.739	89.44
502.956	89.44
503.172	80.44
503.389	91.44
503.606	83.44
503.823	89.44
504.04	81.44
504.256	89.44
504.473	84.44
504.69	75.44
504.907	101.44
505.123	72.44
505.34	79.44
505.557	80.44
505.773	103.44
505.99	85.44
506.207	78.44
506.423	94.44
506.64	90.44
506.856	93.44
507.073	76.44
507.289	97.44
507.506	85.44
507.722	81.44
507.939	71.44
508.155	69.44
508.372	82.44
508.588	84.44
508.805	81.44
509.021	94.44
509.238	87.44
509.454	73.44
509.67	85.44
509.887	87.44
510.103	80.44
510.319	78.44
510.536	92.44
510.752	79.44
510.968	87.44
511.184	72.44
511.401	78.44
511.617	84.44
511.833	83.44
512.049	92.44
512.265	77.44
512.481	89.44
512.698	96.44
512.914	101.44
513.13	79.44
513.346	83.44
513.562	91.44
513.778	78.44
513.994	84.44
514.21	87.44
514.426	88.44
514.642	91.44
514.858	69.44
515.074	70.44
515.29	75.44
515.506	79.44
515.721	87.44
515.937	84.44
516.153	98.44
516.369	90.44
516.585	76.44
516.801	100.44
517.016	96.44
517.232	84.44
517.448	85.44
517.664	79.44
517.879	70.44
518.095	86.44
518.311	75.44
518.527	91.44
518.742	79.44
518.958	80.44
519.173	83.44
519.389	83.44
519.605	74.44
519.82	69.44
520.036	91.44
520.251	89.44
520.467	89.44
520.682	88.44
520.898	87.44
521.113	74.44
521.329	77.44
521.544	91.44
521.76	87.44
521.975	81.44
522.19	89.44
522.406	73.44
522.621	89.44
522.836	85.44
523.052	70.44
523.267	90.44
523.482	81.44
523.698	80.44
523.913	71.44
524.128	89.44
524.343	81.44
524.559	90.44
524.774	73.44
524.989	81.44
525.204	99.44
525.419	84.44
525.634	81.44
525.849	76.44
526.064	94.44
526.28	83.44
526.495	84.44
526.71	79.44
526.925	82.44
527.14	77.44
527.355	86.44
527.57	70.44
527.785	72.44
527.999	85.44
528.214	75.44
528.429	79.44
528.644	89.44
528.859	92.44
529.074	90.44
529.289	85.44
529.503	87.44
529.718	77.44
529.933	85.44
530.148	93.44
530.363	79.44
530.577	79.44
530.792	85.44
531.007	79.44
531.221	82.44
531.436	74.44
531.651	87.44
531.865	90.44
532.08	69.44
532.295	73.44
532.509	92.44
532.724	97.44
532.938	80.44
533.153	68.44
533.367	95.44
533.582	81.44
533.796	77.44
534.011	82.44
534.225	75.44
534.44	95.44
534.654	82.44
534.868	85.44
535.083	91.44
535.297	91.44
535.511	84.44
535.726	82.44
535.94	91.44
536.154	91.44
536.369	85.44
536.583	81.44
536.797	82.44
537.011	77.44
537.225	77.44
537.44	82.44
537.654	88.44
537.868	101.44
538.082	98.44
538.296	93.44
538.51	89.44
538.724	78.44
538.938	76.44
539.153	96.44
539.367	85.44
539.581	95.44
539.795	79.44
540.009	82.44
540.222	80.44
540.436	81.44
540.65	87.44
540.864	72.44
541.078	87.44
541.292	72.44
541.506	86.44
541.72	86.44
541.934	90.44
542.147	78.44
542.361	77.44
542.575	92.44
542.789	78.44
543.002	101.44
543.216	91.44
543.43	89.44
543.644	90.44
543.857	73.44
544.071	76.44
544.285	78.44
544.498	85.44
544.712	81.44
544.925	90.44
545.139	93.44
545.352	79.44
545.566	94.44
545.779	82.44
545.993	83.44
546.206	80.44
546.42	73.44
546.633	84.44
546.847	72.44
547.06	84.44
547.274	89.44
547.487	92.44
547.7	81.44
547.914	82.44
548.127	91.44
548.34	81.44
548.554	86.44
548.767	99.44
548.98	98.44
549.193	86.44
549.407	86.44
549.62	91.44
549.833	95.44
550.046	89.44
550.259	79.44
550.473	69.44
550.686	77.44
550.899	82.44
551.112	84.44
551.325	77.44
551.538	77.44
551.751	83.44
551.964	83.44
552.177	90.44
552.39	90.44
552.603	78.44
552.816	61.44
553.029	86.44
553.242	65.44
553.455	93.44
553.667	83.44
553.88	85.44
554.093	80.44
554.306	82.44
554.519	86.44
554.732	97.44
554.944	75.44
555.157	85.44
555.37	89.44
555.583	84.44
555.795	80.44
556.008	87.44
556.221	93.44
556.433	91.44
556.646	76.44
556.859	79.44
557.071	86.44
557.284	78.44
557.496	94.44
557.709	90.44
557.921	101.44
558.134	95.44
558.346	65.44
558.559	100.44
558.771	75.44
558.984	92.44
559.196	93.44
559.409	85.44
559.621	89.44
559.833	85.44
560.046	89.44
560.258	85.44
560.47	94.44
560.683	78.44
560.895	84.44
561.107	71.44
561.32	82.44
561.532	84.44
561.744	82.44
561.956	83.44
562.168	81.44
562.381	80.44
562.593	83.44
562.805	93.44
563.017	83.44
563.229	95.44
563.441	70.44
563.653	79.44
563.865	89.44
564.077	81.44
564.289	95.44
564.501	92.44
564.713	79.44
564.925	86.44
565.137	83.44
565.349	95.44
565.561	89.44
565.773	98.44
565.985	77.44
566.197	81.44
566.408	94.44
566.62	77.44
566.832	83.44
567.044	102.44
567.255	84.44
567.467	95.44
567.679	103.44
567.891	85.44
568.102	79.44
568.314	86.44
568.526	97.44
568.737	83.44
568.949	89.44
569.161	101.44
569.372	93.44
569.584	63.44
569.795	92.44
570.007	77.44
570.218	86.44
570.43	78.44
570.641	89.44
570.853	79.44
571.064	66.44
571.276	95.44
571.487	83.44
571.698	85.44
571.91	74.44
572.121	73.44
572.333	78.44
572.544	80.44
572.755	95.44
572.966	91.44
573.178	87.44
573.389	78.44
573.6	73.44
573.811	94.44
574.023	82.44
574.234	81.44
574.445	86.44
574.656	93.44
574.867	80.44
575.078	98.44
575.289	87.44
575.501	96.44
575.712	71.44
575.923	87.44
576.134	71.44
576.345	98.44
576.556	92.44
576.767	88.44
576.978	82.44
577.188	83.44
577.399	76.44
577.61	89.44
577.821	81.44
578.032	79.44
578.243	77.44
578.454	96.44
578.665	77.44
578.875	77.44
579.086	90.44
579.297	77.44
579.508	89.44
579.718	93.44
579.929	83.44
580.14	91.44
580.35	90.44
580.561	82.44
580.772	90.44
580.982	77.44
581.193	77.44
581.403	73.44
581.614	85.44
581.825	74.44
582.035	78.44
582.246	82.44
582.456	94.44
582.667	85.44
582.877	86.44
583.087	89.44
583.298	86.44
583.508	82.44
583.719	80.44
583.929	84.44
584.139	87.44
584.35	85.44
584.56	83.44
584.77	70.44
584.981	94.44
585.191	77.44
585.401	80.44
585.611	91.44
585.821	83.44
586.032	81.44
586.242	84.44
586.452	96.44
586.662	95.44
586.872	85.44
587.082	78.44
587.292	112.44
587.502	79.44
587.713	77.44
587.923	92.44
588.133	93.44
588.343	81.44
588.553	81.44
588.762	98.44
588.972	123.44
589.182	179.44
589.392	143.44
589.602	141.44
589.812	182.44
590.022	128.44
590.232	92.44
590.441	103.44
590.651	77.44
590.861	87.44
591.071	80.44
591.281	86.44
591.49	88.44
591.7	100.44
591.91	82.44
592.119	75.44
592.329	81.44
592.539	77.44
592.748	95.44
592.958	77.44
593.167	87.44
593.377	92.44
593.587	85.44
593.796	77.44
594.006	72.44
594.215	83.44
594.424	91.44
594.634	83.44
594.843	81.44
595.053	78.44
595.262	92.44
595.472	98.44
595.681	73.44
595.89	71.44
596.1	79.44
596.309	91.44
596.518	76.44
596.727	83.44
596.937	84.44
597.146	92.44
597.355	86.44
597.564	92.44
597.774	70.44
597.983	81.44
598.192	94.44
598.401	77.44
598.61	83.44
598.819	86.44
599.028	89.44
599.237	84.44
599.446	74.44
599.655	78.44
599.864	100.44
600.073	104.44
600.282	93.44
600.491	79.44
600.7	84.44
600.909	98.44
601.118	95.44
601.327	83.44
601.536	78.44
601.745	85.44
601.953	82.44
602.162	76.44
602.371	90.44
602.58	92.44
602.789	79.44
602.997	76.44
603.206	97.44
603.415	80.44
603.623	85.44
603.832	79.44
604.041	77.44
604.249	89.44
604.458	82.44
604.666	91.44
604.875	85.44
605.084	84.44
605.292	77.44
605.501	83.44
605.709	75.44
605.918	75.44
606.126	85.44
606.334	94.44
606.543	77.44
606.751	96.44
606.96	84.44
607.168	75.44
607.376	87.44
607.585	83.44
607.793	89.44
608.001	84.44
608.21	87.44
608.418	91.44
608.626	87.44
608.834	83.44
609.043	80.44
609.251	80.44
609.459	84.44
609.667	79.44
609.875	76.44
610.083	89.44
610.291	84.44
610.499	74.44
610.707	79.44
610.916	71.44
611.124	72.44
611.332	96.44
611.54	85.44
611.748	75.44
611.955	82.44
612.163	77.44
612.371	92.44
612.579	73.44
612.787	91.44
612.995	97.44
613.203	90.44
613.411	91.44
613.618	92.44
613.826	81.44
614.034	101.44
614.242	78.44
614.449	92.44
614.657	77.44
614.865	94.44
615.072	89.44
615.28	87.44
615.488	95.44
615.695	86.44
615.903	74.44
616.111	85.44
616.318	96.44
616.526	77.44
616.733	95.44
616.941	78.44
617.148	86.44
617.356	92.44
617.563	80.44
617.771	98.44
617.978	89.44
618.185	91.44
618.393	75.44
618.6	74.44
618.807	84.44
619.015	86.44
619.222	79.44
619.429	82.44
619.637	93.44
619.844	91.44
620.051	93.44
620.258	86.44
620.466	76.44
620.673	77.44
620.88	66.44
621.087	74.44
621.294	81.44
621.501	93.44
621.708	81.44
621.915	85.44
622.122	80.44
622.329	78.44
622.536	84.44
622.743	81.44
622.95	101.44
623.157	68.44
623.364	77.44
623.571	83.44
623.778	85.44
623.985	86.44
624.192	79.44
624.399	87.44
624.606	81.44
624.812	84.44
625.019	82.44
625.226	81.44
625.433	81.44
625.639	75.44
625.846	77.44
626.053	96.44
626.259	84.44
626.466	93.44
626.673	77.44
626.879	76.44
627.086	85.44
627.293	83.44
627.499	83.44
627.706	84.44
627.912	78.44
628.119	83.44
628.325	87.44
628.532	90.44
628.738	83.44
628.945	69.44
629.151	75.44
629.357	71.44
629.564	84.44
629.77	89.44
629.976	84.44
630.183	75.44
630.389	81.44
630.595	80.44
630.802	81.44
631.008	71.44
631.214	82.44
631.42	92.44
631.627	84.44
631.833	62.44
632.039	80.44
632.245	78.44
632.451	81.44
632.657	90.44
632.863	82.44
633.069	86.44
633.275	93.44
633.481	78.44
633.688	70.44
633.893	80.44
634.099	82.44
634.305	63.44
634.511	87.44
634.717	76.44
634.923	86.44
635.129	77.44
635.335	91.44
635.541	75.44
635.747	83.44
635.952	78.44
636.158	67.44
636.364	86.44
636.57	71.44
636.775	82.44
636.981	81.44
637.187	82.44
637.392	90.44
637.598	93.44
637.804	75.44
638.009	77.44
638.215	76.44
638.421	96.44
638.626	93.44
638.832	87.44
639.037	84.44
639.243	92.44
639.448	79.44
639.654	63.44
639.859	79.44
640.065	82.44
640.27	102.44
640.475	83.44
640.681	87.44
640.886	93.44
641.091	71.44
641.297	80.44
641.502	83.44
641.707	84.44
641.913	77.44
642.118	84.44
642.323	89.44
642.528	75.44
642.733	79.44
642.939	91.44
643.144	87.44
643.349	78.44
643.554	81.44
643.759	90.44
643.964	97.44
644.169	89.44
644.374	91.44
644.579	87.44
644.784	77.44
644.989	82.44
645.194	85.44
645.399	78.44
645.604	73.44
645.809	90.44
646.014	91.44
646.219	88.44
646.423	86.44
646.628	74.44
646.833	83.44
647.038	92.44
647.243	70.44
647.447	89.44
647.652	98.44
647.857	77.44
648.062	80.44
648.266	97.44
648.471	91.44
648.676	80.44
648.88	75.44
649.085	63.44
649.289	89.44
649.494	93.44
649.698	94.44
649.903	84.44
650.107	79.44
650.312	82.44
650.516	72.44
650.721	87.44
650.925	82.44
651.13	92.44
651.334	87.44
651.539	93.44
651.743	79.44
651.947	81.44
652.152	79.44
652.356	82.44
652.56	83.44
652.764	81.44
652.969	76.44
653.173	83.44
653.377	82.44
653.581	85.44
653.785	83.44
653.99	83.44
654.194	89.44
654.398	90.44
654.602	74.44
654.806	71.44
655.01	90.44
655.214	85.44
655.418	73.44
655.622	91.44
655.826	90.44
656.03	81.44
656.234	79.44
656.438	91.44
656.642	85.44
656.846	89.44
657.049	78.44
657.253	82.44
657.457	80.44
657.661	78.44
657.865	82.44
658.068	91.44
658.272	72.44
658.476	75.44
658.68	92.44
658.883	75.44
659.087	76.44
659.291	74.44
659.494	83.44
659.698	68.44
659.901	90.44
660.105	89.44
660.309	75.44
660.512	89.44
660.716	64.44
660.919	83.44
661.123	79.44
661.326	95.44
661.53	71.44
661.733	83.44
661.936	77.44
662.14	89.44
662.343	85.44
662.546	84.44
662.75	93.44
662.953	75.44
663.156	82.44
663.36	86.44
663.563	83.44
663.766	74.44
663.969	78.44
664.173	79.44
664.376	89.44
664.579	70.44
664.782	82.44
664.985	89.44
665.188	93.44
665.391	90.44
665.594	65.44
665.797	85.44
666	84.44
666.203	83.44
666.406	81.44
666.609	60.44
666.812	82.44
667.015	76.44
667.218	83.44
667.421	77.44
667.624	85.44
667.827	81.44
668.03	71.44
668.232	73.44
668.435	76.44
668.638	83.44
668.841	95.44
669.043	72.44
669.246	96.44
669.449	72.44
669.651	89.44
669.854	85.44
670.057	82.44
670.259	65.44
670.462	93.44
670.665	83.44
670.867	81.44
671.07	81.44
671.272	87.44
671.475	75.44
671.677	76.44
671.88	82.44
672.082	75.44
672.284	80.44
672.487	75.44
672.689	89.44
672.892	80.44
