Data from Dry_Prop_25_1_HRD10591_00016.txt Node
Date: Wed Dec 03 14:37:44 EST 2025
User: Yrep
Spectrometer: HR+D1059
Trigger mode: 1
Integration Time (sec): 1.000000E-1
Scans to average: 1
Electric dark correction enabled: true
Nonlinearity correction enabled: false
Boxcar width: 0
XAxis mode: Wavelengths
Number of Pixels in Spectrum: 2048
>>>>>Begin Spectral Data<<<<<
223.165	-22.38
223.4	-22.38
223.635	-22.38
223.869	-21.38
224.104	-20.38
224.338	-27.38
224.573	-16.38
224.808	-13.38
225.042	-18.38
225.277	-8.38
225.511	6.62
225.746	-0.38
225.98	11.62
226.215	14.62
226.449	18.62
226.683	26.62
226.918	35.62
227.152	34.62
227.387	37.62
227.621	48.62
227.856	50.62
228.09	34.62
228.324	45.62
228.559	51.62
228.793	62.62
229.027	63.62
229.262	62.62
229.496	68.62
229.73	81.62
229.964	89.62
230.199	67.62
230.433	85.62
230.667	71.62
230.901	71.62
231.136	76.62
231.37	79.62
231.604	83.62
231.838	71.62
232.072	82.62
232.306	81.62
232.541	83.62
232.775	81.62
233.009	74.62
233.243	79.62
233.477	79.62
233.711	80.62
233.945	81.62
234.179	84.62
234.413	84.62
234.647	92.62
234.881	91.62
235.115	78.62
235.349	93.62
235.583	82.62
235.817	77.62
236.051	76.62
236.285	66.62
236.519	89.62
236.753	87.62
236.987	70.62
237.221	71.62
237.455	83.62
237.689	73.62
237.922	94.62
238.156	71.62
238.39	78.62
238.624	66.62
238.858	72.62
239.091	63.62
239.325	74.62
239.559	81.62
239.793	78.62
240.027	73.62
240.26	87.62
240.494	87.62
240.728	71.62
240.961	74.62
241.195	68.62
241.429	86.62
241.662	82.62
241.896	73.62
242.13	62.62
242.363	77.62
242.597	77.62
242.83	72.62
243.064	66.62
243.298	78.62
243.531	65.62
243.765	68.62
243.998	87.62
244.232	76.62
244.465	67.62
244.699	65.62
244.932	85.62
245.166	85.62
245.399	81.62
245.633	90.62
245.866	86.62
246.099	91.62
246.333	93.62
246.566	67.62
246.8	78.62
247.033	78.62
247.266	67.62
247.5	66.62
247.733	78.62
247.966	74.62
248.2	76.62
248.433	81.62
248.666	83.62
248.899	95.62
249.133	100.62
249.366	69.62
249.599	74.62
249.832	98.62
250.066	76.62
250.299	81.62
250.532	68.62
250.765	70.62
250.998	84.62
251.231	83.62
251.465	73.62
251.698	69.62
251.931	67.62
252.164	68.62
252.397	76.62
252.63	84.62
252.863	78.62
253.096	84.62
253.329	61.62
253.562	82.62
253.795	85.62
254.028	87.62
254.261	79.62
254.494	74.62
254.727	69.62
254.96	87.62
255.193	81.62
255.426	85.62
255.659	86.62
255.892	82.62
256.124	81.62
256.357	77.62
256.59	71.62
256.823	65.62
257.056	73.62
257.289	79.62
257.521	83.62
257.754	83.62
257.987	79.62
258.22	101.62
258.452	79.62
258.685	75.62
258.918	81.62
259.151	83.62
259.383	70.62
259.616	85.62
259.849	75.62
260.081	89.62
260.314	77.62
260.547	84.62
260.779	69.62
261.012	91.62
261.244	75.62
261.477	73.62
261.71	64.62
261.942	89.62
262.175	92.62
262.407	77.62
262.64	94.62
262.872	90.62
263.105	79.62
263.337	93.62
263.57	79.62
263.802	69.62
264.035	79.62
264.267	67.62
264.499	83.62
264.732	82.62
264.964	82.62
265.197	69.62
265.429	67.62
265.661	72.62
265.894	75.62
266.126	87.62
266.358	94.62
266.591	98.62
266.823	92.62
267.055	85.62
267.287	90.62
267.52	101.62
267.752	80.62
267.984	91.62
268.216	64.62
268.448	86.62
268.681	105.62
268.913	83.62
269.145	79.62
269.377	74.62
269.609	79.62
269.841	82.62
270.073	80.62
270.306	67.62
270.538	74.62
270.77	74.62
271.002	74.62
271.234	87.62
271.466	77.62
271.698	98.62
271.93	77.62
272.162	81.62
272.394	74.62
272.626	81.62
272.858	73.62
273.09	85.62
273.322	79.62
273.553	75.62
273.785	76.62
274.017	79.62
274.249	91.62
274.481	82.62
274.713	87.62
274.945	86.62
275.176	91.62
275.408	70.62
275.64	81.62
275.872	78.62
276.104	80.62
276.335	82.62
276.567	80.62
276.799	71.62
277.031	79.62
277.262	82.62
277.494	80.62
277.726	82.62
277.957	89.62
278.189	68.62
278.421	88.62
278.652	75.62
278.884	85.62
279.115	93.62
279.347	92.62
279.579	90.62
279.81	93.62
280.042	91.62
280.273	82.62
280.505	91.62
280.736	91.62
280.968	80.62
281.199	79.62
281.431	100.62
281.662	62.62
281.894	83.62
282.125	76.62
282.356	78.62
282.588	71.62
282.819	78.62
283.051	73.62
283.282	93.62
283.513	87.62
283.745	82.62
283.976	77.62
284.207	76.62
284.439	83.62
284.67	77.62
284.901	85.62
285.132	77.62
285.364	73.62
285.595	86.62
285.826	69.62
286.057	70.62
286.288	78.62
286.52	79.62
286.751	82.62
286.982	79.62
287.213	74.62
287.444	89.62
287.675	96.62
287.906	91.62
288.138	77.62
288.369	77.62
288.6	76.62
288.831	73.62
289.062	87.62
289.293	84.62
289.524	68.62
289.755	87.62
289.986	81.62
290.217	85.62
290.448	83.62
290.679	96.62
290.91	93.62
291.141	76.62
291.371	77.62
291.602	89.62
291.833	87.62
292.064	82.62
292.295	81.62
292.526	84.62
292.757	77.62
292.987	83.62
293.218	77.62
293.449	100.62
293.68	95.62
293.91	93.62
294.141	92.62
294.372	80.62
294.603	82.62
294.833	93.62
295.064	74.62
295.295	74.62
295.525	94.62
295.756	79.62
295.987	86.62
296.217	87.62
296.448	80.62
296.679	81.62
296.909	98.62
297.14	82.62
297.37	78.62
297.601	78.62
297.831	86.62
298.062	88.62
298.292	73.62
298.523	95.62
298.753	80.62
298.984	67.62
299.214	75.62
299.445	71.62
299.675	98.62
299.905	96.62
300.136	77.62
300.366	71.62
300.597	80.62
300.827	91.62
301.057	89.62
301.288	92.62
301.518	76.62
301.748	75.62
301.979	93.62
302.209	91.62
302.439	94.62
302.669	86.62
302.9	76.62
303.13	93.62
303.36	84.62
303.59	83.62
303.82	87.62
304.051	78.62
304.281	79.62
304.511	93.62
304.741	77.62
304.971	65.62
305.201	99.62
305.431	83.62
305.661	93.62
305.891	86.62
306.121	92.62
306.352	74.62
306.582	83.62
306.812	86.62
307.042	89.62
307.272	90.62
307.502	91.62
307.731	81.62
307.961	82.62
308.191	86.62
308.421	99.62
308.651	85.62
308.881	73.62
309.111	71.62
309.341	95.62
309.571	93.62
309.8	88.62
310.03	95.62
310.26	89.62
310.49	69.62
310.72	93.62
310.949	89.62
311.179	85.62
311.409	76.62
311.639	81.62
311.868	80.62
312.098	86.62
312.328	89.62
312.557	82.62
312.787	90.62
313.017	83.62
313.246	69.62
313.476	85.62
313.706	86.62
313.935	77.62
314.165	98.62
314.394	93.62
314.624	70.62
314.853	73.62
315.083	87.62
315.312	87.62
315.542	78.62
315.771	91.62
316.001	84.62
316.23	79.62
316.46	79.62
316.689	86.62
316.919	96.62
317.148	89.62
317.377	90.62
317.607	98.62
317.836	86.62
318.065	80.62
318.295	80.62
318.524	91.62
318.753	93.62
318.983	77.62
319.212	77.62
319.441	79.62
319.67	67.62
319.9	77.62
320.129	82.62
320.358	82.62
320.587	87.62
320.816	79.62
321.046	73.62
321.275	96.62
321.504	89.62
321.733	83.62
321.962	97.62
322.191	89.62
322.42	88.62
322.649	84.62
322.878	81.62
323.108	76.62
323.337	86.62
323.566	74.62
323.795	83.62
324.024	99.62
324.253	79.62
324.482	82.62
324.71	86.62
324.939	80.62
325.168	76.62
325.397	79.62
325.626	94.62
325.855	75.62
326.084	87.62
326.313	94.62
326.542	78.62
326.77	79.62
326.999	86.62
327.228	65.62
327.457	89.62
327.686	84.62
327.914	82.62
328.143	94.62
328.372	72.62
328.6	85.62
328.829	81.62
329.058	69.62
329.287	95.62
329.515	90.62
329.744	89.62
329.972	81.62
330.201	84.62
330.43	85.62
330.658	92.62
330.887	78.62
331.115	79.62
331.344	88.62
331.572	82.62
331.801	83.62
332.03	87.62
332.258	74.62
332.486	90.62
332.715	87.62
332.943	79.62
333.172	76.62
333.4	90.62
333.629	110.62
333.857	78.62
334.085	81.62
334.314	79.62
334.542	87.62
334.771	81.62
334.999	89.62
335.227	75.62
335.455	81.62
335.684	74.62
335.912	95.62
336.14	89.62
336.369	86.62
336.597	84.62
336.825	82.62
337.053	77.62
337.281	87.62
337.51	75.62
337.738	87.62
337.966	81.62
338.194	70.62
338.422	82.62
338.65	82.62
338.878	84.62
339.106	84.62
339.334	80.62
339.562	79.62
339.79	93.62
340.018	75.62
340.246	87.62
340.474	80.62
340.702	68.62
340.93	97.62
341.158	89.62
341.386	92.62
341.614	90.62
341.842	71.62
342.07	83.62
342.298	87.62
342.526	67.62
342.754	83.62
342.981	80.62
343.209	74.62
343.437	95.62
343.665	73.62
343.893	86.62
344.12	78.62
344.348	90.62
344.576	75.62
344.804	79.62
345.031	82.62
345.259	81.62
345.487	89.62
345.714	91.62
345.942	91.62
346.17	85.62
346.397	85.62
346.625	77.62
346.853	68.62
347.08	75.62
347.308	77.62
347.535	97.62
347.763	90.62
347.99	93.62
348.218	105.62
348.445	84.62
348.673	80.62
348.9	86.62
349.128	91.62
349.355	79.62
349.583	90.62
349.81	93.62
350.037	83.62
350.265	85.62
350.492	76.62
350.72	77.62
350.947	78.62
351.174	80.62
351.402	86.62
351.629	83.62
351.856	82.62
352.083	87.62
352.311	93.62
352.538	90.62
352.765	75.62
352.992	86.62
353.22	89.62
353.447	61.62
353.674	67.62
353.901	105.62
354.128	75.62
354.355	82.62
354.583	66.62
354.81	80.62
355.037	67.62
355.264	82.62
355.491	86.62
355.718	66.62
355.945	93.62
356.172	91.62
356.399	80.62
356.626	85.62
356.853	80.62
357.08	78.62
357.307	84.62
357.534	83.62
357.761	77.62
357.988	85.62
358.215	83.62
358.441	89.62
358.668	81.62
358.895	71.62
359.122	78.62
359.349	80.62
359.576	90.62
359.802	75.62
360.029	97.62
360.256	77.62
360.483	73.62
360.709	64.62
360.936	80.62
361.163	97.62
361.39	93.62
361.616	97.62
361.843	83.62
362.07	88.62
362.296	86.62
362.523	79.62
362.749	83.62
362.976	79.62
363.203	96.62
363.429	101.62
363.656	86.62
363.882	82.62
364.109	76.62
364.335	84.62
364.562	82.62
364.788	83.62
365.015	91.62
365.241	79.62
365.468	87.62
365.694	90.62
365.92	81.62
366.147	71.62
366.373	89.62
366.599	85.62
366.826	75.62
367.052	83.62
367.278	82.62
367.505	77.62
367.731	86.62
367.957	93.62
368.184	105.62
368.41	86.62
368.636	70.62
368.862	78.62
369.089	66.62
369.315	64.62
369.541	83.62
369.767	83.62
369.993	85.62
370.219	82.62
370.445	91.62
370.672	81.62
370.898	77.62
371.124	93.62
371.35	85.62
371.576	91.62
371.802	67.62
372.028	81.62
372.254	95.62
372.48	68.62
372.706	70.62
372.932	76.62
373.158	80.62
373.384	97.62
373.61	73.62
373.835	82.62
374.061	73.62
374.287	76.62
374.513	78.62
374.739	74.62
374.965	82.62
375.191	93.62
375.416	89.62
375.642	74.62
375.868	81.62
376.094	79.62
376.319	73.62
376.545	82.62
376.771	77.62
376.997	80.62
377.222	82.62
377.448	83.62
377.674	89.62
377.899	87.62
378.125	75.62
378.35	76.62
378.576	84.62
378.802	77.62
379.027	66.62
379.253	96.62
379.478	77.62
379.704	75.62
379.929	99.62
380.155	86.62
380.38	77.62
380.606	65.62
380.831	72.62
381.057	93.62
381.282	77.62
381.507	76.62
381.733	86.62
381.958	79.62
382.184	78.62
382.409	84.62
382.634	90.62
382.86	85.62
383.085	81.62
383.31	91.62
383.535	89.62
383.761	79.62
383.986	89.62
384.211	78.62
384.436	70.62
384.662	71.62
384.887	76.62
385.112	85.62
385.337	82.62
385.562	68.62
385.787	84.62
386.013	76.62
386.238	82.62
386.463	82.62
386.688	86.62
386.913	75.62
387.138	89.62
387.363	79.62
387.588	101.62
387.813	82.62
388.038	94.62
388.263	91.62
388.488	77.62
388.713	79.62
388.938	73.62
389.163	92.62
389.387	94.62
389.612	90.62
389.837	83.62
390.062	85.62
390.287	74.62
390.512	93.62
390.736	83.62
390.961	83.62
391.186	92.62
391.411	73.62
391.636	76.62
391.86	83.62
392.085	79.62
392.31	80.62
392.534	71.62
392.759	79.62
392.984	87.62
393.208	95.62
393.433	67.62
393.658	79.62
393.882	86.62
394.107	82.62
394.331	90.62
394.556	74.62
394.78	74.62
395.005	81.62
395.229	75.62
395.454	85.62
395.678	93.62
395.903	76.62
396.127	90.62
396.352	78.62
396.576	83.62
396.801	74.62
397.025	81.62
397.249	72.62
397.474	80.62
397.698	70.62
397.922	80.62
398.147	78.62
398.371	78.62
398.595	94.62
398.82	84.62
399.044	80.62
399.268	69.62
399.492	81.62
399.717	78.62
399.941	84.62
400.165	77.62
400.389	94.62
400.613	90.62
400.837	91.62
401.062	92.62
401.286	76.62
401.51	77.62
401.734	96.62
401.958	75.62
402.182	89.62
402.406	75.62
402.63	66.62
402.854	73.62
403.078	77.62
403.302	90.62
403.526	82.62
403.75	85.62
403.974	76.62
404.198	85.62
404.422	76.62
404.645	84.62
404.869	89.62
405.093	81.62
405.317	85.62
405.541	83.62
405.765	80.62
405.988	84.62
406.212	66.62
406.436	76.62
406.66	71.62
406.883	81.62
407.107	79.62
407.331	83.62
407.555	87.62
407.778	73.62
408.002	67.62
408.226	81.62
408.449	62.62
408.673	72.62
408.896	76.62
409.12	85.62
409.344	88.62
409.567	86.62
409.791	75.62
410.014	75.62
410.238	61.62
410.461	81.62
410.685	101.62
410.908	70.62
411.132	91.62
411.355	90.62
411.578	81.62
411.802	71.62
412.025	85.62
412.249	75.62
412.472	86.62
412.695	73.62
412.919	91.62
413.142	65.62
413.365	65.62
413.589	74.62
413.812	77.62
414.035	86.62
414.258	82.62
414.482	89.62
414.705	81.62
414.928	78.62
415.151	78.62
415.374	74.62
415.597	84.62
415.821	80.62
416.044	73.62
416.267	63.62
416.49	84.62
416.713	69.62
416.936	77.62
417.159	85.62
417.382	92.62
417.605	67.62
417.828	93.62
418.051	76.62
418.274	65.62
418.497	86.62
418.72	71.62
418.943	75.62
419.166	79.62
419.389	81.62
419.611	81.62
419.834	86.62
420.057	86.62
420.28	75.62
420.503	92.62
420.726	74.62
420.948	81.62
421.171	80.62
421.394	83.62
421.617	77.62
421.839	90.62
422.062	79.62
422.285	75.62
422.507	86.62
422.73	85.62
422.953	83.62
423.175	82.62
423.398	91.62
423.621	77.62
423.843	70.62
424.066	80.62
424.288	73.62
424.511	74.62
424.733	74.62
424.956	83.62
425.178	74.62
425.401	95.62
425.623	76.62
425.846	83.62
426.068	78.62
426.291	77.62
426.513	78.62
426.735	76.62
426.958	78.62
427.18	79.62
427.402	89.62
427.625	78.62
427.847	67.62
428.069	73.62
428.292	69.62
428.514	77.62
428.736	85.62
428.958	86.62
429.181	95.62
429.403	96.62
429.625	91.62
429.847	89.62
430.069	89.62
430.292	76.62
430.514	74.62
430.736	75.62
430.958	87.62
431.18	89.62
431.402	93.62
431.624	83.62
431.846	75.62
432.068	90.62
432.29	84.62
432.512	77.62
432.734	87.62
432.956	88.62
433.178	87.62
433.4	84.62
433.622	79.62
433.844	82.62
434.066	83.62
434.287	78.62
434.509	87.62
434.731	79.62
434.953	91.62
435.175	81.62
435.397	79.62
435.618	84.62
435.84	69.62
436.062	78.62
436.284	81.62
436.505	78.62
436.727	76.62
436.949	89.62
437.17	87.62
437.392	72.62
437.614	82.62
437.835	90.62
438.057	73.62
438.278	70.62
438.5	89.62
438.721	76.62
438.943	100.62
439.165	79.62
439.386	74.62
439.608	81.62
439.829	83.62
440.05	78.62
440.272	90.62
440.493	84.62
440.715	68.62
440.936	82.62
441.158	91.62
441.379	85.62
441.6	80.62
441.822	74.62
442.043	84.62
442.264	79.62
442.486	83.62
442.707	80.62
442.928	92.62
443.149	75.62
443.371	83.62
443.592	63.62
443.813	82.62
444.034	87.62
444.255	87.62
444.476	85.62
444.698	64.62
444.919	79.62
445.14	141.62
445.361	99.62
445.582	65.62
445.803	76.62
446.024	72.62
446.245	77.62
446.466	73.62
446.687	71.62
446.908	84.62
447.129	68.62
447.35	59.62
447.571	87.62
447.792	89.62
448.013	83.62
448.234	81.62
448.455	71.62
448.675	69.62
448.896	78.62
449.117	79.62
449.338	75.62
449.559	74.62
449.779	87.62
450	84.62
450.221	86.62
450.442	86.62
450.662	79.62
450.883	99.62
451.104	85.62
451.324	71.62
451.545	95.62
451.766	82.62
451.986	84.62
452.207	77.62
452.428	86.62
452.648	78.62
452.869	83.62
453.089	99.62
453.31	81.62
453.53	69.62
453.751	75.62
453.971	84.62
454.192	77.62
454.412	74.62
454.633	66.62
454.853	81.62
455.073	72.62
455.294	73.62
455.514	83.62
455.734	78.62
455.955	79.62
456.175	90.62
456.395	66.62
456.616	80.62
456.836	82.62
457.056	86.62
457.276	86.62
457.497	67.62
457.717	98.62
457.937	89.62
458.157	78.62
458.377	84.62
458.598	79.62
458.818	81.62
459.038	98.62
459.258	74.62
459.478	73.62
459.698	78.62
459.918	74.62
460.138	89.62
460.358	95.62
460.578	82.62
460.798	86.62
461.018	77.62
461.238	77.62
461.458	74.62
461.678	97.62
461.898	72.62
462.118	85.62
462.338	82.62
462.558	72.62
462.777	82.62
462.997	64.62
463.217	71.62
463.437	74.62
463.657	73.62
463.876	70.62
464.096	76.62
464.316	76.62
464.536	73.62
464.755	86.62
464.975	67.62
465.195	77.62
465.414	70.62
465.634	89.62
465.854	77.62
466.073	77.62
466.293	101.62
466.512	84.62
466.732	76.62
466.951	82.62
467.171	85.62
467.391	96.62
467.61	76.62
467.829	89.62
468.049	79.62
468.268	74.62
468.488	79.62
468.707	85.62
468.927	85.62
469.146	67.62
469.365	93.62
469.585	69.62
469.804	77.62
470.023	79.62
470.243	92.62
470.462	73.62
470.681	79.62
470.901	82.62
471.12	82.62
471.339	86.62
471.558	67.62
471.777	79.62
471.997	82.62
472.216	85.62
472.435	64.62
472.654	70.62
472.873	86.62
473.092	81.62
473.311	79.62
473.53	71.62
473.749	71.62
473.968	85.62
474.187	88.62
474.406	80.62
474.625	80.62
474.844	92.62
475.063	92.62
475.282	71.62
475.501	95.62
475.72	85.62
475.939	94.62
476.158	89.62
476.377	81.62
476.596	71.62
476.814	65.62
477.033	80.62
477.252	97.62
477.471	79.62
477.69	89.62
477.908	81.62
478.127	95.62
478.346	79.62
478.564	86.62
478.783	96.62
479.002	74.62
479.22	81.62
479.439	80.62
479.658	85.62
479.876	85.62
480.095	74.62
480.313	77.62
480.532	78.62
480.751	73.62
480.969	73.62
481.188	83.62
481.406	89.62
481.624	93.62
481.843	74.62
482.061	83.62
482.28	80.62
482.498	81.62
482.717	86.62
482.935	89.62
483.153	69.62
483.372	89.62
483.59	87.62
483.808	96.62
484.027	81.62
484.245	72.62
484.463	96.62
484.681	82.62
484.9	95.62
485.118	91.62
485.336	80.62
485.554	91.62
485.772	66.62
485.99	94.62
486.209	70.62
486.427	78.62
486.645	85.62
486.863	85.62
487.081	78.62
487.299	87.62
487.517	94.62
487.735	86.62
487.953	89.62
488.171	89.62
488.389	76.62
488.607	76.62
488.825	70.62
489.043	86.62
489.261	83.62
489.479	85.62
489.696	77.62
489.914	74.62
490.132	89.62
490.35	69.62
490.568	86.62
490.786	103.62
491.003	91.62
491.221	79.62
491.439	83.62
491.657	78.62
491.874	80.62
492.092	82.62
492.31	82.62
492.527	72.62
492.745	93.62
492.963	76.62
493.18	89.62
493.398	84.62
493.615	83.62
493.833	59.62
494.05	69.62
494.268	91.62
494.485	100.62
494.703	69.62
494.92	91.62
495.138	81.62
495.355	89.62
495.573	76.62
495.79	70.62
496.008	77.62
496.225	82.62
496.442	80.62
496.66	82.62
496.877	95.62
497.094	80.62
497.312	80.62
497.529	84.62
497.746	89.62
497.963	82.62
498.181	66.62
498.398	93.62
498.615	77.62
498.832	80.62
499.049	75.62
499.267	78.62
499.484	93.62
499.701	79.62
499.918	82.62
500.135	73.62
500.352	82.62
500.569	68.62
500.786	92.62
501.003	87.62
501.22	85.62
501.437	92.62
501.654	98.62
501.871	82.62
502.088	75.62
502.305	87.62
502.522	92.62
502.739	92.62
502.956	90.62
503.172	86.62
503.389	84.62
503.606	78.62
503.823	91.62
504.04	78.62
504.256	99.62
504.473	82.62
504.69	77.62
504.907	71.62
505.123	84.62
505.34	75.62
505.557	89.62
505.773	82.62
505.99	85.62
506.207	75.62
506.423	83.62
506.64	83.62
506.856	84.62
507.073	85.62
507.289	74.62
507.506	84.62
507.722	86.62
507.939	76.62
508.155	89.62
508.372	83.62
508.588	86.62
508.805	92.62
509.021	85.62
509.238	80.62
509.454	77.62
509.67	85.62
509.887	72.62
510.103	89.62
510.319	79.62
510.536	89.62
510.752	82.62
510.968	80.62
511.184	84.62
511.401	78.62
511.617	74.62
511.833	80.62
512.049	77.62
512.265	80.62
512.481	88.62
512.698	87.62
512.914	89.62
513.13	87.62
513.346	86.62
513.562	78.62
513.778	70.62
513.994	75.62
514.21	86.62
514.426	72.62
514.642	83.62
514.858	68.62
515.074	90.62
515.29	98.62
515.506	84.62
515.721	95.62
515.937	98.62
516.153	81.62
516.369	76.62
516.585	91.62
516.801	86.62
517.016	92.62
517.232	85.62
517.448	86.62
517.664	86.62
517.879	86.62
518.095	79.62
518.311	82.62
518.527	84.62
518.742	81.62
518.958	93.62
519.173	94.62
519.389	83.62
519.605	94.62
519.82	82.62
520.036	89.62
520.251	91.62
520.467	79.62
520.682	79.62
520.898	74.62
521.113	85.62
521.329	81.62
521.544	78.62
521.76	78.62
521.975	71.62
522.19	83.62
522.406	76.62
522.621	82.62
522.836	90.62
523.052	83.62
523.267	79.62
523.482	80.62
523.698	76.62
523.913	74.62
524.128	80.62
524.343	67.62
524.559	86.62
524.774	68.62
524.989	80.62
525.204	78.62
525.419	73.62
525.634	75.62
525.849	90.62
526.064	86.62
526.28	67.62
526.495	82.62
526.71	83.62
526.925	84.62
527.14	81.62
527.355	69.62
527.57	92.62
527.785	74.62
527.999	75.62
528.214	93.62
528.429	80.62
528.644	98.62
528.859	77.62
529.074	91.62
529.289	86.62
529.503	77.62
529.718	73.62
529.933	84.62
530.148	67.62
530.363	78.62
530.577	101.62
530.792	91.62
531.007	77.62
531.221	92.62
531.436	93.62
531.651	91.62
531.865	74.62
532.08	85.62
532.295	99.62
532.509	82.62
532.724	97.62
532.938	86.62
533.153	75.62
533.367	91.62
533.582	86.62
533.796	86.62
534.011	77.62
534.225	81.62
534.44	90.62
534.654	80.62
534.868	105.62
535.083	94.62
535.297	91.62
535.511	95.62
535.726	82.62
535.94	80.62
536.154	70.62
536.369	83.62
536.583	84.62
536.797	84.62
537.011	91.62
537.225	85.62
537.44	83.62
537.654	73.62
537.868	75.62
538.082	87.62
538.296	81.62
538.51	84.62
538.724	83.62
538.938	68.62
539.153	66.62
539.367	80.62
539.581	77.62
539.795	86.62
540.009	86.62
540.222	78.62
540.436	82.62
540.65	82.62
540.864	89.62
541.078	78.62
541.292	83.62
541.506	73.62
541.72	92.62
541.934	89.62
542.147	85.62
542.361	87.62
542.575	69.62
542.789	84.62
543.002	79.62
543.216	94.62
543.43	93.62
543.644	102.62
543.857	85.62
544.071	76.62
544.285	82.62
544.498	91.62
544.712	87.62
544.925	89.62
545.139	95.62
545.352	92.62
545.566	77.62
545.779	85.62
545.993	99.62
546.206	91.62
546.42	81.62
546.633	97.62
546.847	105.62
547.06	82.62
547.274	79.62
547.487	89.62
547.7	93.62
547.914	90.62
548.127	89.62
548.34	92.62
548.554	80.62
548.767	99.62
548.98	87.62
549.193	89.62
549.407	71.62
549.62	84.62
549.833	79.62
550.046	78.62
550.259	86.62
550.473	71.62
550.686	95.62
550.899	86.62
551.112	67.62
551.325	73.62
551.538	93.62
551.751	95.62
551.964	97.62
552.177	86.62
552.39	89.62
552.603	65.62
552.816	71.62
553.029	91.62
553.242	77.62
553.455	89.62
553.667	89.62
553.88	74.62
554.093	75.62
554.306	90.62
554.519	85.62
554.732	92.62
554.944	83.62
555.157	88.62
555.37	74.62
555.583	105.62
555.795	87.62
556.008	95.62
556.221	82.62
556.433	84.62
556.646	85.62
556.859	93.62
557.071	90.62
557.284	82.62
557.496	77.62
557.709	85.62
557.921	82.62
558.134	67.62
558.346	69.62
558.559	93.62
558.771	76.62
558.984	86.62
559.196	96.62
559.409	96.62
559.621	93.62
559.833	73.62
560.046	79.62
560.258	98.62
560.47	86.62
560.683	78.62
560.895	81.62
561.107	82.62
561.32	95.62
561.532	96.62
561.744	80.62
561.956	94.62
562.168	81.62
562.381	86.62
562.593	86.62
562.805	90.62
563.017	84.62
563.229	91.62
563.441	89.62
563.653	84.62
563.865	77.62
564.077	83.62
564.289	86.62
564.501	103.62
564.713	92.62
564.925	77.62
565.137	89.62
565.349	85.62
565.561	91.62
565.773	86.62
565.985	83.62
566.197	80.62
566.408	86.62
566.62	84.62
566.832	93.62
567.044	90.62
567.255	86.62
567.467	77.62
567.679	81.62
567.891	89.62
568.102	79.62
568.314	80.62
568.526	92.62
568.737	103.62
568.949	85.62
569.161	86.62
569.372	69.62
569.584	73.62
569.795	90.62
570.007	98.62
570.218	97.62
570.43	97.62
570.641	85.62
570.853	76.62
571.064	90.62
571.276	71.62
571.487	77.62
571.698	87.62
571.91	76.62
572.121	76.62
572.333	92.62
572.544	97.62
572.755	87.62
572.966	79.62
573.178	71.62
573.389	97.62
573.6	72.62
573.811	80.62
574.023	94.62
574.234	94.62
574.445	78.62
574.656	93.62
574.867	89.62
575.078	75.62
575.289	78.62
575.501	90.62
575.712	89.62
575.923	78.62
576.134	99.62
576.345	69.62
576.556	90.62
576.767	93.62
576.978	80.62
577.188	79.62
577.399	81.62
577.61	77.62
577.821	72.62
578.032	102.62
578.243	94.62
578.454	78.62
578.665	95.62
578.875	84.62
579.086	69.62
579.297	78.62
579.508	86.62
579.718	90.62
579.929	98.62
580.14	79.62
580.35	83.62
580.561	96.62
580.772	93.62
580.982	81.62
581.193	91.62
581.403	99.62
581.614	85.62
581.825	89.62
582.035	78.62
582.246	65.62
582.456	84.62
582.667	79.62
582.877	73.62
583.087	80.62
583.298	82.62
583.508	83.62
583.719	69.62
583.929	84.62
584.139	90.62
584.35	91.62
584.56	91.62
584.77	80.62
584.981	85.62
585.191	80.62
585.401	94.62
585.611	76.62
585.821	76.62
586.032	66.62
586.242	86.62
586.452	89.62
586.662	77.62
586.872	85.62
587.082	84.62
587.292	85.62
587.502	91.62
587.713	92.62
587.923	99.62
588.133	94.62
588.343	93.62
588.553	85.62
588.762	101.62
588.972	132.62
589.182	193.62
589.392	157.62
589.602	145.62
589.812	177.62
590.022	121.62
590.232	103.62
590.441	78.62
590.651	94.62
590.861	82.62
591.071	81.62
591.281	82.62
591.49	78.62
591.7	82.62
591.91	85.62
592.119	83.62
592.329	85.62
592.539	79.62
592.748	85.62
592.958	86.62
593.167	93.62
593.377	81.62
593.587	86.62
593.796	91.62
594.006	81.62
594.215	82.62
594.424	81.62
594.634	95.62
594.843	97.62
595.053	92.62
595.262	99.62
595.472	91.62
595.681	63.62
595.89	74.62
596.1	87.62
596.309	77.62
596.518	89.62
596.727	83.62
596.937	83.62
597.146	91.62
597.355	77.62
597.564	91.62
597.774	84.62
597.983	99.62
598.192	93.62
598.401	79.62
598.61	74.62
598.819	89.62
599.028	93.62
599.237	78.62
599.446	82.62
599.655	77.62
599.864	93.62
600.073	74.62
600.282	84.62
600.491	86.62
600.7	85.62
600.909	74.62
601.118	83.62
601.327	78.62
601.536	97.62
601.745	83.62
601.953	84.62
602.162	101.62
602.371	92.62
602.58	88.62
602.789	95.62
602.997	82.62
603.206	82.62
603.415	83.62
603.623	80.62
603.832	76.62
604.041	96.62
604.249	93.62
604.458	86.62
604.666	89.62
604.875	86.62
605.084	91.62
605.292	99.62
605.501	75.62
605.709	81.62
605.918	84.62
606.126	84.62
606.334	70.62
606.543	81.62
606.751	81.62
606.96	85.62
607.168	83.62
607.376	92.62
607.585	89.62
607.793	100.62
608.001	80.62
608.21	89.62
608.418	72.62
608.626	83.62
608.834	91.62
609.043	84.62
609.251	83.62
609.459	76.62
609.667	87.62
609.875	99.62
610.083	94.62
610.291	85.62
610.499	77.62
610.707	90.62
610.916	108.62
611.124	89.62
611.332	83.62
611.54	82.62
611.748	71.62
611.955	90.62
612.163	82.62
612.371	93.62
612.579	95.62
612.787	90.62
612.995	87.62
613.203	78.62
613.411	98.62
613.618	93.62
613.826	72.62
614.034	80.62
614.242	70.62
614.449	92.62
614.657	89.62
614.865	85.62
615.072	103.62
615.28	76.62
615.488	74.62
615.695	87.62
615.903	76.62
616.111	71.62
616.318	91.62
616.526	77.62
616.733	97.62
616.941	93.62
617.148	83.62
617.356	80.62
617.563	83.62
617.771	79.62
617.978	85.62
618.185	91.62
618.393	76.62
618.6	99.62
618.807	89.62
619.015	80.62
619.222	78.62
619.429	88.62
619.637	73.62
619.844	95.62
620.051	77.62
620.258	101.62
620.466	93.62
620.673	100.62
620.88	80.62
621.087	87.62
621.294	94.62
621.501	91.62
621.708	93.62
621.915	85.62
622.122	95.62
622.329	69.62
622.536	86.62
622.743	71.62
622.95	82.62
623.157	76.62
623.364	91.62
623.571	101.62
623.778	76.62
623.985	91.62
624.192	86.62
624.399	70.62
624.606	93.62
624.812	91.62
625.019	80.62
625.226	89.62
625.433	82.62
625.639	86.62
625.846	77.62
626.053	76.62
626.259	71.62
626.466	73.62
626.673	89.62
626.879	76.62
627.086	85.62
627.293	93.62
627.499	90.62
627.706	93.62
627.912	105.62
628.119	92.62
628.325	82.62
628.532	89.62
628.738	84.62
628.945	91.62
629.151	80.62
629.357	91.62
629.564	73.62
629.77	88.62
629.976	103.62
630.183	86.62
630.389	88.62
630.595	84.62
630.802	95.62
631.008	77.62
631.214	94.62
631.42	82.62
631.627	81.62
631.833	85.62
632.039	76.62
632.245	93.62
632.451	89.62
632.657	102.62
632.863	76.62
633.069	93.62
633.275	107.62
633.481	91.62
633.688	84.62
633.893	83.62
634.099	82.62
634.305	70.62
634.511	83.62
634.717	93.62
634.923	100.62
635.129	73.62
635.335	81.62
635.541	98.62
635.747	86.62
635.952	89.62
636.158	79.62
636.364	83.62
636.57	87.62
636.775	83.62
636.981	89.62
637.187	77.62
637.392	91.62
637.598	95.62
637.804	74.62
638.009	86.62
638.215	82.62
638.421	77.62
638.626	71.62
638.832	92.62
639.037	95.62
639.243	93.62
639.448	79.62
639.654	78.62
639.859	90.62
640.065	91.62
640.27	99.62
640.475	89.62
640.681	78.62
640.886	70.62
641.091	87.62
641.297	95.62
641.502	87.62
641.707	68.62
641.913	79.62
642.118	80.62
642.323	73.62
642.528	80.62
642.733	89.62
642.939	84.62
643.144	77.62
643.349	90.62
643.554	98.62
643.759	86.62
643.964	81.62
644.169	79.62
644.374	90.62
644.579	89.62
644.784	88.62
644.989	105.62
645.194	78.62
645.399	88.62
645.604	84.62
645.809	79.62
646.014	87.62
646.219	78.62
646.423	76.62
646.628	82.62
646.833	100.62
647.038	77.62
647.243	92.62
647.447	95.62
647.652	74.62
647.857	75.62
648.062	80.62
648.266	73.62
648.471	79.62
648.676	75.62
648.88	84.62
649.085	87.62
649.289	83.62
649.494	84.62
649.698	93.62
649.903	80.62
650.107	83.62
650.312	84.62
650.516	87.62
650.721	74.62
650.925	89.62
651.13	85.62
651.334	78.62
651.539	63.62
651.743	84.62
651.947	85.62
652.152	68.62
652.356	79.62
652.56	91.62
652.764	76.62
652.969	83.62
653.173	83.62
653.377	79.62
653.581	84.62
653.785	87.62
653.99	68.62
654.194	68.62
654.398	87.62
654.602	78.62
654.806	90.62
655.01	87.62
655.214	85.62
655.418	87.62
655.622	87.62
655.826	72.62
656.03	87.62
656.234	93.62
656.438	82.62
656.642	80.62
656.846	78.62
657.049	86.62
657.253	77.62
657.457	78.62
657.661	86.62
657.865	89.62
658.068	78.62
658.272	95.62
658.476	91.62
658.68	82.62
658.883	86.62
659.087	82.62
659.291	71.62
659.494	83.62
659.698	90.62
659.901	98.62
660.105	78.62
660.309	77.62
660.512	84.62
660.716	97.62
660.919	73.62
661.123	82.62
661.326	78.62
661.53	79.62
661.733	75.62
661.936	93.62
662.14	80.62
662.343	75.62
662.546	60.62
662.75	87.62
662.953	76.62
663.156	84.62
663.36	70.62
663.563	79.62
663.766	77.62
663.969	73.62
664.173	82.62
664.376	70.62
664.579	89.62
664.782	92.62
664.985	86.62
665.188	78.62
665.391	79.62
665.594	92.62
665.797	79.62
666	83.62
666.203	80.62
666.406	68.62
666.609	79.62
666.812	65.62
667.015	89.62
667.218	76.62
667.421	93.62
667.624	85.62
667.827	67.62
668.03	83.62
668.232	80.62
668.435	70.62
668.638	71.62
668.841	89.62
669.043	93.62
669.246	77.62
669.449	67.62
669.651	89.62
669.854	73.62
670.057	79.62
670.259	84.62
670.462	85.62
670.665	69.62
670.867	85.62
671.07	97.62
671.272	77.62
671.475	86.62
671.677	77.62
671.88	92.62
672.082	82.62
672.284	63.62
672.487	76.62
672.689	82.62
672.892	77.62
