Data from 10100_1_HRD10591_00041.txt Node
Date: Mon Jan 19 14:00:45 EST 2026
User: Yrep
Spectrometer: HR+D1059
Trigger mode: 1
Integration Time (sec): 1.000000E-1
Scans to average: 1
Electric dark correction enabled: true
Nonlinearity correction enabled: false
Boxcar width: 0
XAxis mode: Wavelengths
Number of Pixels in Spectrum: 2048
>>>>>Begin Spectral Data<<<<<
223.165	-19.19
223.4	-19.19
223.635	-19.19
223.869	-21.19
224.104	-32.19
224.338	-11.19
224.573	-25.19
224.808	0.81
225.042	-13.19
225.277	-5.19
225.511	3.81
225.746	1.81
225.98	13.81
226.215	13.81
226.449	17.81
226.683	21.81
226.918	26.81
227.152	26.81
227.387	27.81
227.621	29.81
227.856	44.81
228.09	44.81
228.324	42.81
228.559	53.81
228.793	64.81
229.027	57.81
229.262	63.81
229.496	54.81
229.73	70.81
229.964	77.81
230.199	69.81
230.433	70.81
230.667	90.81
230.901	87.81
231.136	79.81
231.37	71.81
231.604	70.81
231.838	81.81
232.072	90.81
232.306	85.81
232.541	73.81
232.775	62.81
233.009	59.81
233.243	70.81
233.477	75.81
233.711	75.81
233.945	70.81
234.179	67.81
234.413	78.81
234.647	79.81
234.881	74.81
235.115	77.81
235.349	68.81
235.583	67.81
235.817	71.81
236.051	73.81
236.285	70.81
236.519	76.81
236.753	77.81
236.987	81.81
237.221	66.81
237.455	68.81
237.689	55.81
237.922	82.81
238.156	73.81
238.39	66.81
238.624	60.81
238.858	63.81
239.091	53.81
239.325	65.81
239.559	69.81
239.793	66.81
240.027	68.81
240.26	69.81
240.494	69.81
240.728	55.81
240.961	77.81
241.195	61.81
241.429	64.81
241.662	68.81
241.896	75.81
242.13	75.81
242.363	62.81
242.597	77.81
242.83	85.81
243.064	54.81
243.298	72.81
243.531	59.81
243.765	62.81
243.998	77.81
244.232	85.81
244.465	62.81
244.699	84.81
244.932	80.81
245.166	70.81
245.399	68.81
245.633	85.81
245.866	59.81
246.099	77.81
246.333	76.81
246.566	78.81
246.8	83.81
247.033	61.81
247.266	74.81
247.5	77.81
247.733	61.81
247.966	74.81
248.2	65.81
248.433	79.81
248.666	65.81
248.899	57.81
249.133	71.81
249.366	79.81
249.599	54.81
249.832	74.81
250.066	76.81
250.299	78.81
250.532	71.81
250.765	68.81
250.998	68.81
251.231	74.81
251.465	83.81
251.698	73.81
251.931	72.81
252.164	58.81
252.397	81.81
252.63	81.81
252.863	62.81
253.096	69.81
253.329	75.81
253.562	72.81
253.795	71.81
254.028	77.81
254.261	77.81
254.494	81.81
254.727	68.81
254.96	90.81
255.193	77.81
255.426	77.81
255.659	82.81
255.892	71.81
256.124	81.81
256.357	75.81
256.59	77.81
256.823	89.81
257.056	82.81
257.289	82.81
257.521	72.81
257.754	77.81
257.987	79.81
258.22	80.81
258.452	77.81
258.685	81.81
258.918	75.81
259.151	79.81
259.383	82.81
259.616	67.81
259.849	76.81
260.081	81.81
260.314	78.81
260.547	71.81
260.779	87.81
261.012	79.81
261.244	82.81
261.477	86.81
261.71	77.81
261.942	80.81
262.175	70.81
262.407	77.81
262.64	69.81
262.872	73.81
263.105	75.81
263.337	82.81
263.57	70.81
263.802	89.81
264.035	85.81
264.267	67.81
264.499	76.81
264.732	77.81
264.964	82.81
265.197	78.81
265.429	78.81
265.661	78.81
265.894	85.81
266.126	76.81
266.358	76.81
266.591	80.81
266.823	64.81
267.055	60.81
267.287	77.81
267.52	78.81
267.752	65.81
267.984	82.81
268.216	70.81
268.448	86.81
268.681	79.81
268.913	86.81
269.145	81.81
269.377	90.81
269.609	85.81
269.841	89.81
270.073	80.81
270.306	78.81
270.538	81.81
270.77	80.81
271.002	78.81
271.234	84.81
271.466	70.81
271.698	61.81
271.93	77.81
272.162	68.81
272.394	78.81
272.626	69.81
272.858	83.81
273.09	81.81
273.322	95.81
273.553	78.81
273.785	78.81
274.017	86.81
274.249	88.81
274.481	80.81
274.713	77.81
274.945	72.81
275.176	64.81
275.408	69.81
275.64	80.81
275.872	95.81
276.104	81.81
276.335	83.81
276.567	78.81
276.799	74.81
277.031	65.81
277.262	59.81
277.494	77.81
277.726	85.81
277.957	75.81
278.189	74.81
278.421	86.81
278.652	96.81
278.884	75.81
279.115	76.81
279.347	80.81
279.579	79.81
279.81	78.81
280.042	74.81
280.273	66.81
280.505	78.81
280.736	78.81
280.968	84.81
281.199	78.81
281.431	77.81
281.662	79.81
281.894	80.81
282.125	75.81
282.356	78.81
282.588	81.81
282.819	80.81
283.051	74.81
283.282	69.81
283.513	89.81
283.745	85.81
283.976	69.81
284.207	75.81
284.439	72.81
284.67	95.81
284.901	84.81
285.132	73.81
285.364	85.81
285.595	71.81
285.826	87.81
286.057	67.81
286.288	94.81
286.52	75.81
286.751	72.81
286.982	81.81
287.213	75.81
287.444	78.81
287.675	81.81
287.906	75.81
288.138	72.81
288.369	76.81
288.6	72.81
288.831	89.81
289.062	75.81
289.293	85.81
289.524	82.81
289.755	70.81
289.986	75.81
290.217	83.81
290.448	78.81
290.679	77.81
290.91	82.81
291.141	91.81
291.371	79.81
291.602	93.81
291.833	85.81
292.064	67.81
292.295	82.81
292.526	86.81
292.757	88.81
292.987	70.81
293.218	89.81
293.449	102.81
293.68	68.81
293.91	78.81
294.141	88.81
294.372	67.81
294.603	74.81
294.833	84.81
295.064	85.81
295.295	90.81
295.525	93.81
295.756	79.81
295.987	77.81
296.217	76.81
296.448	61.81
296.679	87.81
296.909	86.81
297.14	95.81
297.37	78.81
297.601	81.81
297.831	74.81
298.062	89.81
298.292	81.81
298.523	57.81
298.753	84.81
298.984	75.81
299.214	91.81
299.445	78.81
299.675	75.81
299.905	79.81
300.136	86.81
300.366	79.81
300.597	80.81
300.827	86.81
301.057	92.81
301.288	90.81
301.518	92.81
301.748	93.81
301.979	98.81
302.209	83.81
302.439	85.81
302.669	79.81
302.9	77.81
303.13	71.81
303.36	72.81
303.59	81.81
303.82	78.81
304.051	84.81
304.281	78.81
304.511	89.81
304.741	85.81
304.971	76.81
305.201	81.81
305.431	84.81
305.661	87.81
305.891	89.81
306.121	95.81
306.352	66.81
306.582	85.81
306.812	85.81
307.042	83.81
307.272	85.81
307.502	71.81
307.731	72.81
307.961	87.81
308.191	75.81
308.421	78.81
308.651	85.81
308.881	80.81
309.111	75.81
309.341	63.81
309.571	84.81
309.8	71.81
310.03	85.81
310.26	77.81
310.49	61.81
310.72	92.81
310.949	65.81
311.179	84.81
311.409	63.81
311.639	74.81
311.868	85.81
312.098	81.81
312.328	86.81
312.557	99.81
312.787	79.81
313.017	79.81
313.246	91.81
313.476	81.81
313.706	79.81
313.935	86.81
314.165	95.81
314.394	68.81
314.624	90.81
314.853	85.81
315.083	61.81
315.312	97.81
315.542	99.81
315.771	90.81
316.001	89.81
316.23	86.81
316.46	79.81
316.689	87.81
316.919	77.81
317.148	79.81
317.377	79.81
317.607	88.81
317.836	87.81
318.065	96.81
318.295	101.81
318.524	73.81
318.753	81.81
318.983	90.81
319.212	92.81
319.441	75.81
319.67	81.81
319.9	80.81
320.129	77.81
320.358	92.81
320.587	80.81
320.816	88.81
321.046	95.81
321.275	72.81
321.504	73.81
321.733	87.81
321.962	70.81
322.191	95.81
322.42	68.81
322.649	74.81
322.878	83.81
323.108	76.81
323.337	83.81
323.566	70.81
323.795	76.81
324.024	86.81
324.253	80.81
324.482	90.81
324.71	89.81
324.939	107.81
325.168	85.81
325.397	75.81
325.626	77.81
325.855	75.81
326.084	82.81
326.313	83.81
326.542	90.81
326.77	75.81
326.999	98.81
327.228	86.81
327.457	68.81
327.686	80.81
327.914	81.81
328.143	92.81
328.372	95.81
328.6	82.81
328.829	78.81
329.058	87.81
329.287	90.81
329.515	95.81
329.744	87.81
329.972	88.81
330.201	81.81
330.43	80.81
330.658	77.81
330.887	78.81
331.115	85.81
331.344	83.81
331.572	80.81
331.801	86.81
332.03	86.81
332.258	85.81
332.486	82.81
332.715	75.81
332.943	87.81
333.172	92.81
333.4	71.81
333.629	82.81
333.857	69.81
334.085	83.81
334.314	78.81
334.542	93.81
334.771	82.81
334.999	73.81
335.227	68.81
335.455	68.81
335.684	83.81
335.912	79.81
336.14	70.81
336.369	87.81
336.597	68.81
336.825	97.81
337.053	90.81
337.281	88.81
337.51	82.81
337.738	97.81
337.966	83.81
338.194	76.81
338.422	70.81
338.65	79.81
338.878	84.81
339.106	81.81
339.334	89.81
339.562	86.81
339.79	92.81
340.018	85.81
340.246	85.81
340.474	81.81
340.702	100.81
340.93	78.81
341.158	94.81
341.386	78.81
341.614	79.81
341.842	83.81
342.07	75.81
342.298	83.81
342.526	80.81
342.754	73.81
342.981	73.81
343.209	94.81
343.437	97.81
343.665	88.81
343.893	80.81
344.12	76.81
344.348	78.81
344.576	90.81
344.804	79.81
345.031	87.81
345.259	83.81
345.487	89.81
345.714	95.81
345.942	77.81
346.17	85.81
346.397	79.81
346.625	82.81
346.853	85.81
347.08	75.81
347.308	87.81
347.535	75.81
347.763	77.81
347.99	71.81
348.218	74.81
348.445	73.81
348.673	81.81
348.9	86.81
349.128	83.81
349.355	88.81
349.583	81.81
349.81	77.81
350.037	84.81
350.265	84.81
350.492	86.81
350.72	81.81
350.947	99.81
351.174	81.81
351.402	80.81
351.629	85.81
351.856	95.81
352.083	83.81
352.311	78.81
352.538	73.81
352.765	76.81
352.992	77.81
353.22	79.81
353.447	79.81
353.674	97.81
353.901	81.81
354.128	83.81
354.355	93.81
354.583	85.81
354.81	85.81
355.037	87.81
355.264	76.81
355.491	78.81
355.718	80.81
355.945	75.81
356.172	92.81
356.399	80.81
356.626	79.81
356.853	81.81
357.08	73.81
357.307	88.81
357.534	101.81
357.761	80.81
357.988	91.81
358.215	87.81
358.441	84.81
358.668	92.81
358.895	99.81
359.122	64.81
359.349	81.81
359.576	75.81
359.802	82.81
360.029	82.81
360.256	76.81
360.483	91.81
360.709	71.81
360.936	88.81
361.163	89.81
361.39	84.81
361.616	85.81
361.843	82.81
362.07	90.81
362.296	76.81
362.523	77.81
362.749	79.81
362.976	89.81
363.203	89.81
363.429	77.81
363.656	83.81
363.882	83.81
364.109	97.81
364.335	110.81
364.562	69.81
364.788	70.81
365.015	82.81
365.241	92.81
365.468	83.81
365.694	86.81
365.92	87.81
366.147	77.81
366.373	89.81
366.599	81.81
366.826	93.81
367.052	68.81
367.278	77.81
367.505	73.81
367.731	77.81
367.957	82.81
368.184	79.81
368.41	78.81
368.636	70.81
368.862	76.81
369.089	80.81
369.315	75.81
369.541	88.81
369.767	71.81
369.993	82.81
370.219	89.81
370.445	84.81
370.672	79.81
370.898	77.81
371.124	77.81
371.35	92.81
371.576	91.81
371.802	88.81
372.028	78.81
372.254	90.81
372.48	77.81
372.706	82.81
372.932	69.81
373.158	90.81
373.384	89.81
373.61	95.81
373.835	88.81
374.061	86.81
374.287	84.81
374.513	86.81
374.739	82.81
374.965	79.81
375.191	91.81
375.416	76.81
375.642	89.81
375.868	90.81
376.094	72.81
376.319	85.81
376.545	73.81
376.771	78.81
376.997	89.81
377.222	77.81
377.448	83.81
377.674	81.81
377.899	76.81
378.125	89.81
378.35	59.81
378.576	85.81
378.802	69.81
379.027	81.81
379.253	79.81
379.478	70.81
379.704	65.81
379.929	79.81
380.155	83.81
380.38	89.81
380.606	75.81
380.831	73.81
381.057	85.81
381.282	75.81
381.507	72.81
381.733	87.81
381.958	90.81
382.184	81.81
382.409	65.81
382.634	89.81
382.86	83.81
383.085	91.81
383.31	94.81
383.535	78.81
383.761	77.81
383.986	74.81
384.211	72.81
384.436	84.81
384.662	90.81
384.887	80.81
385.112	78.81
385.337	88.81
385.562	78.81
385.787	76.81
386.013	82.81
386.238	87.81
386.463	89.81
386.688	86.81
386.913	77.81
387.138	68.81
387.363	69.81
387.588	95.81
387.813	83.81
388.038	74.81
388.263	99.81
388.488	89.81
388.713	72.81
388.938	89.81
389.163	78.81
389.387	89.81
389.612	81.81
389.837	92.81
390.062	81.81
390.287	77.81
390.512	94.81
390.736	97.81
390.961	83.81
391.186	85.81
391.411	85.81
391.636	77.81
391.86	78.81
392.085	89.81
392.31	90.81
392.534	82.81
392.759	87.81
392.984	116.81
393.208	166.81
393.433	206.81
393.658	170.81
393.882	110.81
394.107	105.81
394.331	85.81
394.556	86.81
394.78	66.81
395.005	88.81
395.229	81.81
395.454	86.81
395.678	89.81
395.903	100.81
396.127	92.81
396.352	88.81
396.576	110.81
396.801	146.81
397.025	182.81
397.249	119.81
397.474	102.81
397.698	83.81
397.922	87.81
398.147	75.81
398.371	75.81
398.595	69.81
398.82	76.81
399.044	82.81
399.268	75.81
399.492	85.81
399.717	78.81
399.941	67.81
400.165	83.81
400.389	93.81
400.613	75.81
400.837	94.81
401.062	65.81
401.286	75.81
401.51	80.81
401.734	82.81
401.958	86.81
402.182	71.81
402.406	73.81
402.63	76.81
402.854	83.81
403.078	86.81
403.302	86.81
403.526	82.81
403.75	76.81
403.974	87.81
404.198	73.81
404.422	87.81
404.645	79.81
404.869	76.81
405.093	94.81
405.317	83.81
405.541	89.81
405.765	66.81
405.988	67.81
406.212	82.81
406.436	74.81
406.66	85.81
406.883	90.81
407.107	85.81
407.331	77.81
407.555	85.81
407.778	85.81
408.002	71.81
408.226	77.81
408.449	85.81
408.673	75.81
408.896	77.81
409.12	76.81
409.344	70.81
409.567	99.81
409.791	98.81
410.014	82.81
410.238	79.81
410.461	81.81
410.685	81.81
410.908	72.81
411.132	83.81
411.355	85.81
411.578	67.81
411.802	65.81
412.025	77.81
412.249	89.81
412.472	70.81
412.695	76.81
412.919	77.81
413.142	70.81
413.365	79.81
413.589	83.81
413.812	75.81
414.035	79.81
414.258	75.81
414.482	79.81
414.705	71.81
414.928	73.81
415.151	70.81
415.374	81.81
415.597	84.81
415.821	85.81
416.044	94.81
416.267	83.81
416.49	71.81
416.713	71.81
416.936	78.81
417.159	68.81
417.382	65.81
417.605	88.81
417.828	77.81
418.051	89.81
418.274	84.81
418.497	79.81
418.72	75.81
418.943	70.81
419.166	92.81
419.389	101.81
419.611	81.81
419.834	62.81
420.057	61.81
420.28	86.81
420.503	67.81
420.726	83.81
420.948	94.81
421.171	77.81
421.394	87.81
421.617	82.81
421.839	90.81
422.062	98.81
422.285	100.81
422.507	151.81
422.73	191.81
422.953	187.81
423.175	121.81
423.398	95.81
423.621	87.81
423.843	92.81
424.066	80.81
424.288	66.81
424.511	74.81
424.733	76.81
424.956	81.81
425.178	82.81
425.401	86.81
425.623	76.81
425.846	72.81
426.068	81.81
426.291	74.81
426.513	102.81
426.735	89.81
426.958	86.81
427.18	72.81
427.402	91.81
427.625	71.81
427.847	84.81
428.069	80.81
428.292	96.81
428.514	97.81
428.736	94.81
428.958	92.81
429.181	111.81
429.403	89.81
429.625	93.81
429.847	108.81
430.069	108.81
430.292	109.81
430.514	109.81
430.736	86.81
430.958	113.81
431.18	93.81
431.402	79.81
431.624	74.81
431.846	94.81
432.068	97.81
432.29	73.81
432.512	83.81
432.734	83.81
432.956	74.81
433.178	81.81
433.4	81.81
433.622	85.81
433.844	83.81
434.066	93.81
434.287	75.81
434.509	56.81
434.731	78.81
434.953	61.81
435.175	75.81
435.397	78.81
435.618	75.81
435.84	86.81
436.062	71.81
436.284	78.81
436.505	76.81
436.727	79.81
436.949	83.81
437.17	91.81
437.392	92.81
437.614	67.81
437.835	88.81
438.057	83.81
438.278	78.81
438.5	75.81
438.721	80.81
438.943	73.81
439.165	84.81
439.386	65.81
439.608	85.81
439.829	76.81
440.05	85.81
440.272	81.81
440.493	85.81
440.715	76.81
440.936	80.81
441.158	88.81
441.379	67.81
441.6	79.81
441.822	85.81
442.043	68.81
442.264	65.81
442.486	85.81
442.707	101.81
442.928	81.81
443.149	91.81
443.371	99.81
443.592	125.81
443.813	111.81
444.034	82.81
444.255	96.81
444.476	72.81
444.698	76.81
444.919	83.81
445.14	139.81
445.361	150.81
445.582	146.81
445.803	128.81
446.024	88.81
446.245	69.81
446.466	82.81
446.687	83.81
446.908	74.81
447.129	80.81
447.35	78.81
447.571	75.81
447.792	70.81
448.013	62.81
448.234	85.81
448.455	71.81
448.675	74.81
448.896	70.81
449.117	86.81
449.338	78.81
449.559	83.81
449.779	72.81
450	81.81
450.221	81.81
450.442	80.81
450.662	77.81
450.883	64.81
451.104	77.81
451.324	84.81
451.545	72.81
451.766	91.81
451.986	90.81
452.207	88.81
452.428	79.81
452.648	68.81
452.869	81.81
453.089	79.81
453.31	85.81
453.53	80.81
453.751	93.81
453.971	81.81
454.192	83.81
454.412	82.81
454.633	89.81
454.853	87.81
455.073	76.81
455.294	77.81
455.514	79.81
455.734	89.81
455.955	71.81
456.175	73.81
456.395	81.81
456.616	91.81
456.836	71.81
457.056	89.81
457.276	66.81
457.497	68.81
457.717	86.81
457.937	81.81
458.157	92.81
458.377	81.81
458.598	87.81
458.818	81.81
459.038	76.81
459.258	78.81
459.478	84.81
459.698	87.81
459.918	82.81
460.138	77.81
460.358	77.81
460.578	94.81
460.798	87.81
461.018	77.81
461.238	74.81
461.458	83.81
461.678	81.81
461.898	75.81
462.118	76.81
462.338	89.81
462.558	87.81
462.777	68.81
462.997	73.81
463.217	87.81
463.437	82.81
463.657	76.81
463.876	79.81
464.096	72.81
464.316	78.81
464.536	92.81
464.755	77.81
464.975	77.81
465.195	74.81
465.414	71.81
465.634	71.81
465.854	67.81
466.073	77.81
466.293	75.81
466.512	82.81
466.732	67.81
466.951	77.81
467.171	79.81
467.391	82.81
467.61	81.81
467.829	69.81
468.049	66.81
468.268	73.81
468.488	62.81
468.707	75.81
468.927	83.81
469.146	83.81
469.365	83.81
469.585	68.81
469.804	61.81
470.023	73.81
470.243	70.81
470.462	75.81
470.681	72.81
470.901	81.81
471.12	68.81
471.339	79.81
471.558	79.81
471.777	84.81
471.997	80.81
472.216	93.81
472.435	67.81
472.654	61.81
472.873	95.81
473.092	67.81
473.311	77.81
473.53	87.81
473.749	73.81
473.968	84.81
474.187	89.81
474.406	77.81
474.625	80.81
474.844	81.81
475.063	64.81
475.282	81.81
475.501	79.81
475.72	79.81
475.939	78.81
476.158	90.81
476.377	64.81
476.596	84.81
476.814	77.81
477.033	75.81
477.252	76.81
477.471	71.81
477.69	75.81
477.908	61.81
478.127	79.81
478.346	68.81
478.564	77.81
478.783	84.81
479.002	69.81
479.22	91.81
479.439	77.81
479.658	74.81
479.876	85.81
480.095	83.81
480.313	85.81
480.532	81.81
480.751	94.81
480.969	68.81
481.188	76.81
481.406	77.81
481.624	82.81
481.843	84.81
482.061	90.81
482.28	87.81
482.498	90.81
482.717	82.81
482.935	83.81
483.153	79.81
483.372	84.81
483.59	79.81
483.808	82.81
484.027	81.81
484.245	76.81
484.463	87.81
484.681	89.81
484.9	78.81
485.118	82.81
485.336	83.81
485.554	68.81
485.772	73.81
485.99	82.81
486.209	77.81
486.427	91.81
486.645	94.81
486.863	86.81
487.081	89.81
487.299	78.81
487.517	75.81
487.735	80.81
487.953	94.81
488.171	78.81
488.389	77.81
488.607	76.81
488.825	90.81
489.043	95.81
489.261	79.81
489.479	78.81
489.696	71.81
489.914	94.81
490.132	87.81
490.35	81.81
490.568	86.81
490.786	80.81
491.003	81.81
491.221	70.81
491.439	71.81
491.657	77.81
491.874	79.81
492.092	74.81
492.31	84.81
492.527	78.81
492.745	81.81
492.963	80.81
493.18	90.81
493.398	79.81
493.615	107.81
493.833	90.81
494.05	76.81
494.268	76.81
494.485	85.81
494.703	69.81
494.92	83.81
495.138	79.81
495.355	77.81
495.573	83.81
495.79	78.81
496.008	90.81
496.225	93.81
496.442	86.81
496.66	76.81
496.877	82.81
497.094	72.81
497.312	89.81
497.529	85.81
497.746	85.81
497.963	84.81
498.181	94.81
498.398	90.81
498.615	82.81
498.832	69.81
499.049	83.81
499.267	89.81
499.484	78.81
499.701	81.81
499.918	70.81
500.135	63.81
500.352	79.81
500.569	86.81
500.786	70.81
501.003	84.81
501.22	91.81
501.437	83.81
501.654	85.81
501.871	82.81
502.088	90.81
502.305	84.81
502.522	98.81
502.739	78.81
502.956	79.81
503.172	83.81
503.389	70.81
503.606	87.81
503.823	80.81
504.04	79.81
504.256	87.81
504.473	90.81
504.69	67.81
504.907	87.81
505.123	87.81
505.34	90.81
505.557	77.81
505.773	76.81
505.99	74.81
506.207	84.81
506.423	97.81
506.64	77.81
506.856	77.81
507.073	90.81
507.289	79.81
507.506	88.81
507.722	77.81
507.939	89.81
508.155	92.81
508.372	77.81
508.588	77.81
508.805	86.81
509.021	81.81
509.238	91.81
509.454	84.81
509.67	83.81
509.887	94.81
510.103	93.81
510.319	78.81
510.536	93.81
510.752	78.81
510.968	89.81
511.184	99.81
511.401	79.81
511.617	78.81
511.833	79.81
512.049	74.81
512.265	92.81
512.481	97.81
512.698	67.81
512.914	84.81
513.13	94.81
513.346	87.81
513.562	91.81
513.778	82.81
513.994	59.81
514.21	77.81
514.426	80.81
514.642	63.81
514.858	85.81
515.074	83.81
515.29	85.81
515.506	84.81
515.721	75.81
515.937	75.81
516.153	81.81
516.369	89.81
516.585	88.81
516.801	75.81
517.016	81.81
517.232	73.81
517.448	79.81
517.664	77.81
517.879	77.81
518.095	89.81
518.311	79.81
518.527	77.81
518.742	75.81
518.958	91.81
519.173	97.81
519.389	79.81
519.605	79.81
519.82	88.81
520.036	78.81
520.251	90.81
520.467	79.81
520.682	84.81
520.898	86.81
521.113	87.81
521.329	91.81
521.544	75.81
521.76	71.81
521.975	76.81
522.19	78.81
522.406	77.81
522.621	84.81
522.836	83.81
523.052	78.81
523.267	85.81
523.482	92.81
523.698	88.81
523.913	83.81
524.128	71.81
524.343	81.81
524.559	88.81
524.774	85.81
524.989	89.81
525.204	78.81
525.419	69.81
525.634	84.81
525.849	89.81
526.064	86.81
526.28	109.81
526.495	123.81
526.71	138.81
526.925	115.81
527.14	127.81
527.355	130.81
527.57	89.81
527.785	86.81
527.999	83.81
528.214	84.81
528.429	85.81
528.644	87.81
528.859	79.81
529.074	106.81
529.289	77.81
529.503	88.81
529.718	79.81
529.933	78.81
530.148	81.81
530.363	90.81
530.577	91.81
530.792	73.81
531.007	85.81
531.221	72.81
531.436	84.81
531.651	82.81
531.865	78.81
532.08	77.81
532.295	54.81
532.509	87.81
532.724	91.81
532.938	69.81
533.153	74.81
533.367	90.81
533.582	82.81
533.796	80.81
534.011	67.81
534.225	82.81
534.44	83.81
534.654	86.81
534.868	79.81
535.083	105.81
535.297	90.81
535.511	81.81
535.726	77.81
535.94	87.81
536.154	82.81
536.369	82.81
536.583	77.81
536.797	84.81
537.011	97.81
537.225	68.81
537.44	83.81
537.654	83.81
537.868	86.81
538.082	93.81
538.296	75.81
538.51	89.81
538.724	95.81
538.938	102.81
539.153	89.81
539.367	83.81
539.581	82.81
539.795	91.81
540.009	85.81
540.222	89.81
540.436	93.81
540.65	75.81
540.864	72.81
541.078	98.81
541.292	86.81
541.506	89.81
541.72	85.81
541.934	96.81
542.147	91.81
542.361	68.81
542.575	70.81
542.789	90.81
543.002	86.81
543.216	78.81
543.43	84.81
543.644	83.81
543.857	91.81
544.071	84.81
544.285	89.81
544.498	87.81
544.712	78.81
544.925	83.81
545.139	83.81
545.352	85.81
545.566	97.81
545.779	87.81
545.993	84.81
546.206	86.81
546.42	94.81
546.633	98.81
546.847	85.81
547.06	92.81
547.274	82.81
547.487	97.81
547.7	101.81
547.914	89.81
548.127	109.81
548.34	115.81
548.554	117.81
548.767	116.81
548.98	115.81
549.193	97.81
549.407	97.81
549.62	109.81
549.833	107.81
550.046	114.81
550.259	123.81
550.473	121.81
550.686	144.81
550.899	135.81
551.112	126.81
551.325	123.81
551.538	158.81
551.751	146.81
551.964	129.81
552.177	127.81
552.39	130.81
552.603	135.81
552.816	119.81
553.029	130.81
553.242	143.81
553.455	141.81
553.667	147.81
553.88	144.81
554.093	135.81
554.306	141.81
554.519	146.81
554.732	134.81
554.944	148.81
555.157	125.81
555.37	127.81
555.583	138.81
555.795	130.81
556.008	142.81
556.221	122.81
556.433	118.81
556.646	123.81
556.859	108.81
557.071	117.81
557.284	98.81
557.496	111.81
557.709	97.81
557.921	97.81
558.134	106.81
558.346	115.81
558.559	117.81
558.771	98.81
558.984	166.81
559.196	162.81
559.409	127.81
559.621	158.81
559.833	113.81
560.046	135.81
560.258	111.81
560.47	113.81
560.683	103.81
560.895	97.81
561.107	92.81
561.32	94.81
561.532	81.81
561.744	100.81
561.956	88.81
562.168	95.81
562.381	99.81
562.593	82.81
562.805	89.81
563.017	84.81
563.229	88.81
563.441	78.81
563.653	92.81
563.865	83.81
564.077	94.81
564.289	71.81
564.501	80.81
564.713	99.81
564.925	94.81
565.137	82.81
565.349	89.81
565.561	96.81
565.773	91.81
565.985	85.81
566.197	79.81
566.408	70.81
566.62	77.81
566.832	88.81
567.044	79.81
567.255	86.81
567.467	84.81
567.679	89.81
567.891	89.81
568.102	79.81
568.314	98.81
568.526	95.81
568.737	77.81
568.949	89.81
569.161	82.81
569.372	87.81
569.584	79.81
569.795	88.81
570.007	87.81
570.218	91.81
570.43	79.81
570.641	75.81
570.853	93.81
571.064	96.81
571.276	87.81
571.487	97.81
571.698	79.81
571.91	91.81
572.121	86.81
572.333	74.81
572.544	68.81
572.755	73.81
572.966	89.81
573.178	91.81
573.389	98.81
573.6	85.81
573.811	85.81
574.023	86.81
574.234	85.81
574.445	80.81
574.656	92.81
574.867	77.81
575.078	81.81
575.289	77.81
575.501	93.81
575.712	86.81
575.923	79.81
576.134	86.81
576.345	77.81
576.556	83.81
576.767	98.81
576.978	90.81
577.188	78.81
577.399	79.81
577.61	86.81
577.821	89.81
578.032	87.81
578.243	91.81
578.454	93.81
578.665	85.81
578.875	79.81
579.086	89.81
579.297	88.81
579.508	88.81
579.718	88.81
579.929	87.81
580.14	63.81
580.35	87.81
580.561	85.81
580.772	100.81
580.982	75.81
581.193	85.81
581.403	86.81
581.614	83.81
581.825	85.81
582.035	89.81
582.246	94.81
582.456	84.81
582.667	91.81
582.877	92.81
583.087	78.81
583.298	92.81
583.508	84.81
583.719	93.81
583.929	80.81
584.139	62.81
584.35	66.81
584.56	86.81
584.77	80.81
584.981	86.81
585.191	87.81
585.401	75.81
585.611	80.81
585.821	102.81
586.032	114.81
586.242	102.81
586.452	93.81
586.662	85.81
586.872	99.81
587.082	87.81
587.292	96.81
587.502	87.81
587.713	81.81
587.923	90.81
588.133	86.81
588.343	85.81
588.553	92.81
588.762	96.81
588.972	132.81
589.182	238.81
589.392	192.81
589.602	140.81
589.812	204.81
590.022	138.81
590.232	110.81
590.441	99.81
590.651	98.81
590.861	85.81
591.071	99.81
591.281	93.81
591.49	77.81
591.7	81.81
591.91	96.81
592.119	91.81
592.329	94.81
592.539	86.81
592.748	86.81
592.958	86.81
593.167	92.81
593.377	72.81
593.587	105.81
593.796	89.81
594.006	87.81
594.215	89.81
594.424	112.81
594.634	109.81
594.843	82.81
595.053	91.81
595.262	83.81
595.472	106.81
595.681	97.81
595.89	105.81
596.1	107.81
596.309	98.81
596.518	83.81
596.727	117.81
596.937	100.81
597.146	98.81
597.355	122.81
597.564	111.81
597.774	106.81
597.983	112.81
598.192	114.81
598.401	112.81
598.61	123.81
598.819	109.81
599.028	123.81
599.237	113.81
599.446	106.81
599.655	133.81
599.864	117.81
600.073	107.81
600.282	109.81
600.491	121.81
600.7	126.81
600.909	116.81
601.118	110.81
601.327	98.81
601.536	100.81
601.745	111.81
601.953	101.81
602.162	111.81
602.371	105.81
602.58	101.81
602.789	100.81
602.997	106.81
603.206	94.81
603.415	113.81
603.623	123.81
603.832	113.81
604.041	108.81
604.249	108.81
604.458	106.81
604.666	106.81
604.875	125.81
605.084	111.81
605.292	113.81
605.501	125.81
605.709	132.81
605.918	138.81
606.126	116.81
606.334	125.81
606.543	126.81
606.751	133.81
606.96	111.81
607.168	111.81
607.376	108.81
607.585	125.81
607.793	114.81
608.001	121.81
608.21	133.81
608.418	120.81
608.626	120.81
608.834	124.81
609.043	115.81
609.251	121.81
609.459	119.81
609.667	134.81
609.875	142.81
610.083	122.81
610.291	116.81
610.499	142.81
610.707	124.81
610.916	119.81
611.124	135.81
611.332	129.81
611.54	131.81
611.748	129.81
611.955	139.81
612.163	131.81
612.371	179.81
612.579	151.81
612.787	140.81
612.995	146.81
613.203	143.81
613.411	133.81
613.618	140.81
613.826	125.81
614.034	129.81
614.242	122.81
614.449	119.81
614.657	134.81
614.865	121.81
615.072	124.81
615.28	133.81
615.488	136.81
615.695	126.81
615.903	139.81
616.111	147.81
616.318	194.81
616.526	208.81
616.733	161.81
616.941	159.81
617.148	151.81
617.356	145.81
617.563	134.81
617.771	140.81
617.978	136.81
618.185	127.81
618.393	139.81
618.6	120.81
618.807	126.81
619.015	121.81
619.222	116.81
619.429	130.81
619.637	123.81
619.844	129.81
620.051	119.81
620.258	113.81
620.466	130.81
620.673	102.81
620.88	114.81
621.087	130.81
621.294	134.81
621.501	115.81
621.708	133.81
621.915	132.81
622.122	114.81
622.329	131.81
622.536	125.81
622.743	121.81
622.95	126.81
623.157	118.81
623.364	122.81
623.571	132.81
623.778	113.81
623.985	127.81
624.192	147.81
624.399	124.81
624.606	135.81
624.812	122.81
625.019	124.81
625.226	130.81
625.433	133.81
625.639	121.81
625.846	121.81
626.053	107.81
626.259	126.81
626.466	121.81
626.673	111.81
626.879	105.81
627.086	111.81
627.293	106.81
627.499	101.81
627.706	109.81
627.912	111.81
628.119	108.81
628.325	98.81
628.532	110.81
628.738	92.81
628.945	98.81
629.151	99.81
629.357	87.81
629.564	97.81
629.77	94.81
629.976	90.81
630.183	101.81
630.389	87.81
630.595	78.81
630.802	83.81
631.008	101.81
631.214	89.81
631.42	85.81
631.627	96.81
631.833	83.81
632.039	85.81
632.245	103.81
632.451	101.81
632.657	85.81
632.863	86.81
633.069	91.81
633.275	90.81
633.481	85.81
633.688	90.81
633.893	72.81
634.099	79.81
634.305	96.81
634.511	91.81
634.717	90.81
634.923	93.81
635.129	76.81
635.335	84.81
635.541	85.81
635.747	95.81
635.952	94.81
636.158	74.81
636.364	75.81
636.57	100.81
636.775	89.81
636.981	92.81
637.187	84.81
637.392	100.81
637.598	93.81
637.804	100.81
638.009	81.81
638.215	97.81
638.421	86.81
638.626	67.81
638.832	96.81
639.037	82.81
639.243	90.81
639.448	88.81
639.654	93.81
639.859	85.81
640.065	76.81
640.27	100.81
640.475	98.81
640.681	80.81
640.886	72.81
641.091	98.81
641.297	85.81
641.502	81.81
641.707	91.81
641.913	95.81
642.118	75.81
642.323	77.81
642.528	107.81
642.733	87.81
642.939	93.81
643.144	86.81
643.349	92.81
643.554	98.81
643.759	90.81
643.964	95.81
644.169	118.81
644.374	102.81
644.579	90.81
644.784	90.81
644.989	106.81
645.194	92.81
645.399	84.81
645.604	93.81
645.809	89.81
646.014	83.81
646.219	98.81
646.423	106.81
646.628	97.81
646.833	90.81
647.038	86.81
647.243	97.81
647.447	98.81
647.652	96.81
647.857	90.81
648.062	85.81
648.266	81.81
648.471	80.81
648.676	72.81
648.88	75.81
649.085	90.81
649.289	79.81
649.494	74.81
649.698	93.81
649.903	78.81
650.107	85.81
650.312	87.81
650.516	81.81
650.721	85.81
650.925	78.81
651.13	79.81
651.334	85.81
651.539	87.81
651.743	89.81
651.947	77.81
652.152	97.81
652.356	77.81
652.56	80.81
652.764	77.81
652.969	80.81
653.173	91.81
653.377	69.81
653.581	92.81
653.785	86.81
653.99	67.81
654.194	86.81
654.398	67.81
654.602	71.81
654.806	97.81
655.01	77.81
655.214	79.81
655.418	82.81
655.622	67.81
655.826	78.81
656.03	83.81
656.234	84.81
656.438	86.81
656.642	78.81
656.846	72.81
657.049	87.81
657.253	93.81
657.457	67.81
657.661	70.81
657.865	80.81
658.068	81.81
658.272	79.81
658.476	89.81
658.68	87.81
658.883	72.81
659.087	84.81
659.291	68.81
659.494	70.81
659.698	71.81
659.901	77.81
660.105	79.81
660.309	82.81
660.512	85.81
660.716	71.81
660.919	70.81
661.123	97.81
661.326	72.81
661.53	78.81
661.733	93.81
661.936	79.81
662.14	70.81
662.343	87.81
662.546	77.81
662.75	74.81
662.953	73.81
663.156	95.81
663.36	84.81
663.563	62.81
663.766	77.81
663.969	79.81
664.173	66.81
664.376	70.81
664.579	86.81
664.782	85.81
664.985	69.81
665.188	75.81
665.391	78.81
665.594	64.81
665.797	70.81
666	80.81
666.203	67.81
666.406	73.81
666.609	69.81
666.812	88.81
667.015	79.81
667.218	72.81
667.421	79.81
667.624	93.81
667.827	83.81
668.03	81.81
668.232	73.81
668.435	77.81
668.638	69.81
668.841	82.81
669.043	74.81
669.246	68.81
669.449	75.81
669.651	79.81
669.854	89.81
670.057	74.81
670.259	78.81
670.462	70.81
670.665	89.81
670.867	90.81
671.07	80.81
671.272	85.81
671.475	80.81
671.677	85.81
671.88	80.81
672.082	72.81
672.284	78.81
672.487	68.81
672.689	75.81
672.892	86.81
