Data from Background_2_HRD10591_00058.txt Node
Date: Wed Nov 05 14:47:25 EST 2025
User: Yrep
Spectrometer: HR+D1059
Trigger mode: 1
Integration Time (sec): 1.000000E-1
Scans to average: 1
Electric dark correction enabled: true
Nonlinearity correction enabled: false
Boxcar width: 0
XAxis mode: Wavelengths
Number of Pixels in Spectrum: 2048
>>>>>Begin Spectral Data<<<<<
223.165	-28.69
223.4	-28.69
223.635	-28.69
223.869	-17.69
224.104	-27.69
224.338	0.31
224.573	-15.69
224.808	-4.69
225.042	-12.69
225.277	-4.69
225.511	-11.69
225.746	13.31
225.98	12.31
226.215	8.31
226.449	19.31
226.683	5.31
226.918	31.31
227.152	33.31
227.387	24.31
227.621	45.31
227.856	45.31
228.09	58.31
228.324	51.31
228.559	47.31
228.793	65.31
229.027	36.31
229.262	63.31
229.496	52.31
229.73	70.31
229.964	59.31
230.199	64.31
230.433	85.31
230.667	85.31
230.901	85.31
231.136	74.31
231.37	75.31
231.604	78.31
231.838	80.31
232.072	83.31
232.306	65.31
232.541	69.31
232.775	76.31
233.009	84.31
233.243	70.31
233.477	69.31
233.711	89.31
233.945	90.31
234.179	76.31
234.413	95.31
234.647	77.31
234.881	68.31
235.115	68.31
235.349	78.31
235.583	81.31
235.817	61.31
236.051	88.31
236.285	80.31
236.519	84.31
236.753	80.31
236.987	82.31
237.221	75.31
237.455	55.31
237.689	56.31
237.922	73.31
238.156	69.31
238.39	58.31
238.624	68.31
238.858	80.31
239.091	73.31
239.325	70.31
239.559	77.31
239.793	61.31
240.027	77.31
240.26	72.31
240.494	71.31
240.728	72.31
240.961	89.31
241.195	85.31
241.429	73.31
241.662	70.31
241.896	76.31
242.13	79.31
242.363	70.31
242.597	79.31
242.83	75.31
243.064	63.31
243.298	81.31
243.531	78.31
243.765	92.31
243.998	77.31
244.232	63.31
244.465	69.31
244.699	87.31
244.932	75.31
245.166	69.31
245.399	83.31
245.633	75.31
245.866	81.31
246.099	87.31
246.333	83.31
246.566	72.31
246.8	71.31
247.033	78.31
247.266	65.31
247.5	67.31
247.733	56.31
247.966	68.31
248.2	74.31
248.433	84.31
248.666	74.31
248.899	85.31
249.133	73.31
249.366	89.31
249.599	81.31
249.832	83.31
250.066	86.31
250.299	79.31
250.532	85.31
250.765	81.31
250.998	75.31
251.231	78.31
251.465	71.31
251.698	79.31
251.931	84.31
252.164	85.31
252.397	69.31
252.63	68.31
252.863	78.31
253.096	81.31
253.329	79.31
253.562	83.31
253.795	81.31
254.028	78.31
254.261	73.31
254.494	85.31
254.727	84.31
254.96	68.31
255.193	72.31
255.426	73.31
255.659	61.31
255.892	73.31
256.124	81.31
256.357	70.31
256.59	76.31
256.823	85.31
257.056	82.31
257.289	81.31
257.521	74.31
257.754	73.31
257.987	83.31
258.22	75.31
258.452	67.31
258.685	76.31
258.918	86.31
259.151	71.31
259.383	89.31
259.616	85.31
259.849	80.31
260.081	64.31
260.314	85.31
260.547	85.31
260.779	60.31
261.012	79.31
261.244	67.31
261.477	89.31
261.71	82.31
261.942	70.31
262.175	53.31
262.407	69.31
262.64	89.31
262.872	96.31
263.105	93.31
263.337	87.31
263.57	79.31
263.802	84.31
264.035	81.31
264.267	70.31
264.499	83.31
264.732	57.31
264.964	73.31
265.197	69.31
265.429	73.31
265.661	91.31
265.894	75.31
266.126	79.31
266.358	86.31
266.591	80.31
266.823	62.31
267.055	90.31
267.287	71.31
267.52	77.31
267.752	89.31
267.984	71.31
268.216	58.31
268.448	83.31
268.681	88.31
268.913	70.31
269.145	65.31
269.377	85.31
269.609	74.31
269.841	92.31
270.073	80.31
270.306	74.31
270.538	89.31
270.77	70.31
271.002	74.31
271.234	82.31
271.466	76.31
271.698	66.31
271.93	73.31
272.162	73.31
272.394	88.31
272.626	79.31
272.858	67.31
273.09	74.31
273.322	87.31
273.553	88.31
273.785	78.31
274.017	88.31
274.249	75.31
274.481	65.31
274.713	84.31
274.945	74.31
275.176	83.31
275.408	81.31
275.64	88.31
275.872	89.31
276.104	83.31
276.335	87.31
276.567	80.31
276.799	75.31
277.031	92.31
277.262	66.31
277.494	78.31
277.726	84.31
277.957	71.31
278.189	79.31
278.421	83.31
278.652	88.31
278.884	83.31
279.115	92.31
279.347	75.31
279.579	92.31
279.81	88.31
280.042	91.31
280.273	84.31
280.505	87.31
280.736	79.31
280.968	79.31
281.199	89.31
281.431	80.31
281.662	94.31
281.894	77.31
282.125	76.31
282.356	84.31
282.588	99.31
282.819	84.31
283.051	88.31
283.282	79.31
283.513	68.31
283.745	77.31
283.976	89.31
284.207	72.31
284.439	91.31
284.67	71.31
284.901	71.31
285.132	74.31
285.364	72.31
285.595	81.31
285.826	75.31
286.057	82.31
286.288	66.31
286.52	87.31
286.751	77.31
286.982	81.31
287.213	82.31
287.444	76.31
287.675	65.31
287.906	96.31
288.138	73.31
288.369	75.31
288.6	89.31
288.831	81.31
289.062	71.31
289.293	96.31
289.524	80.31
289.755	75.31
289.986	79.31
290.217	80.31
290.448	81.31
290.679	92.31
290.91	81.31
291.141	89.31
291.371	79.31
291.602	61.31
291.833	85.31
292.064	91.31
292.295	81.31
292.526	89.31
292.757	69.31
292.987	82.31
293.218	75.31
293.449	95.31
293.68	70.31
293.91	80.31
294.141	64.31
294.372	79.31
294.603	92.31
294.833	83.31
295.064	76.31
295.295	81.31
295.525	75.31
295.756	84.31
295.987	87.31
296.217	85.31
296.448	86.31
296.679	75.31
296.909	87.31
297.14	87.31
297.37	76.31
297.601	88.31
297.831	67.31
298.062	95.31
298.292	80.31
298.523	87.31
298.753	65.31
298.984	85.31
299.214	85.31
299.445	88.31
299.675	76.31
299.905	78.31
300.136	83.31
300.366	78.31
300.597	90.31
300.827	80.31
301.057	91.31
301.288	73.31
301.518	76.31
301.748	95.31
301.979	100.31
302.209	74.31
302.439	76.31
302.669	82.31
302.9	79.31
303.13	85.31
303.36	86.31
303.59	85.31
303.82	96.31
304.051	79.31
304.281	84.31
304.511	77.31
304.741	85.31
304.971	80.31
305.201	100.31
305.431	83.31
305.661	71.31
305.891	79.31
306.121	90.31
306.352	91.31
306.582	82.31
306.812	75.31
307.042	97.31
307.272	85.31
307.502	84.31
307.731	93.31
307.961	73.31
308.191	75.31
308.421	84.31
308.651	77.31
308.881	90.31
309.111	91.31
309.341	87.31
309.571	77.31
309.8	96.31
310.03	95.31
310.26	78.31
310.49	91.31
310.72	93.31
310.949	67.31
311.179	84.31
311.409	68.31
311.639	80.31
311.868	81.31
312.098	88.31
312.328	77.31
312.557	85.31
312.787	78.31
313.017	89.31
313.246	73.31
313.476	93.31
313.706	65.31
313.935	78.31
314.165	76.31
314.394	79.31
314.624	91.31
314.853	81.31
315.083	75.31
315.312	79.31
315.542	79.31
315.771	75.31
316.001	78.31
316.23	87.31
316.46	78.31
316.689	72.31
316.919	69.31
317.148	83.31
317.377	94.31
317.607	99.31
317.836	97.31
318.065	77.31
318.295	80.31
318.524	92.31
318.753	89.31
318.983	76.31
319.212	88.31
319.441	72.31
319.67	67.31
319.9	77.31
320.129	89.31
320.358	83.31
320.587	85.31
320.816	88.31
321.046	94.31
321.275	101.31
321.504	80.31
321.733	63.31
321.962	87.31
322.191	70.31
322.42	72.31
322.649	82.31
322.878	90.31
323.108	100.31
323.337	87.31
323.566	83.31
323.795	74.31
324.024	84.31
324.253	79.31
324.482	72.31
324.71	79.31
324.939	79.31
325.168	90.31
325.397	98.31
325.626	77.31
325.855	79.31
326.084	79.31
326.313	73.31
326.542	81.31
326.77	77.31
326.999	82.31
327.228	86.31
327.457	85.31
327.686	69.31
327.914	72.31
328.143	91.31
328.372	92.31
328.6	87.31
328.829	92.31
329.058	93.31
329.287	89.31
329.515	82.31
329.744	77.31
329.972	78.31
330.201	79.31
330.43	84.31
330.658	77.31
330.887	97.31
331.115	70.31
331.344	77.31
331.572	80.31
331.801	89.31
332.03	89.31
332.258	81.31
332.486	68.31
332.715	77.31
332.943	87.31
333.172	61.31
333.4	87.31
333.629	79.31
333.857	84.31
334.085	80.31
334.314	85.31
334.542	73.31
334.771	89.31
334.999	88.31
335.227	85.31
335.455	80.31
335.684	81.31
335.912	79.31
336.14	79.31
336.369	87.31
336.597	85.31
336.825	83.31
337.053	81.31
337.281	73.31
337.51	83.31
337.738	74.31
337.966	73.31
338.194	80.31
338.422	84.31
338.65	67.31
338.878	77.31
339.106	81.31
339.334	76.31
339.562	83.31
339.79	69.31
340.018	84.31
340.246	80.31
340.474	73.31
340.702	86.31
340.93	84.31
341.158	72.31
341.386	83.31
341.614	89.31
341.842	89.31
342.07	78.31
342.298	99.31
342.526	83.31
342.754	90.31
342.981	94.31
343.209	81.31
343.437	100.31
343.665	72.31
343.893	87.31
344.12	83.31
344.348	76.31
344.576	80.31
344.804	73.31
345.031	83.31
345.259	77.31
345.487	82.31
345.714	78.31
345.942	90.31
346.17	79.31
346.397	89.31
346.625	88.31
346.853	85.31
347.08	77.31
347.308	81.31
347.535	76.31
347.763	69.31
347.99	87.31
348.218	71.31
348.445	65.31
348.673	81.31
348.9	91.31
349.128	87.31
349.355	92.31
349.583	76.31
349.81	70.31
350.037	88.31
350.265	91.31
350.492	87.31
350.72	75.31
350.947	98.31
351.174	80.31
351.402	86.31
351.629	105.31
351.856	95.31
352.083	68.31
352.311	81.31
352.538	83.31
352.765	68.31
352.992	90.31
353.22	96.31
353.447	83.31
353.674	77.31
353.901	84.31
354.128	79.31
354.355	77.31
354.583	77.31
354.81	83.31
355.037	74.31
355.264	81.31
355.491	76.31
355.718	83.31
355.945	72.31
356.172	77.31
356.399	84.31
356.626	91.31
356.853	80.31
357.08	76.31
357.307	82.31
357.534	83.31
357.761	91.31
357.988	79.31
358.215	90.31
358.441	83.31
358.668	81.31
358.895	68.31
359.122	85.31
359.349	82.31
359.576	94.31
359.802	95.31
360.029	97.31
360.256	80.31
360.483	78.31
360.709	83.31
360.936	84.31
361.163	87.31
361.39	82.31
361.616	79.31
361.843	84.31
362.07	73.31
362.296	96.31
362.523	77.31
362.749	81.31
362.976	83.31
363.203	82.31
363.429	76.31
363.656	86.31
363.882	85.31
364.109	90.31
364.335	79.31
364.562	77.31
364.788	79.31
365.015	85.31
365.241	84.31
365.468	80.31
365.694	87.31
365.92	87.31
366.147	88.31
366.373	73.31
366.599	80.31
366.826	84.31
367.052	74.31
367.278	78.31
367.505	87.31
367.731	71.31
367.957	77.31
368.184	89.31
368.41	89.31
368.636	88.31
368.862	80.31
369.089	85.31
369.315	89.31
369.541	73.31
369.767	91.31
369.993	81.31
370.219	68.31
370.445	69.31
370.672	85.31
370.898	85.31
371.124	72.31
371.35	76.31
371.576	91.31
371.802	73.31
372.028	88.31
372.254	71.31
372.48	85.31
372.706	79.31
372.932	75.31
373.158	76.31
373.384	89.31
373.61	71.31
373.835	74.31
374.061	79.31
374.287	75.31
374.513	64.31
374.739	81.31
374.965	79.31
375.191	73.31
375.416	77.31
375.642	87.31
375.868	78.31
376.094	80.31
376.319	78.31
376.545	82.31
376.771	82.31
376.997	85.31
377.222	101.31
377.448	80.31
377.674	80.31
377.899	76.31
378.125	84.31
378.35	84.31
378.576	72.31
378.802	78.31
379.027	83.31
379.253	91.31
379.478	87.31
379.704	65.31
379.929	81.31
380.155	75.31
380.38	76.31
380.606	93.31
380.831	74.31
381.057	91.31
381.282	67.31
381.507	69.31
381.733	83.31
381.958	76.31
382.184	69.31
382.409	69.31
382.634	89.31
382.86	92.31
383.085	81.31
383.31	80.31
383.535	79.31
383.761	89.31
383.986	81.31
384.211	79.31
384.436	97.31
384.662	83.31
384.887	81.31
385.112	80.31
385.337	82.31
385.562	77.31
385.787	75.31
386.013	75.31
386.238	72.31
386.463	79.31
386.688	89.31
386.913	92.31
387.138	85.31
387.363	82.31
387.588	91.31
387.813	84.31
388.038	79.31
388.263	81.31
388.488	80.31
388.713	77.31
388.938	71.31
389.163	85.31
389.387	79.31
389.612	70.31
389.837	82.31
390.062	63.31
390.287	74.31
390.512	92.31
390.736	69.31
390.961	79.31
391.186	79.31
391.411	86.31
391.636	79.31
391.86	81.31
392.085	80.31
392.31	92.31
392.534	89.31
392.759	90.31
392.984	81.31
393.208	98.31
393.433	79.31
393.658	95.31
393.882	80.31
394.107	75.31
394.331	79.31
394.556	69.31
394.78	91.31
395.005	83.31
395.229	90.31
395.454	88.31
395.678	81.31
395.903	76.31
396.127	81.31
396.352	95.31
396.576	78.31
396.801	70.31
397.025	79.31
397.249	84.31
397.474	92.31
397.698	77.31
397.922	88.31
398.147	69.31
398.371	83.31
398.595	80.31
398.82	72.31
399.044	84.31
399.268	86.31
399.492	70.31
399.717	77.31
399.941	87.31
400.165	84.31
400.389	78.31
400.613	81.31
400.837	76.31
401.062	90.31
401.286	88.31
401.51	82.31
401.734	70.31
401.958	79.31
402.182	80.31
402.406	82.31
402.63	91.31
402.854	81.31
403.078	76.31
403.302	81.31
403.526	83.31
403.75	89.31
403.974	84.31
404.198	82.31
404.422	80.31
404.645	88.31
404.869	70.31
405.093	82.31
405.317	77.31
405.541	87.31
405.765	75.31
405.988	70.31
406.212	79.31
406.436	69.31
406.66	74.31
406.883	85.31
407.107	69.31
407.331	81.31
407.555	79.31
407.778	84.31
408.002	82.31
408.226	75.31
408.449	85.31
408.673	77.31
408.896	63.31
409.12	85.31
409.344	83.31
409.567	80.31
409.791	73.31
410.014	78.31
410.238	80.31
410.461	76.31
410.685	83.31
410.908	73.31
411.132	82.31
411.355	90.31
411.578	75.31
411.802	75.31
412.025	74.31
412.249	79.31
412.472	67.31
412.695	75.31
412.919	81.31
413.142	87.31
413.365	83.31
413.589	69.31
413.812	80.31
414.035	80.31
414.258	78.31
414.482	83.31
414.705	86.31
414.928	80.31
415.151	78.31
415.374	97.31
415.597	75.31
415.821	91.31
416.044	76.31
416.267	69.31
416.49	79.31
416.713	80.31
416.936	87.31
417.159	93.31
417.382	88.31
417.605	74.31
417.828	73.31
418.051	70.31
418.274	83.31
418.497	74.31
418.72	82.31
418.943	85.31
419.166	87.31
419.389	87.31
419.611	76.31
419.834	90.31
420.057	88.31
420.28	70.31
420.503	64.31
420.726	70.31
420.948	74.31
421.171	77.31
421.394	85.31
421.617	72.31
421.839	71.31
422.062	78.31
422.285	73.31
422.507	84.31
422.73	78.31
422.953	70.31
423.175	68.31
423.398	87.31
423.621	60.31
423.843	73.31
424.066	77.31
424.288	76.31
424.511	84.31
424.733	80.31
424.956	80.31
425.178	69.31
425.401	82.31
425.623	88.31
425.846	65.31
426.068	76.31
426.291	78.31
426.513	80.31
426.735	82.31
426.958	84.31
427.18	72.31
427.402	79.31
427.625	73.31
427.847	69.31
428.069	67.31
428.292	69.31
428.514	55.31
428.736	81.31
428.958	64.31
429.181	74.31
429.403	89.31
429.625	63.31
429.847	90.31
430.069	65.31
430.292	83.31
430.514	75.31
430.736	72.31
430.958	79.31
431.18	66.31
431.402	67.31
431.624	66.31
431.846	75.31
432.068	78.31
432.29	79.31
432.512	93.31
432.734	95.31
432.956	85.31
433.178	94.31
433.4	69.31
433.622	78.31
433.844	79.31
434.066	78.31
434.287	82.31
434.509	82.31
434.731	75.31
434.953	83.31
435.175	88.31
435.397	79.31
435.618	85.31
435.84	82.31
436.062	75.31
436.284	76.31
436.505	75.31
436.727	83.31
436.949	75.31
437.17	75.31
437.392	82.31
437.614	75.31
437.835	77.31
438.057	90.31
438.278	76.31
438.5	81.31
438.721	80.31
438.943	61.31
439.165	92.31
439.386	64.31
439.608	77.31
439.829	95.31
440.05	109.31
440.272	95.31
440.493	83.31
440.715	75.31
440.936	79.31
441.158	83.31
441.379	97.31
441.6	77.31
441.822	69.31
442.043	78.31
442.264	88.31
442.486	86.31
442.707	75.31
442.928	80.31
443.149	79.31
443.371	88.31
443.592	83.31
443.813	93.31
444.034	74.31
444.255	82.31
444.476	80.31
444.698	65.31
444.919	66.31
445.14	171.31
445.361	120.31
445.582	80.31
445.803	73.31
446.024	92.31
446.245	63.31
446.466	69.31
446.687	78.31
446.908	63.31
447.129	76.31
447.35	77.31
447.571	78.31
447.792	64.31
448.013	82.31
448.234	87.31
448.455	87.31
448.675	83.31
448.896	85.31
449.117	80.31
449.338	76.31
449.559	73.31
449.779	79.31
450	87.31
450.221	68.31
450.442	75.31
450.662	80.31
450.883	92.31
451.104	86.31
451.324	83.31
451.545	75.31
451.766	77.31
451.986	73.31
452.207	79.31
452.428	78.31
452.648	88.31
452.869	83.31
453.089	71.31
453.31	89.31
453.53	87.31
453.751	81.31
453.971	88.31
454.192	61.31
454.412	80.31
454.633	86.31
454.853	88.31
455.073	73.31
455.294	95.31
455.514	67.31
455.734	69.31
455.955	88.31
456.175	71.31
456.395	74.31
456.616	84.31
456.836	82.31
457.056	77.31
457.276	69.31
457.497	101.31
457.717	83.31
457.937	78.31
458.157	60.31
458.377	91.31
458.598	62.31
458.818	89.31
459.038	81.31
459.258	75.31
459.478	77.31
459.698	80.31
459.918	78.31
460.138	82.31
460.358	83.31
460.578	85.31
460.798	62.31
461.018	79.31
461.238	74.31
461.458	92.31
461.678	85.31
461.898	76.31
462.118	74.31
462.338	80.31
462.558	70.31
462.777	72.31
462.997	68.31
463.217	83.31
463.437	84.31
463.657	83.31
463.876	82.31
464.096	92.31
464.316	65.31
464.536	78.31
464.755	77.31
464.975	70.31
465.195	73.31
465.414	88.31
465.634	80.31
465.854	89.31
466.073	75.31
466.293	79.31
466.512	83.31
466.732	78.31
466.951	82.31
467.171	92.31
467.391	90.31
467.61	79.31
467.829	75.31
468.049	86.31
468.268	79.31
468.488	69.31
468.707	64.31
468.927	80.31
469.146	73.31
469.365	85.31
469.585	92.31
469.804	98.31
470.023	59.31
470.243	82.31
470.462	75.31
470.681	78.31
470.901	85.31
471.12	86.31
471.339	83.31
471.558	79.31
471.777	73.31
471.997	100.31
472.216	83.31
472.435	89.31
472.654	87.31
472.873	77.31
473.092	78.31
473.311	81.31
473.53	75.31
473.749	85.31
473.968	77.31
474.187	82.31
474.406	86.31
474.625	80.31
474.844	76.31
475.063	70.31
475.282	79.31
475.501	80.31
475.72	89.31
475.939	79.31
476.158	77.31
476.377	84.31
476.596	68.31
476.814	76.31
477.033	68.31
477.252	81.31
477.471	76.31
477.69	83.31
477.908	67.31
478.127	93.31
478.346	91.31
478.564	79.31
478.783	79.31
479.002	83.31
479.22	89.31
479.439	78.31
479.658	87.31
479.876	91.31
480.095	77.31
480.313	89.31
480.532	69.31
480.751	81.31
480.969	75.31
481.188	84.31
481.406	84.31
481.624	89.31
481.843	57.31
482.061	80.31
482.28	74.31
482.498	79.31
482.717	81.31
482.935	87.31
483.153	68.31
483.372	82.31
483.59	75.31
483.808	76.31
484.027	86.31
484.245	75.31
484.463	90.31
484.681	84.31
484.9	81.31
485.118	82.31
485.336	79.31
485.554	87.31
485.772	81.31
485.99	89.31
486.209	82.31
486.427	82.31
486.645	74.31
486.863	89.31
487.081	89.31
487.299	96.31
487.517	81.31
487.735	78.31
487.953	87.31
488.171	79.31
488.389	81.31
488.607	83.31
488.825	75.31
489.043	67.31
489.261	70.31
489.479	80.31
489.696	72.31
489.914	83.31
490.132	72.31
490.35	73.31
490.568	71.31
490.786	82.31
491.003	93.31
491.221	67.31
491.439	83.31
491.657	86.31
491.874	76.31
492.092	82.31
492.31	79.31
492.527	81.31
492.745	80.31
492.963	78.31
493.18	78.31
493.398	77.31
493.615	63.31
493.833	77.31
494.05	76.31
494.268	80.31
494.485	79.31
494.703	81.31
494.92	83.31
495.138	74.31
495.355	80.31
495.573	61.31
495.79	79.31
496.008	79.31
496.225	77.31
496.442	87.31
496.66	95.31
496.877	100.31
497.094	94.31
497.312	93.31
497.529	77.31
497.746	65.31
497.963	82.31
498.181	87.31
498.398	75.31
498.615	91.31
498.832	91.31
499.049	101.31
499.267	81.31
499.484	72.31
499.701	77.31
499.918	80.31
500.135	60.31
500.352	86.31
500.569	81.31
500.786	81.31
501.003	91.31
501.22	79.31
501.437	66.31
501.654	73.31
501.871	77.31
502.088	65.31
502.305	101.31
502.522	83.31
502.739	93.31
502.956	77.31
503.172	79.31
503.389	90.31
503.606	85.31
503.823	77.31
504.04	78.31
504.256	91.31
504.473	78.31
504.69	79.31
504.907	104.31
505.123	89.31
505.34	79.31
505.557	89.31
505.773	76.31
505.99	77.31
506.207	92.31
506.423	79.31
506.64	76.31
506.856	80.31
507.073	88.31
507.289	81.31
507.506	75.31
507.722	71.31
507.939	71.31
508.155	93.31
508.372	77.31
508.588	74.31
508.805	77.31
509.021	81.31
509.238	63.31
509.454	73.31
509.67	85.31
509.887	87.31
510.103	94.31
510.319	90.31
510.536	80.31
510.752	78.31
510.968	76.31
511.184	93.31
511.401	85.31
511.617	70.31
511.833	81.31
512.049	78.31
512.265	89.31
512.481	80.31
512.698	71.31
512.914	75.31
513.13	67.31
513.346	75.31
513.562	80.31
513.778	90.31
513.994	101.31
514.21	72.31
514.426	79.31
514.642	86.31
514.858	83.31
515.074	70.31
515.29	91.31
515.506	72.31
515.721	83.31
515.937	66.31
516.153	87.31
516.369	67.31
516.585	75.31
516.801	86.31
517.016	73.31
517.232	89.31
517.448	81.31
517.664	72.31
517.879	70.31
518.095	87.31
518.311	74.31
518.527	85.31
518.742	75.31
518.958	87.31
519.173	86.31
519.389	84.31
519.605	79.31
519.82	79.31
520.036	92.31
520.251	74.31
520.467	66.31
520.682	89.31
520.898	84.31
521.113	83.31
521.329	84.31
521.544	85.31
521.76	94.31
521.975	83.31
522.19	85.31
522.406	84.31
522.621	81.31
522.836	77.31
523.052	87.31
523.267	87.31
523.482	69.31
523.698	79.31
523.913	76.31
524.128	76.31
524.343	84.31
524.559	80.31
524.774	59.31
524.989	96.31
525.204	98.31
525.419	83.31
525.634	90.31
525.849	82.31
526.064	76.31
526.28	81.31
526.495	91.31
526.71	80.31
526.925	75.31
527.14	87.31
527.355	75.31
527.57	87.31
527.785	85.31
527.999	85.31
528.214	80.31
528.429	73.31
528.644	81.31
528.859	80.31
529.074	68.31
529.289	79.31
529.503	93.31
529.718	89.31
529.933	81.31
530.148	90.31
530.363	90.31
530.577	81.31
530.792	86.31
531.007	76.31
531.221	66.31
531.436	82.31
531.651	89.31
531.865	85.31
532.08	79.31
532.295	72.31
532.509	79.31
532.724	84.31
532.938	79.31
533.153	92.31
533.367	84.31
533.582	83.31
533.796	75.31
534.011	79.31
534.225	69.31
534.44	67.31
534.654	65.31
534.868	73.31
535.083	96.31
535.297	93.31
535.511	96.31
535.726	87.31
535.94	91.31
536.154	91.31
536.369	89.31
536.583	83.31
536.797	75.31
537.011	83.31
537.225	93.31
537.44	96.31
537.654	75.31
537.868	91.31
538.082	81.31
538.296	81.31
538.51	79.31
538.724	82.31
538.938	76.31
539.153	89.31
539.367	74.31
539.581	91.31
539.795	83.31
540.009	81.31
540.222	85.31
540.436	89.31
540.65	74.31
540.864	95.31
541.078	73.31
541.292	93.31
541.506	91.31
541.72	86.31
541.934	76.31
542.147	82.31
542.361	75.31
542.575	89.31
542.789	84.31
543.002	96.31
543.216	90.31
543.43	65.31
543.644	72.31
543.857	77.31
544.071	85.31
544.285	79.31
544.498	78.31
544.712	79.31
544.925	77.31
545.139	89.31
545.352	63.31
545.566	92.31
545.779	83.31
545.993	77.31
546.206	77.31
546.42	86.31
546.633	67.31
546.847	104.31
547.06	91.31
547.274	73.31
547.487	92.31
547.7	88.31
547.914	71.31
548.127	69.31
548.34	81.31
548.554	85.31
548.767	80.31
548.98	85.31
549.193	81.31
549.407	84.31
549.62	94.31
549.833	81.31
550.046	84.31
550.259	93.31
550.473	90.31
550.686	87.31
550.899	87.31
551.112	89.31
551.325	85.31
551.538	84.31
551.751	87.31
551.964	75.31
552.177	79.31
552.39	90.31
552.603	88.31
552.816	79.31
553.029	82.31
553.242	87.31
553.455	79.31
553.667	80.31
553.88	88.31
554.093	77.31
554.306	82.31
554.519	82.31
554.732	83.31
554.944	79.31
555.157	96.31
555.37	87.31
555.583	72.31
555.795	76.31
556.008	75.31
556.221	73.31
556.433	60.31
556.646	83.31
556.859	93.31
557.071	94.31
557.284	82.31
557.496	70.31
557.709	91.31
557.921	83.31
558.134	84.31
558.346	74.31
558.559	77.31
558.771	68.31
558.984	87.31
559.196	81.31
559.409	79.31
559.621	88.31
559.833	75.31
560.046	81.31
560.258	73.31
560.47	89.31
560.683	77.31
560.895	72.31
561.107	85.31
561.32	82.31
561.532	98.31
561.744	95.31
561.956	81.31
562.168	94.31
562.381	96.31
562.593	84.31
562.805	99.31
563.017	86.31
563.229	79.31
563.441	68.31
563.653	77.31
563.865	84.31
564.077	77.31
564.289	81.31
564.501	74.31
564.713	72.31
564.925	96.31
565.137	78.31
565.349	84.31
565.561	74.31
565.773	83.31
565.985	88.31
566.197	95.31
566.408	81.31
566.62	83.31
566.832	81.31
567.044	86.31
567.255	80.31
567.467	90.31
567.679	81.31
567.891	72.31
568.102	71.31
568.314	80.31
568.526	88.31
568.737	81.31
568.949	76.31
569.161	79.31
569.372	87.31
569.584	85.31
569.795	93.31
570.007	76.31
570.218	96.31
570.43	82.31
570.641	82.31
570.853	75.31
571.064	93.31
571.276	68.31
571.487	87.31
571.698	75.31
571.91	81.31
572.121	81.31
572.333	91.31
572.544	85.31
572.755	68.31
572.966	75.31
573.178	82.31
573.389	90.31
573.6	95.31
573.811	99.31
574.023	68.31
574.234	85.31
574.445	77.31
574.656	90.31
574.867	72.31
575.078	79.31
575.289	91.31
575.501	63.31
575.712	88.31
575.923	86.31
576.134	89.31
576.345	78.31
576.556	91.31
576.767	92.31
576.978	83.31
577.188	74.31
577.399	89.31
577.61	89.31
577.821	79.31
578.032	88.31
578.243	76.31
578.454	69.31
578.665	91.31
578.875	87.31
579.086	79.31
579.297	78.31
579.508	92.31
579.718	89.31
579.929	88.31
580.14	86.31
580.35	73.31
580.561	96.31
580.772	79.31
580.982	80.31
581.193	103.31
581.403	103.31
581.614	82.31
581.825	91.31
582.035	82.31
582.246	91.31
582.456	91.31
582.667	76.31
582.877	80.31
583.087	77.31
583.298	81.31
583.508	81.31
583.719	76.31
583.929	87.31
584.139	82.31
584.35	94.31
584.56	79.31
584.77	67.31
584.981	92.31
585.191	92.31
585.401	82.31
585.611	91.31
585.821	79.31
586.032	70.31
586.242	89.31
586.452	87.31
586.662	79.31
586.872	92.31
587.082	89.31
587.292	75.31
587.502	89.31
587.713	75.31
587.923	87.31
588.133	91.31
588.343	70.31
588.553	95.31
588.762	104.31
588.972	91.31
589.182	99.31
589.392	92.31
589.602	96.31
589.812	66.31
590.022	72.31
590.232	84.31
590.441	88.31
590.651	74.31
590.861	90.31
591.071	90.31
591.281	82.31
591.49	76.31
591.7	86.31
591.91	79.31
592.119	76.31
592.329	81.31
592.539	90.31
592.748	89.31
592.958	90.31
593.167	83.31
593.377	75.31
593.587	93.31
593.796	62.31
594.006	68.31
594.215	90.31
594.424	87.31
594.634	77.31
594.843	81.31
595.053	82.31
595.262	76.31
595.472	76.31
595.681	92.31
595.89	66.31
596.1	78.31
596.309	87.31
596.518	95.31
596.727	82.31
596.937	79.31
597.146	80.31
597.355	79.31
597.564	81.31
597.774	76.31
597.983	84.31
598.192	87.31
598.401	96.31
598.61	73.31
598.819	91.31
599.028	84.31
599.237	75.31
599.446	81.31
599.655	92.31
599.864	84.31
600.073	91.31
600.282	106.31
600.491	81.31
600.7	77.31
600.909	63.31
601.118	69.31
601.327	77.31
601.536	69.31
601.745	84.31
601.953	93.31
602.162	76.31
602.371	75.31
602.58	92.31
602.789	96.31
602.997	85.31
603.206	94.31
603.415	79.31
603.623	77.31
603.832	85.31
604.041	70.31
604.249	75.31
604.458	81.31
604.666	86.31
604.875	76.31
605.084	73.31
605.292	68.31
605.501	88.31
605.709	79.31
605.918	81.31
606.126	85.31
606.334	92.31
606.543	87.31
606.751	92.31
606.96	81.31
607.168	100.31
607.376	82.31
607.585	79.31
607.793	78.31
608.001	86.31
608.21	84.31
608.418	76.31
608.626	67.31
608.834	85.31
609.043	69.31
609.251	77.31
609.459	91.31
609.667	83.31
609.875	83.31
610.083	85.31
610.291	79.31
610.499	86.31
610.707	80.31
610.916	88.31
611.124	81.31
611.332	77.31
611.54	79.31
611.748	84.31
611.955	84.31
612.163	70.31
612.371	79.31
612.579	77.31
612.787	81.31
612.995	88.31
613.203	74.31
613.411	81.31
613.618	79.31
613.826	70.31
614.034	79.31
614.242	88.31
614.449	87.31
614.657	78.31
614.865	81.31
615.072	84.31
615.28	74.31
615.488	77.31
615.695	69.31
615.903	72.31
616.111	67.31
616.318	85.31
616.526	78.31
616.733	99.31
616.941	89.31
617.148	80.31
617.356	83.31
617.563	95.31
617.771	87.31
617.978	93.31
618.185	87.31
618.393	69.31
618.6	65.31
618.807	99.31
619.015	95.31
619.222	84.31
619.429	79.31
619.637	91.31
619.844	69.31
620.051	77.31
620.258	80.31
620.466	74.31
620.673	89.31
620.88	79.31
621.087	70.31
621.294	93.31
621.501	80.31
621.708	80.31
621.915	83.31
622.122	75.31
622.329	91.31
622.536	93.31
622.743	83.31
622.95	68.31
623.157	79.31
623.364	77.31
623.571	77.31
623.778	80.31
623.985	81.31
624.192	73.31
624.399	76.31
624.606	83.31
624.812	72.31
625.019	85.31
625.226	92.31
625.433	72.31
625.639	80.31
625.846	75.31
626.053	68.31
626.259	72.31
626.466	96.31
626.673	87.31
626.879	89.31
627.086	83.31
627.293	73.31
627.499	89.31
627.706	86.31
627.912	85.31
628.119	92.31
628.325	84.31
628.532	64.31
628.738	86.31
628.945	84.31
629.151	82.31
629.357	90.31
629.564	87.31
629.77	85.31
629.976	81.31
630.183	84.31
630.389	86.31
630.595	93.31
630.802	94.31
631.008	64.31
631.214	78.31
631.42	73.31
631.627	89.31
631.833	77.31
632.039	75.31
632.245	94.31
632.451	92.31
632.657	87.31
632.863	76.31
633.069	78.31
633.275	74.31
633.481	79.31
633.688	79.31
633.893	87.31
634.099	86.31
634.305	75.31
634.511	73.31
634.717	75.31
634.923	80.31
635.129	90.31
635.335	87.31
635.541	87.31
635.747	85.31
635.952	83.31
636.158	90.31
636.364	91.31
636.57	77.31
636.775	81.31
636.981	74.31
637.187	85.31
637.392	90.31
637.598	81.31
637.804	91.31
638.009	84.31
638.215	81.31
638.421	69.31
638.626	88.31
638.832	83.31
639.037	92.31
639.243	80.31
639.448	78.31
639.654	80.31
639.859	92.31
640.065	81.31
640.27	75.31
640.475	88.31
640.681	79.31
640.886	89.31
641.091	79.31
641.297	95.31
641.502	75.31
641.707	88.31
641.913	93.31
642.118	74.31
642.323	82.31
642.528	83.31
642.733	80.31
642.939	85.31
643.144	82.31
643.349	84.31
643.554	90.31
643.759	76.31
643.964	75.31
644.169	82.31
644.374	92.31
644.579	79.31
644.784	80.31
644.989	83.31
645.194	76.31
645.399	92.31
645.604	90.31
645.809	78.31
646.014	86.31
646.219	69.31
646.423	80.31
646.628	77.31
646.833	81.31
647.038	83.31
647.243	88.31
647.447	78.31
647.652	83.31
647.857	75.31
648.062	75.31
648.266	69.31
648.471	75.31
648.676	66.31
648.88	75.31
649.085	85.31
649.289	69.31
649.494	85.31
649.698	83.31
649.903	97.31
650.107	68.31
650.312	76.31
650.516	79.31
650.721	78.31
650.925	77.31
651.13	78.31
651.334	76.31
651.539	78.31
651.743	74.31
651.947	90.31
652.152	77.31
652.356	79.31
652.56	87.31
652.764	81.31
652.969	73.31
653.173	83.31
653.377	77.31
653.581	76.31
653.785	76.31
653.99	90.31
654.194	86.31
654.398	72.31
654.602	75.31
654.806	66.31
655.01	75.31
655.214	74.31
655.418	79.31
655.622	84.31
655.826	78.31
656.03	82.31
656.234	85.31
656.438	82.31
656.642	80.31
656.846	73.31
657.049	76.31
657.253	72.31
657.457	76.31
657.661	82.31
657.865	78.31
658.068	85.31
658.272	77.31
658.476	88.31
658.68	82.31
658.883	75.31
659.087	81.31
659.291	83.31
659.494	74.31
659.698	86.31
659.901	75.31
660.105	75.31
660.309	63.31
660.512	79.31
660.716	80.31
660.919	82.31
661.123	82.31
661.326	81.31
661.53	103.31
661.733	75.31
661.936	76.31
662.14	74.31
662.343	62.31
662.546	71.31
662.75	73.31
662.953	89.31
663.156	78.31
663.36	83.31
663.563	94.31
663.766	79.31
663.969	75.31
664.173	82.31
664.376	80.31
664.579	84.31
664.782	80.31
664.985	83.31
665.188	103.31
665.391	89.31
665.594	66.31
665.797	81.31
666	76.31
666.203	83.31
666.406	88.31
666.609	81.31
666.812	79.31
667.015	77.31
667.218	75.31
667.421	86.31
667.624	70.31
667.827	70.31
668.03	80.31
668.232	72.31
668.435	73.31
668.638	67.31
668.841	77.31
669.043	77.31
669.246	77.31
669.449	88.31
669.651	82.31
669.854	82.31
670.057	86.31
670.259	80.31
670.462	93.31
670.665	89.31
670.867	71.31
671.07	88.31
671.272	87.31
671.475	76.31
671.677	79.31
671.88	77.31
672.082	70.31
672.284	60.31
672.487	80.31
672.689	81.31
672.892	96.31
