Data from Background_2_HRD10591_00076.txt Node
Date: Wed Nov 05 14:47:34 EST 2025
User: Yrep
Spectrometer: HR+D1059
Trigger mode: 1
Integration Time (sec): 1.000000E-1
Scans to average: 1
Electric dark correction enabled: true
Nonlinearity correction enabled: false
Boxcar width: 0
XAxis mode: Wavelengths
Number of Pixels in Spectrum: 2048
>>>>>Begin Spectral Data<<<<<
223.165	-20.31
223.4	-20.31
223.635	-20.31
223.869	-22.31
224.104	-8.31
224.338	-10.31
224.573	-17.31
224.808	1.69
225.042	-6.31
225.277	1.69
225.511	1.69
225.746	5.69
225.98	2.69
226.215	4.69
226.449	7.69
226.683	5.69
226.918	19.69
227.152	33.69
227.387	34.69
227.621	52.69
227.856	45.69
228.09	45.69
228.324	65.69
228.559	51.69
228.793	51.69
229.027	55.69
229.262	51.69
229.496	54.69
229.73	62.69
229.964	70.69
230.199	63.69
230.433	69.69
230.667	63.69
230.901	78.69
231.136	79.69
231.37	78.69
231.604	78.69
231.838	71.69
232.072	86.69
232.306	75.69
232.541	85.69
232.775	75.69
233.009	79.69
233.243	84.69
233.477	89.69
233.711	75.69
233.945	86.69
234.179	75.69
234.413	80.69
234.647	79.69
234.881	79.69
235.115	93.69
235.349	90.69
235.583	82.69
235.817	87.69
236.051	78.69
236.285	77.69
236.519	73.69
236.753	84.69
236.987	84.69
237.221	71.69
237.455	81.69
237.689	77.69
237.922	62.69
238.156	73.69
238.39	52.69
238.624	64.69
238.858	65.69
239.091	74.69
239.325	79.69
239.559	90.69
239.793	76.69
240.027	72.69
240.26	72.69
240.494	77.69
240.728	84.69
240.961	72.69
241.195	71.69
241.429	85.69
241.662	83.69
241.896	67.69
242.13	91.69
242.363	67.69
242.597	72.69
242.83	86.69
243.064	69.69
243.298	86.69
243.531	90.69
243.765	67.69
243.998	74.69
244.232	92.69
244.465	79.69
244.699	87.69
244.932	81.69
245.166	83.69
245.399	74.69
245.633	82.69
245.866	72.69
246.099	82.69
246.333	85.69
246.566	71.69
246.8	86.69
247.033	79.69
247.266	69.69
247.5	79.69
247.733	91.69
247.966	84.69
248.2	67.69
248.433	74.69
248.666	81.69
248.899	67.69
249.133	72.69
249.366	57.69
249.599	67.69
249.832	79.69
250.066	81.69
250.299	84.69
250.532	87.69
250.765	81.69
250.998	72.69
251.231	80.69
251.465	89.69
251.698	89.69
251.931	68.69
252.164	83.69
252.397	59.69
252.63	70.69
252.863	78.69
253.096	85.69
253.329	83.69
253.562	92.69
253.795	73.69
254.028	74.69
254.261	95.69
254.494	71.69
254.727	93.69
254.96	83.69
255.193	85.69
255.426	74.69
255.659	66.69
255.892	72.69
256.124	83.69
256.357	71.69
256.59	82.69
256.823	79.69
257.056	91.69
257.289	85.69
257.521	70.69
257.754	79.69
257.987	65.69
258.22	79.69
258.452	72.69
258.685	78.69
258.918	98.69
259.151	87.69
259.383	72.69
259.616	79.69
259.849	68.69
260.081	75.69
260.314	75.69
260.547	87.69
260.779	91.69
261.012	91.69
261.244	77.69
261.477	69.69
261.71	81.69
261.942	84.69
262.175	71.69
262.407	78.69
262.64	84.69
262.872	77.69
263.105	85.69
263.337	95.69
263.57	75.69
263.802	69.69
264.035	75.69
264.267	84.69
264.499	91.69
264.732	93.69
264.964	93.69
265.197	87.69
265.429	93.69
265.661	84.69
265.894	79.69
266.126	87.69
266.358	71.69
266.591	78.69
266.823	82.69
267.055	85.69
267.287	95.69
267.52	91.69
267.752	80.69
267.984	81.69
268.216	84.69
268.448	89.69
268.681	81.69
268.913	92.69
269.145	81.69
269.377	77.69
269.609	75.69
269.841	69.69
270.073	79.69
270.306	77.69
270.538	82.69
270.77	72.69
271.002	82.69
271.234	91.69
271.466	81.69
271.698	90.69
271.93	96.69
272.162	98.69
272.394	76.69
272.626	90.69
272.858	85.69
273.09	82.69
273.322	76.69
273.553	80.69
273.785	101.69
274.017	73.69
274.249	85.69
274.481	73.69
274.713	81.69
274.945	85.69
275.176	87.69
275.408	77.69
275.64	83.69
275.872	81.69
276.104	85.69
276.335	89.69
276.567	86.69
276.799	77.69
277.031	67.69
277.262	78.69
277.494	79.69
277.726	72.69
277.957	89.69
278.189	83.69
278.421	94.69
278.652	70.69
278.884	77.69
279.115	79.69
279.347	77.69
279.579	82.69
279.81	86.69
280.042	91.69
280.273	71.69
280.505	94.69
280.736	79.69
280.968	74.69
281.199	75.69
281.431	85.69
281.662	86.69
281.894	83.69
282.125	71.69
282.356	88.69
282.588	75.69
282.819	81.69
283.051	74.69
283.282	72.69
283.513	83.69
283.745	95.69
283.976	84.69
284.207	77.69
284.439	90.69
284.67	75.69
284.901	70.69
285.132	68.69
285.364	82.69
285.595	84.69
285.826	85.69
286.057	84.69
286.288	85.69
286.52	89.69
286.751	78.69
286.982	78.69
287.213	84.69
287.444	86.69
287.675	85.69
287.906	84.69
288.138	74.69
288.369	77.69
288.6	93.69
288.831	79.69
289.062	87.69
289.293	84.69
289.524	78.69
289.755	69.69
289.986	76.69
290.217	89.69
290.448	95.69
290.679	83.69
290.91	86.69
291.141	83.69
291.371	88.69
291.602	93.69
291.833	85.69
292.064	89.69
292.295	82.69
292.526	78.69
292.757	83.69
292.987	82.69
293.218	83.69
293.449	72.69
293.68	70.69
293.91	68.69
294.141	66.69
294.372	77.69
294.603	89.69
294.833	82.69
295.064	82.69
295.295	86.69
295.525	76.69
295.756	78.69
295.987	85.69
296.217	87.69
296.448	81.69
296.679	76.69
296.909	87.69
297.14	86.69
297.37	73.69
297.601	86.69
297.831	88.69
298.062	94.69
298.292	86.69
298.523	80.69
298.753	101.69
298.984	99.69
299.214	76.69
299.445	82.69
299.675	72.69
299.905	83.69
300.136	70.69
300.366	82.69
300.597	89.69
300.827	92.69
301.057	79.69
301.288	80.69
301.518	90.69
301.748	77.69
301.979	97.69
302.209	79.69
302.439	78.69
302.669	83.69
302.9	97.69
303.13	99.69
303.36	85.69
303.59	91.69
303.82	82.69
304.051	83.69
304.281	94.69
304.511	81.69
304.741	105.69
304.971	90.69
305.201	79.69
305.431	86.69
305.661	89.69
305.891	84.69
306.121	87.69
306.352	69.69
306.582	80.69
306.812	88.69
307.042	89.69
307.272	94.69
307.502	86.69
307.731	90.69
307.961	69.69
308.191	80.69
308.421	70.69
308.651	93.69
308.881	81.69
309.111	74.69
309.341	82.69
309.571	87.69
309.8	72.69
310.03	82.69
310.26	92.69
310.49	79.69
310.72	90.69
310.949	94.69
311.179	94.69
311.409	86.69
311.639	91.69
311.868	79.69
312.098	80.69
312.328	89.69
312.557	84.69
312.787	79.69
313.017	79.69
313.246	99.69
313.476	79.69
313.706	85.69
313.935	71.69
314.165	83.69
314.394	76.69
314.624	83.69
314.853	74.69
315.083	81.69
315.312	86.69
315.542	93.69
315.771	89.69
316.001	82.69
316.23	81.69
316.46	64.69
316.689	81.69
316.919	85.69
317.148	86.69
317.377	97.69
317.607	87.69
317.836	90.69
318.065	83.69
318.295	83.69
318.524	69.69
318.753	86.69
318.983	76.69
319.212	86.69
319.441	80.69
319.67	92.69
319.9	72.69
320.129	85.69
320.358	81.69
320.587	77.69
320.816	74.69
321.046	84.69
321.275	89.69
321.504	85.69
321.733	75.69
321.962	83.69
322.191	85.69
322.42	76.69
322.649	88.69
322.878	80.69
323.108	90.69
323.337	90.69
323.566	90.69
323.795	94.69
324.024	76.69
324.253	92.69
324.482	80.69
324.71	85.69
324.939	83.69
325.168	85.69
325.397	76.69
325.626	94.69
325.855	83.69
326.084	82.69
326.313	86.69
326.542	77.69
326.77	80.69
326.999	85.69
327.228	79.69
327.457	89.69
327.686	87.69
327.914	87.69
328.143	71.69
328.372	82.69
328.6	75.69
328.829	74.69
329.058	68.69
329.287	92.69
329.515	92.69
329.744	87.69
329.972	79.69
330.201	93.69
330.43	87.69
330.658	91.69
330.887	87.69
331.115	73.69
331.344	85.69
331.572	84.69
331.801	79.69
332.03	86.69
332.258	70.69
332.486	69.69
332.715	76.69
332.943	83.69
333.172	78.69
333.4	93.69
333.629	83.69
333.857	89.69
334.085	76.69
334.314	93.69
334.542	86.69
334.771	82.69
334.999	90.69
335.227	86.69
335.455	79.69
335.684	81.69
335.912	91.69
336.14	85.69
336.369	76.69
336.597	81.69
336.825	71.69
337.053	94.69
337.281	86.69
337.51	78.69
337.738	92.69
337.966	81.69
338.194	87.69
338.422	81.69
338.65	85.69
338.878	79.69
339.106	79.69
339.334	93.69
339.562	73.69
339.79	77.69
340.018	94.69
340.246	73.69
340.474	87.69
340.702	82.69
340.93	83.69
341.158	79.69
341.386	86.69
341.614	86.69
341.842	75.69
342.07	86.69
342.298	83.69
342.526	86.69
342.754	85.69
342.981	82.69
343.209	82.69
343.437	88.69
343.665	76.69
343.893	91.69
344.12	82.69
344.348	83.69
344.576	74.69
344.804	87.69
345.031	59.69
345.259	85.69
345.487	85.69
345.714	82.69
345.942	93.69
346.17	86.69
346.397	78.69
346.625	79.69
346.853	84.69
347.08	78.69
347.308	83.69
347.535	88.69
347.763	71.69
347.99	86.69
348.218	89.69
348.445	64.69
348.673	75.69
348.9	82.69
349.128	75.69
349.355	82.69
349.583	82.69
349.81	94.69
350.037	78.69
350.265	79.69
350.492	75.69
350.72	90.69
350.947	93.69
351.174	96.69
351.402	75.69
351.629	88.69
351.856	93.69
352.083	78.69
352.311	89.69
352.538	91.69
352.765	97.69
352.992	92.69
353.22	76.69
353.447	80.69
353.674	89.69
353.901	93.69
354.128	76.69
354.355	91.69
354.583	88.69
354.81	85.69
355.037	79.69
355.264	94.69
355.491	85.69
355.718	92.69
355.945	84.69
356.172	81.69
356.399	98.69
356.626	79.69
356.853	91.69
357.08	95.69
357.307	68.69
357.534	86.69
357.761	82.69
357.988	91.69
358.215	81.69
358.441	77.69
358.668	86.69
358.895	79.69
359.122	76.69
359.349	83.69
359.576	80.69
359.802	84.69
360.029	94.69
360.256	65.69
360.483	77.69
360.709	83.69
360.936	85.69
361.163	82.69
361.39	78.69
361.616	80.69
361.843	75.69
362.07	89.69
362.296	82.69
362.523	77.69
362.749	77.69
362.976	96.69
363.203	84.69
363.429	82.69
363.656	68.69
363.882	87.69
364.109	83.69
364.335	84.69
364.562	89.69
364.788	78.69
365.015	73.69
365.241	83.69
365.468	68.69
365.694	91.69
365.92	78.69
366.147	95.69
366.373	90.69
366.599	94.69
366.826	73.69
367.052	66.69
367.278	81.69
367.505	78.69
367.731	76.69
367.957	84.69
368.184	71.69
368.41	68.69
368.636	97.69
368.862	79.69
369.089	65.69
369.315	81.69
369.541	84.69
369.767	84.69
369.993	90.69
370.219	86.69
370.445	82.69
370.672	83.69
370.898	94.69
371.124	92.69
371.35	83.69
371.576	79.69
371.802	90.69
372.028	81.69
372.254	71.69
372.48	81.69
372.706	78.69
372.932	81.69
373.158	93.69
373.384	86.69
373.61	77.69
373.835	83.69
374.061	84.69
374.287	80.69
374.513	81.69
374.739	76.69
374.965	80.69
375.191	89.69
375.416	90.69
375.642	77.69
375.868	93.69
376.094	72.69
376.319	85.69
376.545	69.69
376.771	93.69
376.997	72.69
377.222	83.69
377.448	77.69
377.674	71.69
377.899	60.69
378.125	76.69
378.35	68.69
378.576	78.69
378.802	74.69
379.027	69.69
379.253	87.69
379.478	85.69
379.704	77.69
379.929	75.69
380.155	85.69
380.38	90.69
380.606	82.69
380.831	85.69
381.057	97.69
381.282	90.69
381.507	81.69
381.733	60.69
381.958	76.69
382.184	71.69
382.409	81.69
382.634	93.69
382.86	89.69
383.085	77.69
383.31	72.69
383.535	75.69
383.761	77.69
383.986	93.69
384.211	71.69
384.436	74.69
384.662	72.69
384.887	79.69
385.112	71.69
385.337	77.69
385.562	87.69
385.787	82.69
386.013	92.69
386.238	82.69
386.463	97.69
386.688	82.69
386.913	81.69
387.138	82.69
387.363	95.69
387.588	91.69
387.813	82.69
388.038	78.69
388.263	80.69
388.488	80.69
388.713	86.69
388.938	91.69
389.163	77.69
389.387	90.69
389.612	75.69
389.837	71.69
390.062	89.69
390.287	78.69
390.512	79.69
390.736	83.69
390.961	77.69
391.186	81.69
391.411	93.69
391.636	78.69
391.86	69.69
392.085	80.69
392.31	77.69
392.534	89.69
392.759	77.69
392.984	79.69
393.208	77.69
393.433	77.69
393.658	74.69
393.882	58.69
394.107	90.69
394.331	88.69
394.556	76.69
394.78	89.69
395.005	72.69
395.229	94.69
395.454	87.69
395.678	81.69
395.903	78.69
396.127	75.69
396.352	86.69
396.576	93.69
396.801	85.69
397.025	86.69
397.249	93.69
397.474	88.69
397.698	81.69
397.922	62.69
398.147	80.69
398.371	74.69
398.595	84.69
398.82	77.69
399.044	87.69
399.268	81.69
399.492	83.69
399.717	72.69
399.941	79.69
400.165	81.69
400.389	83.69
400.613	69.69
400.837	79.69
401.062	83.69
401.286	88.69
401.51	90.69
401.734	77.69
401.958	59.69
402.182	79.69
402.406	71.69
402.63	80.69
402.854	74.69
403.078	79.69
403.302	79.69
403.526	80.69
403.75	64.69
403.974	67.69
404.198	75.69
404.422	73.69
404.645	72.69
404.869	77.69
405.093	82.69
405.317	73.69
405.541	85.69
405.765	77.69
405.988	54.69
406.212	76.69
406.436	75.69
406.66	89.69
406.883	89.69
407.107	73.69
407.331	65.69
407.555	80.69
407.778	85.69
408.002	85.69
408.226	88.69
408.449	83.69
408.673	74.69
408.896	67.69
409.12	87.69
409.344	78.69
409.567	76.69
409.791	79.69
410.014	74.69
410.238	69.69
410.461	84.69
410.685	85.69
410.908	89.69
411.132	79.69
411.355	82.69
411.578	77.69
411.802	96.69
412.025	75.69
412.249	72.69
412.472	81.69
412.695	69.69
412.919	86.69
413.142	77.69
413.365	81.69
413.589	93.69
413.812	71.69
414.035	68.69
414.258	94.69
414.482	79.69
414.705	71.69
414.928	77.69
415.151	90.69
415.374	84.69
415.597	74.69
415.821	81.69
416.044	97.69
416.267	93.69
416.49	69.69
416.713	78.69
416.936	77.69
417.159	76.69
417.382	63.69
417.605	78.69
417.828	93.69
418.051	81.69
418.274	77.69
418.497	76.69
418.72	83.69
418.943	95.69
419.166	65.69
419.389	79.69
419.611	71.69
419.834	68.69
420.057	77.69
420.28	73.69
420.503	75.69
420.726	85.69
420.948	64.69
421.171	71.69
421.394	71.69
421.617	81.69
421.839	69.69
422.062	73.69
422.285	74.69
422.507	75.69
422.73	89.69
422.953	79.69
423.175	65.69
423.398	79.69
423.621	82.69
423.843	82.69
424.066	76.69
424.288	85.69
424.511	82.69
424.733	76.69
424.956	78.69
425.178	72.69
425.401	71.69
425.623	76.69
425.846	91.69
426.068	79.69
426.291	61.69
426.513	92.69
426.735	66.69
426.958	88.69
427.18	89.69
427.402	80.69
427.625	76.69
427.847	73.69
428.069	82.69
428.292	103.69
428.514	90.69
428.736	76.69
428.958	91.69
429.181	87.69
429.403	85.69
429.625	86.69
429.847	82.69
430.069	82.69
430.292	64.69
430.514	77.69
430.736	82.69
430.958	87.69
431.18	67.69
431.402	67.69
431.624	92.69
431.846	91.69
432.068	80.69
432.29	90.69
432.512	95.69
432.734	90.69
432.956	79.69
433.178	84.69
433.4	81.69
433.622	81.69
433.844	82.69
434.066	74.69
434.287	89.69
434.509	89.69
434.731	84.69
434.953	76.69
435.175	85.69
435.397	80.69
435.618	79.69
435.84	74.69
436.062	81.69
436.284	67.69
436.505	72.69
436.727	71.69
436.949	70.69
437.17	75.69
437.392	79.69
437.614	76.69
437.835	77.69
438.057	74.69
438.278	78.69
438.5	76.69
438.721	78.69
438.943	97.69
439.165	89.69
439.386	83.69
439.608	89.69
439.829	79.69
440.05	78.69
440.272	80.69
440.493	74.69
440.715	84.69
440.936	78.69
441.158	80.69
441.379	78.69
441.6	87.69
441.822	84.69
442.043	66.69
442.264	82.69
442.486	80.69
442.707	75.69
442.928	79.69
443.149	80.69
443.371	71.69
443.592	78.69
443.813	77.69
444.034	68.69
444.255	67.69
444.476	85.69
444.698	65.69
444.919	86.69
445.14	146.69
445.361	123.69
445.582	77.69
445.803	77.69
446.024	83.69
446.245	81.69
446.466	77.69
446.687	90.69
446.908	87.69
447.129	89.69
447.35	82.69
447.571	75.69
447.792	70.69
448.013	87.69
448.234	75.69
448.455	71.69
448.675	82.69
448.896	82.69
449.117	78.69
449.338	84.69
449.559	83.69
449.779	78.69
450	75.69
450.221	72.69
450.442	82.69
450.662	91.69
450.883	80.69
451.104	95.69
451.324	73.69
451.545	86.69
451.766	82.69
451.986	77.69
452.207	89.69
452.428	87.69
452.648	79.69
452.869	71.69
453.089	92.69
453.31	87.69
453.53	83.69
453.751	83.69
453.971	72.69
454.192	74.69
454.412	58.69
454.633	82.69
454.853	82.69
455.073	76.69
455.294	86.69
455.514	85.69
455.734	78.69
455.955	62.69
456.175	90.69
456.395	79.69
456.616	76.69
456.836	69.69
457.056	75.69
457.276	81.69
457.497	74.69
457.717	78.69
457.937	80.69
458.157	71.69
458.377	77.69
458.598	86.69
458.818	84.69
459.038	76.69
459.258	77.69
459.478	63.69
459.698	69.69
459.918	81.69
460.138	71.69
460.358	89.69
460.578	69.69
460.798	85.69
461.018	102.69
461.238	85.69
461.458	91.69
461.678	87.69
461.898	47.69
462.118	66.69
462.338	77.69
462.558	84.69
462.777	78.69
462.997	77.69
463.217	73.69
463.437	74.69
463.657	71.69
463.876	70.69
464.096	90.69
464.316	77.69
464.536	69.69
464.755	95.69
464.975	69.69
465.195	91.69
465.414	71.69
465.634	81.69
465.854	82.69
466.073	94.69
466.293	71.69
466.512	79.69
466.732	71.69
466.951	73.69
467.171	83.69
467.391	73.69
467.61	74.69
467.829	73.69
468.049	76.69
468.268	82.69
468.488	67.69
468.707	84.69
468.927	80.69
469.146	83.69
469.365	82.69
469.585	65.69
469.804	80.69
470.023	83.69
470.243	81.69
470.462	73.69
470.681	78.69
470.901	65.69
471.12	75.69
471.339	82.69
471.558	62.69
471.777	82.69
471.997	82.69
472.216	86.69
472.435	72.69
472.654	81.69
472.873	82.69
473.092	80.69
473.311	81.69
473.53	71.69
473.749	82.69
473.968	84.69
474.187	77.69
474.406	67.69
474.625	73.69
474.844	83.69
475.063	83.69
475.282	72.69
475.501	84.69
475.72	93.69
475.939	81.69
476.158	85.69
476.377	76.69
476.596	83.69
476.814	92.69
477.033	77.69
477.252	87.69
477.471	85.69
477.69	81.69
477.908	84.69
478.127	87.69
478.346	84.69
478.564	94.69
478.783	89.69
479.002	76.69
479.22	86.69
479.439	96.69
479.658	89.69
479.876	74.69
480.095	79.69
480.313	77.69
480.532	88.69
480.751	79.69
480.969	67.69
481.188	82.69
481.406	77.69
481.624	64.69
481.843	68.69
482.061	82.69
482.28	88.69
482.498	59.69
482.717	64.69
482.935	78.69
483.153	87.69
483.372	95.69
483.59	77.69
483.808	75.69
484.027	88.69
484.245	80.69
484.463	88.69
484.681	85.69
484.9	65.69
485.118	85.69
485.336	75.69
485.554	85.69
485.772	74.69
485.99	93.69
486.209	77.69
486.427	62.69
486.645	86.69
486.863	81.69
487.081	77.69
487.299	79.69
487.517	71.69
487.735	76.69
487.953	86.69
488.171	74.69
488.389	83.69
488.607	66.69
488.825	71.69
489.043	72.69
489.261	86.69
489.479	86.69
489.696	77.69
489.914	86.69
490.132	77.69
490.35	90.69
490.568	70.69
490.786	81.69
491.003	81.69
491.221	75.69
491.439	89.69
491.657	72.69
491.874	79.69
492.092	94.69
492.31	91.69
492.527	83.69
492.745	77.69
492.963	83.69
493.18	87.69
493.398	79.69
493.615	91.69
493.833	76.69
494.05	72.69
494.268	92.69
494.485	87.69
494.703	76.69
494.92	81.69
495.138	81.69
495.355	83.69
495.573	85.69
495.79	76.69
496.008	90.69
496.225	86.69
496.442	73.69
496.66	81.69
496.877	84.69
497.094	87.69
497.312	77.69
497.529	84.69
497.746	84.69
497.963	79.69
498.181	96.69
498.398	75.69
498.615	90.69
498.832	86.69
499.049	73.69
499.267	87.69
499.484	74.69
499.701	80.69
499.918	72.69
500.135	77.69
500.352	79.69
500.569	79.69
500.786	78.69
501.003	97.69
501.22	84.69
501.437	82.69
501.654	84.69
501.871	84.69
502.088	79.69
502.305	75.69
502.522	78.69
502.739	89.69
502.956	74.69
503.172	65.69
503.389	85.69
503.606	75.69
503.823	74.69
504.04	85.69
504.256	98.69
504.473	77.69
504.69	82.69
504.907	75.69
505.123	78.69
505.34	84.69
505.557	70.69
505.773	74.69
505.99	95.69
506.207	77.69
506.423	84.69
506.64	82.69
506.856	93.69
507.073	75.69
507.289	99.69
507.506	86.69
507.722	74.69
507.939	80.69
508.155	77.69
508.372	71.69
508.588	88.69
508.805	76.69
509.021	81.69
509.238	81.69
509.454	79.69
509.67	80.69
509.887	90.69
510.103	92.69
510.319	81.69
510.536	87.69
510.752	74.69
510.968	83.69
511.184	83.69
511.401	80.69
511.617	80.69
511.833	80.69
512.049	77.69
512.265	78.69
512.481	86.69
512.698	76.69
512.914	81.69
513.13	81.69
513.346	67.69
513.562	75.69
513.778	81.69
513.994	85.69
514.21	85.69
514.426	88.69
514.642	87.69
514.858	96.69
515.074	74.69
515.29	81.69
515.506	87.69
515.721	77.69
515.937	94.69
516.153	83.69
516.369	93.69
516.585	74.69
516.801	77.69
517.016	80.69
517.232	84.69
517.448	75.69
517.664	85.69
517.879	66.69
518.095	77.69
518.311	83.69
518.527	93.69
518.742	85.69
518.958	82.69
519.173	66.69
519.389	69.69
519.605	76.69
519.82	77.69
520.036	89.69
520.251	83.69
520.467	69.69
520.682	82.69
520.898	84.69
521.113	79.69
521.329	65.69
521.544	84.69
521.76	83.69
521.975	89.69
522.19	75.69
522.406	77.69
522.621	75.69
522.836	96.69
523.052	70.69
523.267	77.69
523.482	91.69
523.698	73.69
523.913	77.69
524.128	80.69
524.343	89.69
524.559	83.69
524.774	85.69
524.989	77.69
525.204	90.69
525.419	81.69
525.634	82.69
525.849	84.69
526.064	83.69
526.28	86.69
526.495	75.69
526.71	84.69
526.925	88.69
527.14	71.69
527.355	87.69
527.57	82.69
527.785	72.69
527.999	79.69
528.214	91.69
528.429	70.69
528.644	89.69
528.859	79.69
529.074	80.69
529.289	98.69
529.503	85.69
529.718	93.69
529.933	74.69
530.148	101.69
530.363	90.69
530.577	72.69
530.792	94.69
531.007	85.69
531.221	83.69
531.436	80.69
531.651	83.69
531.865	66.69
532.08	78.69
532.295	85.69
532.509	90.69
532.724	71.69
532.938	75.69
533.153	78.69
533.367	65.69
533.582	75.69
533.796	79.69
534.011	82.69
534.225	89.69
534.44	87.69
534.654	72.69
534.868	85.69
535.083	82.69
535.297	92.69
535.511	91.69
535.726	96.69
535.94	85.69
536.154	72.69
536.369	84.69
536.583	81.69
536.797	73.69
537.011	83.69
537.225	85.69
537.44	70.69
537.654	88.69
537.868	75.69
538.082	63.69
538.296	86.69
538.51	82.69
538.724	69.69
538.938	86.69
539.153	80.69
539.367	74.69
539.581	85.69
539.795	86.69
540.009	82.69
540.222	74.69
540.436	69.69
540.65	79.69
540.864	81.69
541.078	91.69
541.292	77.69
541.506	76.69
541.72	85.69
541.934	79.69
542.147	93.69
542.361	87.69
542.575	88.69
542.789	90.69
543.002	77.69
543.216	95.69
543.43	78.69
543.644	87.69
543.857	77.69
544.071	84.69
544.285	81.69
544.498	79.69
544.712	85.69
544.925	75.69
545.139	82.69
545.352	80.69
545.566	63.69
545.779	93.69
545.993	86.69
546.206	93.69
546.42	85.69
546.633	84.69
546.847	84.69
547.06	87.69
547.274	89.69
547.487	84.69
547.7	94.69
547.914	102.69
548.127	85.69
548.34	93.69
548.554	71.69
548.767	79.69
548.98	85.69
549.193	86.69
549.407	103.69
549.62	86.69
549.833	84.69
550.046	86.69
550.259	76.69
550.473	65.69
550.686	96.69
550.899	69.69
551.112	85.69
551.325	87.69
551.538	68.69
551.751	90.69
551.964	93.69
552.177	88.69
552.39	81.69
552.603	87.69
552.816	90.69
553.029	90.69
553.242	76.69
553.455	81.69
553.667	90.69
553.88	94.69
554.093	84.69
554.306	81.69
554.519	93.69
554.732	82.69
554.944	84.69
555.157	93.69
555.37	79.69
555.583	83.69
555.795	77.69
556.008	83.69
556.221	83.69
556.433	68.69
556.646	78.69
556.859	81.69
557.071	83.69
557.284	87.69
557.496	88.69
557.709	97.69
557.921	91.69
558.134	83.69
558.346	77.69
558.559	85.69
558.771	74.69
558.984	86.69
559.196	89.69
559.409	83.69
559.621	81.69
559.833	81.69
560.046	87.69
560.258	86.69
560.47	82.69
560.683	81.69
560.895	79.69
561.107	86.69
561.32	83.69
561.532	75.69
561.744	79.69
561.956	92.69
562.168	88.69
562.381	75.69
562.593	91.69
562.805	85.69
563.017	93.69
563.229	86.69
563.441	85.69
563.653	93.69
563.865	86.69
564.077	75.69
564.289	74.69
564.501	94.69
564.713	79.69
564.925	84.69
565.137	82.69
565.349	81.69
565.561	71.69
565.773	82.69
565.985	77.69
566.197	95.69
566.408	90.69
566.62	81.69
566.832	84.69
567.044	70.69
567.255	93.69
567.467	81.69
567.679	79.69
567.891	85.69
568.102	70.69
568.314	87.69
568.526	95.69
568.737	78.69
568.949	83.69
569.161	79.69
569.372	91.69
569.584	73.69
569.795	89.69
570.007	83.69
570.218	90.69
570.43	71.69
570.641	78.69
570.853	90.69
571.064	77.69
571.276	91.69
571.487	81.69
571.698	81.69
571.91	80.69
572.121	80.69
572.333	96.69
572.544	82.69
572.755	98.69
572.966	86.69
573.178	80.69
573.389	93.69
573.6	85.69
573.811	89.69
574.023	83.69
574.234	80.69
574.445	70.69
574.656	89.69
574.867	69.69
575.078	93.69
575.289	86.69
575.501	74.69
575.712	77.69
575.923	79.69
576.134	74.69
576.345	80.69
576.556	79.69
576.767	94.69
576.978	75.69
577.188	70.69
577.399	96.69
577.61	93.69
577.821	94.69
578.032	71.69
578.243	89.69
578.454	97.69
578.665	92.69
578.875	81.69
579.086	82.69
579.297	77.69
579.508	76.69
579.718	88.69
579.929	73.69
580.14	89.69
580.35	74.69
580.561	90.69
580.772	70.69
580.982	88.69
581.193	84.69
581.403	95.69
581.614	93.69
581.825	79.69
582.035	81.69
582.246	84.69
582.456	86.69
582.667	73.69
582.877	87.69
583.087	85.69
583.298	71.69
583.508	89.69
583.719	86.69
583.929	78.69
584.139	83.69
584.35	65.69
584.56	91.69
584.77	74.69
584.981	94.69
585.191	89.69
585.401	97.69
585.611	82.69
585.821	74.69
586.032	78.69
586.242	87.69
586.452	92.69
586.662	79.69
586.872	92.69
587.082	92.69
587.292	75.69
587.502	93.69
587.713	81.69
587.923	85.69
588.133	89.69
588.343	77.69
588.553	86.69
588.762	90.69
588.972	78.69
589.182	89.69
589.392	73.69
589.602	94.69
589.812	74.69
590.022	91.69
590.232	78.69
590.441	83.69
590.651	80.69
590.861	69.69
591.071	86.69
591.281	89.69
591.49	83.69
591.7	89.69
591.91	98.69
592.119	81.69
592.329	79.69
592.539	81.69
592.748	85.69
592.958	75.69
593.167	75.69
593.377	82.69
593.587	98.69
593.796	76.69
594.006	91.69
594.215	86.69
594.424	81.69
594.634	92.69
594.843	78.69
595.053	81.69
595.262	68.69
595.472	78.69
595.681	83.69
595.89	73.69
596.1	73.69
596.309	82.69
596.518	92.69
596.727	85.69
596.937	85.69
597.146	70.69
597.355	87.69
597.564	83.69
597.774	86.69
597.983	78.69
598.192	96.69
598.401	75.69
598.61	89.69
598.819	71.69
599.028	101.69
599.237	88.69
599.446	77.69
599.655	81.69
599.864	95.69
600.073	79.69
600.282	100.69
600.491	82.69
600.7	77.69
600.909	80.69
601.118	91.69
601.327	70.69
601.536	79.69
601.745	76.69
601.953	91.69
602.162	92.69
602.371	80.69
602.58	78.69
602.789	89.69
602.997	82.69
603.206	67.69
603.415	85.69
603.623	77.69
603.832	85.69
604.041	98.69
604.249	96.69
604.458	85.69
604.666	84.69
604.875	85.69
605.084	77.69
605.292	82.69
605.501	86.69
605.709	81.69
605.918	80.69
606.126	89.69
606.334	89.69
606.543	84.69
606.751	79.69
606.96	83.69
607.168	83.69
607.376	78.69
607.585	89.69
607.793	92.69
608.001	94.69
608.21	79.69
608.418	74.69
608.626	90.69
608.834	81.69
609.043	90.69
609.251	74.69
609.459	77.69
609.667	83.69
609.875	81.69
610.083	78.69
610.291	77.69
610.499	92.69
610.707	85.69
610.916	84.69
611.124	85.69
611.332	74.69
611.54	84.69
611.748	83.69
611.955	85.69
612.163	74.69
612.371	94.69
612.579	81.69
612.787	79.69
612.995	79.69
613.203	73.69
613.411	73.69
613.618	86.69
613.826	77.69
614.034	81.69
614.242	81.69
614.449	86.69
614.657	88.69
614.865	80.69
615.072	86.69
615.28	75.69
615.488	79.69
615.695	80.69
615.903	76.69
616.111	90.69
616.318	85.69
616.526	86.69
616.733	82.69
616.941	70.69
617.148	95.69
617.356	89.69
617.563	75.69
617.771	82.69
617.978	87.69
618.185	77.69
618.393	82.69
618.6	86.69
618.807	84.69
619.015	70.69
619.222	94.69
619.429	74.69
619.637	82.69
619.844	77.69
620.051	86.69
620.258	83.69
620.466	87.69
620.673	82.69
620.88	69.69
621.087	73.69
621.294	86.69
621.501	77.69
621.708	97.69
621.915	99.69
622.122	96.69
622.329	86.69
622.536	97.69
622.743	77.69
622.95	89.69
623.157	65.69
623.364	79.69
623.571	81.69
623.778	93.69
623.985	74.69
624.192	87.69
624.399	89.69
624.606	78.69
624.812	91.69
625.019	79.69
625.226	85.69
625.433	102.69
625.639	77.69
625.846	86.69
626.053	69.69
626.259	86.69
626.466	78.69
626.673	76.69
626.879	79.69
627.086	82.69
627.293	76.69
627.499	66.69
627.706	81.69
627.912	87.69
628.119	68.69
628.325	80.69
628.532	74.69
628.738	75.69
628.945	78.69
629.151	75.69
629.357	85.69
629.564	89.69
629.77	75.69
629.976	87.69
630.183	70.69
630.389	83.69
630.595	72.69
630.802	70.69
631.008	78.69
631.214	65.69
631.42	73.69
631.627	85.69
631.833	89.69
632.039	78.69
632.245	97.69
632.451	94.69
632.657	78.69
632.863	85.69
633.069	76.69
633.275	79.69
633.481	72.69
633.688	83.69
633.893	88.69
634.099	81.69
634.305	63.69
634.511	78.69
634.717	95.69
634.923	77.69
635.129	86.69
635.335	75.69
635.541	78.69
635.747	89.69
635.952	75.69
636.158	91.69
636.364	79.69
636.57	85.69
636.775	78.69
636.981	92.69
637.187	84.69
637.392	84.69
637.598	83.69
637.804	79.69
638.009	84.69
638.215	87.69
638.421	92.69
638.626	92.69
638.832	84.69
639.037	70.69
639.243	75.69
639.448	86.69
639.654	95.69
639.859	88.69
640.065	90.69
640.27	84.69
640.475	67.69
640.681	85.69
640.886	70.69
641.091	79.69
641.297	98.69
641.502	79.69
641.707	76.69
641.913	76.69
642.118	89.69
642.323	79.69
642.528	69.69
642.733	70.69
642.939	82.69
643.144	78.69
643.349	91.69
643.554	81.69
643.759	82.69
643.964	80.69
644.169	89.69
644.374	87.69
644.579	83.69
644.784	75.69
644.989	84.69
645.194	86.69
645.399	86.69
645.604	82.69
645.809	79.69
646.014	66.69
646.219	95.69
646.423	86.69
646.628	71.69
646.833	81.69
647.038	78.69
647.243	77.69
647.447	74.69
647.652	81.69
647.857	72.69
648.062	87.69
648.266	79.69
648.471	86.69
648.676	89.69
648.88	82.69
649.085	98.69
649.289	85.69
649.494	82.69
649.698	95.69
649.903	74.69
650.107	89.69
650.312	94.69
650.516	83.69
650.721	110.69
650.925	101.69
651.13	84.69
651.334	95.69
651.539	72.69
651.743	77.69
651.947	70.69
652.152	93.69
652.356	86.69
652.56	102.69
652.764	74.69
652.969	77.69
653.173	92.69
653.377	81.69
653.581	89.69
653.785	87.69
653.99	79.69
654.194	77.69
654.398	77.69
654.602	80.69
654.806	77.69
655.01	85.69
655.214	82.69
655.418	90.69
655.622	81.69
655.826	83.69
656.03	97.69
656.234	93.69
656.438	82.69
656.642	77.69
656.846	79.69
657.049	76.69
657.253	84.69
657.457	86.69
657.661	85.69
657.865	86.69
658.068	86.69
658.272	88.69
658.476	69.69
658.68	67.69
658.883	82.69
659.087	92.69
659.291	77.69
659.494	85.69
659.698	83.69
659.901	87.69
660.105	71.69
660.309	80.69
660.512	85.69
660.716	82.69
660.919	80.69
661.123	79.69
661.326	73.69
661.53	83.69
661.733	89.69
661.936	72.69
662.14	89.69
662.343	77.69
662.546	84.69
662.75	76.69
662.953	81.69
663.156	105.69
663.36	78.69
663.563	89.69
663.766	83.69
663.969	88.69
664.173	85.69
664.376	76.69
664.579	79.69
664.782	85.69
664.985	70.69
665.188	81.69
665.391	85.69
665.594	67.69
665.797	85.69
666	74.69
666.203	75.69
666.406	72.69
666.609	80.69
666.812	70.69
667.015	63.69
667.218	81.69
667.421	78.69
667.624	75.69
667.827	81.69
668.03	69.69
668.232	79.69
668.435	87.69
668.638	72.69
668.841	94.69
669.043	83.69
669.246	94.69
669.449	74.69
669.651	98.69
669.854	75.69
670.057	75.69
670.259	89.69
670.462	86.69
670.665	90.69
670.867	100.69
671.07	79.69
671.272	76.69
671.475	92.69
671.677	83.69
671.88	92.69
672.082	85.69
672.284	81.69
672.487	64.69
672.689	78.69
672.892	77.69
