Data from Background_2_HRD10591_00072.txt Node
Date: Wed Nov 05 14:47:32 EST 2025
User: Yrep
Spectrometer: HR+D1059
Trigger mode: 1
Integration Time (sec): 1.000000E-1
Scans to average: 1
Electric dark correction enabled: true
Nonlinearity correction enabled: false
Boxcar width: 0
XAxis mode: Wavelengths
Number of Pixels in Spectrum: 2048
>>>>>Begin Spectral Data<<<<<
223.165	-17.25
223.4	-17.25
223.635	-17.25
223.869	-8.25
224.104	-12.25
224.338	-19.25
224.573	-5.25
224.808	-17.25
225.042	-13.25
225.277	-9.25
225.511	-10.25
225.746	7.75
225.98	3.75
226.215	25.75
226.449	25.75
226.683	9.75
226.918	13.75
227.152	25.75
227.387	30.75
227.621	39.75
227.856	60.75
228.09	55.75
228.324	55.75
228.559	61.75
228.793	58.75
229.027	70.75
229.262	53.75
229.496	52.75
229.73	70.75
229.964	65.75
230.199	83.75
230.433	69.75
230.667	86.75
230.901	67.75
231.136	79.75
231.37	91.75
231.604	79.75
231.838	91.75
232.072	83.75
232.306	79.75
232.541	89.75
232.775	83.75
233.009	79.75
233.243	83.75
233.477	83.75
233.711	70.75
233.945	84.75
234.179	80.75
234.413	91.75
234.647	94.75
234.881	95.75
235.115	81.75
235.349	76.75
235.583	93.75
235.817	98.75
236.051	74.75
236.285	61.75
236.519	84.75
236.753	85.75
236.987	83.75
237.221	77.75
237.455	77.75
237.689	80.75
237.922	81.75
238.156	75.75
238.39	76.75
238.624	77.75
238.858	76.75
239.091	78.75
239.325	78.75
239.559	74.75
239.793	77.75
240.027	79.75
240.26	92.75
240.494	73.75
240.728	85.75
240.961	72.75
241.195	79.75
241.429	74.75
241.662	84.75
241.896	89.75
242.13	74.75
242.363	68.75
242.597	73.75
242.83	80.75
243.064	81.75
243.298	69.75
243.531	78.75
243.765	85.75
243.998	81.75
244.232	70.75
244.465	88.75
244.699	83.75
244.932	90.75
245.166	96.75
245.399	73.75
245.633	70.75
245.866	71.75
246.099	83.75
246.333	82.75
246.566	83.75
246.8	74.75
247.033	80.75
247.266	88.75
247.5	77.75
247.733	76.75
247.966	62.75
248.2	76.75
248.433	78.75
248.666	85.75
248.899	83.75
249.133	88.75
249.366	85.75
249.599	77.75
249.832	62.75
250.066	80.75
250.299	73.75
250.532	81.75
250.765	86.75
250.998	78.75
251.231	85.75
251.465	85.75
251.698	72.75
251.931	78.75
252.164	88.75
252.397	93.75
252.63	73.75
252.863	71.75
253.096	85.75
253.329	62.75
253.562	83.75
253.795	90.75
254.028	70.75
254.261	80.75
254.494	88.75
254.727	78.75
254.96	75.75
255.193	80.75
255.426	87.75
255.659	81.75
255.892	76.75
256.124	72.75
256.357	76.75
256.59	84.75
256.823	91.75
257.056	65.75
257.289	75.75
257.521	76.75
257.754	74.75
257.987	91.75
258.22	91.75
258.452	95.75
258.685	92.75
258.918	73.75
259.151	74.75
259.383	80.75
259.616	76.75
259.849	79.75
260.081	97.75
260.314	91.75
260.547	74.75
260.779	78.75
261.012	79.75
261.244	90.75
261.477	91.75
261.71	79.75
261.942	81.75
262.175	77.75
262.407	68.75
262.64	68.75
262.872	74.75
263.105	90.75
263.337	81.75
263.57	82.75
263.802	86.75
264.035	90.75
264.267	80.75
264.499	74.75
264.732	68.75
264.964	84.75
265.197	80.75
265.429	79.75
265.661	77.75
265.894	75.75
266.126	90.75
266.358	92.75
266.591	94.75
266.823	71.75
267.055	93.75
267.287	61.75
267.52	87.75
267.752	89.75
267.984	94.75
268.216	91.75
268.448	81.75
268.681	87.75
268.913	71.75
269.145	85.75
269.377	82.75
269.609	86.75
269.841	84.75
270.073	81.75
270.306	78.75
270.538	79.75
270.77	91.75
271.002	75.75
271.234	77.75
271.466	85.75
271.698	80.75
271.93	85.75
272.162	86.75
272.394	90.75
272.626	85.75
272.858	83.75
273.09	93.75
273.322	78.75
273.553	92.75
273.785	87.75
274.017	79.75
274.249	73.75
274.481	84.75
274.713	67.75
274.945	76.75
275.176	76.75
275.408	91.75
275.64	83.75
275.872	93.75
276.104	82.75
276.335	81.75
276.567	88.75
276.799	83.75
277.031	78.75
277.262	79.75
277.494	85.75
277.726	87.75
277.957	88.75
278.189	78.75
278.421	76.75
278.652	89.75
278.884	82.75
279.115	76.75
279.347	88.75
279.579	77.75
279.81	90.75
280.042	100.75
280.273	88.75
280.505	95.75
280.736	82.75
280.968	81.75
281.199	94.75
281.431	84.75
281.662	68.75
281.894	89.75
282.125	79.75
282.356	82.75
282.588	83.75
282.819	73.75
283.051	90.75
283.282	89.75
283.513	84.75
283.745	86.75
283.976	70.75
284.207	96.75
284.439	81.75
284.67	77.75
284.901	75.75
285.132	97.75
285.364	80.75
285.595	82.75
285.826	89.75
286.057	78.75
286.288	86.75
286.52	96.75
286.751	87.75
286.982	83.75
287.213	80.75
287.444	82.75
287.675	73.75
287.906	90.75
288.138	92.75
288.369	86.75
288.6	93.75
288.831	75.75
289.062	84.75
289.293	81.75
289.524	72.75
289.755	76.75
289.986	85.75
290.217	90.75
290.448	82.75
290.679	90.75
290.91	83.75
291.141	83.75
291.371	78.75
291.602	65.75
291.833	86.75
292.064	68.75
292.295	74.75
292.526	86.75
292.757	98.75
292.987	93.75
293.218	95.75
293.449	79.75
293.68	59.75
293.91	88.75
294.141	81.75
294.372	80.75
294.603	86.75
294.833	81.75
295.064	91.75
295.295	88.75
295.525	93.75
295.756	80.75
295.987	85.75
296.217	88.75
296.448	92.75
296.679	89.75
296.909	85.75
297.14	92.75
297.37	87.75
297.601	84.75
297.831	84.75
298.062	81.75
298.292	95.75
298.523	78.75
298.753	84.75
298.984	74.75
299.214	86.75
299.445	84.75
299.675	77.75
299.905	75.75
300.136	93.75
300.366	90.75
300.597	75.75
300.827	93.75
301.057	95.75
301.288	95.75
301.518	79.75
301.748	82.75
301.979	94.75
302.209	79.75
302.439	78.75
302.669	80.75
302.9	93.75
303.13	87.75
303.36	73.75
303.59	85.75
303.82	84.75
304.051	85.75
304.281	83.75
304.511	82.75
304.741	96.75
304.971	78.75
305.201	83.75
305.431	72.75
305.661	82.75
305.891	76.75
306.121	75.75
306.352	76.75
306.582	69.75
306.812	71.75
307.042	68.75
307.272	80.75
307.502	81.75
307.731	91.75
307.961	80.75
308.191	80.75
308.421	82.75
308.651	93.75
308.881	85.75
309.111	81.75
309.341	90.75
309.571	80.75
309.8	76.75
310.03	72.75
310.26	63.75
310.49	78.75
310.72	82.75
310.949	80.75
311.179	85.75
311.409	87.75
311.639	82.75
311.868	84.75
312.098	82.75
312.328	76.75
312.557	95.75
312.787	92.75
313.017	89.75
313.246	78.75
313.476	87.75
313.706	87.75
313.935	86.75
314.165	82.75
314.394	73.75
314.624	73.75
314.853	73.75
315.083	77.75
315.312	79.75
315.542	94.75
315.771	90.75
316.001	80.75
316.23	87.75
316.46	89.75
316.689	98.75
316.919	85.75
317.148	76.75
317.377	87.75
317.607	84.75
317.836	84.75
318.065	89.75
318.295	97.75
318.524	73.75
318.753	79.75
318.983	99.75
319.212	89.75
319.441	87.75
319.67	92.75
319.9	85.75
320.129	76.75
320.358	98.75
320.587	85.75
320.816	86.75
321.046	73.75
321.275	81.75
321.504	72.75
321.733	85.75
321.962	86.75
322.191	92.75
322.42	94.75
322.649	77.75
322.878	92.75
323.108	74.75
323.337	80.75
323.566	89.75
323.795	85.75
324.024	83.75
324.253	82.75
324.482	77.75
324.71	71.75
324.939	85.75
325.168	98.75
325.397	74.75
325.626	84.75
325.855	101.75
326.084	80.75
326.313	85.75
326.542	85.75
326.77	80.75
326.999	84.75
327.228	82.75
327.457	92.75
327.686	92.75
327.914	89.75
328.143	76.75
328.372	82.75
328.6	86.75
328.829	83.75
329.058	80.75
329.287	103.75
329.515	84.75
329.744	88.75
329.972	66.75
330.201	64.75
330.43	93.75
330.658	70.75
330.887	64.75
331.115	82.75
331.344	68.75
331.572	73.75
331.801	95.75
332.03	87.75
332.258	86.75
332.486	90.75
332.715	84.75
332.943	73.75
333.172	85.75
333.4	90.75
333.629	77.75
333.857	80.75
334.085	95.75
334.314	117.75
334.542	78.75
334.771	77.75
334.999	78.75
335.227	83.75
335.455	89.75
335.684	95.75
335.912	74.75
336.14	82.75
336.369	87.75
336.597	80.75
336.825	85.75
337.053	87.75
337.281	72.75
337.51	86.75
337.738	85.75
337.966	82.75
338.194	88.75
338.422	76.75
338.65	80.75
338.878	83.75
339.106	65.75
339.334	83.75
339.562	92.75
339.79	71.75
340.018	79.75
340.246	73.75
340.474	78.75
340.702	86.75
340.93	82.75
341.158	80.75
341.386	85.75
341.614	78.75
341.842	74.75
342.07	80.75
342.298	86.75
342.526	87.75
342.754	78.75
342.981	82.75
343.209	81.75
343.437	86.75
343.665	80.75
343.893	86.75
344.12	86.75
344.348	94.75
344.576	98.75
344.804	68.75
345.031	87.75
345.259	87.75
345.487	76.75
345.714	80.75
345.942	80.75
346.17	79.75
346.397	78.75
346.625	79.75
346.853	84.75
347.08	82.75
347.308	64.75
347.535	83.75
347.763	88.75
347.99	82.75
348.218	73.75
348.445	88.75
348.673	86.75
348.9	87.75
349.128	84.75
349.355	79.75
349.583	86.75
349.81	79.75
350.037	76.75
350.265	84.75
350.492	73.75
350.72	80.75
350.947	105.75
351.174	78.75
351.402	74.75
351.629	66.75
351.856	95.75
352.083	78.75
352.311	92.75
352.538	88.75
352.765	83.75
352.992	91.75
353.22	73.75
353.447	80.75
353.674	76.75
353.901	82.75
354.128	57.75
354.355	91.75
354.583	90.75
354.81	82.75
355.037	84.75
355.264	87.75
355.491	69.75
355.718	91.75
355.945	78.75
356.172	82.75
356.399	83.75
356.626	86.75
356.853	70.75
357.08	86.75
357.307	75.75
357.534	90.75
357.761	79.75
357.988	96.75
358.215	86.75
358.441	83.75
358.668	90.75
358.895	95.75
359.122	82.75
359.349	93.75
359.576	82.75
359.802	88.75
360.029	85.75
360.256	86.75
360.483	92.75
360.709	84.75
360.936	90.75
361.163	96.75
361.39	88.75
361.616	80.75
361.843	63.75
362.07	84.75
362.296	94.75
362.523	86.75
362.749	83.75
362.976	77.75
363.203	86.75
363.429	70.75
363.656	78.75
363.882	77.75
364.109	70.75
364.335	90.75
364.562	74.75
364.788	73.75
365.015	93.75
365.241	76.75
365.468	85.75
365.694	79.75
365.92	76.75
366.147	88.75
366.373	96.75
366.599	83.75
366.826	85.75
367.052	91.75
367.278	84.75
367.505	81.75
367.731	71.75
367.957	80.75
368.184	77.75
368.41	89.75
368.636	92.75
368.862	87.75
369.089	80.75
369.315	77.75
369.541	95.75
369.767	76.75
369.993	72.75
370.219	85.75
370.445	78.75
370.672	82.75
370.898	89.75
371.124	84.75
371.35	91.75
371.576	87.75
371.802	80.75
372.028	85.75
372.254	77.75
372.48	84.75
372.706	81.75
372.932	82.75
373.158	97.75
373.384	82.75
373.61	83.75
373.835	82.75
374.061	75.75
374.287	86.75
374.513	72.75
374.739	80.75
374.965	80.75
375.191	87.75
375.416	74.75
375.642	66.75
375.868	86.75
376.094	76.75
376.319	74.75
376.545	79.75
376.771	88.75
376.997	78.75
377.222	84.75
377.448	68.75
377.674	74.75
377.899	78.75
378.125	72.75
378.35	78.75
378.576	78.75
378.802	84.75
379.027	80.75
379.253	86.75
379.478	80.75
379.704	90.75
379.929	90.75
380.155	85.75
380.38	86.75
380.606	77.75
380.831	83.75
381.057	70.75
381.282	88.75
381.507	74.75
381.733	87.75
381.958	78.75
382.184	78.75
382.409	67.75
382.634	85.75
382.86	86.75
383.085	79.75
383.31	72.75
383.535	78.75
383.761	85.75
383.986	90.75
384.211	77.75
384.436	90.75
384.662	87.75
384.887	86.75
385.112	78.75
385.337	81.75
385.562	78.75
385.787	79.75
386.013	75.75
386.238	79.75
386.463	75.75
386.688	84.75
386.913	94.75
387.138	82.75
387.363	78.75
387.588	85.75
387.813	81.75
388.038	83.75
388.263	86.75
388.488	80.75
388.713	88.75
388.938	76.75
389.163	90.75
389.387	96.75
389.612	93.75
389.837	91.75
390.062	77.75
390.287	89.75
390.512	82.75
390.736	81.75
390.961	91.75
391.186	102.75
391.411	80.75
391.636	84.75
391.86	87.75
392.085	67.75
392.31	94.75
392.534	78.75
392.759	83.75
392.984	80.75
393.208	94.75
393.433	82.75
393.658	81.75
393.882	82.75
394.107	89.75
394.331	80.75
394.556	77.75
394.78	90.75
395.005	76.75
395.229	74.75
395.454	82.75
395.678	91.75
395.903	84.75
396.127	83.75
396.352	78.75
396.576	84.75
396.801	86.75
397.025	74.75
397.249	69.75
397.474	74.75
397.698	88.75
397.922	83.75
398.147	73.75
398.371	82.75
398.595	82.75
398.82	79.75
399.044	82.75
399.268	64.75
399.492	89.75
399.717	82.75
399.941	82.75
400.165	76.75
400.389	85.75
400.613	78.75
400.837	83.75
401.062	102.75
401.286	90.75
401.51	82.75
401.734	76.75
401.958	75.75
402.182	81.75
402.406	71.75
402.63	73.75
402.854	84.75
403.078	91.75
403.302	86.75
403.526	73.75
403.75	80.75
403.974	87.75
404.198	86.75
404.422	84.75
404.645	90.75
404.869	70.75
405.093	80.75
405.317	81.75
405.541	85.75
405.765	78.75
405.988	86.75
406.212	76.75
406.436	79.75
406.66	73.75
406.883	64.75
407.107	75.75
407.331	82.75
407.555	86.75
407.778	79.75
408.002	80.75
408.226	81.75
408.449	83.75
408.673	79.75
408.896	98.75
409.12	66.75
409.344	94.75
409.567	72.75
409.791	78.75
410.014	71.75
410.238	82.75
410.461	78.75
410.685	82.75
410.908	77.75
411.132	92.75
411.355	78.75
411.578	84.75
411.802	88.75
412.025	96.75
412.249	92.75
412.472	85.75
412.695	83.75
412.919	86.75
413.142	92.75
413.365	85.75
413.589	84.75
413.812	84.75
414.035	79.75
414.258	90.75
414.482	87.75
414.705	80.75
414.928	72.75
415.151	92.75
415.374	88.75
415.597	77.75
415.821	89.75
416.044	70.75
416.267	70.75
416.49	85.75
416.713	82.75
416.936	79.75
417.159	70.75
417.382	82.75
417.605	96.75
417.828	95.75
418.051	92.75
418.274	75.75
418.497	82.75
418.72	87.75
418.943	92.75
419.166	86.75
419.389	102.75
419.611	68.75
419.834	81.75
420.057	82.75
420.28	83.75
420.503	93.75
420.726	72.75
420.948	76.75
421.171	91.75
421.394	78.75
421.617	90.75
421.839	78.75
422.062	77.75
422.285	68.75
422.507	82.75
422.73	83.75
422.953	81.75
423.175	82.75
423.398	90.75
423.621	98.75
423.843	83.75
424.066	84.75
424.288	94.75
424.511	82.75
424.733	83.75
424.956	76.75
425.178	79.75
425.401	79.75
425.623	80.75
425.846	72.75
426.068	88.75
426.291	98.75
426.513	76.75
426.735	86.75
426.958	83.75
427.18	92.75
427.402	105.75
427.625	90.75
427.847	78.75
428.069	83.75
428.292	87.75
428.514	90.75
428.736	79.75
428.958	86.75
429.181	85.75
429.403	86.75
429.625	72.75
429.847	81.75
430.069	78.75
430.292	83.75
430.514	68.75
430.736	82.75
430.958	95.75
431.18	81.75
431.402	86.75
431.624	74.75
431.846	78.75
432.068	70.75
432.29	80.75
432.512	82.75
432.734	90.75
432.956	97.75
433.178	89.75
433.4	81.75
433.622	86.75
433.844	84.75
434.066	73.75
434.287	81.75
434.509	72.75
434.731	71.75
434.953	78.75
435.175	97.75
435.397	85.75
435.618	84.75
435.84	91.75
436.062	87.75
436.284	84.75
436.505	64.75
436.727	77.75
436.949	83.75
437.17	89.75
437.392	79.75
437.614	78.75
437.835	92.75
438.057	76.75
438.278	96.75
438.5	95.75
438.721	81.75
438.943	82.75
439.165	88.75
439.386	80.75
439.608	79.75
439.829	86.75
440.05	76.75
440.272	72.75
440.493	80.75
440.715	72.75
440.936	90.75
441.158	93.75
441.379	81.75
441.6	83.75
441.822	75.75
442.043	70.75
442.264	78.75
442.486	88.75
442.707	80.75
442.928	97.75
443.149	80.75
443.371	89.75
443.592	70.75
443.813	84.75
444.034	75.75
444.255	76.75
444.476	90.75
444.698	74.75
444.919	82.75
445.14	159.75
445.361	110.75
445.582	81.75
445.803	94.75
446.024	80.75
446.245	71.75
446.466	84.75
446.687	99.75
446.908	99.75
447.129	79.75
447.35	65.75
447.571	73.75
447.792	83.75
448.013	80.75
448.234	69.75
448.455	82.75
448.675	66.75
448.896	81.75
449.117	75.75
449.338	80.75
449.559	87.75
449.779	86.75
450	91.75
450.221	84.75
450.442	72.75
450.662	83.75
450.883	77.75
451.104	97.75
451.324	72.75
451.545	98.75
451.766	82.75
451.986	80.75
452.207	64.75
452.428	77.75
452.648	83.75
452.869	77.75
453.089	73.75
453.31	89.75
453.53	81.75
453.751	88.75
453.971	83.75
454.192	69.75
454.412	84.75
454.633	78.75
454.853	73.75
455.073	84.75
455.294	82.75
455.514	92.75
455.734	77.75
455.955	78.75
456.175	67.75
456.395	94.75
456.616	78.75
456.836	68.75
457.056	80.75
457.276	84.75
457.497	78.75
457.717	76.75
457.937	83.75
458.157	88.75
458.377	70.75
458.598	82.75
458.818	88.75
459.038	90.75
459.258	88.75
459.478	90.75
459.698	85.75
459.918	83.75
460.138	78.75
460.358	86.75
460.578	88.75
460.798	85.75
461.018	83.75
461.238	80.75
461.458	80.75
461.678	83.75
461.898	76.75
462.118	68.75
462.338	83.75
462.558	75.75
462.777	80.75
462.997	78.75
463.217	83.75
463.437	91.75
463.657	98.75
463.876	90.75
464.096	66.75
464.316	79.75
464.536	78.75
464.755	85.75
464.975	76.75
465.195	84.75
465.414	81.75
465.634	76.75
465.854	79.75
466.073	91.75
466.293	76.75
466.512	81.75
466.732	82.75
466.951	83.75
467.171	72.75
467.391	93.75
467.61	92.75
467.829	72.75
468.049	70.75
468.268	78.75
468.488	80.75
468.707	79.75
468.927	85.75
469.146	74.75
469.365	66.75
469.585	84.75
469.804	73.75
470.023	82.75
470.243	93.75
470.462	97.75
470.681	83.75
470.901	88.75
471.12	96.75
471.339	98.75
471.558	93.75
471.777	82.75
471.997	93.75
472.216	78.75
472.435	76.75
472.654	76.75
472.873	97.75
473.092	100.75
473.311	96.75
473.53	83.75
473.749	77.75
473.968	78.75
474.187	79.75
474.406	84.75
474.625	87.75
474.844	88.75
475.063	88.75
475.282	85.75
475.501	80.75
475.72	83.75
475.939	87.75
476.158	79.75
476.377	79.75
476.596	68.75
476.814	78.75
477.033	88.75
477.252	67.75
477.471	82.75
477.69	88.75
477.908	88.75
478.127	89.75
478.346	88.75
478.564	106.75
478.783	87.75
479.002	95.75
479.22	83.75
479.439	94.75
479.658	88.75
479.876	78.75
480.095	82.75
480.313	78.75
480.532	86.75
480.751	89.75
480.969	86.75
481.188	91.75
481.406	72.75
481.624	79.75
481.843	83.75
482.061	84.75
482.28	84.75
482.498	88.75
482.717	93.75
482.935	85.75
483.153	93.75
483.372	90.75
483.59	85.75
483.808	78.75
484.027	85.75
484.245	76.75
484.463	76.75
484.681	82.75
484.9	83.75
485.118	90.75
485.336	92.75
485.554	81.75
485.772	91.75
485.99	89.75
486.209	76.75
486.427	75.75
486.645	87.75
486.863	84.75
487.081	91.75
487.299	94.75
487.517	91.75
487.735	86.75
487.953	93.75
488.171	73.75
488.389	92.75
488.607	88.75
488.825	73.75
489.043	69.75
489.261	83.75
489.479	85.75
489.696	91.75
489.914	108.75
490.132	86.75
490.35	75.75
490.568	96.75
490.786	85.75
491.003	87.75
491.221	89.75
491.439	82.75
491.657	81.75
491.874	83.75
492.092	89.75
492.31	82.75
492.527	87.75
492.745	83.75
492.963	71.75
493.18	80.75
493.398	93.75
493.615	90.75
493.833	84.75
494.05	78.75
494.268	86.75
494.485	91.75
494.703	87.75
494.92	88.75
495.138	71.75
495.355	84.75
495.573	88.75
495.79	92.75
496.008	81.75
496.225	91.75
496.442	73.75
496.66	95.75
496.877	90.75
497.094	85.75
497.312	72.75
497.529	79.75
497.746	91.75
497.963	85.75
498.181	87.75
498.398	88.75
498.615	86.75
498.832	73.75
499.049	69.75
499.267	73.75
499.484	78.75
499.701	96.75
499.918	90.75
500.135	92.75
500.352	81.75
500.569	67.75
500.786	69.75
501.003	97.75
501.22	75.75
501.437	86.75
501.654	69.75
501.871	82.75
502.088	80.75
502.305	87.75
502.522	80.75
502.739	86.75
502.956	89.75
503.172	84.75
503.389	100.75
503.606	83.75
503.823	74.75
504.04	86.75
504.256	96.75
504.473	85.75
504.69	83.75
504.907	98.75
505.123	88.75
505.34	81.75
505.557	94.75
505.773	82.75
505.99	55.75
506.207	88.75
506.423	78.75
506.64	88.75
506.856	103.75
507.073	80.75
507.289	70.75
507.506	89.75
507.722	90.75
507.939	88.75
508.155	85.75
508.372	72.75
508.588	70.75
508.805	83.75
509.021	84.75
509.238	80.75
509.454	82.75
509.67	76.75
509.887	82.75
510.103	90.75
510.319	83.75
510.536	87.75
510.752	88.75
510.968	88.75
511.184	79.75
511.401	76.75
511.617	77.75
511.833	92.75
512.049	82.75
512.265	71.75
512.481	94.75
512.698	81.75
512.914	87.75
513.13	80.75
513.346	80.75
513.562	78.75
513.778	85.75
513.994	88.75
514.21	76.75
514.426	76.75
514.642	68.75
514.858	92.75
515.074	83.75
515.29	93.75
515.506	78.75
515.721	83.75
515.937	83.75
516.153	83.75
516.369	72.75
516.585	82.75
516.801	86.75
517.016	85.75
517.232	87.75
517.448	72.75
517.664	83.75
517.879	76.75
518.095	89.75
518.311	84.75
518.527	80.75
518.742	83.75
518.958	90.75
519.173	86.75
519.389	70.75
519.605	62.75
519.82	86.75
520.036	87.75
520.251	89.75
520.467	80.75
520.682	81.75
520.898	78.75
521.113	72.75
521.329	95.75
521.544	74.75
521.76	84.75
521.975	93.75
522.19	84.75
522.406	81.75
522.621	90.75
522.836	78.75
523.052	93.75
523.267	79.75
523.482	87.75
523.698	84.75
523.913	89.75
524.128	92.75
524.343	71.75
524.559	79.75
524.774	85.75
524.989	70.75
525.204	90.75
525.419	85.75
525.634	100.75
525.849	104.75
526.064	94.75
526.28	94.75
526.495	76.75
526.71	78.75
526.925	89.75
527.14	76.75
527.355	78.75
527.57	76.75
527.785	78.75
527.999	88.75
528.214	83.75
528.429	78.75
528.644	79.75
528.859	87.75
529.074	71.75
529.289	74.75
529.503	90.75
529.718	78.75
529.933	90.75
530.148	76.75
530.363	96.75
530.577	84.75
530.792	88.75
531.007	97.75
531.221	94.75
531.436	88.75
531.651	73.75
531.865	101.75
532.08	87.75
532.295	81.75
532.509	83.75
532.724	87.75
532.938	77.75
533.153	92.75
533.367	89.75
533.582	89.75
533.796	90.75
534.011	89.75
534.225	78.75
534.44	80.75
534.654	83.75
534.868	83.75
535.083	75.75
535.297	77.75
535.511	71.75
535.726	86.75
535.94	93.75
536.154	84.75
536.369	82.75
536.583	98.75
536.797	82.75
537.011	69.75
537.225	82.75
537.44	88.75
537.654	91.75
537.868	87.75
538.082	93.75
538.296	84.75
538.51	93.75
538.724	74.75
538.938	82.75
539.153	80.75
539.367	90.75
539.581	88.75
539.795	84.75
540.009	78.75
540.222	76.75
540.436	87.75
540.65	74.75
540.864	77.75
541.078	76.75
541.292	92.75
541.506	87.75
541.72	90.75
541.934	86.75
542.147	80.75
542.361	83.75
542.575	70.75
542.789	82.75
543.002	95.75
543.216	82.75
543.43	86.75
543.644	95.75
543.857	87.75
544.071	85.75
544.285	83.75
544.498	76.75
544.712	91.75
544.925	95.75
545.139	89.75
545.352	92.75
545.566	94.75
545.779	79.75
545.993	90.75
546.206	86.75
546.42	85.75
546.633	90.75
546.847	88.75
547.06	86.75
547.274	86.75
547.487	86.75
547.7	83.75
547.914	80.75
548.127	87.75
548.34	65.75
548.554	84.75
548.767	67.75
548.98	92.75
549.193	93.75
549.407	64.75
549.62	76.75
549.833	79.75
550.046	91.75
550.259	88.75
550.473	80.75
550.686	86.75
550.899	75.75
551.112	88.75
551.325	83.75
551.538	87.75
551.751	70.75
551.964	87.75
552.177	86.75
552.39	74.75
552.603	92.75
552.816	84.75
553.029	94.75
553.242	87.75
553.455	91.75
553.667	89.75
553.88	69.75
554.093	89.75
554.306	77.75
554.519	76.75
554.732	76.75
554.944	76.75
555.157	92.75
555.37	92.75
555.583	91.75
555.795	90.75
556.008	92.75
556.221	92.75
556.433	83.75
556.646	96.75
556.859	84.75
557.071	97.75
557.284	87.75
557.496	88.75
557.709	79.75
557.921	92.75
558.134	82.75
558.346	80.75
558.559	71.75
558.771	89.75
558.984	87.75
559.196	87.75
559.409	93.75
559.621	89.75
559.833	78.75
560.046	76.75
560.258	75.75
560.47	95.75
560.683	86.75
560.895	62.75
561.107	80.75
561.32	83.75
561.532	96.75
561.744	90.75
561.956	87.75
562.168	78.75
562.381	78.75
562.593	78.75
562.805	91.75
563.017	90.75
563.229	81.75
563.441	84.75
563.653	68.75
563.865	93.75
564.077	95.75
564.289	81.75
564.501	96.75
564.713	84.75
564.925	74.75
565.137	90.75
565.349	78.75
565.561	81.75
565.773	87.75
565.985	100.75
566.197	78.75
566.408	82.75
566.62	84.75
566.832	83.75
567.044	73.75
567.255	81.75
567.467	76.75
567.679	82.75
567.891	96.75
568.102	84.75
568.314	81.75
568.526	85.75
568.737	90.75
568.949	84.75
569.161	79.75
569.372	70.75
569.584	86.75
569.795	87.75
570.007	86.75
570.218	85.75
570.43	100.75
570.641	82.75
570.853	90.75
571.064	92.75
571.276	87.75
571.487	74.75
571.698	93.75
571.91	94.75
572.121	94.75
572.333	86.75
572.544	83.75
572.755	74.75
572.966	81.75
573.178	98.75
573.389	94.75
573.6	71.75
573.811	70.75
574.023	88.75
574.234	95.75
574.445	94.75
574.656	84.75
574.867	90.75
575.078	73.75
575.289	79.75
575.501	89.75
575.712	99.75
575.923	95.75
576.134	72.75
576.345	69.75
576.556	87.75
576.767	89.75
576.978	86.75
577.188	91.75
577.399	94.75
577.61	87.75
577.821	78.75
578.032	77.75
578.243	71.75
578.454	92.75
578.665	96.75
578.875	84.75
579.086	74.75
579.297	81.75
579.508	84.75
579.718	102.75
579.929	82.75
580.14	82.75
580.35	77.75
580.561	78.75
580.772	78.75
580.982	77.75
581.193	93.75
581.403	94.75
581.614	103.75
581.825	88.75
582.035	92.75
582.246	80.75
582.456	84.75
582.667	76.75
582.877	96.75
583.087	87.75
583.298	85.75
583.508	87.75
583.719	95.75
583.929	71.75
584.139	89.75
584.35	87.75
584.56	88.75
584.77	80.75
584.981	84.75
585.191	74.75
585.401	71.75
585.611	88.75
585.821	87.75
586.032	96.75
586.242	81.75
586.452	82.75
586.662	82.75
586.872	96.75
587.082	84.75
587.292	88.75
587.502	92.75
587.713	76.75
587.923	76.75
588.133	86.75
588.343	78.75
588.553	90.75
588.762	109.75
588.972	96.75
589.182	81.75
589.392	93.75
589.602	94.75
589.812	66.75
590.022	102.75
590.232	82.75
590.441	86.75
590.651	88.75
590.861	88.75
591.071	78.75
591.281	90.75
591.49	75.75
591.7	80.75
591.91	81.75
592.119	83.75
592.329	71.75
592.539	82.75
592.748	79.75
592.958	86.75
593.167	77.75
593.377	67.75
593.587	88.75
593.796	90.75
594.006	69.75
594.215	69.75
594.424	76.75
594.634	82.75
594.843	80.75
595.053	83.75
595.262	86.75
595.472	83.75
595.681	77.75
595.89	86.75
596.1	91.75
596.309	84.75
596.518	76.75
596.727	84.75
596.937	86.75
597.146	85.75
597.355	95.75
597.564	91.75
597.774	92.75
597.983	81.75
598.192	82.75
598.401	87.75
598.61	72.75
598.819	86.75
599.028	85.75
599.237	80.75
599.446	88.75
599.655	86.75
599.864	78.75
600.073	87.75
600.282	90.75
600.491	90.75
600.7	102.75
600.909	84.75
601.118	90.75
601.327	84.75
601.536	75.75
601.745	76.75
601.953	92.75
602.162	69.75
602.371	88.75
602.58	94.75
602.789	78.75
602.997	77.75
603.206	95.75
603.415	74.75
603.623	85.75
603.832	92.75
604.041	87.75
604.249	97.75
604.458	93.75
604.666	87.75
604.875	80.75
605.084	83.75
605.292	80.75
605.501	91.75
605.709	90.75
605.918	73.75
606.126	97.75
606.334	82.75
606.543	72.75
606.751	81.75
606.96	80.75
607.168	90.75
607.376	94.75
607.585	101.75
607.793	82.75
608.001	88.75
608.21	83.75
608.418	91.75
608.626	81.75
608.834	91.75
609.043	79.75
609.251	79.75
609.459	81.75
609.667	72.75
609.875	64.75
610.083	71.75
610.291	81.75
610.499	87.75
610.707	66.75
610.916	75.75
611.124	71.75
611.332	86.75
611.54	86.75
611.748	80.75
611.955	84.75
612.163	79.75
612.371	77.75
612.579	63.75
612.787	71.75
612.995	86.75
613.203	87.75
613.411	88.75
613.618	89.75
613.826	80.75
614.034	97.75
614.242	84.75
614.449	86.75
614.657	89.75
614.865	91.75
615.072	86.75
615.28	73.75
615.488	61.75
615.695	88.75
615.903	85.75
616.111	84.75
616.318	70.75
616.526	84.75
616.733	76.75
616.941	82.75
617.148	86.75
617.356	75.75
617.563	94.75
617.771	70.75
617.978	92.75
618.185	92.75
618.393	89.75
618.6	86.75
618.807	85.75
619.015	81.75
619.222	92.75
619.429	90.75
619.637	82.75
619.844	69.75
620.051	81.75
620.258	94.75
620.466	84.75
620.673	73.75
620.88	75.75
621.087	81.75
621.294	81.75
621.501	90.75
621.708	87.75
621.915	75.75
622.122	76.75
622.329	80.75
622.536	86.75
622.743	67.75
622.95	87.75
623.157	77.75
623.364	96.75
623.571	73.75
623.778	78.75
623.985	73.75
624.192	80.75
624.399	88.75
624.606	87.75
624.812	85.75
625.019	94.75
625.226	71.75
625.433	91.75
625.639	79.75
625.846	77.75
626.053	81.75
626.259	77.75
626.466	97.75
626.673	74.75
626.879	78.75
627.086	83.75
627.293	86.75
627.499	83.75
627.706	84.75
627.912	83.75
628.119	96.75
628.325	83.75
628.532	87.75
628.738	86.75
628.945	82.75
629.151	81.75
629.357	82.75
629.564	86.75
629.77	80.75
629.976	90.75
630.183	79.75
630.389	81.75
630.595	100.75
630.802	82.75
631.008	87.75
631.214	77.75
631.42	88.75
631.627	90.75
631.833	75.75
632.039	82.75
632.245	84.75
632.451	95.75
632.657	78.75
632.863	81.75
633.069	83.75
633.275	102.75
633.481	68.75
633.688	77.75
633.893	75.75
634.099	78.75
634.305	93.75
634.511	92.75
634.717	101.75
634.923	86.75
635.129	90.75
635.335	87.75
635.541	95.75
635.747	86.75
635.952	70.75
636.158	84.75
636.364	81.75
636.57	75.75
636.775	86.75
636.981	84.75
637.187	79.75
637.392	98.75
637.598	81.75
637.804	64.75
638.009	77.75
638.215	82.75
638.421	91.75
638.626	68.75
638.832	80.75
639.037	98.75
639.243	85.75
639.448	82.75
639.654	86.75
639.859	89.75
640.065	68.75
640.27	80.75
640.475	77.75
640.681	90.75
640.886	86.75
641.091	76.75
641.297	78.75
641.502	90.75
641.707	82.75
641.913	63.75
642.118	71.75
642.323	102.75
642.528	82.75
642.733	79.75
642.939	85.75
643.144	85.75
643.349	90.75
643.554	92.75
643.759	86.75
643.964	78.75
644.169	87.75
644.374	81.75
644.579	76.75
644.784	89.75
644.989	84.75
645.194	82.75
645.399	80.75
645.604	83.75
645.809	86.75
646.014	79.75
646.219	73.75
646.423	83.75
646.628	84.75
646.833	86.75
647.038	85.75
647.243	84.75
647.447	66.75
647.652	91.75
647.857	82.75
648.062	77.75
648.266	84.75
648.471	86.75
648.676	72.75
648.88	91.75
649.085	84.75
649.289	85.75
649.494	77.75
649.698	72.75
649.903	80.75
650.107	85.75
650.312	77.75
650.516	77.75
650.721	85.75
650.925	74.75
651.13	64.75
651.334	82.75
651.539	88.75
651.743	72.75
651.947	84.75
652.152	106.75
652.356	76.75
652.56	96.75
652.764	78.75
652.969	82.75
653.173	89.75
653.377	83.75
653.581	69.75
653.785	90.75
653.99	80.75
654.194	85.75
654.398	96.75
654.602	82.75
654.806	72.75
655.01	81.75
655.214	65.75
655.418	71.75
655.622	78.75
655.826	78.75
656.03	95.75
656.234	81.75
656.438	78.75
656.642	98.75
656.846	79.75
657.049	68.75
657.253	91.75
657.457	71.75
657.661	80.75
657.865	96.75
658.068	92.75
658.272	80.75
658.476	78.75
658.68	85.75
658.883	71.75
659.087	78.75
659.291	96.75
659.494	92.75
659.698	86.75
659.901	84.75
660.105	81.75
660.309	84.75
660.512	80.75
660.716	91.75
660.919	84.75
661.123	95.75
661.326	83.75
661.53	78.75
661.733	82.75
661.936	83.75
662.14	87.75
662.343	95.75
662.546	81.75
662.75	84.75
662.953	94.75
663.156	95.75
663.36	96.75
663.563	89.75
663.766	87.75
663.969	73.75
664.173	80.75
664.376	78.75
664.579	70.75
664.782	70.75
664.985	91.75
665.188	80.75
665.391	85.75
665.594	78.75
665.797	68.75
666	78.75
666.203	82.75
666.406	81.75
666.609	78.75
666.812	77.75
667.015	89.75
667.218	84.75
667.421	92.75
667.624	87.75
667.827	89.75
668.03	78.75
668.232	73.75
668.435	93.75
668.638	79.75
668.841	100.75
669.043	84.75
669.246	86.75
669.449	84.75
669.651	64.75
669.854	74.75
670.057	83.75
670.259	92.75
670.462	90.75
670.665	67.75
670.867	87.75
671.07	79.75
671.272	69.75
671.475	90.75
671.677	78.75
671.88	92.75
672.082	84.75
672.284	92.75
672.487	94.75
672.689	72.75
672.892	92.75
