Data from Background_2_HRD10591_00028.txt Node
Date: Wed Nov 05 14:47:11 EST 2025
User: Yrep
Spectrometer: HR+D1059
Trigger mode: 1
Integration Time (sec): 1.000000E-1
Scans to average: 1
Electric dark correction enabled: true
Nonlinearity correction enabled: false
Boxcar width: 0
XAxis mode: Wavelengths
Number of Pixels in Spectrum: 2048
>>>>>Begin Spectral Data<<<<<
223.165	-17.44
223.4	-17.44
223.635	-17.44
223.869	-14.44
224.104	-13.44
224.338	-12.44
224.573	-6.44
224.808	-24.44
225.042	-10.44
225.277	-12.44
225.511	-2.44
225.746	4.56
225.98	8.56
226.215	21.56
226.449	6.56
226.683	21.56
226.918	20.56
227.152	30.56
227.387	40.56
227.621	45.56
227.856	41.56
228.09	66.56
228.324	70.56
228.559	66.56
228.793	58.56
229.027	65.56
229.262	56.56
229.496	73.56
229.73	70.56
229.964	61.56
230.199	82.56
230.433	78.56
230.667	88.56
230.901	85.56
231.136	76.56
231.37	83.56
231.604	86.56
231.838	75.56
232.072	89.56
232.306	90.56
232.541	81.56
232.775	80.56
233.009	80.56
233.243	75.56
233.477	79.56
233.711	95.56
233.945	81.56
234.179	96.56
234.413	84.56
234.647	90.56
234.881	82.56
235.115	67.56
235.349	78.56
235.583	69.56
235.817	82.56
236.051	74.56
236.285	73.56
236.519	78.56
236.753	82.56
236.987	88.56
237.221	93.56
237.455	78.56
237.689	67.56
237.922	54.56
238.156	72.56
238.39	81.56
238.624	84.56
238.858	81.56
239.091	89.56
239.325	64.56
239.559	72.56
239.793	64.56
240.027	73.56
240.26	76.56
240.494	87.56
240.728	77.56
240.961	74.56
241.195	95.56
241.429	94.56
241.662	70.56
241.896	75.56
242.13	78.56
242.363	74.56
242.597	78.56
242.83	95.56
243.064	83.56
243.298	96.56
243.531	74.56
243.765	78.56
243.998	86.56
244.232	82.56
244.465	84.56
244.699	82.56
244.932	78.56
245.166	94.56
245.399	78.56
245.633	88.56
245.866	78.56
246.099	76.56
246.333	76.56
246.566	73.56
246.8	82.56
247.033	74.56
247.266	79.56
247.5	68.56
247.733	83.56
247.966	73.56
248.2	83.56
248.433	72.56
248.666	86.56
248.899	101.56
249.133	68.56
249.366	77.56
249.599	76.56
249.832	96.56
250.066	70.56
250.299	80.56
250.532	86.56
250.765	69.56
250.998	73.56
251.231	90.56
251.465	83.56
251.698	89.56
251.931	65.56
252.164	83.56
252.397	80.56
252.63	82.56
252.863	89.56
253.096	89.56
253.329	75.56
253.562	82.56
253.795	82.56
254.028	92.56
254.261	80.56
254.494	86.56
254.727	98.56
254.96	92.56
255.193	96.56
255.426	76.56
255.659	83.56
255.892	87.56
256.124	77.56
256.357	78.56
256.59	84.56
256.823	87.56
257.056	76.56
257.289	71.56
257.521	97.56
257.754	99.56
257.987	76.56
258.22	78.56
258.452	84.56
258.685	70.56
258.918	78.56
259.151	70.56
259.383	82.56
259.616	71.56
259.849	84.56
260.081	70.56
260.314	94.56
260.547	83.56
260.779	80.56
261.012	91.56
261.244	62.56
261.477	82.56
261.71	69.56
261.942	80.56
262.175	94.56
262.407	84.56
262.64	75.56
262.872	89.56
263.105	85.56
263.337	87.56
263.57	84.56
263.802	92.56
264.035	82.56
264.267	76.56
264.499	85.56
264.732	73.56
264.964	90.56
265.197	67.56
265.429	81.56
265.661	80.56
265.894	79.56
266.126	95.56
266.358	98.56
266.591	89.56
266.823	89.56
267.055	83.56
267.287	85.56
267.52	77.56
267.752	82.56
267.984	98.56
268.216	77.56
268.448	89.56
268.681	81.56
268.913	79.56
269.145	85.56
269.377	77.56
269.609	83.56
269.841	80.56
270.073	86.56
270.306	85.56
270.538	101.56
270.77	80.56
271.002	86.56
271.234	83.56
271.466	88.56
271.698	84.56
271.93	86.56
272.162	83.56
272.394	78.56
272.626	85.56
272.858	89.56
273.09	100.56
273.322	93.56
273.553	86.56
273.785	94.56
274.017	87.56
274.249	77.56
274.481	73.56
274.713	81.56
274.945	85.56
275.176	80.56
275.408	78.56
275.64	84.56
275.872	92.56
276.104	87.56
276.335	97.56
276.567	83.56
276.799	82.56
277.031	78.56
277.262	81.56
277.494	89.56
277.726	75.56
277.957	81.56
278.189	84.56
278.421	90.56
278.652	95.56
278.884	81.56
279.115	82.56
279.347	84.56
279.579	84.56
279.81	82.56
280.042	97.56
280.273	92.56
280.505	76.56
280.736	73.56
280.968	66.56
281.199	84.56
281.431	90.56
281.662	77.56
281.894	93.56
282.125	80.56
282.356	84.56
282.588	82.56
282.819	87.56
283.051	81.56
283.282	90.56
283.513	94.56
283.745	70.56
283.976	76.56
284.207	80.56
284.439	82.56
284.67	84.56
284.901	78.56
285.132	87.56
285.364	96.56
285.595	65.56
285.826	81.56
286.057	96.56
286.288	81.56
286.52	77.56
286.751	92.56
286.982	92.56
287.213	70.56
287.444	96.56
287.675	97.56
287.906	89.56
288.138	99.56
288.369	76.56
288.6	85.56
288.831	92.56
289.062	100.56
289.293	86.56
289.524	88.56
289.755	74.56
289.986	101.56
290.217	84.56
290.448	82.56
290.679	80.56
290.91	90.56
291.141	77.56
291.371	94.56
291.602	87.56
291.833	88.56
292.064	93.56
292.295	83.56
292.526	90.56
292.757	93.56
292.987	99.56
293.218	83.56
293.449	91.56
293.68	75.56
293.91	69.56
294.141	98.56
294.372	91.56
294.603	77.56
294.833	86.56
295.064	84.56
295.295	81.56
295.525	72.56
295.756	109.56
295.987	75.56
296.217	84.56
296.448	87.56
296.679	88.56
296.909	88.56
297.14	86.56
297.37	98.56
297.601	80.56
297.831	82.56
298.062	74.56
298.292	78.56
298.523	88.56
298.753	88.56
298.984	88.56
299.214	97.56
299.445	91.56
299.675	88.56
299.905	103.56
300.136	78.56
300.366	74.56
300.597	81.56
300.827	84.56
301.057	88.56
301.288	87.56
301.518	75.56
301.748	92.56
301.979	92.56
302.209	92.56
302.439	87.56
302.669	91.56
302.9	88.56
303.13	76.56
303.36	91.56
303.59	82.56
303.82	100.56
304.051	101.56
304.281	92.56
304.511	90.56
304.741	93.56
304.971	92.56
305.201	93.56
305.431	102.56
305.661	94.56
305.891	88.56
306.121	82.56
306.352	89.56
306.582	89.56
306.812	102.56
307.042	80.56
307.272	90.56
307.502	101.56
307.731	93.56
307.961	84.56
308.191	89.56
308.421	89.56
308.651	84.56
308.881	87.56
309.111	71.56
309.341	81.56
309.571	88.56
309.8	91.56
310.03	93.56
310.26	99.56
310.49	87.56
310.72	81.56
310.949	75.56
311.179	92.56
311.409	83.56
311.639	82.56
311.868	82.56
312.098	75.56
312.328	87.56
312.557	89.56
312.787	88.56
313.017	83.56
313.246	92.56
313.476	78.56
313.706	81.56
313.935	96.56
314.165	92.56
314.394	96.56
314.624	90.56
314.853	89.56
315.083	85.56
315.312	93.56
315.542	92.56
315.771	88.56
316.001	96.56
316.23	88.56
316.46	92.56
316.689	75.56
316.919	98.56
317.148	83.56
317.377	78.56
317.607	90.56
317.836	90.56
318.065	83.56
318.295	85.56
318.524	91.56
318.753	83.56
318.983	91.56
319.212	80.56
319.441	79.56
319.67	77.56
319.9	84.56
320.129	86.56
320.358	94.56
320.587	95.56
320.816	77.56
321.046	80.56
321.275	85.56
321.504	72.56
321.733	81.56
321.962	92.56
322.191	89.56
322.42	90.56
322.649	86.56
322.878	80.56
323.108	80.56
323.337	76.56
323.566	85.56
323.795	93.56
324.024	80.56
324.253	84.56
324.482	86.56
324.71	70.56
324.939	84.56
325.168	80.56
325.397	83.56
325.626	99.56
325.855	85.56
326.084	91.56
326.313	93.56
326.542	80.56
326.77	86.56
326.999	98.56
327.228	92.56
327.457	108.56
327.686	83.56
327.914	87.56
328.143	83.56
328.372	80.56
328.6	87.56
328.829	86.56
329.058	99.56
329.287	90.56
329.515	78.56
329.744	77.56
329.972	85.56
330.201	88.56
330.43	98.56
330.658	94.56
330.887	89.56
331.115	88.56
331.344	85.56
331.572	94.56
331.801	86.56
332.03	85.56
332.258	96.56
332.486	95.56
332.715	85.56
332.943	88.56
333.172	84.56
333.4	82.56
333.629	84.56
333.857	82.56
334.085	88.56
334.314	75.56
334.542	80.56
334.771	93.56
334.999	96.56
335.227	86.56
335.455	102.56
335.684	102.56
335.912	81.56
336.14	92.56
336.369	81.56
336.597	88.56
336.825	88.56
337.053	101.56
337.281	92.56
337.51	92.56
337.738	85.56
337.966	74.56
338.194	88.56
338.422	89.56
338.65	97.56
338.878	96.56
339.106	83.56
339.334	91.56
339.562	79.56
339.79	87.56
340.018	87.56
340.246	74.56
340.474	72.56
340.702	99.56
340.93	79.56
341.158	80.56
341.386	86.56
341.614	87.56
341.842	88.56
342.07	77.56
342.298	104.56
342.526	99.56
342.754	97.56
342.981	84.56
343.209	85.56
343.437	93.56
343.665	71.56
343.893	85.56
344.12	80.56
344.348	80.56
344.576	82.56
344.804	71.56
345.031	87.56
345.259	86.56
345.487	88.56
345.714	80.56
345.942	92.56
346.17	70.56
346.397	96.56
346.625	78.56
346.853	86.56
347.08	83.56
347.308	84.56
347.535	100.56
347.763	90.56
347.99	92.56
348.218	85.56
348.445	83.56
348.673	80.56
348.9	93.56
349.128	93.56
349.355	77.56
349.583	98.56
349.81	88.56
350.037	84.56
350.265	86.56
350.492	72.56
350.72	86.56
350.947	77.56
351.174	99.56
351.402	76.56
351.629	88.56
351.856	89.56
352.083	81.56
352.311	100.56
352.538	83.56
352.765	86.56
352.992	83.56
353.22	82.56
353.447	92.56
353.674	92.56
353.901	73.56
354.128	85.56
354.355	78.56
354.583	89.56
354.81	80.56
355.037	60.56
355.264	83.56
355.491	92.56
355.718	87.56
355.945	84.56
356.172	93.56
356.399	80.56
356.626	95.56
356.853	80.56
357.08	89.56
357.307	88.56
357.534	94.56
357.761	101.56
357.988	95.56
358.215	85.56
358.441	78.56
358.668	81.56
358.895	80.56
359.122	75.56
359.349	86.56
359.576	94.56
359.802	74.56
360.029	85.56
360.256	88.56
360.483	93.56
360.709	84.56
360.936	89.56
361.163	81.56
361.39	104.56
361.616	83.56
361.843	91.56
362.07	78.56
362.296	97.56
362.523	94.56
362.749	90.56
362.976	87.56
363.203	85.56
363.429	83.56
363.656	78.56
363.882	96.56
364.109	91.56
364.335	97.56
364.562	88.56
364.788	87.56
365.015	73.56
365.241	73.56
365.468	94.56
365.694	87.56
365.92	80.56
366.147	71.56
366.373	73.56
366.599	94.56
366.826	90.56
367.052	80.56
367.278	86.56
367.505	92.56
367.731	84.56
367.957	83.56
368.184	84.56
368.41	92.56
368.636	80.56
368.862	79.56
369.089	89.56
369.315	84.56
369.541	84.56
369.767	77.56
369.993	92.56
370.219	88.56
370.445	74.56
370.672	80.56
370.898	82.56
371.124	91.56
371.35	79.56
371.576	73.56
371.802	88.56
372.028	92.56
372.254	77.56
372.48	85.56
372.706	76.56
372.932	78.56
373.158	81.56
373.384	97.56
373.61	85.56
373.835	89.56
374.061	73.56
374.287	89.56
374.513	75.56
374.739	85.56
374.965	80.56
375.191	86.56
375.416	85.56
375.642	94.56
375.868	84.56
376.094	99.56
376.319	94.56
376.545	88.56
376.771	96.56
376.997	78.56
377.222	87.56
377.448	81.56
377.674	101.56
377.899	76.56
378.125	80.56
378.35	103.56
378.576	78.56
378.802	79.56
379.027	69.56
379.253	92.56
379.478	88.56
379.704	78.56
379.929	83.56
380.155	71.56
380.38	84.56
380.606	78.56
380.831	77.56
381.057	88.56
381.282	90.56
381.507	100.56
381.733	93.56
381.958	81.56
382.184	86.56
382.409	88.56
382.634	85.56
382.86	89.56
383.085	90.56
383.31	80.56
383.535	77.56
383.761	81.56
383.986	105.56
384.211	92.56
384.436	81.56
384.662	92.56
384.887	99.56
385.112	88.56
385.337	84.56
385.562	67.56
385.787	84.56
386.013	98.56
386.238	96.56
386.463	70.56
386.688	88.56
386.913	89.56
387.138	89.56
387.363	90.56
387.588	100.56
387.813	80.56
388.038	98.56
388.263	84.56
388.488	87.56
388.713	92.56
388.938	88.56
389.163	86.56
389.387	75.56
389.612	80.56
389.837	91.56
390.062	82.56
390.287	102.56
390.512	92.56
390.736	81.56
390.961	85.56
391.186	89.56
391.411	76.56
391.636	68.56
391.86	81.56
392.085	92.56
392.31	99.56
392.534	81.56
392.759	88.56
392.984	79.56
393.208	79.56
393.433	73.56
393.658	84.56
393.882	85.56
394.107	89.56
394.331	89.56
394.556	86.56
394.78	90.56
395.005	78.56
395.229	81.56
395.454	75.56
395.678	87.56
395.903	77.56
396.127	84.56
396.352	83.56
396.576	82.56
396.801	88.56
397.025	95.56
397.249	95.56
397.474	92.56
397.698	82.56
397.922	85.56
398.147	70.56
398.371	79.56
398.595	100.56
398.82	77.56
399.044	74.56
399.268	88.56
399.492	80.56
399.717	86.56
399.941	87.56
400.165	100.56
400.389	90.56
400.613	84.56
400.837	91.56
401.062	81.56
401.286	88.56
401.51	73.56
401.734	85.56
401.958	74.56
402.182	101.56
402.406	79.56
402.63	79.56
402.854	73.56
403.078	87.56
403.302	89.56
403.526	97.56
403.75	87.56
403.974	83.56
404.198	101.56
404.422	92.56
404.645	92.56
404.869	81.56
405.093	75.56
405.317	97.56
405.541	92.56
405.765	78.56
405.988	83.56
406.212	82.56
406.436	83.56
406.66	92.56
406.883	85.56
407.107	85.56
407.331	98.56
407.555	85.56
407.778	79.56
408.002	92.56
408.226	88.56
408.449	74.56
408.673	82.56
408.896	73.56
409.12	71.56
409.344	80.56
409.567	92.56
409.791	80.56
410.014	73.56
410.238	82.56
410.461	81.56
410.685	89.56
410.908	85.56
411.132	81.56
411.355	93.56
411.578	84.56
411.802	77.56
412.025	78.56
412.249	75.56
412.472	84.56
412.695	78.56
412.919	87.56
413.142	75.56
413.365	96.56
413.589	86.56
413.812	87.56
414.035	88.56
414.258	95.56
414.482	84.56
414.705	82.56
414.928	73.56
415.151	76.56
415.374	72.56
415.597	91.56
415.821	88.56
416.044	84.56
416.267	69.56
416.49	91.56
416.713	74.56
416.936	80.56
417.159	77.56
417.382	88.56
417.605	85.56
417.828	94.56
418.051	85.56
418.274	74.56
418.497	77.56
418.72	68.56
418.943	86.56
419.166	87.56
419.389	70.56
419.611	72.56
419.834	74.56
420.057	68.56
420.28	78.56
420.503	90.56
420.726	87.56
420.948	72.56
421.171	77.56
421.394	96.56
421.617	87.56
421.839	93.56
422.062	92.56
422.285	93.56
422.507	86.56
422.73	90.56
422.953	86.56
423.175	83.56
423.398	92.56
423.621	85.56
423.843	82.56
424.066	78.56
424.288	93.56
424.511	93.56
424.733	71.56
424.956	87.56
425.178	74.56
425.401	88.56
425.623	69.56
425.846	80.56
426.068	64.56
426.291	92.56
426.513	93.56
426.735	94.56
426.958	60.56
427.18	83.56
427.402	80.56
427.625	86.56
427.847	83.56
428.069	77.56
428.292	79.56
428.514	91.56
428.736	75.56
428.958	80.56
429.181	66.56
429.403	73.56
429.625	84.56
429.847	88.56
430.069	66.56
430.292	74.56
430.514	85.56
430.736	94.56
430.958	86.56
431.18	75.56
431.402	96.56
431.624	82.56
431.846	95.56
432.068	92.56
432.29	83.56
432.512	73.56
432.734	78.56
432.956	88.56
433.178	75.56
433.4	92.56
433.622	95.56
433.844	85.56
434.066	70.56
434.287	75.56
434.509	82.56
434.731	92.56
434.953	80.56
435.175	89.56
435.397	81.56
435.618	85.56
435.84	86.56
436.062	89.56
436.284	98.56
436.505	102.56
436.727	85.56
436.949	97.56
437.17	86.56
437.392	81.56
437.614	84.56
437.835	94.56
438.057	90.56
438.278	79.56
438.5	79.56
438.721	78.56
438.943	86.56
439.165	73.56
439.386	76.56
439.608	92.56
439.829	93.56
440.05	80.56
440.272	70.56
440.493	82.56
440.715	82.56
440.936	83.56
441.158	80.56
441.379	90.56
441.6	92.56
441.822	92.56
442.043	82.56
442.264	75.56
442.486	85.56
442.707	96.56
442.928	80.56
443.149	90.56
443.371	81.56
443.592	94.56
443.813	86.56
444.034	86.56
444.255	80.56
444.476	92.56
444.698	86.56
444.919	86.56
445.14	162.56
445.361	116.56
445.582	88.56
445.803	83.56
446.024	84.56
446.245	80.56
446.466	93.56
446.687	74.56
446.908	82.56
447.129	88.56
447.35	85.56
447.571	95.56
447.792	70.56
448.013	78.56
448.234	86.56
448.455	86.56
448.675	95.56
448.896	74.56
449.117	74.56
449.338	76.56
449.559	88.56
449.779	84.56
450	82.56
450.221	79.56
450.442	75.56
450.662	103.56
450.883	85.56
451.104	96.56
451.324	82.56
451.545	91.56
451.766	88.56
451.986	81.56
452.207	101.56
452.428	99.56
452.648	92.56
452.869	89.56
453.089	88.56
453.31	86.56
453.53	82.56
453.751	92.56
453.971	92.56
454.192	84.56
454.412	71.56
454.633	94.56
454.853	78.56
455.073	79.56
455.294	90.56
455.514	81.56
455.734	87.56
455.955	74.56
456.175	80.56
456.395	82.56
456.616	97.56
456.836	87.56
457.056	81.56
457.276	84.56
457.497	90.56
457.717	76.56
457.937	84.56
458.157	75.56
458.377	64.56
458.598	64.56
458.818	77.56
459.038	84.56
459.258	84.56
459.478	72.56
459.698	79.56
459.918	80.56
460.138	92.56
460.358	80.56
460.578	93.56
460.798	87.56
461.018	88.56
461.238	88.56
461.458	92.56
461.678	74.56
461.898	85.56
462.118	86.56
462.338	82.56
462.558	75.56
462.777	82.56
462.997	85.56
463.217	89.56
463.437	79.56
463.657	79.56
463.876	100.56
464.096	91.56
464.316	89.56
464.536	79.56
464.755	77.56
464.975	73.56
465.195	86.56
465.414	89.56
465.634	87.56
465.854	71.56
466.073	81.56
466.293	75.56
466.512	69.56
466.732	69.56
466.951	87.56
467.171	77.56
467.391	88.56
467.61	70.56
467.829	91.56
468.049	83.56
468.268	81.56
468.488	84.56
468.707	65.56
468.927	78.56
469.146	84.56
469.365	88.56
469.585	75.56
469.804	77.56
470.023	90.56
470.243	84.56
470.462	77.56
470.681	87.56
470.901	83.56
471.12	83.56
471.339	73.56
471.558	73.56
471.777	93.56
471.997	83.56
472.216	71.56
472.435	86.56
472.654	84.56
472.873	79.56
473.092	92.56
473.311	84.56
473.53	87.56
473.749	89.56
473.968	77.56
474.187	78.56
474.406	85.56
474.625	89.56
474.844	84.56
475.063	81.56
475.282	84.56
475.501	87.56
475.72	93.56
475.939	104.56
476.158	71.56
476.377	71.56
476.596	77.56
476.814	86.56
477.033	81.56
477.252	78.56
477.471	87.56
477.69	80.56
477.908	86.56
478.127	95.56
478.346	83.56
478.564	76.56
478.783	82.56
479.002	80.56
479.22	89.56
479.439	98.56
479.658	82.56
479.876	89.56
480.095	78.56
480.313	88.56
480.532	85.56
480.751	70.56
480.969	93.56
481.188	73.56
481.406	88.56
481.624	84.56
481.843	69.56
482.061	82.56
482.28	86.56
482.498	77.56
482.717	92.56
482.935	84.56
483.153	75.56
483.372	90.56
483.59	80.56
483.808	93.56
484.027	86.56
484.245	86.56
484.463	87.56
484.681	94.56
484.9	77.56
485.118	87.56
485.336	92.56
485.554	88.56
485.772	88.56
485.99	83.56
486.209	94.56
486.427	86.56
486.645	72.56
486.863	82.56
487.081	78.56
487.299	85.56
487.517	87.56
487.735	90.56
487.953	77.56
488.171	81.56
488.389	88.56
488.607	86.56
488.825	82.56
489.043	88.56
489.261	88.56
489.479	85.56
489.696	86.56
489.914	80.56
490.132	86.56
490.35	69.56
490.568	78.56
490.786	95.56
491.003	83.56
491.221	73.56
491.439	89.56
491.657	80.56
491.874	79.56
492.092	82.56
492.31	88.56
492.527	78.56
492.745	72.56
492.963	89.56
493.18	84.56
493.398	85.56
493.615	94.56
493.833	94.56
494.05	89.56
494.268	87.56
494.485	78.56
494.703	93.56
494.92	81.56
495.138	83.56
495.355	92.56
495.573	88.56
495.79	78.56
496.008	86.56
496.225	96.56
496.442	85.56
496.66	89.56
496.877	83.56
497.094	83.56
497.312	83.56
497.529	85.56
497.746	89.56
497.963	75.56
498.181	90.56
498.398	75.56
498.615	94.56
498.832	88.56
499.049	84.56
499.267	99.56
499.484	96.56
499.701	79.56
499.918	89.56
500.135	79.56
500.352	89.56
500.569	75.56
500.786	89.56
501.003	88.56
501.22	100.56
501.437	97.56
501.654	70.56
501.871	78.56
502.088	83.56
502.305	80.56
502.522	71.56
502.739	81.56
502.956	86.56
503.172	87.56
503.389	97.56
503.606	94.56
503.823	90.56
504.04	73.56
504.256	82.56
504.473	82.56
504.69	100.56
504.907	88.56
505.123	94.56
505.34	86.56
505.557	74.56
505.773	77.56
505.99	88.56
506.207	85.56
506.423	91.56
506.64	85.56
506.856	82.56
507.073	100.56
507.289	86.56
507.506	69.56
507.722	86.56
507.939	80.56
508.155	82.56
508.372	81.56
508.588	89.56
508.805	100.56
509.021	97.56
509.238	75.56
509.454	108.56
509.67	93.56
509.887	92.56
510.103	89.56
510.319	78.56
510.536	95.56
510.752	76.56
510.968	88.56
511.184	82.56
511.401	89.56
511.617	89.56
511.833	81.56
512.049	80.56
512.265	79.56
512.481	81.56
512.698	82.56
512.914	97.56
513.13	84.56
513.346	82.56
513.562	87.56
513.778	83.56
513.994	77.56
514.21	98.56
514.426	97.56
514.642	74.56
514.858	86.56
515.074	75.56
515.29	81.56
515.506	98.56
515.721	94.56
515.937	89.56
516.153	71.56
516.369	70.56
516.585	82.56
516.801	81.56
517.016	87.56
517.232	85.56
517.448	95.56
517.664	85.56
517.879	80.56
518.095	81.56
518.311	77.56
518.527	99.56
518.742	84.56
518.958	93.56
519.173	88.56
519.389	93.56
519.605	78.56
519.82	80.56
520.036	71.56
520.251	79.56
520.467	83.56
520.682	86.56
520.898	80.56
521.113	89.56
521.329	92.56
521.544	80.56
521.76	87.56
521.975	77.56
522.19	97.56
522.406	84.56
522.621	75.56
522.836	82.56
523.052	86.56
523.267	100.56
523.482	92.56
523.698	91.56
523.913	80.56
524.128	89.56
524.343	77.56
524.559	87.56
524.774	88.56
524.989	97.56
525.204	78.56
525.419	96.56
525.634	78.56
525.849	78.56
526.064	82.56
526.28	93.56
526.495	82.56
526.71	86.56
526.925	88.56
527.14	91.56
527.355	87.56
527.57	88.56
527.785	81.56
527.999	83.56
528.214	97.56
528.429	79.56
528.644	83.56
528.859	85.56
529.074	72.56
529.289	78.56
529.503	84.56
529.718	102.56
529.933	88.56
530.148	80.56
530.363	76.56
530.577	80.56
530.792	85.56
531.007	86.56
531.221	87.56
531.436	91.56
531.651	73.56
531.865	74.56
532.08	84.56
532.295	75.56
532.509	95.56
532.724	95.56
532.938	89.56
533.153	89.56
533.367	79.56
533.582	85.56
533.796	90.56
534.011	98.56
534.225	78.56
534.44	93.56
534.654	87.56
534.868	90.56
535.083	93.56
535.297	79.56
535.511	86.56
535.726	91.56
535.94	76.56
536.154	81.56
536.369	94.56
536.583	75.56
536.797	80.56
537.011	77.56
537.225	74.56
537.44	81.56
537.654	100.56
537.868	88.56
538.082	98.56
538.296	88.56
538.51	87.56
538.724	89.56
538.938	78.56
539.153	88.56
539.367	86.56
539.581	79.56
539.795	90.56
540.009	96.56
540.222	84.56
540.436	83.56
540.65	82.56
540.864	71.56
541.078	86.56
541.292	96.56
541.506	80.56
541.72	78.56
541.934	72.56
542.147	87.56
542.361	83.56
542.575	89.56
542.789	78.56
543.002	83.56
543.216	99.56
543.43	85.56
543.644	96.56
543.857	88.56
544.071	93.56
544.285	85.56
544.498	80.56
544.712	87.56
544.925	75.56
545.139	76.56
545.352	84.56
545.566	73.56
545.779	100.56
545.993	85.56
546.206	95.56
546.42	101.56
546.633	86.56
546.847	88.56
547.06	84.56
547.274	84.56
547.487	95.56
547.7	89.56
547.914	74.56
548.127	88.56
548.34	82.56
548.554	88.56
548.767	87.56
548.98	87.56
549.193	95.56
549.407	78.56
549.62	74.56
549.833	78.56
550.046	102.56
550.259	89.56
550.473	86.56
550.686	84.56
550.899	71.56
551.112	86.56
551.325	91.56
551.538	97.56
551.751	77.56
551.964	86.56
552.177	94.56
552.39	86.56
552.603	84.56
552.816	99.56
553.029	80.56
553.242	86.56
553.455	80.56
553.667	102.56
553.88	85.56
554.093	84.56
554.306	102.56
554.519	88.56
554.732	77.56
554.944	82.56
555.157	77.56
555.37	89.56
555.583	96.56
555.795	84.56
556.008	76.56
556.221	85.56
556.433	89.56
556.646	87.56
556.859	89.56
557.071	75.56
557.284	80.56
557.496	85.56
557.709	85.56
557.921	90.56
558.134	94.56
558.346	89.56
558.559	81.56
558.771	100.56
558.984	68.56
559.196	83.56
559.409	76.56
559.621	80.56
559.833	84.56
560.046	88.56
560.258	92.56
560.47	92.56
560.683	79.56
560.895	76.56
561.107	81.56
561.32	87.56
561.532	89.56
561.744	91.56
561.956	89.56
562.168	87.56
562.381	82.56
562.593	84.56
562.805	109.56
563.017	84.56
563.229	79.56
563.441	81.56
563.653	82.56
563.865	105.56
564.077	69.56
564.289	78.56
564.501	89.56
564.713	85.56
564.925	80.56
565.137	95.56
565.349	78.56
565.561	90.56
565.773	84.56
565.985	83.56
566.197	80.56
566.408	72.56
566.62	86.56
566.832	92.56
567.044	73.56
567.255	79.56
567.467	94.56
567.679	84.56
567.891	62.56
568.102	70.56
568.314	71.56
568.526	84.56
568.737	84.56
568.949	87.56
569.161	75.56
569.372	93.56
569.584	77.56
569.795	85.56
570.007	97.56
570.218	76.56
570.43	73.56
570.641	90.56
570.853	92.56
571.064	81.56
571.276	86.56
571.487	79.56
571.698	70.56
571.91	95.56
572.121	92.56
572.333	87.56
572.544	70.56
572.755	88.56
572.966	77.56
573.178	87.56
573.389	73.56
573.6	93.56
573.811	96.56
574.023	92.56
574.234	88.56
574.445	100.56
574.656	82.56
574.867	87.56
575.078	91.56
575.289	82.56
575.501	102.56
575.712	93.56
575.923	96.56
576.134	73.56
576.345	97.56
576.556	87.56
576.767	99.56
576.978	91.56
577.188	86.56
577.399	97.56
577.61	62.56
577.821	89.56
578.032	100.56
578.243	90.56
578.454	87.56
578.665	92.56
578.875	96.56
579.086	78.56
579.297	83.56
579.508	95.56
579.718	78.56
579.929	73.56
580.14	100.56
580.35	91.56
580.561	93.56
580.772	83.56
580.982	102.56
581.193	80.56
581.403	95.56
581.614	90.56
581.825	80.56
582.035	101.56
582.246	83.56
582.456	84.56
582.667	73.56
582.877	71.56
583.087	80.56
583.298	78.56
583.508	93.56
583.719	92.56
583.929	76.56
584.139	85.56
584.35	89.56
584.56	100.56
584.77	80.56
584.981	87.56
585.191	77.56
585.401	82.56
585.611	96.56
585.821	80.56
586.032	86.56
586.242	92.56
586.452	85.56
586.662	98.56
586.872	86.56
587.082	102.56
587.292	87.56
587.502	85.56
587.713	83.56
587.923	80.56
588.133	78.56
588.343	98.56
588.553	72.56
588.762	81.56
588.972	93.56
589.182	90.56
589.392	90.56
589.602	88.56
589.812	90.56
590.022	88.56
590.232	78.56
590.441	74.56
590.651	76.56
590.861	86.56
591.071	84.56
591.281	81.56
591.49	86.56
591.7	89.56
591.91	76.56
592.119	77.56
592.329	98.56
592.539	82.56
592.748	87.56
592.958	67.56
593.167	81.56
593.377	83.56
593.587	81.56
593.796	82.56
594.006	96.56
594.215	94.56
594.424	105.56
594.634	94.56
594.843	87.56
595.053	88.56
595.262	83.56
595.472	84.56
595.681	86.56
595.89	96.56
596.1	90.56
596.309	92.56
596.518	97.56
596.727	86.56
596.937	97.56
597.146	92.56
597.355	79.56
597.564	85.56
597.774	100.56
597.983	86.56
598.192	78.56
598.401	85.56
598.61	90.56
598.819	94.56
599.028	94.56
599.237	82.56
599.446	82.56
599.655	87.56
599.864	81.56
600.073	82.56
600.282	85.56
600.491	85.56
600.7	77.56
600.909	84.56
601.118	92.56
601.327	70.56
601.536	85.56
601.745	88.56
601.953	72.56
602.162	89.56
602.371	96.56
602.58	70.56
602.789	81.56
602.997	92.56
603.206	94.56
603.415	80.56
603.623	74.56
603.832	81.56
604.041	83.56
604.249	80.56
604.458	90.56
604.666	81.56
604.875	75.56
605.084	84.56
605.292	78.56
605.501	104.56
605.709	95.56
605.918	95.56
606.126	99.56
606.334	97.56
606.543	100.56
606.751	96.56
606.96	87.56
607.168	91.56
607.376	86.56
607.585	81.56
607.793	97.56
608.001	70.56
608.21	85.56
608.418	86.56
608.626	97.56
608.834	85.56
609.043	84.56
609.251	88.56
609.459	94.56
609.667	85.56
609.875	74.56
610.083	77.56
610.291	84.56
610.499	97.56
610.707	71.56
610.916	93.56
611.124	82.56
611.332	84.56
611.54	75.56
611.748	77.56
611.955	103.56
612.163	80.56
612.371	88.56
612.579	84.56
612.787	81.56
612.995	85.56
613.203	96.56
613.411	86.56
613.618	73.56
613.826	72.56
614.034	81.56
614.242	83.56
614.449	78.56
614.657	93.56
614.865	86.56
615.072	84.56
615.28	88.56
615.488	70.56
615.695	86.56
615.903	77.56
616.111	86.56
616.318	80.56
616.526	101.56
616.733	87.56
616.941	87.56
617.148	83.56
617.356	93.56
617.563	92.56
617.771	90.56
617.978	78.56
618.185	89.56
618.393	75.56
618.6	80.56
618.807	89.56
619.015	80.56
619.222	89.56
619.429	71.56
619.637	95.56
619.844	105.56
620.051	97.56
620.258	73.56
620.466	88.56
620.673	68.56
620.88	84.56
621.087	74.56
621.294	84.56
621.501	88.56
621.708	80.56
621.915	83.56
622.122	83.56
622.329	97.56
622.536	92.56
622.743	81.56
622.95	75.56
623.157	99.56
623.364	89.56
623.571	90.56
623.778	85.56
623.985	87.56
624.192	86.56
624.399	91.56
624.606	75.56
624.812	83.56
625.019	88.56
625.226	87.56
625.433	92.56
625.639	76.56
625.846	86.56
626.053	91.56
626.259	88.56
626.466	92.56
626.673	86.56
626.879	86.56
627.086	71.56
627.293	83.56
627.499	84.56
627.706	72.56
627.912	75.56
628.119	85.56
628.325	97.56
628.532	84.56
628.738	75.56
628.945	80.56
629.151	82.56
629.357	74.56
629.564	89.56
629.77	90.56
629.976	86.56
630.183	85.56
630.389	83.56
630.595	87.56
630.802	96.56
631.008	89.56
631.214	98.56
631.42	100.56
631.627	94.56
631.833	86.56
632.039	77.56
632.245	80.56
632.451	88.56
632.657	90.56
632.863	88.56
633.069	80.56
633.275	81.56
633.481	74.56
633.688	89.56
633.893	84.56
634.099	83.56
634.305	81.56
634.511	90.56
634.717	83.56
634.923	89.56
635.129	89.56
635.335	80.56
635.541	76.56
635.747	100.56
635.952	77.56
636.158	85.56
636.364	88.56
636.57	78.56
636.775	91.56
636.981	98.56
637.187	90.56
637.392	73.56
637.598	80.56
637.804	88.56
638.009	78.56
638.215	71.56
638.421	82.56
638.626	75.56
638.832	77.56
639.037	88.56
639.243	91.56
639.448	96.56
639.654	88.56
639.859	89.56
640.065	86.56
640.27	92.56
640.475	85.56
640.681	86.56
640.886	86.56
641.091	83.56
641.297	101.56
641.502	84.56
641.707	83.56
641.913	97.56
642.118	87.56
642.323	85.56
642.528	94.56
642.733	91.56
642.939	83.56
643.144	74.56
643.349	80.56
643.554	78.56
643.759	95.56
643.964	92.56
644.169	90.56
644.374	82.56
644.579	92.56
644.784	86.56
644.989	86.56
645.194	82.56
645.399	89.56
645.604	79.56
645.809	92.56
646.014	74.56
646.219	84.56
646.423	66.56
646.628	78.56
646.833	92.56
647.038	97.56
647.243	89.56
647.447	100.56
647.652	81.56
647.857	81.56
648.062	89.56
648.266	93.56
648.471	84.56
648.676	85.56
648.88	73.56
649.085	88.56
649.289	80.56
649.494	101.56
649.698	100.56
649.903	81.56
650.107	86.56
650.312	75.56
650.516	81.56
650.721	87.56
650.925	74.56
651.13	91.56
651.334	82.56
651.539	101.56
651.743	88.56
651.947	78.56
652.152	96.56
652.356	85.56
652.56	89.56
652.764	78.56
652.969	87.56
653.173	72.56
653.377	77.56
653.581	97.56
653.785	81.56
653.99	81.56
654.194	81.56
654.398	79.56
654.602	94.56
654.806	83.56
655.01	75.56
655.214	83.56
655.418	79.56
655.622	76.56
655.826	88.56
656.03	95.56
656.234	88.56
656.438	80.56
656.642	79.56
656.846	97.56
657.049	74.56
657.253	90.56
657.457	89.56
657.661	82.56
657.865	82.56
658.068	77.56
658.272	79.56
658.476	84.56
658.68	74.56
658.883	78.56
659.087	91.56
659.291	90.56
659.494	71.56
659.698	93.56
659.901	82.56
660.105	91.56
660.309	85.56
660.512	89.56
660.716	89.56
660.919	92.56
661.123	90.56
661.326	94.56
661.53	94.56
661.733	82.56
661.936	82.56
662.14	72.56
662.343	81.56
662.546	92.56
662.75	66.56
662.953	86.56
663.156	95.56
663.36	87.56
663.563	95.56
663.766	67.56
663.969	92.56
664.173	87.56
664.376	83.56
664.579	98.56
664.782	88.56
664.985	78.56
665.188	85.56
665.391	83.56
665.594	95.56
665.797	79.56
666	72.56
666.203	89.56
666.406	95.56
666.609	92.56
666.812	89.56
667.015	82.56
667.218	85.56
667.421	76.56
667.624	89.56
667.827	95.56
668.03	96.56
668.232	82.56
668.435	86.56
668.638	74.56
668.841	81.56
669.043	73.56
669.246	72.56
669.449	76.56
669.651	83.56
669.854	89.56
670.057	97.56
670.259	78.56
670.462	84.56
670.665	86.56
670.867	83.56
671.07	81.56
671.272	88.56
671.475	100.56
671.677	89.56
671.88	76.56
672.082	86.56
672.284	82.56
672.487	86.56
672.689	77.56
672.892	83.56
