Data from Background_2_HRD10591_00010.txt Node
Date: Wed Nov 05 14:47:02 EST 2025
User: Yrep
Spectrometer: HR+D1059
Trigger mode: 1
Integration Time (sec): 1.000000E-1
Scans to average: 1
Electric dark correction enabled: true
Nonlinearity correction enabled: false
Boxcar width: 0
XAxis mode: Wavelengths
Number of Pixels in Spectrum: 2048
>>>>>Begin Spectral Data<<<<<
223.165	-17.69
223.4	-17.69
223.635	-17.69
223.869	-5.69
224.104	-14.69
224.338	-14.69
224.573	-12.69
224.808	-13.69
225.042	-16.69
225.277	-11.69
225.511	6.31
225.746	-0.69
225.98	6.31
226.215	8.31
226.449	17.31
226.683	11.31
226.918	25.31
227.152	33.31
227.387	33.31
227.621	27.31
227.856	35.31
228.09	47.31
228.324	48.31
228.559	48.31
228.793	61.31
229.027	56.31
229.262	72.31
229.496	71.31
229.73	64.31
229.964	77.31
230.199	69.31
230.433	64.31
230.667	86.31
230.901	82.31
231.136	85.31
231.37	71.31
231.604	66.31
231.838	97.31
232.072	89.31
232.306	83.31
232.541	87.31
232.775	84.31
233.009	86.31
233.243	75.31
233.477	83.31
233.711	74.31
233.945	84.31
234.179	87.31
234.413	70.31
234.647	78.31
234.881	79.31
235.115	81.31
235.349	77.31
235.583	84.31
235.817	79.31
236.051	77.31
236.285	66.31
236.519	80.31
236.753	73.31
236.987	76.31
237.221	89.31
237.455	84.31
237.689	78.31
237.922	68.31
238.156	67.31
238.39	74.31
238.624	74.31
238.858	79.31
239.091	80.31
239.325	81.31
239.559	72.31
239.793	82.31
240.027	86.31
240.26	68.31
240.494	85.31
240.728	80.31
240.961	79.31
241.195	77.31
241.429	85.31
241.662	80.31
241.896	83.31
242.13	67.31
242.363	73.31
242.597	75.31
242.83	63.31
243.064	68.31
243.298	69.31
243.531	73.31
243.765	58.31
243.998	85.31
244.232	68.31
244.465	88.31
244.699	69.31
244.932	75.31
245.166	82.31
245.399	87.31
245.633	82.31
245.866	71.31
246.099	82.31
246.333	68.31
246.566	74.31
246.8	90.31
247.033	83.31
247.266	94.31
247.5	92.31
247.733	77.31
247.966	77.31
248.2	96.31
248.433	90.31
248.666	75.31
248.899	84.31
249.133	84.31
249.366	73.31
249.599	79.31
249.832	93.31
250.066	77.31
250.299	86.31
250.532	82.31
250.765	89.31
250.998	75.31
251.231	79.31
251.465	83.31
251.698	70.31
251.931	82.31
252.164	82.31
252.397	83.31
252.63	84.31
252.863	89.31
253.096	70.31
253.329	85.31
253.562	69.31
253.795	68.31
254.028	88.31
254.261	78.31
254.494	80.31
254.727	73.31
254.96	70.31
255.193	82.31
255.426	87.31
255.659	86.31
255.892	82.31
256.124	94.31
256.357	67.31
256.59	81.31
256.823	80.31
257.056	70.31
257.289	74.31
257.521	69.31
257.754	85.31
257.987	85.31
258.22	91.31
258.452	90.31
258.685	70.31
258.918	71.31
259.151	60.31
259.383	86.31
259.616	92.31
259.849	76.31
260.081	83.31
260.314	92.31
260.547	101.31
260.779	84.31
261.012	78.31
261.244	65.31
261.477	84.31
261.71	82.31
261.942	80.31
262.175	69.31
262.407	89.31
262.64	97.31
262.872	86.31
263.105	76.31
263.337	100.31
263.57	88.31
263.802	83.31
264.035	91.31
264.267	94.31
264.499	83.31
264.732	70.31
264.964	73.31
265.197	84.31
265.429	80.31
265.661	61.31
265.894	77.31
266.126	79.31
266.358	81.31
266.591	85.31
266.823	74.31
267.055	92.31
267.287	95.31
267.52	82.31
267.752	88.31
267.984	79.31
268.216	76.31
268.448	64.31
268.681	87.31
268.913	85.31
269.145	98.31
269.377	91.31
269.609	94.31
269.841	74.31
270.073	90.31
270.306	92.31
270.538	91.31
270.77	85.31
271.002	67.31
271.234	72.31
271.466	81.31
271.698	76.31
271.93	83.31
272.162	90.31
272.394	82.31
272.626	77.31
272.858	81.31
273.09	80.31
273.322	87.31
273.553	78.31
273.785	82.31
274.017	80.31
274.249	81.31
274.481	83.31
274.713	88.31
274.945	78.31
275.176	84.31
275.408	91.31
275.64	86.31
275.872	76.31
276.104	91.31
276.335	87.31
276.567	81.31
276.799	90.31
277.031	82.31
277.262	90.31
277.494	69.31
277.726	79.31
277.957	85.31
278.189	81.31
278.421	84.31
278.652	77.31
278.884	89.31
279.115	82.31
279.347	80.31
279.579	68.31
279.81	65.31
280.042	74.31
280.273	93.31
280.505	80.31
280.736	68.31
280.968	76.31
281.199	84.31
281.431	84.31
281.662	86.31
281.894	86.31
282.125	77.31
282.356	75.31
282.588	85.31
282.819	73.31
283.051	70.31
283.282	71.31
283.513	82.31
283.745	85.31
283.976	77.31
284.207	86.31
284.439	88.31
284.67	81.31
284.901	81.31
285.132	84.31
285.364	88.31
285.595	77.31
285.826	94.31
286.057	98.31
286.288	90.31
286.52	89.31
286.751	93.31
286.982	84.31
287.213	85.31
287.444	84.31
287.675	82.31
287.906	97.31
288.138	70.31
288.369	83.31
288.6	98.31
288.831	86.31
289.062	83.31
289.293	84.31
289.524	95.31
289.755	84.31
289.986	94.31
290.217	74.31
290.448	81.31
290.679	68.31
290.91	63.31
291.141	70.31
291.371	81.31
291.602	85.31
291.833	80.31
292.064	72.31
292.295	93.31
292.526	88.31
292.757	72.31
292.987	84.31
293.218	92.31
293.449	91.31
293.68	72.31
293.91	78.31
294.141	87.31
294.372	88.31
294.603	92.31
294.833	91.31
295.064	85.31
295.295	99.31
295.525	77.31
295.756	71.31
295.987	86.31
296.217	98.31
296.448	77.31
296.679	95.31
296.909	88.31
297.14	93.31
297.37	91.31
297.601	80.31
297.831	82.31
298.062	87.31
298.292	87.31
298.523	84.31
298.753	83.31
298.984	80.31
299.214	89.31
299.445	89.31
299.675	79.31
299.905	80.31
300.136	94.31
300.366	82.31
300.597	83.31
300.827	60.31
301.057	100.31
301.288	78.31
301.518	69.31
301.748	75.31
301.979	96.31
302.209	91.31
302.439	86.31
302.669	93.31
302.9	89.31
303.13	84.31
303.36	82.31
303.59	85.31
303.82	80.31
304.051	90.31
304.281	76.31
304.511	94.31
304.741	85.31
304.971	85.31
305.201	83.31
305.431	95.31
305.661	88.31
305.891	86.31
306.121	83.31
306.352	79.31
306.582	92.31
306.812	79.31
307.042	66.31
307.272	95.31
307.502	90.31
307.731	97.31
307.961	101.31
308.191	84.31
308.421	77.31
308.651	90.31
308.881	75.31
309.111	91.31
309.341	91.31
309.571	88.31
309.8	83.31
310.03	81.31
310.26	96.31
310.49	76.31
310.72	83.31
310.949	84.31
311.179	76.31
311.409	94.31
311.639	71.31
311.868	94.31
312.098	86.31
312.328	83.31
312.557	73.31
312.787	84.31
313.017	80.31
313.246	91.31
313.476	93.31
313.706	89.31
313.935	68.31
314.165	80.31
314.394	84.31
314.624	83.31
314.853	108.31
315.083	86.31
315.312	70.31
315.542	80.31
315.771	77.31
316.001	93.31
316.23	90.31
316.46	80.31
316.689	81.31
316.919	85.31
317.148	91.31
317.377	72.31
317.607	92.31
317.836	88.31
318.065	83.31
318.295	99.31
318.524	95.31
318.753	78.31
318.983	89.31
319.212	89.31
319.441	93.31
319.67	92.31
319.9	97.31
320.129	76.31
320.358	82.31
320.587	71.31
320.816	90.31
321.046	84.31
321.275	90.31
321.504	88.31
321.733	86.31
321.962	76.31
322.191	91.31
322.42	92.31
322.649	78.31
322.878	85.31
323.108	97.31
323.337	76.31
323.566	88.31
323.795	82.31
324.024	84.31
324.253	88.31
324.482	93.31
324.71	74.31
324.939	97.31
325.168	95.31
325.397	83.31
325.626	85.31
325.855	83.31
326.084	83.31
326.313	89.31
326.542	78.31
326.77	89.31
326.999	84.31
327.228	72.31
327.457	83.31
327.686	83.31
327.914	71.31
328.143	83.31
328.372	80.31
328.6	84.31
328.829	86.31
329.058	93.31
329.287	73.31
329.515	77.31
329.744	94.31
329.972	82.31
330.201	89.31
330.43	76.31
330.658	75.31
330.887	78.31
331.115	84.31
331.344	76.31
331.572	61.31
331.801	82.31
332.03	80.31
332.258	89.31
332.486	87.31
332.715	85.31
332.943	104.31
333.172	94.31
333.4	79.31
333.629	88.31
333.857	86.31
334.085	78.31
334.314	90.31
334.542	81.31
334.771	80.31
334.999	85.31
335.227	75.31
335.455	84.31
335.684	91.31
335.912	90.31
336.14	101.31
336.369	101.31
336.597	73.31
336.825	69.31
337.053	84.31
337.281	80.31
337.51	93.31
337.738	88.31
337.966	78.31
338.194	95.31
338.422	84.31
338.65	89.31
338.878	94.31
339.106	83.31
339.334	100.31
339.562	86.31
339.79	79.31
340.018	95.31
340.246	85.31
340.474	88.31
340.702	94.31
340.93	88.31
341.158	82.31
341.386	75.31
341.614	93.31
341.842	78.31
342.07	87.31
342.298	85.31
342.526	86.31
342.754	76.31
342.981	94.31
343.209	85.31
343.437	86.31
343.665	90.31
343.893	78.31
344.12	86.31
344.348	80.31
344.576	92.31
344.804	91.31
345.031	76.31
345.259	81.31
345.487	83.31
345.714	81.31
345.942	86.31
346.17	91.31
346.397	88.31
346.625	89.31
346.853	96.31
347.08	85.31
347.308	68.31
347.535	78.31
347.763	93.31
347.99	73.31
348.218	79.31
348.445	80.31
348.673	105.31
348.9	80.31
349.128	106.31
349.355	87.31
349.583	88.31
349.81	69.31
350.037	70.31
350.265	95.31
350.492	81.31
350.72	99.31
350.947	93.31
351.174	96.31
351.402	73.31
351.629	88.31
351.856	76.31
352.083	74.31
352.311	82.31
352.538	77.31
352.765	93.31
352.992	79.31
353.22	89.31
353.447	82.31
353.674	85.31
353.901	75.31
354.128	88.31
354.355	88.31
354.583	97.31
354.81	83.31
355.037	89.31
355.264	95.31
355.491	76.31
355.718	80.31
355.945	88.31
356.172	81.31
356.399	75.31
356.626	76.31
356.853	68.31
357.08	88.31
357.307	88.31
357.534	91.31
357.761	88.31
357.988	93.31
358.215	84.31
358.441	81.31
358.668	83.31
358.895	84.31
359.122	85.31
359.349	79.31
359.576	84.31
359.802	81.31
360.029	84.31
360.256	91.31
360.483	86.31
360.709	89.31
360.936	84.31
361.163	82.31
361.39	90.31
361.616	83.31
361.843	79.31
362.07	78.31
362.296	91.31
362.523	82.31
362.749	89.31
362.976	81.31
363.203	90.31
363.429	84.31
363.656	78.31
363.882	80.31
364.109	71.31
364.335	75.31
364.562	69.31
364.788	89.31
365.015	90.31
365.241	77.31
365.468	83.31
365.694	83.31
365.92	85.31
366.147	71.31
366.373	83.31
366.599	79.31
366.826	93.31
367.052	87.31
367.278	76.31
367.505	81.31
367.731	106.31
367.957	80.31
368.184	90.31
368.41	74.31
368.636	81.31
368.862	79.31
369.089	92.31
369.315	73.31
369.541	91.31
369.767	86.31
369.993	99.31
370.219	75.31
370.445	79.31
370.672	83.31
370.898	63.31
371.124	91.31
371.35	75.31
371.576	83.31
371.802	76.31
372.028	78.31
372.254	88.31
372.48	86.31
372.706	83.31
372.932	92.31
373.158	79.31
373.384	84.31
373.61	85.31
373.835	82.31
374.061	91.31
374.287	71.31
374.513	84.31
374.739	84.31
374.965	74.31
375.191	77.31
375.416	79.31
375.642	83.31
375.868	86.31
376.094	77.31
376.319	86.31
376.545	82.31
376.771	84.31
376.997	71.31
377.222	89.31
377.448	85.31
377.674	82.31
377.899	74.31
378.125	82.31
378.35	93.31
378.576	79.31
378.802	84.31
379.027	82.31
379.253	92.31
379.478	82.31
379.704	82.31
379.929	68.31
380.155	78.31
380.38	76.31
380.606	70.31
380.831	74.31
381.057	96.31
381.282	83.31
381.507	97.31
381.733	92.31
381.958	77.31
382.184	69.31
382.409	95.31
382.634	85.31
382.86	79.31
383.085	94.31
383.31	76.31
383.535	84.31
383.761	94.31
383.986	90.31
384.211	64.31
384.436	91.31
384.662	74.31
384.887	73.31
385.112	79.31
385.337	83.31
385.562	80.31
385.787	74.31
386.013	81.31
386.238	88.31
386.463	78.31
386.688	96.31
386.913	85.31
387.138	78.31
387.363	78.31
387.588	92.31
387.813	75.31
388.038	102.31
388.263	76.31
388.488	76.31
388.713	66.31
388.938	70.31
389.163	80.31
389.387	83.31
389.612	84.31
389.837	79.31
390.062	93.31
390.287	92.31
390.512	86.31
390.736	84.31
390.961	86.31
391.186	82.31
391.411	80.31
391.636	92.31
391.86	84.31
392.085	97.31
392.31	73.31
392.534	83.31
392.759	59.31
392.984	85.31
393.208	90.31
393.433	80.31
393.658	91.31
393.882	68.31
394.107	95.31
394.331	86.31
394.556	74.31
394.78	76.31
395.005	84.31
395.229	78.31
395.454	84.31
395.678	98.31
395.903	82.31
396.127	78.31
396.352	74.31
396.576	85.31
396.801	72.31
397.025	90.31
397.249	73.31
397.474	76.31
397.698	84.31
397.922	85.31
398.147	84.31
398.371	78.31
398.595	86.31
398.82	84.31
399.044	75.31
399.268	83.31
399.492	82.31
399.717	90.31
399.941	87.31
400.165	77.31
400.389	82.31
400.613	92.31
400.837	70.31
401.062	84.31
401.286	83.31
401.51	89.31
401.734	73.31
401.958	86.31
402.182	94.31
402.406	91.31
402.63	88.31
402.854	81.31
403.078	77.31
403.302	72.31
403.526	79.31
403.75	74.31
403.974	85.31
404.198	77.31
404.422	83.31
404.645	77.31
404.869	74.31
405.093	76.31
405.317	74.31
405.541	76.31
405.765	85.31
405.988	79.31
406.212	83.31
406.436	89.31
406.66	91.31
406.883	87.31
407.107	78.31
407.331	61.31
407.555	84.31
407.778	92.31
408.002	88.31
408.226	82.31
408.449	92.31
408.673	67.31
408.896	73.31
409.12	76.31
409.344	82.31
409.567	68.31
409.791	90.31
410.014	83.31
410.238	82.31
410.461	79.31
410.685	88.31
410.908	84.31
411.132	75.31
411.355	92.31
411.578	76.31
411.802	79.31
412.025	70.31
412.249	88.31
412.472	79.31
412.695	91.31
412.919	71.31
413.142	80.31
413.365	84.31
413.589	97.31
413.812	83.31
414.035	89.31
414.258	76.31
414.482	78.31
414.705	76.31
414.928	87.31
415.151	80.31
415.374	75.31
415.597	75.31
415.821	93.31
416.044	72.31
416.267	81.31
416.49	73.31
416.713	74.31
416.936	79.31
417.159	76.31
417.382	76.31
417.605	82.31
417.828	101.31
418.051	76.31
418.274	80.31
418.497	90.31
418.72	87.31
418.943	85.31
419.166	74.31
419.389	81.31
419.611	70.31
419.834	71.31
420.057	82.31
420.28	73.31
420.503	78.31
420.726	69.31
420.948	81.31
421.171	80.31
421.394	87.31
421.617	91.31
421.839	77.31
422.062	84.31
422.285	94.31
422.507	84.31
422.73	90.31
422.953	92.31
423.175	81.31
423.398	74.31
423.621	71.31
423.843	88.31
424.066	90.31
424.288	66.31
424.511	80.31
424.733	67.31
424.956	60.31
425.178	83.31
425.401	92.31
425.623	69.31
425.846	71.31
426.068	85.31
426.291	80.31
426.513	77.31
426.735	74.31
426.958	82.31
427.18	74.31
427.402	84.31
427.625	76.31
427.847	72.31
428.069	83.31
428.292	75.31
428.514	85.31
428.736	84.31
428.958	61.31
429.181	83.31
429.403	85.31
429.625	86.31
429.847	89.31
430.069	83.31
430.292	82.31
430.514	89.31
430.736	75.31
430.958	88.31
431.18	89.31
431.402	88.31
431.624	73.31
431.846	77.31
432.068	92.31
432.29	79.31
432.512	80.31
432.734	70.31
432.956	81.31
433.178	74.31
433.4	75.31
433.622	92.31
433.844	71.31
434.066	71.31
434.287	87.31
434.509	73.31
434.731	76.31
434.953	78.31
435.175	83.31
435.397	82.31
435.618	90.31
435.84	85.31
436.062	89.31
436.284	84.31
436.505	76.31
436.727	75.31
436.949	70.31
437.17	73.31
437.392	78.31
437.614	83.31
437.835	82.31
438.057	78.31
438.278	84.31
438.5	81.31
438.721	77.31
438.943	85.31
439.165	79.31
439.386	71.31
439.608	85.31
439.829	92.31
440.05	90.31
440.272	83.31
440.493	91.31
440.715	90.31
440.936	73.31
441.158	86.31
441.379	81.31
441.6	74.31
441.822	86.31
442.043	85.31
442.264	73.31
442.486	68.31
442.707	80.31
442.928	70.31
443.149	64.31
443.371	89.31
443.592	77.31
443.813	91.31
444.034	93.31
444.255	88.31
444.476	90.31
444.698	79.31
444.919	77.31
445.14	147.31
445.361	111.31
445.582	86.31
445.803	71.31
446.024	80.31
446.245	78.31
446.466	96.31
446.687	81.31
446.908	74.31
447.129	93.31
447.35	93.31
447.571	98.31
447.792	82.31
448.013	81.31
448.234	85.31
448.455	91.31
448.675	81.31
448.896	73.31
449.117	90.31
449.338	95.31
449.559	85.31
449.779	79.31
450	87.31
450.221	78.31
450.442	76.31
450.662	85.31
450.883	91.31
451.104	90.31
451.324	80.31
451.545	75.31
451.766	74.31
451.986	80.31
452.207	78.31
452.428	81.31
452.648	87.31
452.869	65.31
453.089	67.31
453.31	81.31
453.53	82.31
453.751	88.31
453.971	86.31
454.192	80.31
454.412	80.31
454.633	77.31
454.853	65.31
455.073	86.31
455.294	87.31
455.514	76.31
455.734	88.31
455.955	82.31
456.175	78.31
456.395	85.31
456.616	80.31
456.836	74.31
457.056	78.31
457.276	77.31
457.497	80.31
457.717	90.31
457.937	90.31
458.157	83.31
458.377	90.31
458.598	77.31
458.818	89.31
459.038	82.31
459.258	82.31
459.478	70.31
459.698	90.31
459.918	78.31
460.138	92.31
460.358	77.31
460.578	82.31
460.798	72.31
461.018	84.31
461.238	82.31
461.458	81.31
461.678	89.31
461.898	78.31
462.118	76.31
462.338	74.31
462.558	72.31
462.777	79.31
462.997	91.31
463.217	87.31
463.437	81.31
463.657	82.31
463.876	86.31
464.096	88.31
464.316	102.31
464.536	75.31
464.755	80.31
464.975	81.31
465.195	84.31
465.414	73.31
465.634	82.31
465.854	89.31
466.073	82.31
466.293	96.31
466.512	77.31
466.732	79.31
466.951	85.31
467.171	88.31
467.391	86.31
467.61	96.31
467.829	81.31
468.049	85.31
468.268	76.31
468.488	84.31
468.707	93.31
468.927	80.31
469.146	80.31
469.365	83.31
469.585	74.31
469.804	72.31
470.023	81.31
470.243	73.31
470.462	84.31
470.681	69.31
470.901	75.31
471.12	77.31
471.339	78.31
471.558	89.31
471.777	88.31
471.997	86.31
472.216	81.31
472.435	76.31
472.654	76.31
472.873	102.31
473.092	70.31
473.311	91.31
473.53	69.31
473.749	84.31
473.968	77.31
474.187	84.31
474.406	67.31
474.625	64.31
474.844	89.31
475.063	74.31
475.282	82.31
475.501	84.31
475.72	86.31
475.939	79.31
476.158	92.31
476.377	84.31
476.596	68.31
476.814	84.31
477.033	86.31
477.252	86.31
477.471	75.31
477.69	84.31
477.908	69.31
478.127	70.31
478.346	90.31
478.564	66.31
478.783	81.31
479.002	76.31
479.22	76.31
479.439	80.31
479.658	96.31
479.876	76.31
480.095	80.31
480.313	97.31
480.532	68.31
480.751	88.31
480.969	88.31
481.188	65.31
481.406	88.31
481.624	79.31
481.843	76.31
482.061	85.31
482.28	82.31
482.498	69.31
482.717	76.31
482.935	64.31
483.153	70.31
483.372	98.31
483.59	90.31
483.808	96.31
484.027	94.31
484.245	77.31
484.463	70.31
484.681	79.31
484.9	87.31
485.118	77.31
485.336	91.31
485.554	76.31
485.772	89.31
485.99	85.31
486.209	70.31
486.427	86.31
486.645	87.31
486.863	71.31
487.081	67.31
487.299	80.31
487.517	82.31
487.735	78.31
487.953	91.31
488.171	86.31
488.389	66.31
488.607	80.31
488.825	96.31
489.043	82.31
489.261	91.31
489.479	76.31
489.696	71.31
489.914	78.31
490.132	76.31
490.35	69.31
490.568	77.31
490.786	86.31
491.003	88.31
491.221	88.31
491.439	78.31
491.657	82.31
491.874	77.31
492.092	77.31
492.31	88.31
492.527	69.31
492.745	66.31
492.963	92.31
493.18	80.31
493.398	73.31
493.615	80.31
493.833	89.31
494.05	81.31
494.268	83.31
494.485	73.31
494.703	90.31
494.92	81.31
495.138	91.31
495.355	74.31
495.573	82.31
495.79	75.31
496.008	88.31
496.225	66.31
496.442	84.31
496.66	94.31
496.877	85.31
497.094	89.31
497.312	68.31
497.529	75.31
497.746	74.31
497.963	80.31
498.181	90.31
498.398	92.31
498.615	81.31
498.832	92.31
499.049	82.31
499.267	97.31
499.484	97.31
499.701	84.31
499.918	104.31
500.135	82.31
500.352	94.31
500.569	83.31
500.786	68.31
501.003	81.31
501.22	84.31
501.437	89.31
501.654	80.31
501.871	83.31
502.088	77.31
502.305	77.31
502.522	84.31
502.739	88.31
502.956	82.31
503.172	71.31
503.389	79.31
503.606	84.31
503.823	82.31
504.04	91.31
504.256	73.31
504.473	76.31
504.69	75.31
504.907	91.31
505.123	85.31
505.34	75.31
505.557	86.31
505.773	71.31
505.99	86.31
506.207	83.31
506.423	82.31
506.64	74.31
506.856	87.31
507.073	85.31
507.289	85.31
507.506	88.31
507.722	68.31
507.939	71.31
508.155	80.31
508.372	92.31
508.588	71.31
508.805	84.31
509.021	90.31
509.238	81.31
509.454	78.31
509.67	73.31
509.887	92.31
510.103	92.31
510.319	99.31
510.536	91.31
510.752	80.31
510.968	80.31
511.184	89.31
511.401	82.31
511.617	87.31
511.833	89.31
512.049	92.31
512.265	86.31
512.481	86.31
512.698	81.31
512.914	84.31
513.13	73.31
513.346	104.31
513.562	81.31
513.778	74.31
513.994	95.31
514.21	90.31
514.426	79.31
514.642	93.31
514.858	85.31
515.074	93.31
515.29	85.31
515.506	78.31
515.721	79.31
515.937	81.31
516.153	76.31
516.369	98.31
516.585	76.31
516.801	95.31
517.016	80.31
517.232	78.31
517.448	82.31
517.664	73.31
517.879	84.31
518.095	92.31
518.311	75.31
518.527	78.31
518.742	84.31
518.958	73.31
519.173	84.31
519.389	87.31
519.605	89.31
519.82	82.31
520.036	80.31
520.251	85.31
520.467	70.31
520.682	76.31
520.898	82.31
521.113	91.31
521.329	72.31
521.544	81.31
521.76	86.31
521.975	80.31
522.19	83.31
522.406	89.31
522.621	78.31
522.836	86.31
523.052	89.31
523.267	69.31
523.482	76.31
523.698	93.31
523.913	84.31
524.128	71.31
524.343	82.31
524.559	81.31
524.774	78.31
524.989	74.31
525.204	85.31
525.419	100.31
525.634	85.31
525.849	74.31
526.064	69.31
526.28	84.31
526.495	86.31
526.71	88.31
526.925	84.31
527.14	84.31
527.355	96.31
527.57	77.31
527.785	81.31
527.999	62.31
528.214	74.31
528.429	69.31
528.644	84.31
528.859	82.31
529.074	79.31
529.289	88.31
529.503	84.31
529.718	96.31
529.933	78.31
530.148	89.31
530.363	92.31
530.577	74.31
530.792	66.31
531.007	77.31
531.221	72.31
531.436	85.31
531.651	85.31
531.865	75.31
532.08	80.31
532.295	84.31
532.509	88.31
532.724	84.31
532.938	82.31
533.153	94.31
533.367	78.31
533.582	86.31
533.796	74.31
534.011	86.31
534.225	89.31
534.44	98.31
534.654	80.31
534.868	84.31
535.083	82.31
535.297	85.31
535.511	81.31
535.726	83.31
535.94	73.31
536.154	108.31
536.369	86.31
536.583	97.31
536.797	86.31
537.011	69.31
537.225	88.31
537.44	76.31
537.654	78.31
537.868	81.31
538.082	78.31
538.296	64.31
538.51	82.31
538.724	80.31
538.938	87.31
539.153	83.31
539.367	81.31
539.581	72.31
539.795	95.31
540.009	94.31
540.222	87.31
540.436	94.31
540.65	83.31
540.864	84.31
541.078	82.31
541.292	82.31
541.506	76.31
541.72	74.31
541.934	86.31
542.147	94.31
542.361	98.31
542.575	86.31
542.789	86.31
543.002	77.31
543.216	87.31
543.43	76.31
543.644	90.31
543.857	94.31
544.071	87.31
544.285	85.31
544.498	107.31
544.712	88.31
544.925	84.31
545.139	92.31
545.352	86.31
545.566	82.31
545.779	78.31
545.993	91.31
546.206	90.31
546.42	80.31
546.633	74.31
546.847	92.31
547.06	86.31
547.274	87.31
547.487	95.31
547.7	86.31
547.914	81.31
548.127	79.31
548.34	86.31
548.554	90.31
548.767	91.31
548.98	82.31
549.193	83.31
549.407	77.31
549.62	75.31
549.833	91.31
550.046	86.31
550.259	81.31
550.473	88.31
550.686	91.31
550.899	87.31
551.112	80.31
551.325	80.31
551.538	82.31
551.751	86.31
551.964	88.31
552.177	92.31
552.39	86.31
552.603	77.31
552.816	88.31
553.029	78.31
553.242	85.31
553.455	71.31
553.667	93.31
553.88	86.31
554.093	92.31
554.306	77.31
554.519	83.31
554.732	74.31
554.944	101.31
555.157	92.31
555.37	83.31
555.583	96.31
555.795	69.31
556.008	78.31
556.221	79.31
556.433	84.31
556.646	65.31
556.859	87.31
557.071	80.31
557.284	90.31
557.496	91.31
557.709	78.31
557.921	73.31
558.134	68.31
558.346	80.31
558.559	64.31
558.771	76.31
558.984	72.31
559.196	97.31
559.409	89.31
559.621	93.31
559.833	86.31
560.046	80.31
560.258	64.31
560.47	76.31
560.683	96.31
560.895	71.31
561.107	94.31
561.32	91.31
561.532	84.31
561.744	92.31
561.956	103.31
562.168	92.31
562.381	88.31
562.593	80.31
562.805	90.31
563.017	82.31
563.229	88.31
563.441	94.31
563.653	81.31
563.865	74.31
564.077	68.31
564.289	88.31
564.501	90.31
564.713	85.31
564.925	71.31
565.137	75.31
565.349	70.31
565.561	82.31
565.773	76.31
565.985	86.31
566.197	79.31
566.408	82.31
566.62	85.31
566.832	76.31
567.044	87.31
567.255	103.31
567.467	88.31
567.679	84.31
567.891	92.31
568.102	80.31
568.314	74.31
568.526	74.31
568.737	92.31
568.949	68.31
569.161	79.31
569.372	95.31
569.584	85.31
569.795	81.31
570.007	85.31
570.218	88.31
570.43	93.31
570.641	68.31
570.853	88.31
571.064	79.31
571.276	95.31
571.487	76.31
571.698	81.31
571.91	98.31
572.121	84.31
572.333	80.31
572.544	79.31
572.755	101.31
572.966	98.31
573.178	84.31
573.389	83.31
573.6	80.31
573.811	68.31
574.023	80.31
574.234	97.31
574.445	90.31
574.656	82.31
574.867	92.31
575.078	90.31
575.289	70.31
575.501	80.31
575.712	84.31
575.923	75.31
576.134	81.31
576.345	83.31
576.556	86.31
576.767	92.31
576.978	72.31
577.188	98.31
577.399	78.31
577.61	84.31
577.821	80.31
578.032	83.31
578.243	92.31
578.454	93.31
578.665	95.31
578.875	82.31
579.086	74.31
579.297	70.31
579.508	78.31
579.718	91.31
579.929	70.31
580.14	70.31
580.35	83.31
580.561	80.31
580.772	98.31
580.982	80.31
581.193	78.31
581.403	73.31
581.614	81.31
581.825	96.31
582.035	81.31
582.246	83.31
582.456	78.31
582.667	70.31
582.877	90.31
583.087	75.31
583.298	76.31
583.508	97.31
583.719	85.31
583.929	93.31
584.139	91.31
584.35	97.31
584.56	94.31
584.77	82.31
584.981	66.31
585.191	88.31
585.401	78.31
585.611	78.31
585.821	77.31
586.032	86.31
586.242	91.31
586.452	82.31
586.662	69.31
586.872	83.31
587.082	66.31
587.292	81.31
587.502	77.31
587.713	84.31
587.923	95.31
588.133	84.31
588.343	73.31
588.553	85.31
588.762	88.31
588.972	81.31
589.182	92.31
589.392	80.31
589.602	87.31
589.812	76.31
590.022	85.31
590.232	87.31
590.441	85.31
590.651	84.31
590.861	92.31
591.071	88.31
591.281	77.31
591.49	92.31
591.7	98.31
591.91	96.31
592.119	77.31
592.329	87.31
592.539	84.31
592.748	80.31
592.958	73.31
593.167	78.31
593.377	80.31
593.587	91.31
593.796	86.31
594.006	77.31
594.215	82.31
594.424	73.31
594.634	76.31
594.843	76.31
595.053	89.31
595.262	93.31
595.472	90.31
595.681	75.31
595.89	82.31
596.1	80.31
596.309	63.31
596.518	85.31
596.727	82.31
596.937	86.31
597.146	81.31
597.355	84.31
597.564	89.31
597.774	90.31
597.983	66.31
598.192	97.31
598.401	75.31
598.61	95.31
598.819	76.31
599.028	74.31
599.237	79.31
599.446	93.31
599.655	93.31
599.864	80.31
600.073	89.31
600.282	93.31
600.491	81.31
600.7	90.31
600.909	92.31
601.118	85.31
601.327	70.31
601.536	99.31
601.745	83.31
601.953	84.31
602.162	90.31
602.371	84.31
602.58	81.31
602.789	83.31
602.997	78.31
603.206	90.31
603.415	100.31
603.623	77.31
603.832	91.31
604.041	101.31
604.249	88.31
604.458	76.31
604.666	99.31
604.875	67.31
605.084	76.31
605.292	88.31
605.501	87.31
605.709	85.31
605.918	85.31
606.126	82.31
606.334	91.31
606.543	85.31
606.751	91.31
606.96	92.31
607.168	85.31
607.376	78.31
607.585	78.31
607.793	82.31
608.001	77.31
608.21	88.31
608.418	89.31
608.626	83.31
608.834	94.31
609.043	86.31
609.251	91.31
609.459	84.31
609.667	96.31
609.875	69.31
610.083	80.31
610.291	70.31
610.499	76.31
610.707	76.31
610.916	84.31
611.124	98.31
611.332	77.31
611.54	84.31
611.748	82.31
611.955	80.31
612.163	81.31
612.371	68.31
612.579	78.31
612.787	93.31
612.995	85.31
613.203	89.31
613.411	80.31
613.618	82.31
613.826	92.31
614.034	76.31
614.242	90.31
614.449	88.31
614.657	78.31
614.865	76.31
615.072	77.31
615.28	73.31
615.488	91.31
615.695	88.31
615.903	87.31
616.111	94.31
616.318	89.31
616.526	101.31
616.733	76.31
616.941	85.31
617.148	78.31
617.356	85.31
617.563	86.31
617.771	71.31
617.978	77.31
618.185	85.31
618.393	80.31
618.6	76.31
618.807	73.31
619.015	90.31
619.222	75.31
619.429	90.31
619.637	88.31
619.844	93.31
620.051	84.31
620.258	74.31
620.466	76.31
620.673	89.31
620.88	75.31
621.087	86.31
621.294	83.31
621.501	85.31
621.708	77.31
621.915	94.31
622.122	93.31
622.329	70.31
622.536	85.31
622.743	82.31
622.95	77.31
623.157	91.31
623.364	82.31
623.571	76.31
623.778	87.31
623.985	89.31
624.192	78.31
624.399	86.31
624.606	113.31
624.812	89.31
625.019	84.31
625.226	92.31
625.433	76.31
625.639	84.31
625.846	85.31
626.053	65.31
626.259	89.31
626.466	78.31
626.673	80.31
626.879	83.31
627.086	77.31
627.293	76.31
627.499	101.31
627.706	93.31
627.912	91.31
628.119	94.31
628.325	74.31
628.532	92.31
628.738	78.31
628.945	81.31
629.151	85.31
629.357	96.31
629.564	93.31
629.77	92.31
629.976	77.31
630.183	75.31
630.389	76.31
630.595	80.31
630.802	78.31
631.008	81.31
631.214	82.31
631.42	91.31
631.627	90.31
631.833	80.31
632.039	76.31
632.245	78.31
632.451	81.31
632.657	93.31
632.863	80.31
633.069	83.31
633.275	76.31
633.481	77.31
633.688	92.31
633.893	73.31
634.099	76.31
634.305	77.31
634.511	93.31
634.717	95.31
634.923	80.31
635.129	91.31
635.335	81.31
635.541	96.31
635.747	97.31
635.952	85.31
636.158	89.31
636.364	85.31
636.57	90.31
636.775	92.31
636.981	81.31
637.187	74.31
637.392	92.31
637.598	86.31
637.804	88.31
638.009	76.31
638.215	74.31
638.421	85.31
638.626	98.31
638.832	78.31
639.037	76.31
639.243	74.31
639.448	87.31
639.654	81.31
639.859	78.31
640.065	77.31
640.27	97.31
640.475	104.31
640.681	76.31
640.886	87.31
641.091	86.31
641.297	95.31
641.502	92.31
641.707	76.31
641.913	85.31
642.118	68.31
642.323	76.31
642.528	90.31
642.733	81.31
642.939	92.31
643.144	74.31
643.349	88.31
643.554	82.31
643.759	80.31
643.964	73.31
644.169	76.31
644.374	84.31
644.579	97.31
644.784	80.31
644.989	78.31
645.194	73.31
645.399	84.31
645.604	75.31
645.809	94.31
646.014	78.31
646.219	87.31
646.423	81.31
646.628	82.31
646.833	81.31
647.038	84.31
647.243	80.31
647.447	70.31
647.652	79.31
647.857	84.31
648.062	81.31
648.266	88.31
648.471	86.31
648.676	101.31
648.88	85.31
649.085	82.31
649.289	82.31
649.494	89.31
649.698	91.31
649.903	93.31
650.107	79.31
650.312	86.31
650.516	99.31
650.721	83.31
650.925	77.31
651.13	82.31
651.334	82.31
651.539	77.31
651.743	82.31
651.947	84.31
652.152	97.31
652.356	82.31
652.56	76.31
652.764	84.31
652.969	72.31
653.173	88.31
653.377	90.31
653.581	75.31
653.785	84.31
653.99	79.31
654.194	78.31
654.398	78.31
654.602	81.31
654.806	87.31
655.01	73.31
655.214	81.31
655.418	76.31
655.622	83.31
655.826	85.31
656.03	84.31
656.234	91.31
656.438	87.31
656.642	98.31
656.846	95.31
657.049	86.31
657.253	83.31
657.457	85.31
657.661	80.31
657.865	81.31
658.068	99.31
658.272	76.31
658.476	79.31
658.68	72.31
658.883	82.31
659.087	77.31
659.291	93.31
659.494	74.31
659.698	83.31
659.901	69.31
660.105	89.31
660.309	85.31
660.512	75.31
660.716	88.31
660.919	80.31
661.123	68.31
661.326	85.31
661.53	82.31
661.733	82.31
661.936	85.31
662.14	71.31
662.343	76.31
662.546	76.31
662.75	86.31
662.953	88.31
663.156	86.31
663.36	85.31
663.563	81.31
663.766	80.31
663.969	79.31
664.173	75.31
664.376	78.31
664.579	77.31
664.782	79.31
664.985	83.31
665.188	77.31
665.391	85.31
665.594	78.31
665.797	82.31
666	84.31
666.203	76.31
666.406	88.31
666.609	85.31
666.812	80.31
667.015	70.31
667.218	93.31
667.421	73.31
667.624	86.31
667.827	76.31
668.03	89.31
668.232	76.31
668.435	89.31
668.638	88.31
668.841	70.31
669.043	91.31
669.246	94.31
669.449	78.31
669.651	67.31
669.854	94.31
670.057	83.31
670.259	80.31
670.462	74.31
670.665	88.31
670.867	94.31
671.07	75.31
671.272	79.31
671.475	84.31
671.677	84.31
671.88	91.31
672.082	92.31
672.284	82.31
672.487	85.31
672.689	80.31
672.892	88.31
