Data from Uncirc_2001_H10_HRD10591_00083.txt Node
Date: Wed Jan 03 10:44:13 EST 2024
User: Yrep
Spectrometer: HR+D1059
Trigger mode: 1
Integration Time (sec): 1.000000E-1
Scans to average: 1
Electric dark correction enabled: true
Nonlinearity correction enabled: false
Boxcar width: 0
XAxis mode: Wavelengths
Number of Pixels in Spectrum: 2048
>>>>>Begin Spectral Data<<<<<
223.165	-25.38
223.4	-25.38
223.635	-25.38
223.869	-25.38
224.104	-18.38
224.338	-15.38
224.573	-19.38
224.808	-19.38
225.042	-7.38
225.277	-0.38
225.511	1.62
225.746	11.62
225.98	10.62
226.215	9.62
226.449	19.62
226.683	20.62
226.918	20.62
227.152	36.62
227.387	31.62
227.621	43.62
227.856	33.62
228.09	28.62
228.324	40.62
228.559	55.62
228.793	65.62
229.027	69.62
229.262	63.62
229.496	67.62
229.73	78.62
229.964	77.62
230.199	74.62
230.433	54.62
230.667	76.62
230.901	102.62
231.136	60.62
231.37	67.62
231.604	81.62
231.838	81.62
232.072	74.62
232.306	83.62
232.541	81.62
232.775	85.62
233.009	90.62
233.243	92.62
233.477	77.62
233.711	78.62
233.945	70.62
234.179	78.62
234.413	78.62
234.647	76.62
234.881	76.62
235.115	66.62
235.349	69.62
235.583	69.62
235.817	80.62
236.051	80.62
236.285	76.62
236.519	67.62
236.753	72.62
236.987	87.62
237.221	92.62
237.455	92.62
237.689	85.62
237.922	87.62
238.156	60.62
238.39	70.62
238.624	80.62
238.858	82.62
239.091	69.62
239.325	81.62
239.559	80.62
239.793	67.62
240.027	85.62
240.26	74.62
240.494	88.62
240.728	88.62
240.961	81.62
241.195	88.62
241.429	83.62
241.662	84.62
241.896	65.62
242.13	85.62
242.363	77.62
242.597	76.62
242.83	83.62
243.064	77.62
243.298	79.62
243.531	92.62
243.765	81.62
243.998	72.62
244.232	80.62
244.465	80.62
244.699	83.62
244.932	84.62
245.166	83.62
245.399	84.62
245.633	85.62
245.866	80.62
246.099	69.62
246.333	84.62
246.566	79.62
246.8	74.62
247.033	89.62
247.266	73.62
247.5	78.62
247.733	85.62
247.966	74.62
248.2	60.62
248.433	72.62
248.666	89.62
248.899	82.62
249.133	75.62
249.366	96.62
249.599	88.62
249.832	79.62
250.066	63.62
250.299	74.62
250.532	79.62
250.765	86.62
250.998	93.62
251.231	93.62
251.465	80.62
251.698	84.62
251.931	81.62
252.164	75.62
252.397	77.62
252.63	86.62
252.863	71.62
253.096	68.62
253.329	77.62
253.562	69.62
253.795	77.62
254.028	77.62
254.261	79.62
254.494	70.62
254.727	73.62
254.96	78.62
255.193	68.62
255.426	75.62
255.659	78.62
255.892	80.62
256.124	79.62
256.357	76.62
256.59	89.62
256.823	63.62
257.056	83.62
257.289	64.62
257.521	82.62
257.754	82.62
257.987	80.62
258.22	72.62
258.452	69.62
258.685	71.62
258.918	83.62
259.151	83.62
259.383	90.62
259.616	83.62
259.849	93.62
260.081	88.62
260.314	78.62
260.547	79.62
260.779	86.62
261.012	77.62
261.244	73.62
261.477	94.62
261.71	83.62
261.942	100.62
262.175	120.62
262.407	80.62
262.64	80.62
262.872	83.62
263.105	82.62
263.337	79.62
263.57	83.62
263.802	83.62
264.035	88.62
264.267	76.62
264.499	77.62
264.732	92.62
264.964	94.62
265.197	83.62
265.429	85.62
265.661	75.62
265.894	78.62
266.126	86.62
266.358	78.62
266.591	94.62
266.823	95.62
267.055	93.62
267.287	80.62
267.52	83.62
267.752	88.62
267.984	72.62
268.216	79.62
268.448	81.62
268.681	81.62
268.913	97.62
269.145	91.62
269.377	86.62
269.609	87.62
269.841	84.62
270.073	73.62
270.306	84.62
270.538	84.62
270.77	87.62
271.002	82.62
271.234	93.62
271.466	92.62
271.698	87.62
271.93	92.62
272.162	74.62
272.394	76.62
272.626	92.62
272.858	88.62
273.09	87.62
273.322	86.62
273.553	95.62
273.785	79.62
274.017	95.62
274.249	63.62
274.481	83.62
274.713	77.62
274.945	88.62
275.176	81.62
275.408	90.62
275.64	82.62
275.872	90.62
276.104	81.62
276.335	87.62
276.567	83.62
276.799	103.62
277.031	86.62
277.262	93.62
277.494	88.62
277.726	79.62
277.957	91.62
278.189	85.62
278.421	86.62
278.652	79.62
278.884	88.62
279.115	91.62
279.347	93.62
279.579	82.62
279.81	72.62
280.042	88.62
280.273	85.62
280.505	74.62
280.736	93.62
280.968	91.62
281.199	98.62
281.431	92.62
281.662	85.62
281.894	99.62
282.125	97.62
282.356	124.62
282.588	134.62
282.819	105.62
283.051	94.62
283.282	81.62
283.513	93.62
283.745	98.62
283.976	90.62
284.207	91.62
284.439	81.62
284.67	84.62
284.901	92.62
285.132	100.62
285.364	90.62
285.595	100.62
285.826	90.62
286.057	90.62
286.288	75.62
286.52	79.62
286.751	104.62
286.982	91.62
287.213	89.62
287.444	87.62
287.675	70.62
287.906	83.62
288.138	92.62
288.369	95.62
288.6	93.62
288.831	78.62
289.062	92.62
289.293	84.62
289.524	88.62
289.755	83.62
289.986	68.62
290.217	67.62
290.448	79.62
290.679	90.62
290.91	92.62
291.141	96.62
291.371	103.62
291.602	92.62
291.833	104.62
292.064	91.62
292.295	89.62
292.526	79.62
292.757	94.62
292.987	88.62
293.218	90.62
293.449	82.62
293.68	77.62
293.91	90.62
294.141	98.62
294.372	79.62
294.603	103.62
294.833	90.62
295.064	100.62
295.295	99.62
295.525	88.62
295.756	103.62
295.987	120.62
296.217	136.62
296.448	127.62
296.679	97.62
296.909	91.62
297.14	92.62
297.37	87.62
297.601	91.62
297.831	97.62
298.062	111.62
298.292	86.62
298.523	86.62
298.753	85.62
298.984	87.62
299.214	93.62
299.445	88.62
299.675	95.62
299.905	95.62
300.136	108.62
300.366	93.62
300.597	80.62
300.827	87.62
301.057	97.62
301.288	101.62
301.518	98.62
301.748	90.62
301.979	89.62
302.209	84.62
302.439	87.62
302.669	103.62
302.9	92.62
303.13	93.62
303.36	104.62
303.59	95.62
303.82	98.62
304.051	91.62
304.281	87.62
304.511	101.62
304.741	94.62
304.971	89.62
305.201	87.62
305.431	92.62
305.661	88.62
305.891	104.62
306.121	90.62
306.352	104.62
306.582	88.62
306.812	83.62
307.042	91.62
307.272	94.62
307.502	85.62
307.731	91.62
307.961	87.62
308.191	82.62
308.421	79.62
308.651	96.62
308.881	82.62
309.111	99.62
309.341	101.62
309.571	92.62
309.8	93.62
310.03	94.62
310.26	91.62
310.49	107.62
310.72	107.62
310.949	104.62
311.179	91.62
311.409	92.62
311.639	93.62
311.868	89.62
312.098	99.62
312.328	95.62
312.557	110.62
312.787	118.62
313.017	112.62
313.246	79.62
313.476	84.62
313.706	97.62
313.935	110.62
314.165	83.62
314.394	124.62
314.624	100.62
314.853	83.62
315.083	102.62
315.312	85.62
315.542	113.62
315.771	93.62
316.001	99.62
316.23	90.62
316.46	82.62
316.689	71.62
316.919	92.62
317.148	101.62
317.377	94.62
317.607	87.62
317.836	93.62
318.065	99.62
318.295	87.62
318.524	96.62
318.753	89.62
318.983	97.62
319.212	101.62
319.441	107.62
319.67	99.62
319.9	98.62
320.129	85.62
320.358	97.62
320.587	84.62
320.816	87.62
321.046	100.62
321.275	97.62
321.504	101.62
321.733	91.62
321.962	88.62
322.191	101.62
322.42	109.62
322.649	100.62
322.878	105.62
323.108	114.62
323.337	119.62
323.566	141.62
323.795	153.62
324.024	208.62
324.253	363.62
324.482	797.62
324.71	1578.62
324.939	2031.62
325.168	728.62
325.397	231.62
325.626	155.62
325.855	120.62
326.084	122.62
326.313	123.62
326.542	139.62
326.77	215.62
326.999	437.62
327.228	895.62
327.457	1564.62
327.686	1229.62
327.914	339.62
328.143	186.62
328.372	133.62
328.6	128.62
328.829	136.62
329.058	131.62
329.287	129.62
329.515	113.62
329.744	112.62
329.972	113.62
330.201	109.62
330.43	105.62
330.658	123.62
330.887	147.62
331.115	127.62
331.344	91.62
331.572	92.62
331.801	102.62
332.03	110.62
332.258	109.62
332.486	111.62
332.715	108.62
332.943	87.62
333.172	98.62
333.4	89.62
333.629	107.62
333.857	119.62
334.085	95.62
334.314	91.62
334.542	105.62
334.771	105.62
334.999	109.62
335.227	106.62
335.455	103.62
335.684	98.62
335.912	104.62
336.14	95.62
336.369	90.62
336.597	113.62
336.825	100.62
337.053	96.62
337.281	87.62
337.51	98.62
337.738	96.62
337.966	86.62
338.194	97.62
338.422	84.62
338.65	100.62
338.878	100.62
339.106	92.62
339.334	102.62
339.562	95.62
339.79	88.62
340.018	90.62
340.246	92.62
340.474	87.62
340.702	104.62
340.93	104.62
341.158	101.62
341.386	100.62
341.614	99.62
341.842	90.62
342.07	86.62
342.298	86.62
342.526	80.62
342.754	90.62
342.981	74.62
343.209	90.62
343.437	94.62
343.665	75.62
343.893	74.62
344.12	103.62
344.348	71.62
344.576	87.62
344.804	90.62
345.031	103.62
345.259	93.62
345.487	102.62
345.714	104.62
345.942	92.62
346.17	95.62
346.397	88.62
346.625	90.62
346.853	99.62
347.08	96.62
347.308	95.62
347.535	85.62
347.763	92.62
347.99	83.62
348.218	99.62
348.445	107.62
348.673	91.62
348.9	85.62
349.128	87.62
349.355	91.62
349.583	74.62
349.81	83.62
350.037	88.62
350.265	98.62
350.492	99.62
350.72	105.62
350.947	97.62
351.174	108.62
351.402	122.62
351.629	100.62
351.856	96.62
352.083	106.62
352.311	102.62
352.538	108.62
352.765	107.62
352.992	112.62
353.22	116.62
353.447	99.62
353.674	104.62
353.901	100.62
354.128	100.62
354.355	91.62
354.583	103.62
354.81	90.62
355.037	87.62
355.264	97.62
355.491	98.62
355.718	99.62
355.945	90.62
356.172	100.62
356.399	96.62
356.626	91.62
356.853	76.62
357.08	97.62
357.307	90.62
357.534	108.62
357.761	91.62
357.988	84.62
358.215	97.62
358.441	91.62
358.668	91.62
358.895	79.62
359.122	87.62
359.349	93.62
359.576	101.62
359.802	116.62
360.029	113.62
360.256	111.62
360.483	105.62
360.709	92.62
360.936	81.62
361.163	93.62
361.39	94.62
361.616	96.62
361.843	92.62
362.07	90.62
362.296	103.62
362.523	91.62
362.749	99.62
362.976	89.62
363.203	100.62
363.429	92.62
363.656	90.62
363.882	90.62
364.109	80.62
364.335	92.62
364.562	95.62
364.788	77.62
365.015	106.62
365.241	104.62
365.468	114.62
365.694	101.62
365.92	100.62
366.147	78.62
366.373	99.62
366.599	85.62
366.826	96.62
367.052	81.62
367.278	104.62
367.505	98.62
367.731	96.62
367.957	96.62
368.184	98.62
368.41	101.62
368.636	117.62
368.862	120.62
369.089	105.62
369.315	105.62
369.541	96.62
369.767	92.62
369.993	95.62
370.219	78.62
370.445	75.62
370.672	92.62
370.898	94.62
371.124	85.62
371.35	94.62
371.576	91.62
371.802	85.62
372.028	93.62
372.254	100.62
372.48	96.62
372.706	79.62
372.932	98.62
373.158	95.62
373.384	103.62
373.61	74.62
373.835	93.62
374.061	105.62
374.287	91.62
374.513	88.62
374.739	98.62
374.965	83.62
375.191	95.62
375.416	85.62
375.642	92.62
375.868	87.62
376.094	80.62
376.319	86.62
376.545	79.62
376.771	94.62
376.997	95.62
377.222	77.62
377.448	86.62
377.674	83.62
377.899	73.62
378.125	69.62
378.35	83.62
378.576	92.62
378.802	94.62
379.027	99.62
379.253	92.62
379.478	99.62
379.704	94.62
379.929	96.62
380.155	103.62
380.38	88.62
380.606	96.62
380.831	93.62
381.057	95.62
381.282	113.62
381.507	70.62
381.733	85.62
381.958	86.62
382.184	100.62
382.409	101.62
382.634	106.62
382.86	88.62
383.085	99.62
383.31	106.62
383.535	79.62
383.761	83.62
383.986	86.62
384.211	104.62
384.436	103.62
384.662	93.62
384.887	93.62
385.112	111.62
385.337	95.62
385.562	96.62
385.787	111.62
386.013	104.62
386.238	105.62
386.463	118.62
386.688	122.62
386.913	88.62
387.138	89.62
387.363	108.62
387.588	98.62
387.813	95.62
388.038	105.62
388.263	97.62
388.488	101.62
388.713	108.62
388.938	96.62
389.163	98.62
389.387	100.62
389.612	92.62
389.837	94.62
390.062	99.62
390.287	91.62
390.512	81.62
390.736	100.62
390.961	86.62
391.186	84.62
391.411	91.62
391.636	80.62
391.86	88.62
392.085	84.62
392.31	99.62
392.534	85.62
392.759	96.62
392.984	91.62
393.208	75.62
393.433	85.62
393.658	97.62
393.882	81.62
394.107	91.62
394.331	88.62
394.556	81.62
394.78	81.62
395.005	92.62
395.229	81.62
395.454	82.62
395.678	84.62
395.903	89.62
396.127	101.62
396.352	97.62
396.576	85.62
396.801	90.62
397.025	104.62
397.249	89.62
397.474	93.62
397.698	80.62
397.922	91.62
398.147	85.62
398.371	91.62
398.595	69.62
398.82	93.62
399.044	91.62
399.268	71.62
399.492	80.62
399.717	85.62
399.941	89.62
400.165	99.62
400.389	98.62
400.613	96.62
400.837	88.62
401.062	82.62
401.286	102.62
401.51	94.62
401.734	98.62
401.958	97.62
402.182	128.62
402.406	172.62
402.63	119.62
402.854	93.62
403.078	104.62
403.302	88.62
403.526	103.62
403.75	88.62
403.974	98.62
404.198	78.62
404.422	91.62
404.645	87.62
404.869	88.62
405.093	100.62
405.317	110.62
405.541	98.62
405.765	97.62
405.988	123.62
406.212	188.62
406.436	229.62
406.66	163.62
406.883	97.62
407.107	103.62
407.331	107.62
407.555	108.62
407.778	111.62
408.002	87.62
408.226	90.62
408.449	100.62
408.673	98.62
408.896	89.62
409.12	106.62
409.344	89.62
409.567	91.62
409.791	92.62
410.014	90.62
410.238	83.62
410.461	92.62
410.685	85.62
410.908	97.62
411.132	111.62
411.355	104.62
411.578	83.62
411.802	93.62
412.025	90.62
412.249	102.62
412.472	102.62
412.695	87.62
412.919	81.62
413.142	84.62
413.365	81.62
413.589	88.62
413.812	107.62
414.035	88.62
414.258	86.62
414.482	96.62
414.705	87.62
414.928	86.62
415.151	100.62
415.374	93.62
415.597	84.62
415.821	79.62
416.044	84.62
416.267	77.62
416.49	85.62
416.713	75.62
416.936	90.62
417.159	93.62
417.382	78.62
417.605	95.62
417.828	106.62
418.051	99.62
418.274	103.62
418.497	104.62
418.72	85.62
418.943	107.62
419.166	92.62
419.389	91.62
419.611	113.62
419.834	96.62
420.057	92.62
420.28	96.62
420.503	93.62
420.726	87.62
420.948	95.62
421.171	90.62
421.394	96.62
421.617	86.62
421.839	90.62
422.062	93.62
422.285	116.62
422.507	99.62
422.73	96.62
422.953	81.62
423.175	95.62
423.398	89.62
423.621	89.62
423.843	76.62
424.066	91.62
424.288	93.62
424.511	76.62
424.733	87.62
424.956	103.62
425.178	82.62
425.401	103.62
425.623	106.62
425.846	96.62
426.068	111.62
426.291	86.62
426.513	96.62
426.735	83.62
426.958	97.62
427.18	101.62
427.402	140.62
427.625	175.62
427.847	134.62
428.069	105.62
428.292	80.62
428.514	83.62
428.736	82.62
428.958	96.62
429.181	90.62
429.403	92.62
429.625	74.62
429.847	90.62
430.069	98.62
430.292	101.62
430.514	82.62
430.736	95.62
430.958	87.62
431.18	80.62
431.402	97.62
431.624	83.62
431.846	77.62
432.068	97.62
432.29	83.62
432.512	93.62
432.734	92.62
432.956	82.62
433.178	93.62
433.4	77.62
433.622	88.62
433.844	101.62
434.066	85.62
434.287	75.62
434.509	104.62
434.731	99.62
434.953	87.62
435.175	104.62
435.397	77.62
435.618	82.62
435.84	102.62
436.062	110.62
436.284	92.62
436.505	98.62
436.727	106.62
436.949	81.62
437.17	100.62
437.392	87.62
437.614	92.62
437.835	108.62
438.057	121.62
438.278	118.62
438.5	97.62
438.721	128.62
438.943	97.62
439.165	93.62
439.386	77.62
439.608	92.62
439.829	96.62
440.05	139.62
440.272	140.62
440.493	108.62
440.715	90.62
440.936	76.62
441.158	88.62
441.379	90.62
441.6	95.62
441.822	100.62
442.043	102.62
442.264	88.62
442.486	91.62
442.707	96.62
442.928	101.62
443.149	114.62
443.371	129.62
443.592	95.62
443.813	116.62
444.034	106.62
444.255	82.62
444.476	84.62
444.698	86.62
444.919	68.62
445.14	127.62
445.361	108.62
445.582	106.62
445.803	124.62
446.024	133.62
446.245	141.62
446.466	96.62
446.687	95.62
446.908	92.62
447.129	88.62
447.35	104.62
447.571	100.62
447.792	96.62
448.013	104.62
448.234	109.62
448.455	103.62
448.675	105.62
448.896	111.62
449.117	94.62
449.338	100.62
449.559	114.62
449.779	116.62
450	85.62
450.221	86.62
450.442	83.62
450.662	111.62
450.883	117.62
451.104	117.62
451.324	90.62
451.545	96.62
451.766	86.62
451.986	100.62
452.207	86.62
452.428	84.62
452.648	89.62
452.869	110.62
453.089	100.62
453.31	115.62
453.53	80.62
453.751	84.62
453.971	105.62
454.192	99.62
454.412	89.62
454.633	89.62
454.853	97.62
455.073	101.62
455.294	78.62
455.514	85.62
455.734	97.62
455.955	83.62
456.175	81.62
456.395	73.62
456.616	92.62
456.836	84.62
457.056	81.62
457.276	87.62
457.497	92.62
457.717	85.62
457.937	98.62
458.157	91.62
458.377	95.62
458.598	118.62
458.818	154.62
459.038	153.62
459.258	122.62
459.478	96.62
459.698	81.62
459.918	92.62
460.138	83.62
460.358	92.62
460.578	102.62
460.798	85.62
461.018	83.62
461.238	80.62
461.458	86.62
461.678	93.62
461.898	83.62
462.118	85.62
462.338	83.62
462.558	90.62
462.777	88.62
462.997	76.62
463.217	85.62
463.437	77.62
463.657	75.62
463.876	91.62
464.096	93.62
464.316	79.62
464.536	86.62
464.755	92.62
464.975	114.62
465.195	176.62
465.414	177.62
465.634	84.62
465.854	107.62
466.073	100.62
466.293	84.62
466.512	95.62
466.732	95.62
466.951	90.62
467.171	89.62
467.391	99.62
467.61	107.62
467.829	93.62
468.049	82.62
468.268	87.62
468.488	79.62
468.707	80.62
468.927	93.62
469.146	103.62
469.365	90.62
469.585	89.62
469.804	96.62
470.023	83.62
470.243	96.62
470.462	99.62
470.681	111.62
470.901	93.62
471.12	82.62
471.339	95.62
471.558	99.62
471.777	94.62
471.997	83.62
472.216	90.62
472.435	79.62
472.654	72.62
472.873	87.62
473.092	81.62
473.311	92.62
473.53	99.62
473.749	90.62
473.968	92.62
474.187	122.62
474.406	104.62
474.625	81.62
474.844	91.62
475.063	83.62
475.282	89.62
475.501	90.62
475.72	89.62
475.939	84.62
476.158	90.62
476.377	90.62
476.596	81.62
476.814	88.62
477.033	88.62
477.252	106.62
477.471	95.62
477.69	81.62
477.908	80.62
478.127	92.62
478.346	95.62
478.564	97.62
478.783	85.62
479.002	109.62
479.22	101.62
479.439	104.62
479.658	99.62
479.876	88.62
480.095	91.62
480.313	95.62
480.532	96.62
480.751	91.62
480.969	84.62
481.188	96.62
481.406	111.62
481.624	93.62
481.843	85.62
482.061	95.62
482.28	95.62
482.498	100.62
482.717	94.62
482.935	76.62
483.153	90.62
483.372	93.62
483.59	90.62
483.808	84.62
484.027	90.62
484.245	81.62
484.463	106.62
484.681	90.62
484.9	85.62
485.118	89.62
485.336	89.62
485.554	108.62
485.772	88.62
485.99	94.62
486.209	103.62
486.427	108.62
486.645	103.62
486.863	129.62
487.081	79.62
487.299	91.62
487.517	90.62
487.735	83.62
487.953	91.62
488.171	86.62
488.389	96.62
488.607	89.62
488.825	88.62
489.043	91.62
489.261	101.62
489.479	84.62
489.696	99.62
489.914	83.62
490.132	75.62
490.35	99.62
490.568	84.62
490.786	89.62
491.003	109.62
491.221	83.62
491.439	95.62
491.657	84.62
491.874	83.62
492.092	98.62
492.31	106.62
492.527	97.62
492.745	88.62
492.963	85.62
493.18	104.62
493.398	98.62
493.615	94.62
493.833	96.62
494.05	86.62
494.268	103.62
494.485	105.62
494.703	90.62
494.92	88.62
495.138	87.62
495.355	87.62
495.573	85.62
495.79	87.62
496.008	89.62
496.225	90.62
496.442	98.62
496.66	107.62
496.877	100.62
497.094	94.62
497.312	95.62
497.529	87.62
497.746	92.62
497.963	103.62
498.181	92.62
498.398	95.62
498.615	116.62
498.832	91.62
499.049	89.62
499.267	90.62
499.484	84.62
499.701	81.62
499.918	90.62
500.135	96.62
500.352	97.62
500.569	102.62
500.786	97.62
501.003	84.62
501.22	92.62
501.437	83.62
501.654	89.62
501.871	115.62
502.088	97.62
502.305	102.62
502.522	93.62
502.739	101.62
502.956	83.62
503.172	92.62
503.389	97.62
503.606	104.62
503.823	110.62
504.04	99.62
504.256	93.62
504.473	76.62
504.69	99.62
504.907	97.62
505.123	84.62
505.34	93.62
505.557	91.62
505.773	86.62
505.99	96.62
506.207	95.62
506.423	84.62
506.64	107.62
506.856	84.62
507.073	93.62
507.289	113.62
507.506	105.62
507.722	104.62
507.939	101.62
508.155	102.62
508.372	86.62
508.588	93.62
508.805	90.62
509.021	90.62
509.238	94.62
509.454	124.62
509.67	92.62
509.887	119.62
510.103	127.62
510.319	209.62
510.536	823.62
510.752	2519.62
510.968	680.62
511.184	143.62
511.401	105.62
511.617	104.62
511.833	80.62
512.049	88.62
512.265	69.62
512.481	94.62
512.698	89.62
512.914	94.62
513.13	98.62
513.346	106.62
513.562	100.62
513.778	96.62
513.994	105.62
514.21	104.62
514.426	118.62
514.642	146.62
514.858	124.62
515.074	177.62
515.29	489.62
515.506	1553.62
515.721	571.62
515.937	153.62
516.153	104.62
516.369	107.62
516.585	94.62
516.801	83.62
517.016	93.62
517.232	91.62
517.448	91.62
517.664	97.62
517.879	81.62
518.095	87.62
518.311	89.62
518.527	101.62
518.742	97.62
518.958	97.62
519.173	99.62
519.389	84.62
519.605	100.62
519.82	116.62
520.036	102.62
520.251	129.62
520.467	122.62
520.682	112.62
520.898	116.62
521.113	113.62
521.329	156.62
521.544	200.62
521.76	608.62
521.975	2673.62
522.19	1572.62
522.406	346.62
522.621	139.62
522.836	108.62
523.052	100.62
523.267	92.62
523.482	101.62
523.698	106.62
523.913	116.62
524.128	103.62
524.343	76.62
524.559	85.62
524.774	93.62
524.989	104.62
525.204	103.62
525.419	98.62
525.634	97.62
525.849	93.62
526.064	90.62
526.28	98.62
526.495	105.62
526.71	82.62
526.925	85.62
527.14	107.62
527.355	98.62
527.57	83.62
527.785	94.62
527.999	72.62
528.214	93.62
528.429	112.62
528.644	92.62
528.859	99.62
529.074	98.62
529.289	120.62
529.503	193.62
529.718	98.62
529.933	98.62
530.148	80.62
530.363	102.62
530.577	92.62
530.792	89.62
531.007	109.62
531.221	90.62
531.436	89.62
531.651	99.62
531.865	90.62
532.08	92.62
532.295	106.62
532.509	73.62
532.724	88.62
532.938	103.62
533.153	86.62
533.367	104.62
533.582	79.62
533.796	99.62
534.011	81.62
534.225	93.62
534.44	82.62
534.654	78.62
534.868	83.62
535.083	89.62
535.297	84.62
535.511	105.62
535.726	110.62
535.94	83.62
536.154	91.62
536.369	87.62
536.583	82.62
536.797	100.62
537.011	88.62
537.225	93.62
537.44	90.62
537.654	95.62
537.868	99.62
538.082	91.62
538.296	104.62
538.51	89.62
538.724	80.62
538.938	93.62
539.153	93.62
539.367	113.62
539.581	92.62
539.795	81.62
540.009	88.62
540.222	86.62
540.436	91.62
540.65	91.62
540.864	106.62
541.078	91.62
541.292	101.62
541.506	97.62
541.72	95.62
541.934	80.62
542.147	82.62
542.361	101.62
542.575	89.62
542.789	96.62
543.002	94.62
543.216	97.62
543.43	101.62
543.644	95.62
543.857	106.62
544.071	102.62
544.285	83.62
544.498	91.62
544.712	91.62
544.925	93.62
545.139	79.62
545.352	87.62
545.566	98.62
545.779	85.62
545.993	98.62
546.206	101.62
546.42	100.62
546.633	96.62
546.847	90.62
547.06	94.62
547.274	86.62
547.487	90.62
547.7	75.62
547.914	88.62
548.127	84.62
548.34	87.62
548.554	86.62
548.767	86.62
548.98	88.62
549.193	95.62
549.407	90.62
549.62	77.62
549.833	84.62
550.046	91.62
550.259	81.62
550.473	82.62
550.686	86.62
550.899	99.62
551.112	98.62
551.325	86.62
551.538	83.62
551.751	83.62
551.964	90.62
552.177	98.62
552.39	92.62
552.603	82.62
552.816	86.62
553.029	97.62
553.242	96.62
553.455	102.62
553.667	98.62
553.88	104.62
554.093	86.62
554.306	92.62
554.519	86.62
554.732	97.62
554.944	92.62
555.157	104.62
555.37	103.62
555.583	80.62
555.795	94.62
556.008	89.62
556.221	91.62
556.433	83.62
556.646	96.62
556.859	91.62
557.071	95.62
557.284	77.62
557.496	90.62
557.709	83.62
557.921	88.62
558.134	100.62
558.346	85.62
558.559	104.62
558.771	79.62
558.984	90.62
559.196	84.62
559.409	93.62
559.621	83.62
559.833	86.62
560.046	76.62
560.258	88.62
560.47	84.62
560.683	83.62
560.895	85.62
561.107	99.62
561.32	86.62
561.532	97.62
561.744	83.62
561.956	83.62
562.168	83.62
562.381	88.62
562.593	83.62
562.805	94.62
563.017	85.62
563.229	91.62
563.441	92.62
563.653	86.62
563.865	89.62
564.077	79.62
564.289	76.62
564.501	111.62
564.713	83.62
564.925	92.62
565.137	107.62
565.349	92.62
565.561	88.62
565.773	95.62
565.985	87.62
566.197	85.62
566.408	89.62
566.62	90.62
566.832	85.62
567.044	75.62
567.255	78.62
567.467	98.62
567.679	85.62
567.891	92.62
568.102	100.62
568.314	85.62
568.526	88.62
568.737	92.62
568.949	88.62
569.161	90.62
569.372	97.62
569.584	79.62
569.795	87.62
570.007	114.62
570.218	235.62
570.43	144.62
570.641	99.62
570.853	81.62
571.064	93.62
571.276	87.62
571.487	73.62
571.698	69.62
571.91	83.62
572.121	82.62
572.333	83.62
572.544	80.62
572.755	101.62
572.966	94.62
573.178	81.62
573.389	97.62
573.6	88.62
573.811	91.62
574.023	88.62
574.234	98.62
574.445	85.62
574.656	94.62
574.867	92.62
575.078	96.62
575.289	96.62
575.501	83.62
575.712	89.62
575.923	89.62
576.134	83.62
576.345	92.62
576.556	90.62
576.767	88.62
576.978	92.62
577.188	91.62
577.399	82.62
577.61	91.62
577.821	96.62
578.032	113.62
578.243	277.62
578.454	832.62
578.665	203.62
578.875	89.62
579.086	97.62
579.297	86.62
579.508	75.62
579.718	97.62
579.929	79.62
580.14	99.62
580.35	89.62
580.561	84.62
580.772	89.62
580.982	98.62
581.193	89.62
581.403	96.62
581.614	92.62
581.825	85.62
582.035	83.62
582.246	92.62
582.456	86.62
582.667	70.62
582.877	87.62
583.087	81.62
583.298	90.62
583.508	99.62
583.719	88.62
583.929	88.62
584.139	80.62
584.35	87.62
584.56	89.62
584.77	84.62
584.981	84.62
585.191	100.62
585.401	90.62
585.611	88.62
585.821	91.62
586.032	89.62
586.242	98.62
586.452	77.62
586.662	91.62
586.872	84.62
587.082	92.62
587.292	97.62
587.502	90.62
587.713	80.62
587.923	88.62
588.133	85.62
588.343	84.62
588.553	84.62
588.762	91.62
588.972	76.62
589.182	93.62
589.392	78.62
589.602	81.62
589.812	91.62
590.022	85.62
590.232	84.62
590.441	84.62
590.651	93.62
590.861	105.62
591.071	81.62
591.281	88.62
591.49	96.62
591.7	85.62
591.91	92.62
592.119	82.62
592.329	97.62
592.539	93.62
592.748	79.62
592.958	88.62
593.167	82.62
593.377	82.62
593.587	88.62
593.796	75.62
594.006	73.62
594.215	81.62
594.424	85.62
594.634	86.62
594.843	89.62
595.053	84.62
595.262	83.62
595.472	78.62
595.681	82.62
595.89	78.62
596.1	80.62
596.309	102.62
596.518	90.62
596.727	100.62
596.937	80.62
597.146	88.62
597.355	78.62
597.564	89.62
597.774	81.62
597.983	84.62
598.192	85.62
598.401	77.62
598.61	76.62
598.819	77.62
599.028	81.62
599.237	80.62
599.446	93.62
599.655	96.62
599.864	97.62
600.073	96.62
600.282	92.62
600.491	89.62
600.7	81.62
600.909	96.62
601.118	87.62
601.327	93.62
601.536	96.62
601.745	97.62
601.953	74.62
602.162	80.62
602.371	92.62
602.58	91.62
602.789	93.62
602.997	81.62
603.206	90.62
603.415	89.62
603.623	75.62
603.832	93.62
604.041	80.62
604.249	91.62
604.458	63.62
604.666	84.62
604.875	85.62
605.084	94.62
605.292	84.62
605.501	84.62
605.709	64.62
605.918	77.62
606.126	96.62
606.334	77.62
606.543	83.62
606.751	100.62
606.96	78.62
607.168	82.62
607.376	100.62
607.585	91.62
607.793	83.62
608.001	82.62
608.21	81.62
608.418	87.62
608.626	96.62
608.834	86.62
609.043	96.62
609.251	83.62
609.459	93.62
609.667	92.62
609.875	90.62
610.083	77.62
610.291	92.62
610.499	91.62
610.707	91.62
610.916	87.62
611.124	94.62
611.332	87.62
611.54	65.62
611.748	80.62
611.955	87.62
612.163	69.62
612.371	81.62
612.579	80.62
612.787	92.62
612.995	88.62
613.203	82.62
613.411	84.62
613.618	93.62
613.826	75.62
614.034	91.62
614.242	89.62
614.449	76.62
614.657	71.62
614.865	79.62
615.072	88.62
615.28	93.62
615.488	96.62
615.695	95.62
615.903	93.62
616.111	90.62
616.318	91.62
616.526	105.62
616.733	81.62
616.941	69.62
617.148	75.62
617.356	84.62
617.563	85.62
617.771	84.62
617.978	87.62
618.185	87.62
618.393	87.62
618.6	84.62
618.807	82.62
619.015	101.62
619.222	88.62
619.429	92.62
619.637	89.62
619.844	96.62
620.051	85.62
620.258	78.62
620.466	94.62
620.673	77.62
620.88	69.62
621.087	81.62
621.294	79.62
621.501	88.62
621.708	97.62
621.915	91.62
622.122	76.62
622.329	83.62
622.536	85.62
622.743	81.62
622.95	68.62
623.157	74.62
623.364	89.62
623.571	79.62
623.778	83.62
623.985	86.62
624.192	90.62
624.399	89.62
624.606	88.62
624.812	98.62
625.019	92.62
625.226	100.62
625.433	91.62
625.639	84.62
625.846	91.62
626.053	76.62
626.259	80.62
626.466	87.62
626.673	79.62
626.879	89.62
627.086	71.62
627.293	92.62
627.499	80.62
627.706	91.62
627.912	82.62
628.119	84.62
628.325	89.62
628.532	79.62
628.738	78.62
628.945	73.62
629.151	89.62
629.357	76.62
629.564	67.62
629.77	70.62
629.976	78.62
630.183	79.62
630.389	88.62
630.595	90.62
630.802	90.62
631.008	75.62
631.214	79.62
631.42	77.62
631.627	94.62
631.833	87.62
632.039	104.62
632.245	93.62
632.451	85.62
632.657	74.62
632.863	90.62
633.069	85.62
633.275	92.62
633.481	85.62
633.688	83.62
633.893	83.62
634.099	83.62
634.305	82.62
634.511	92.62
634.717	73.62
634.923	70.62
635.129	77.62
635.335	80.62
635.541	79.62
635.747	84.62
635.952	102.62
636.158	73.62
636.364	86.62
636.57	78.62
636.775	90.62
636.981	82.62
637.187	85.62
637.392	77.62
637.598	97.62
637.804	87.62
638.009	86.62
638.215	83.62
638.421	101.62
638.626	71.62
638.832	79.62
639.037	84.62
639.243	81.62
639.448	81.62
639.654	100.62
639.859	89.62
640.065	93.62
640.27	96.62
640.475	83.62
640.681	61.62
640.886	87.62
641.091	87.62
641.297	79.62
641.502	96.62
641.707	84.62
641.913	81.62
642.118	92.62
642.323	99.62
642.528	89.62
642.733	96.62
642.939	88.62
643.144	91.62
643.349	85.62
643.554	86.62
643.759	85.62
643.964	88.62
644.169	86.62
644.374	83.62
644.579	79.62
644.784	74.62
644.989	81.62
645.194	89.62
645.399	81.62
645.604	72.62
645.809	89.62
646.014	86.62
646.219	81.62
646.423	80.62
646.628	84.62
646.833	84.62
647.038	87.62
647.243	71.62
647.447	80.62
647.652	80.62
647.857	68.62
648.062	79.62
648.266	90.62
648.471	86.62
648.676	96.62
648.88	93.62
649.085	96.62
649.289	83.62
649.494	106.62
649.698	130.62
649.903	93.62
650.107	83.62
650.312	76.62
650.516	91.62
650.721	70.62
650.925	83.62
651.13	74.62
651.334	103.62
651.539	68.62
651.743	92.62
651.947	90.62
652.152	92.62
652.356	74.62
652.56	87.62
652.764	92.62
652.969	79.62
653.173	80.62
653.377	88.62
653.581	96.62
653.785	82.62
653.99	82.62
654.194	72.62
654.398	99.62
654.602	86.62
654.806	80.62
655.01	98.62
655.214	92.62
655.418	87.62
655.622	84.62
655.826	79.62
656.03	84.62
656.234	95.62
656.438	90.62
656.642	94.62
656.846	90.62
657.049	79.62
657.253	96.62
657.457	83.62
657.661	82.62
657.865	86.62
658.068	97.62
658.272	89.62
658.476	78.62
658.68	86.62
658.883	78.62
659.087	81.62
659.291	88.62
659.494	79.62
659.698	80.62
659.901	75.62
660.105	93.62
660.309	78.62
660.512	90.62
660.716	83.62
660.919	80.62
661.123	69.62
661.326	86.62
661.53	82.62
661.733	79.62
661.936	71.62
662.14	74.62
662.343	96.62
662.546	79.62
662.75	87.62
662.953	87.62
663.156	80.62
663.36	96.62
663.563	73.62
663.766	75.62
663.969	74.62
664.173	66.62
664.376	84.62
664.579	92.62
664.782	85.62
664.985	87.62
665.188	86.62
665.391	84.62
665.594	86.62
665.797	77.62
666	77.62
666.203	68.62
666.406	92.62
666.609	83.62
666.812	76.62
667.015	83.62
667.218	93.62
667.421	81.62
667.624	74.62
667.827	95.62
668.03	68.62
668.232	73.62
668.435	92.62
668.638	87.62
668.841	72.62
669.043	88.62
669.246	73.62
669.449	85.62
669.651	87.62
669.854	80.62
670.057	88.62
670.259	72.62
670.462	87.62
670.665	74.62
670.867	81.62
671.07	94.62
671.272	84.62
671.475	99.62
671.677	77.62
671.88	92.62
672.082	68.62
672.284	60.62
672.487	76.62
672.689	74.62
672.892	81.62
