Data from Uncirc_2001_H10_HRD10591_00010.txt Node
Date: Wed Jan 03 10:43:58 EST 2024
User: Yrep
Spectrometer: HR+D1059
Trigger mode: 1
Integration Time (sec): 1.000000E-1
Scans to average: 1
Electric dark correction enabled: true
Nonlinearity correction enabled: false
Boxcar width: 0
XAxis mode: Wavelengths
Number of Pixels in Spectrum: 2048
>>>>>Begin Spectral Data<<<<<
223.165	-6.44
223.4	-6.44
223.635	-6.44
223.869	-8.44
224.104	4.56
224.338	-19.44
224.573	-17.44
224.808	-17.44
225.042	-0.44
225.277	-7.44
225.511	-6.44
225.746	5.56
225.98	-8.44
226.215	9.56
226.449	7.56
226.683	18.56
226.918	34.56
227.152	11.56
227.387	37.56
227.621	35.56
227.856	40.56
228.09	35.56
228.324	46.56
228.559	55.56
228.793	49.56
229.027	59.56
229.262	73.56
229.496	62.56
229.73	66.56
229.964	75.56
230.199	71.56
230.433	67.56
230.667	89.56
230.901	71.56
231.136	82.56
231.37	83.56
231.604	81.56
231.838	78.56
232.072	87.56
232.306	70.56
232.541	81.56
232.775	87.56
233.009	87.56
233.243	62.56
233.477	70.56
233.711	67.56
233.945	78.56
234.179	79.56
234.413	72.56
234.647	83.56
234.881	68.56
235.115	78.56
235.349	79.56
235.583	66.56
235.817	73.56
236.051	78.56
236.285	72.56
236.519	91.56
236.753	80.56
236.987	74.56
237.221	74.56
237.455	76.56
237.689	64.56
237.922	70.56
238.156	82.56
238.39	72.56
238.624	76.56
238.858	60.56
239.091	75.56
239.325	85.56
239.559	87.56
239.793	60.56
240.027	83.56
240.26	78.56
240.494	58.56
240.728	73.56
240.961	76.56
241.195	83.56
241.429	76.56
241.662	82.56
241.896	70.56
242.13	63.56
242.363	86.56
242.597	78.56
242.83	79.56
243.064	91.56
243.298	74.56
243.531	81.56
243.765	98.56
243.998	78.56
244.232	86.56
244.465	80.56
244.699	87.56
244.932	71.56
245.166	81.56
245.399	74.56
245.633	78.56
245.866	86.56
246.099	74.56
246.333	83.56
246.566	86.56
246.8	86.56
247.033	79.56
247.266	81.56
247.5	79.56
247.733	80.56
247.966	84.56
248.2	61.56
248.433	77.56
248.666	90.56
248.899	87.56
249.133	68.56
249.366	101.56
249.599	84.56
249.832	80.56
250.066	78.56
250.299	70.56
250.532	74.56
250.765	80.56
250.998	84.56
251.231	75.56
251.465	80.56
251.698	80.56
251.931	76.56
252.164	73.56
252.397	72.56
252.63	92.56
252.863	91.56
253.096	82.56
253.329	76.56
253.562	76.56
253.795	82.56
254.028	81.56
254.261	79.56
254.494	81.56
254.727	82.56
254.96	82.56
255.193	83.56
255.426	74.56
255.659	83.56
255.892	82.56
256.124	74.56
256.357	70.56
256.59	85.56
256.823	95.56
257.056	107.56
257.289	80.56
257.521	74.56
257.754	86.56
257.987	80.56
258.22	75.56
258.452	98.56
258.685	83.56
258.918	78.56
259.151	83.56
259.383	80.56
259.616	78.56
259.849	89.56
260.081	87.56
260.314	73.56
260.547	85.56
260.779	77.56
261.012	81.56
261.244	79.56
261.477	84.56
261.71	76.56
261.942	103.56
262.175	111.56
262.407	81.56
262.64	94.56
262.872	88.56
263.105	82.56
263.337	77.56
263.57	87.56
263.802	88.56
264.035	88.56
264.267	86.56
264.499	95.56
264.732	84.56
264.964	79.56
265.197	73.56
265.429	81.56
265.661	70.56
265.894	72.56
266.126	89.56
266.358	81.56
266.591	83.56
266.823	101.56
267.055	89.56
267.287	85.56
267.52	82.56
267.752	79.56
267.984	81.56
268.216	98.56
268.448	78.56
268.681	80.56
268.913	83.56
269.145	84.56
269.377	90.56
269.609	81.56
269.841	83.56
270.073	87.56
270.306	87.56
270.538	67.56
270.77	71.56
271.002	97.56
271.234	91.56
271.466	88.56
271.698	96.56
271.93	82.56
272.162	84.56
272.394	91.56
272.626	85.56
272.858	80.56
273.09	91.56
273.322	83.56
273.553	78.56
273.785	86.56
274.017	80.56
274.249	82.56
274.481	80.56
274.713	87.56
274.945	98.56
275.176	88.56
275.408	84.56
275.64	84.56
275.872	89.56
276.104	86.56
276.335	88.56
276.567	97.56
276.799	101.56
277.031	99.56
277.262	86.56
277.494	95.56
277.726	86.56
277.957	96.56
278.189	81.56
278.421	88.56
278.652	93.56
278.884	89.56
279.115	78.56
279.347	90.56
279.579	72.56
279.81	89.56
280.042	83.56
280.273	73.56
280.505	74.56
280.736	86.56
280.968	89.56
281.199	90.56
281.431	88.56
281.662	71.56
281.894	88.56
282.125	107.56
282.356	106.56
282.588	112.56
282.819	106.56
283.051	103.56
283.282	77.56
283.513	78.56
283.745	90.56
283.976	85.56
284.207	88.56
284.439	93.56
284.67	91.56
284.901	102.56
285.132	87.56
285.364	80.56
285.595	78.56
285.826	82.56
286.057	102.56
286.288	78.56
286.52	81.56
286.751	75.56
286.982	81.56
287.213	89.56
287.444	85.56
287.675	86.56
287.906	83.56
288.138	80.56
288.369	90.56
288.6	69.56
288.831	83.56
289.062	78.56
289.293	82.56
289.524	101.56
289.755	85.56
289.986	61.56
290.217	75.56
290.448	86.56
290.679	94.56
290.91	82.56
291.141	88.56
291.371	80.56
291.602	100.56
291.833	80.56
292.064	88.56
292.295	85.56
292.526	93.56
292.757	86.56
292.987	75.56
293.218	81.56
293.449	98.56
293.68	88.56
293.91	90.56
294.141	106.56
294.372	74.56
294.603	86.56
294.833	86.56
295.064	89.56
295.295	91.56
295.525	83.56
295.756	89.56
295.987	99.56
296.217	111.56
296.448	101.56
296.679	84.56
296.909	91.56
297.14	93.56
297.37	89.56
297.601	72.56
297.831	91.56
298.062	90.56
298.292	96.56
298.523	88.56
298.753	83.56
298.984	87.56
299.214	93.56
299.445	88.56
299.675	96.56
299.905	80.56
300.136	88.56
300.366	86.56
300.597	79.56
300.827	86.56
301.057	84.56
301.288	95.56
301.518	95.56
301.748	82.56
301.979	99.56
302.209	68.56
302.439	83.56
302.669	83.56
302.9	92.56
303.13	90.56
303.36	92.56
303.59	110.56
303.82	105.56
304.051	94.56
304.281	83.56
304.511	82.56
304.741	85.56
304.971	77.56
305.201	96.56
305.431	84.56
305.661	104.56
305.891	78.56
306.121	86.56
306.352	94.56
306.582	91.56
306.812	86.56
307.042	90.56
307.272	81.56
307.502	99.56
307.731	86.56
307.961	87.56
308.191	87.56
308.421	74.56
308.651	86.56
308.881	91.56
309.111	88.56
309.341	75.56
309.571	105.56
309.8	81.56
310.03	98.56
310.26	98.56
310.49	85.56
310.72	90.56
310.949	87.56
311.179	96.56
311.409	90.56
311.639	97.56
311.868	89.56
312.098	97.56
312.328	94.56
312.557	105.56
312.787	95.56
313.017	88.56
313.246	79.56
313.476	85.56
313.706	88.56
313.935	93.56
314.165	80.56
314.394	93.56
314.624	102.56
314.853	82.56
315.083	103.56
315.312	101.56
315.542	98.56
315.771	94.56
316.001	91.56
316.23	80.56
316.46	84.56
316.689	85.56
316.919	81.56
317.148	86.56
317.377	86.56
317.607	103.56
317.836	87.56
318.065	93.56
318.295	88.56
318.524	88.56
318.753	81.56
318.983	99.56
319.212	99.56
319.441	88.56
319.67	90.56
319.9	98.56
320.129	103.56
320.358	96.56
320.587	93.56
320.816	103.56
321.046	102.56
321.275	90.56
321.504	84.56
321.733	89.56
321.962	92.56
322.191	95.56
322.42	85.56
322.649	88.56
322.878	95.56
323.108	100.56
323.337	127.56
323.566	117.56
323.795	122.56
324.024	171.56
324.253	294.56
324.482	574.56
324.71	1142.56
324.939	1428.56
325.168	565.56
325.397	192.56
325.626	135.56
325.855	110.56
326.084	119.56
326.313	142.56
326.542	148.56
326.77	177.56
326.999	323.56
327.228	656.56
327.457	1165.56
327.686	910.56
327.914	264.56
328.143	137.56
328.372	135.56
328.6	113.56
328.829	110.56
329.058	102.56
329.287	110.56
329.515	96.56
329.744	99.56
329.972	87.56
330.201	92.56
330.43	102.56
330.658	113.56
330.887	121.56
331.115	103.56
331.344	110.56
331.572	102.56
331.801	97.56
332.03	116.56
332.258	91.56
332.486	86.56
332.715	84.56
332.943	94.56
333.172	86.56
333.4	95.56
333.629	101.56
333.857	91.56
334.085	102.56
334.314	109.56
334.542	103.56
334.771	94.56
334.999	88.56
335.227	88.56
335.455	94.56
335.684	100.56
335.912	88.56
336.14	86.56
336.369	84.56
336.597	85.56
336.825	91.56
337.053	94.56
337.281	93.56
337.51	91.56
337.738	96.56
337.966	99.56
338.194	88.56
338.422	91.56
338.65	88.56
338.878	84.56
339.106	70.56
339.334	96.56
339.562	83.56
339.79	96.56
340.018	84.56
340.246	91.56
340.474	89.56
340.702	92.56
340.93	90.56
341.158	82.56
341.386	96.56
341.614	79.56
341.842	92.56
342.07	78.56
342.298	94.56
342.526	85.56
342.754	93.56
342.981	78.56
343.209	86.56
343.437	98.56
343.665	92.56
343.893	92.56
344.12	90.56
344.348	89.56
344.576	82.56
344.804	96.56
345.031	88.56
345.259	96.56
345.487	91.56
345.714	99.56
345.942	86.56
346.17	97.56
346.397	97.56
346.625	89.56
346.853	90.56
347.08	99.56
347.308	98.56
347.535	92.56
347.763	97.56
347.99	89.56
348.218	92.56
348.445	114.56
348.673	89.56
348.9	101.56
349.128	78.56
349.355	89.56
349.583	85.56
349.81	91.56
350.037	99.56
350.265	98.56
350.492	95.56
350.72	100.56
350.947	93.56
351.174	106.56
351.402	110.56
351.629	106.56
351.856	98.56
352.083	110.56
352.311	92.56
352.538	111.56
352.765	118.56
352.992	100.56
353.22	113.56
353.447	116.56
353.674	90.56
353.901	98.56
354.128	87.56
354.355	104.56
354.583	88.56
354.81	95.56
355.037	110.56
355.264	91.56
355.491	94.56
355.718	82.56
355.945	95.56
356.172	97.56
356.399	93.56
356.626	80.56
356.853	86.56
357.08	102.56
357.307	105.56
357.534	84.56
357.761	94.56
357.988	94.56
358.215	96.56
358.441	106.56
358.668	94.56
358.895	86.56
359.122	90.56
359.349	88.56
359.576	82.56
359.802	96.56
360.029	101.56
360.256	114.56
360.483	94.56
360.709	91.56
360.936	94.56
361.163	86.56
361.39	95.56
361.616	84.56
361.843	88.56
362.07	81.56
362.296	76.56
362.523	96.56
362.749	84.56
362.976	87.56
363.203	96.56
363.429	90.56
363.656	92.56
363.882	86.56
364.109	79.56
364.335	94.56
364.562	99.56
364.788	88.56
365.015	97.56
365.241	90.56
365.468	98.56
365.694	96.56
365.92	73.56
366.147	74.56
366.373	97.56
366.599	92.56
366.826	97.56
367.052	92.56
367.278	91.56
367.505	87.56
367.731	98.56
367.957	87.56
368.184	91.56
368.41	72.56
368.636	88.56
368.862	110.56
369.089	104.56
369.315	89.56
369.541	84.56
369.767	92.56
369.993	86.56
370.219	89.56
370.445	99.56
370.672	86.56
370.898	109.56
371.124	99.56
371.35	81.56
371.576	83.56
371.802	91.56
372.028	98.56
372.254	82.56
372.48	92.56
372.706	90.56
372.932	92.56
373.158	76.56
373.384	89.56
373.61	93.56
373.835	84.56
374.061	99.56
374.287	94.56
374.513	92.56
374.739	99.56
374.965	78.56
375.191	86.56
375.416	73.56
375.642	86.56
375.868	99.56
376.094	94.56
376.319	89.56
376.545	100.56
376.771	88.56
376.997	84.56
377.222	90.56
377.448	79.56
377.674	104.56
377.899	100.56
378.125	87.56
378.35	88.56
378.576	87.56
378.802	87.56
379.027	92.56
379.253	97.56
379.478	92.56
379.704	94.56
379.929	110.56
380.155	94.56
380.38	86.56
380.606	88.56
380.831	97.56
381.057	92.56
381.282	93.56
381.507	81.56
381.733	102.56
381.958	105.56
382.184	111.56
382.409	95.56
382.634	100.56
382.86	96.56
383.085	113.56
383.31	107.56
383.535	88.56
383.761	101.56
383.986	103.56
384.211	107.56
384.436	90.56
384.662	112.56
384.887	116.56
385.112	108.56
385.337	92.56
385.562	110.56
385.787	121.56
386.013	118.56
386.238	112.56
386.463	105.56
386.688	131.56
386.913	106.56
387.138	102.56
387.363	104.56
387.588	94.56
387.813	95.56
388.038	112.56
388.263	127.56
388.488	117.56
388.713	109.56
388.938	84.56
389.163	101.56
389.387	92.56
389.612	87.56
389.837	89.56
390.062	83.56
390.287	94.56
390.512	96.56
390.736	84.56
390.961	91.56
391.186	80.56
391.411	78.56
391.636	87.56
391.86	91.56
392.085	88.56
392.31	76.56
392.534	73.56
392.759	99.56
392.984	83.56
393.208	92.56
393.433	105.56
393.658	98.56
393.882	89.56
394.107	78.56
394.331	80.56
394.556	84.56
394.78	89.56
395.005	94.56
395.229	74.56
395.454	83.56
395.678	82.56
395.903	83.56
396.127	84.56
396.352	90.56
396.576	86.56
396.801	93.56
397.025	99.56
397.249	90.56
397.474	82.56
397.698	99.56
397.922	84.56
398.147	84.56
398.371	94.56
398.595	92.56
398.82	77.56
399.044	85.56
399.268	75.56
399.492	98.56
399.717	83.56
399.941	86.56
400.165	94.56
400.389	89.56
400.613	87.56
400.837	83.56
401.062	72.56
401.286	78.56
401.51	86.56
401.734	89.56
401.958	95.56
402.182	105.56
402.406	129.56
402.63	105.56
402.854	94.56
403.078	85.56
403.302	91.56
403.526	70.56
403.75	89.56
403.974	95.56
404.198	85.56
404.422	92.56
404.645	86.56
404.869	81.56
405.093	89.56
405.317	91.56
405.541	84.56
405.765	81.56
405.988	118.56
406.212	131.56
406.436	184.56
406.66	116.56
406.883	99.56
407.107	82.56
407.331	92.56
407.555	94.56
407.778	108.56
408.002	93.56
408.226	81.56
408.449	94.56
408.673	93.56
408.896	81.56
409.12	80.56
409.344	90.56
409.567	88.56
409.791	77.56
410.014	89.56
410.238	78.56
410.461	92.56
410.685	88.56
410.908	76.56
411.132	89.56
411.355	89.56
411.578	105.56
411.802	92.56
412.025	101.56
412.249	92.56
412.472	68.56
412.695	88.56
412.919	76.56
413.142	92.56
413.365	102.56
413.589	87.56
413.812	84.56
414.035	94.56
414.258	91.56
414.482	95.56
414.705	75.56
414.928	78.56
415.151	97.56
415.374	83.56
415.597	81.56
415.821	100.56
416.044	88.56
416.267	91.56
416.49	91.56
416.713	101.56
416.936	76.56
417.159	101.56
417.382	73.56
417.605	95.56
417.828	86.56
418.051	93.56
418.274	87.56
418.497	83.56
418.72	73.56
418.943	92.56
419.166	83.56
419.389	79.56
419.611	88.56
419.834	96.56
420.057	97.56
420.28	87.56
420.503	83.56
420.726	73.56
420.948	98.56
421.171	84.56
421.394	90.56
421.617	85.56
421.839	89.56
422.062	89.56
422.285	95.56
422.507	91.56
422.73	90.56
422.953	100.56
423.175	92.56
423.398	98.56
423.621	93.56
423.843	88.56
424.066	80.56
424.288	99.56
424.511	84.56
424.733	92.56
424.956	88.56
425.178	92.56
425.401	97.56
425.623	93.56
425.846	99.56
426.068	92.56
426.291	79.56
426.513	91.56
426.735	91.56
426.958	97.56
427.18	112.56
427.402	110.56
427.625	136.56
427.847	113.56
428.069	78.56
428.292	84.56
428.514	83.56
428.736	79.56
428.958	87.56
429.181	84.56
429.403	92.56
429.625	84.56
429.847	77.56
430.069	106.56
430.292	76.56
430.514	87.56
430.736	82.56
430.958	94.56
431.18	100.56
431.402	86.56
431.624	92.56
431.846	90.56
432.068	71.56
432.29	84.56
432.512	76.56
432.734	94.56
432.956	78.56
433.178	104.56
433.4	86.56
433.622	95.56
433.844	100.56
434.066	87.56
434.287	88.56
434.509	87.56
434.731	88.56
434.953	92.56
435.175	76.56
435.397	95.56
435.618	80.56
435.84	98.56
436.062	101.56
436.284	100.56
436.505	98.56
436.727	100.56
436.949	74.56
437.17	91.56
437.392	89.56
437.614	86.56
437.835	83.56
438.057	101.56
438.278	102.56
438.5	95.56
438.721	102.56
438.943	96.56
439.165	80.56
439.386	105.56
439.608	91.56
439.829	102.56
440.05	100.56
440.272	130.56
440.493	87.56
440.715	75.56
440.936	77.56
441.158	84.56
441.379	78.56
441.6	95.56
441.822	90.56
442.043	96.56
442.264	102.56
442.486	86.56
442.707	95.56
442.928	104.56
443.149	110.56
443.371	109.56
443.592	103.56
443.813	113.56
444.034	92.56
444.255	80.56
444.476	87.56
444.698	96.56
444.919	80.56
445.14	128.56
445.361	117.56
445.582	95.56
445.803	120.56
446.024	136.56
446.245	112.56
446.466	94.56
446.687	104.56
446.908	79.56
447.129	87.56
447.35	86.56
447.571	90.56
447.792	79.56
448.013	89.56
448.234	96.56
448.455	109.56
448.675	105.56
448.896	123.56
449.117	94.56
449.338	95.56
449.559	119.56
449.779	121.56
450	108.56
450.221	98.56
450.442	77.56
450.662	92.56
450.883	86.56
451.104	99.56
451.324	92.56
451.545	78.56
451.766	75.56
451.986	76.56
452.207	79.56
452.428	94.56
452.648	98.56
452.869	95.56
453.089	100.56
453.31	106.56
453.53	78.56
453.751	98.56
453.971	94.56
454.192	95.56
454.412	96.56
454.633	83.56
454.853	72.56
455.073	80.56
455.294	93.56
455.514	95.56
455.734	95.56
455.955	91.56
456.175	76.56
456.395	74.56
456.616	74.56
456.836	90.56
457.056	82.56
457.276	86.56
457.497	93.56
457.717	86.56
457.937	97.56
458.157	80.56
458.377	77.56
458.598	91.56
458.818	113.56
459.038	130.56
459.258	107.56
459.478	90.56
459.698	75.56
459.918	80.56
460.138	83.56
460.358	67.56
460.578	100.56
460.798	83.56
461.018	88.56
461.238	81.56
461.458	71.56
461.678	86.56
461.898	89.56
462.118	84.56
462.338	95.56
462.558	82.56
462.777	87.56
462.997	88.56
463.217	90.56
463.437	84.56
463.657	92.56
463.876	85.56
464.096	89.56
464.316	79.56
464.536	95.56
464.755	89.56
464.975	87.56
465.195	136.56
465.414	144.56
465.634	101.56
465.854	79.56
466.073	76.56
466.293	68.56
466.512	72.56
466.732	82.56
466.951	98.56
467.171	102.56
467.391	100.56
467.61	111.56
467.829	87.56
468.049	91.56
468.268	90.56
468.488	81.56
468.707	76.56
468.927	83.56
469.146	75.56
469.365	82.56
469.585	76.56
469.804	92.56
470.023	99.56
470.243	92.56
470.462	89.56
470.681	98.56
470.901	110.56
471.12	70.56
471.339	96.56
471.558	87.56
471.777	87.56
471.997	82.56
472.216	80.56
472.435	95.56
472.654	83.56
472.873	79.56
473.092	91.56
473.311	89.56
473.53	73.56
473.749	90.56
473.968	93.56
474.187	91.56
474.406	90.56
474.625	96.56
474.844	85.56
475.063	82.56
475.282	93.56
475.501	80.56
475.72	92.56
475.939	68.56
476.158	84.56
476.377	70.56
476.596	102.56
476.814	89.56
477.033	99.56
477.252	87.56
477.471	83.56
477.69	96.56
477.908	77.56
478.127	82.56
478.346	86.56
478.564	81.56
478.783	80.56
479.002	80.56
479.22	82.56
479.439	103.56
479.658	82.56
479.876	98.56
480.095	84.56
480.313	95.56
480.532	90.56
480.751	84.56
480.969	90.56
481.188	103.56
481.406	84.56
481.624	78.56
481.843	83.56
482.061	69.56
482.28	82.56
482.498	82.56
482.717	88.56
482.935	82.56
483.153	84.56
483.372	72.56
483.59	97.56
483.808	84.56
484.027	83.56
484.245	92.56
484.463	79.56
484.681	91.56
484.9	74.56
485.118	113.56
485.336	90.56
485.554	90.56
485.772	93.56
485.99	101.56
486.209	111.56
486.427	103.56
486.645	122.56
486.863	99.56
487.081	98.56
487.299	88.56
487.517	88.56
487.735	82.56
487.953	86.56
488.171	82.56
488.389	87.56
488.607	89.56
488.825	85.56
489.043	86.56
489.261	99.56
489.479	90.56
489.696	90.56
489.914	94.56
490.132	86.56
490.35	96.56
490.568	86.56
490.786	71.56
491.003	86.56
491.221	98.56
491.439	88.56
491.657	90.56
491.874	91.56
492.092	100.56
492.31	95.56
492.527	81.56
492.745	90.56
492.963	105.56
493.18	89.56
493.398	87.56
493.615	100.56
493.833	86.56
494.05	97.56
494.268	80.56
494.485	89.56
494.703	86.56
494.92	91.56
495.138	82.56
495.355	80.56
495.573	88.56
495.79	86.56
496.008	83.56
496.225	91.56
496.442	86.56
496.66	93.56
496.877	92.56
497.094	84.56
497.312	88.56
497.529	105.56
497.746	94.56
497.963	106.56
498.181	86.56
498.398	98.56
498.615	96.56
498.832	86.56
499.049	92.56
499.267	99.56
499.484	92.56
499.701	108.56
499.918	100.56
500.135	86.56
500.352	87.56
500.569	83.56
500.786	89.56
501.003	88.56
501.22	87.56
501.437	69.56
501.654	87.56
501.871	81.56
502.088	89.56
502.305	93.56
502.522	95.56
502.739	94.56
502.956	90.56
503.172	92.56
503.389	84.56
503.606	87.56
503.823	82.56
504.04	87.56
504.256	90.56
504.473	87.56
504.69	84.56
504.907	83.56
505.123	63.56
505.34	90.56
505.557	91.56
505.773	88.56
505.99	80.56
506.207	84.56
506.423	101.56
506.64	80.56
506.856	76.56
507.073	99.56
507.289	76.56
507.506	86.56
507.722	112.56
507.939	87.56
508.155	96.56
508.372	85.56
508.588	83.56
508.805	86.56
509.021	90.56
509.238	92.56
509.454	97.56
509.67	87.56
509.887	81.56
510.103	108.56
510.319	177.56
510.536	551.56
510.752	1662.56
510.968	500.56
511.184	130.56
511.401	101.56
511.617	88.56
511.833	101.56
512.049	89.56
512.265	89.56
512.481	86.56
512.698	83.56
512.914	91.56
513.13	95.56
513.346	90.56
513.562	82.56
513.778	92.56
513.994	102.56
514.21	102.56
514.426	104.56
514.642	108.56
514.858	112.56
515.074	123.56
515.29	351.56
515.506	1031.56
515.721	371.56
515.937	122.56
516.153	107.56
516.369	89.56
516.585	89.56
516.801	97.56
517.016	89.56
517.232	90.56
517.448	82.56
517.664	96.56
517.879	83.56
518.095	98.56
518.311	101.56
518.527	98.56
518.742	106.56
518.958	95.56
519.173	112.56
519.389	108.56
519.605	93.56
519.82	95.56
520.036	108.56
520.251	112.56
520.467	92.56
520.682	103.56
520.898	99.56
521.113	92.56
521.329	107.56
521.544	160.56
521.76	440.56
521.975	1723.56
522.19	1044.56
522.406	239.56
522.621	110.56
522.836	101.56
523.052	90.56
523.267	91.56
523.482	98.56
523.698	87.56
523.913	99.56
524.128	100.56
524.343	89.56
524.559	91.56
524.774	90.56
524.989	110.56
525.204	103.56
525.419	86.56
525.634	104.56
525.849	94.56
526.064	99.56
526.28	90.56
526.495	86.56
526.71	88.56
526.925	80.56
527.14	81.56
527.355	91.56
527.57	85.56
527.785	81.56
527.999	102.56
528.214	87.56
528.429	98.56
528.644	93.56
528.859	90.56
529.074	90.56
529.289	119.56
529.503	146.56
529.718	94.56
529.933	86.56
530.148	88.56
530.363	60.56
530.577	80.56
530.792	80.56
531.007	85.56
531.221	83.56
531.436	98.56
531.651	92.56
531.865	97.56
532.08	94.56
532.295	76.56
532.509	88.56
532.724	98.56
532.938	91.56
533.153	96.56
533.367	97.56
533.582	99.56
533.796	96.56
534.011	104.56
534.225	98.56
534.44	99.56
534.654	76.56
534.868	87.56
535.083	87.56
535.297	89.56
535.511	91.56
535.726	103.56
535.94	82.56
536.154	88.56
536.369	90.56
536.583	87.56
536.797	97.56
537.011	83.56
537.225	88.56
537.44	96.56
537.654	94.56
537.868	90.56
538.082	86.56
538.296	89.56
538.51	85.56
538.724	91.56
538.938	90.56
539.153	99.56
539.367	106.56
539.581	94.56
539.795	95.56
540.009	83.56
540.222	97.56
540.436	97.56
540.65	90.56
540.864	97.56
541.078	88.56
541.292	91.56
541.506	85.56
541.72	87.56
541.934	96.56
542.147	85.56
542.361	101.56
542.575	82.56
542.789	94.56
543.002	85.56
543.216	102.56
543.43	90.56
543.644	92.56
543.857	96.56
544.071	94.56
544.285	99.56
544.498	88.56
544.712	81.56
544.925	75.56
545.139	86.56
545.352	81.56
545.566	106.56
545.779	88.56
545.993	95.56
546.206	80.56
546.42	91.56
546.633	89.56
546.847	82.56
547.06	96.56
547.274	81.56
547.487	86.56
547.7	78.56
547.914	86.56
548.127	97.56
548.34	86.56
548.554	90.56
548.767	94.56
548.98	82.56
549.193	83.56
549.407	87.56
549.62	86.56
549.833	68.56
550.046	89.56
550.259	103.56
550.473	91.56
550.686	90.56
550.899	82.56
551.112	89.56
551.325	86.56
551.538	76.56
551.751	92.56
551.964	101.56
552.177	80.56
552.39	93.56
552.603	88.56
552.816	96.56
553.029	95.56
553.242	104.56
553.455	103.56
553.667	94.56
553.88	89.56
554.093	88.56
554.306	92.56
554.519	79.56
554.732	82.56
554.944	78.56
555.157	97.56
555.37	93.56
555.583	80.56
555.795	98.56
556.008	86.56
556.221	77.56
556.433	79.56
556.646	88.56
556.859	81.56
557.071	96.56
557.284	102.56
557.496	91.56
557.709	104.56
557.921	97.56
558.134	90.56
558.346	95.56
558.559	82.56
558.771	96.56
558.984	95.56
559.196	91.56
559.409	102.56
559.621	90.56
559.833	80.56
560.046	84.56
560.258	96.56
560.47	84.56
560.683	80.56
560.895	75.56
561.107	73.56
561.32	94.56
561.532	88.56
561.744	95.56
561.956	95.56
562.168	92.56
562.381	89.56
562.593	80.56
562.805	98.56
563.017	106.56
563.229	108.56
563.441	82.56
563.653	79.56
563.865	96.56
564.077	72.56
564.289	87.56
564.501	97.56
564.713	87.56
564.925	89.56
565.137	110.56
565.349	90.56
565.561	86.56
565.773	96.56
565.985	87.56
566.197	70.56
566.408	94.56
566.62	96.56
566.832	75.56
567.044	82.56
567.255	96.56
567.467	83.56
567.679	82.56
567.891	73.56
568.102	84.56
568.314	85.56
568.526	92.56
568.737	84.56
568.949	88.56
569.161	80.56
569.372	90.56
569.584	80.56
569.795	75.56
570.007	102.56
570.218	207.56
570.43	124.56
570.641	84.56
570.853	79.56
571.064	85.56
571.276	71.56
571.487	70.56
571.698	85.56
571.91	92.56
572.121	78.56
572.333	88.56
572.544	87.56
572.755	82.56
572.966	94.56
573.178	91.56
573.389	92.56
573.6	92.56
573.811	92.56
574.023	99.56
574.234	88.56
574.445	85.56
574.656	93.56
574.867	83.56
575.078	84.56
575.289	92.56
575.501	83.56
575.712	88.56
575.923	86.56
576.134	94.56
576.345	90.56
576.556	91.56
576.767	83.56
576.978	104.56
577.188	88.56
577.399	83.56
577.61	85.56
577.821	99.56
578.032	111.56
578.243	226.56
578.454	576.56
578.665	181.56
578.875	91.56
579.086	76.56
579.297	86.56
579.508	102.56
579.718	79.56
579.929	88.56
580.14	86.56
580.35	81.56
580.561	97.56
580.772	88.56
580.982	82.56
581.193	84.56
581.403	95.56
581.614	78.56
581.825	78.56
582.035	92.56
582.246	83.56
582.456	85.56
582.667	85.56
582.877	90.56
583.087	90.56
583.298	91.56
583.508	88.56
583.719	78.56
583.929	85.56
584.139	84.56
584.35	90.56
584.56	93.56
584.77	88.56
584.981	83.56
585.191	83.56
585.401	72.56
585.611	96.56
585.821	81.56
586.032	87.56
586.242	87.56
586.452	89.56
586.662	68.56
586.872	92.56
587.082	97.56
587.292	81.56
587.502	74.56
587.713	98.56
587.923	96.56
588.133	86.56
588.343	87.56
588.553	73.56
588.762	86.56
588.972	84.56
589.182	89.56
589.392	91.56
589.602	85.56
589.812	93.56
590.022	88.56
590.232	88.56
590.441	97.56
590.651	88.56
590.861	92.56
591.071	84.56
591.281	77.56
591.49	75.56
591.7	86.56
591.91	78.56
592.119	103.56
592.329	92.56
592.539	80.56
592.748	81.56
592.958	85.56
593.167	80.56
593.377	90.56
593.587	76.56
593.796	90.56
594.006	104.56
594.215	77.56
594.424	87.56
594.634	87.56
594.843	95.56
595.053	75.56
595.262	84.56
595.472	78.56
595.681	95.56
595.89	76.56
596.1	82.56
596.309	103.56
596.518	84.56
596.727	89.56
596.937	74.56
597.146	89.56
597.355	80.56
597.564	90.56
597.774	92.56
597.983	83.56
598.192	84.56
598.401	83.56
598.61	84.56
598.819	75.56
599.028	82.56
599.237	95.56
599.446	94.56
599.655	76.56
599.864	85.56
600.073	89.56
600.282	76.56
600.491	80.56
600.7	79.56
600.909	87.56
601.118	91.56
601.327	96.56
601.536	77.56
601.745	96.56
601.953	87.56
602.162	88.56
602.371	92.56
602.58	78.56
602.789	87.56
602.997	82.56
603.206	84.56
603.415	85.56
603.623	90.56
603.832	80.56
604.041	81.56
604.249	87.56
604.458	85.56
604.666	90.56
604.875	98.56
605.084	89.56
605.292	77.56
605.501	80.56
605.709	76.56
605.918	78.56
606.126	78.56
606.334	73.56
606.543	86.56
606.751	75.56
606.96	83.56
607.168	71.56
607.376	79.56
607.585	85.56
607.793	76.56
608.001	90.56
608.21	90.56
608.418	86.56
608.626	86.56
608.834	89.56
609.043	94.56
609.251	87.56
609.459	78.56
609.667	84.56
609.875	92.56
610.083	88.56
610.291	71.56
610.499	80.56
610.707	80.56
610.916	91.56
611.124	78.56
611.332	82.56
611.54	86.56
611.748	84.56
611.955	106.56
612.163	103.56
612.371	80.56
612.579	93.56
612.787	96.56
612.995	87.56
613.203	75.56
613.411	79.56
613.618	90.56
613.826	83.56
614.034	79.56
614.242	85.56
614.449	76.56
614.657	82.56
614.865	81.56
615.072	94.56
615.28	90.56
615.488	79.56
615.695	90.56
615.903	94.56
616.111	108.56
616.318	102.56
616.526	84.56
616.733	88.56
616.941	97.56
617.148	87.56
617.356	89.56
617.563	87.56
617.771	75.56
617.978	89.56
618.185	91.56
618.393	82.56
618.6	85.56
618.807	66.56
619.015	90.56
619.222	85.56
619.429	84.56
619.637	98.56
619.844	98.56
620.051	81.56
620.258	83.56
620.466	73.56
620.673	81.56
620.88	89.56
621.087	70.56
621.294	72.56
621.501	95.56
621.708	94.56
621.915	69.56
622.122	89.56
622.329	76.56
622.536	85.56
622.743	79.56
622.95	74.56
623.157	83.56
623.364	79.56
623.571	90.56
623.778	83.56
623.985	95.56
624.192	77.56
624.399	93.56
624.606	80.56
624.812	92.56
625.019	81.56
625.226	88.56
625.433	82.56
625.639	70.56
625.846	91.56
626.053	75.56
626.259	88.56
626.466	82.56
626.673	77.56
626.879	77.56
627.086	95.56
627.293	81.56
627.499	103.56
627.706	90.56
627.912	73.56
628.119	94.56
628.325	92.56
628.532	74.56
628.738	81.56
628.945	86.56
629.151	96.56
629.357	85.56
629.564	88.56
629.77	84.56
629.976	77.56
630.183	73.56
630.389	73.56
630.595	71.56
630.802	84.56
631.008	80.56
631.214	81.56
631.42	66.56
631.627	87.56
631.833	77.56
632.039	84.56
632.245	74.56
632.451	87.56
632.657	78.56
632.863	91.56
633.069	72.56
633.275	80.56
633.481	90.56
633.688	98.56
633.893	94.56
634.099	90.56
634.305	88.56
634.511	86.56
634.717	81.56
634.923	74.56
635.129	82.56
635.335	83.56
635.541	75.56
635.747	79.56
635.952	86.56
636.158	81.56
636.364	78.56
636.57	83.56
636.775	87.56
636.981	88.56
637.187	70.56
637.392	89.56
637.598	74.56
637.804	83.56
638.009	91.56
638.215	77.56
638.421	77.56
638.626	85.56
638.832	95.56
639.037	88.56
639.243	90.56
639.448	78.56
639.654	80.56
639.859	78.56
640.065	96.56
640.27	92.56
640.475	70.56
640.681	85.56
640.886	82.56
641.091	71.56
641.297	81.56
641.502	65.56
641.707	75.56
641.913	75.56
642.118	85.56
642.323	86.56
642.528	84.56
642.733	86.56
642.939	99.56
643.144	86.56
643.349	92.56
643.554	78.56
643.759	83.56
643.964	89.56
644.169	90.56
644.374	78.56
644.579	76.56
644.784	96.56
644.989	85.56
645.194	89.56
645.399	71.56
645.604	77.56
645.809	89.56
646.014	98.56
646.219	70.56
646.423	92.56
646.628	91.56
646.833	83.56
647.038	86.56
647.243	64.56
647.447	85.56
647.652	78.56
647.857	80.56
648.062	96.56
648.266	107.56
648.471	95.56
648.676	103.56
648.88	96.56
649.085	82.56
649.289	98.56
649.494	93.56
649.698	115.56
649.903	91.56
650.107	93.56
650.312	75.56
650.516	95.56
650.721	66.56
650.925	90.56
651.13	75.56
651.334	87.56
651.539	84.56
651.743	83.56
651.947	68.56
652.152	95.56
652.356	79.56
652.56	78.56
652.764	71.56
652.969	77.56
653.173	75.56
653.377	90.56
653.581	80.56
653.785	89.56
653.99	71.56
654.194	83.56
654.398	85.56
654.602	77.56
654.806	94.56
655.01	96.56
655.214	82.56
655.418	88.56
655.622	93.56
655.826	86.56
656.03	95.56
656.234	79.56
656.438	88.56
656.642	83.56
656.846	80.56
657.049	81.56
657.253	93.56
657.457	89.56
657.661	86.56
657.865	84.56
658.068	72.56
658.272	82.56
658.476	87.56
658.68	79.56
658.883	70.56
659.087	83.56
659.291	98.56
659.494	82.56
659.698	82.56
659.901	76.56
660.105	77.56
660.309	78.56
660.512	82.56
660.716	83.56
660.919	98.56
661.123	90.56
661.326	71.56
661.53	77.56
661.733	85.56
661.936	81.56
662.14	85.56
662.343	86.56
662.546	76.56
662.75	70.56
662.953	80.56
663.156	84.56
663.36	95.56
663.563	68.56
663.766	88.56
663.969	74.56
664.173	84.56
664.376	81.56
664.579	83.56
664.782	78.56
664.985	75.56
665.188	79.56
665.391	82.56
665.594	85.56
665.797	89.56
666	85.56
666.203	75.56
666.406	79.56
666.609	84.56
666.812	90.56
667.015	86.56
667.218	80.56
667.421	84.56
667.624	76.56
667.827	81.56
668.03	71.56
668.232	65.56
668.435	89.56
668.638	88.56
668.841	83.56
669.043	74.56
669.246	73.56
669.449	67.56
669.651	84.56
669.854	78.56
670.057	76.56
670.259	72.56
670.462	85.56
670.665	81.56
670.867	91.56
671.07	85.56
671.272	82.56
671.475	72.56
671.677	76.56
671.88	74.56
672.082	72.56
672.284	79.56
672.487	79.56
672.689	72.56
672.892	90.56
