Data from Uncirc_2001_H10_HRD10591_00021.txt Node
Date: Wed Jan 03 10:44:01 EST 2024
User: Yrep
Spectrometer: HR+D1059
Trigger mode: 1
Integration Time (sec): 1.000000E-1
Scans to average: 1
Electric dark correction enabled: true
Nonlinearity correction enabled: false
Boxcar width: 0
XAxis mode: Wavelengths
Number of Pixels in Spectrum: 2048
>>>>>Begin Spectral Data<<<<<
223.165	-16.94
223.4	-16.94
223.635	-16.94
223.869	-22.94
224.104	-22.94
224.338	-10.94
224.573	-11.94
224.808	-11.94
225.042	-3.94
225.277	-5.94
225.511	-1.94
225.746	7.06
225.98	-1.94
226.215	8.06
226.449	15.06
226.683	22.06
226.918	28.06
227.152	31.06
227.387	38.06
227.621	35.06
227.856	36.06
228.09	66.06
228.324	60.06
228.559	60.06
228.793	58.06
229.027	60.06
229.262	71.06
229.496	80.06
229.73	91.06
229.964	91.06
230.199	87.06
230.433	73.06
230.667	82.06
230.901	79.06
231.136	76.06
231.37	77.06
231.604	89.06
231.838	86.06
232.072	81.06
232.306	82.06
232.541	91.06
232.775	79.06
233.009	82.06
233.243	79.06
233.477	82.06
233.711	77.06
233.945	60.06
234.179	77.06
234.413	98.06
234.647	89.06
234.881	77.06
235.115	83.06
235.349	70.06
235.583	72.06
235.817	80.06
236.051	71.06
236.285	83.06
236.519	98.06
236.753	92.06
236.987	84.06
237.221	97.06
237.455	101.06
237.689	69.06
237.922	78.06
238.156	76.06
238.39	73.06
238.624	83.06
238.858	88.06
239.091	81.06
239.325	91.06
239.559	78.06
239.793	81.06
240.027	93.06
240.26	81.06
240.494	79.06
240.728	74.06
240.961	89.06
241.195	94.06
241.429	81.06
241.662	74.06
241.896	83.06
242.13	80.06
242.363	86.06
242.597	82.06
242.83	72.06
243.064	94.06
243.298	82.06
243.531	82.06
243.765	81.06
243.998	90.06
244.232	89.06
244.465	84.06
244.699	90.06
244.932	72.06
245.166	81.06
245.399	83.06
245.633	68.06
245.866	97.06
246.099	75.06
246.333	88.06
246.566	79.06
246.8	89.06
247.033	68.06
247.266	90.06
247.5	89.06
247.733	65.06
247.966	84.06
248.2	88.06
248.433	73.06
248.666	76.06
248.899	82.06
249.133	81.06
249.366	101.06
249.599	83.06
249.832	93.06
250.066	81.06
250.299	86.06
250.532	76.06
250.765	84.06
250.998	76.06
251.231	72.06
251.465	82.06
251.698	77.06
251.931	57.06
252.164	90.06
252.397	84.06
252.63	83.06
252.863	85.06
253.096	79.06
253.329	99.06
253.562	88.06
253.795	78.06
254.028	91.06
254.261	84.06
254.494	85.06
254.727	85.06
254.96	70.06
255.193	88.06
255.426	74.06
255.659	78.06
255.892	70.06
256.124	75.06
256.357	100.06
256.59	81.06
256.823	88.06
257.056	77.06
257.289	86.06
257.521	82.06
257.754	88.06
257.987	79.06
258.22	85.06
258.452	87.06
258.685	72.06
258.918	90.06
259.151	91.06
259.383	101.06
259.616	86.06
259.849	92.06
260.081	86.06
260.314	86.06
260.547	76.06
260.779	90.06
261.012	91.06
261.244	81.06
261.477	94.06
261.71	98.06
261.942	111.06
262.175	111.06
262.407	102.06
262.64	93.06
262.872	98.06
263.105	89.06
263.337	83.06
263.57	86.06
263.802	94.06
264.035	76.06
264.267	89.06
264.499	85.06
264.732	82.06
264.964	94.06
265.197	83.06
265.429	78.06
265.661	78.06
265.894	95.06
266.126	86.06
266.358	89.06
266.591	73.06
266.823	84.06
267.055	82.06
267.287	85.06
267.52	76.06
267.752	81.06
267.984	81.06
268.216	86.06
268.448	78.06
268.681	95.06
268.913	77.06
269.145	91.06
269.377	94.06
269.609	87.06
269.841	75.06
270.073	99.06
270.306	76.06
270.538	84.06
270.77	86.06
271.002	92.06
271.234	83.06
271.466	83.06
271.698	88.06
271.93	80.06
272.162	92.06
272.394	93.06
272.626	86.06
272.858	75.06
273.09	86.06
273.322	93.06
273.553	92.06
273.785	98.06
274.017	92.06
274.249	87.06
274.481	94.06
274.713	93.06
274.945	97.06
275.176	102.06
275.408	86.06
275.64	75.06
275.872	94.06
276.104	96.06
276.335	87.06
276.567	87.06
276.799	97.06
277.031	104.06
277.262	87.06
277.494	88.06
277.726	89.06
277.957	89.06
278.189	87.06
278.421	92.06
278.652	95.06
278.884	83.06
279.115	103.06
279.347	88.06
279.579	86.06
279.81	73.06
280.042	79.06
280.273	90.06
280.505	93.06
280.736	87.06
280.968	88.06
281.199	81.06
281.431	73.06
281.662	93.06
281.894	107.06
282.125	99.06
282.356	109.06
282.588	132.06
282.819	118.06
283.051	91.06
283.282	84.06
283.513	93.06
283.745	72.06
283.976	95.06
284.207	82.06
284.439	95.06
284.67	94.06
284.901	84.06
285.132	90.06
285.364	91.06
285.595	80.06
285.826	98.06
286.057	83.06
286.288	98.06
286.52	88.06
286.751	85.06
286.982	88.06
287.213	85.06
287.444	91.06
287.675	91.06
287.906	85.06
288.138	97.06
288.369	102.06
288.6	98.06
288.831	87.06
289.062	88.06
289.293	94.06
289.524	103.06
289.755	101.06
289.986	75.06
290.217	97.06
290.448	86.06
290.679	83.06
290.91	86.06
291.141	90.06
291.371	75.06
291.602	84.06
291.833	83.06
292.064	92.06
292.295	95.06
292.526	81.06
292.757	73.06
292.987	83.06
293.218	83.06
293.449	85.06
293.68	103.06
293.91	79.06
294.141	85.06
294.372	84.06
294.603	107.06
294.833	81.06
295.064	93.06
295.295	86.06
295.525	99.06
295.756	104.06
295.987	102.06
296.217	122.06
296.448	119.06
296.679	92.06
296.909	96.06
297.14	99.06
297.37	82.06
297.601	90.06
297.831	91.06
298.062	84.06
298.292	108.06
298.523	90.06
298.753	88.06
298.984	85.06
299.214	83.06
299.445	97.06
299.675	98.06
299.905	104.06
300.136	94.06
300.366	89.06
300.597	95.06
300.827	97.06
301.057	80.06
301.288	87.06
301.518	99.06
301.748	100.06
301.979	88.06
302.209	96.06
302.439	92.06
302.669	99.06
302.9	95.06
303.13	93.06
303.36	103.06
303.59	77.06
303.82	90.06
304.051	86.06
304.281	90.06
304.511	98.06
304.741	98.06
304.971	86.06
305.201	97.06
305.431	87.06
305.661	97.06
305.891	92.06
306.121	130.06
306.352	104.06
306.582	110.06
306.812	102.06
307.042	77.06
307.272	102.06
307.502	91.06
307.731	92.06
307.961	83.06
308.191	103.06
308.421	106.06
308.651	102.06
308.881	98.06
309.111	88.06
309.341	115.06
309.571	101.06
309.8	81.06
310.03	110.06
310.26	96.06
310.49	94.06
310.72	98.06
310.949	117.06
311.179	105.06
311.409	79.06
311.639	87.06
311.868	108.06
312.098	94.06
312.328	104.06
312.557	107.06
312.787	103.06
313.017	93.06
313.246	89.06
313.476	101.06
313.706	106.06
313.935	91.06
314.165	103.06
314.394	106.06
314.624	107.06
314.853	94.06
315.083	95.06
315.312	104.06
315.542	83.06
315.771	88.06
316.001	83.06
316.23	83.06
316.46	89.06
316.689	79.06
316.919	98.06
317.148	89.06
317.377	91.06
317.607	81.06
317.836	96.06
318.065	92.06
318.295	92.06
318.524	86.06
318.753	92.06
318.983	92.06
319.212	86.06
319.441	99.06
319.67	102.06
319.9	104.06
320.129	103.06
320.358	89.06
320.587	98.06
320.816	95.06
321.046	83.06
321.275	113.06
321.504	102.06
321.733	96.06
321.962	90.06
322.191	115.06
322.42	105.06
322.649	99.06
322.878	129.06
323.108	113.06
323.337	120.06
323.566	127.06
323.795	158.06
324.024	195.06
324.253	364.06
324.482	727.06
324.71	1482.06
324.939	1861.06
325.168	709.06
325.397	220.06
325.626	144.06
325.855	111.06
326.084	121.06
326.313	120.06
326.542	129.06
326.77	208.06
326.999	444.06
327.228	803.06
327.457	1425.06
327.686	1115.06
327.914	316.06
328.143	181.06
328.372	141.06
328.6	120.06
328.829	114.06
329.058	118.06
329.287	127.06
329.515	106.06
329.744	102.06
329.972	105.06
330.201	88.06
330.43	109.06
330.658	121.06
330.887	123.06
331.115	109.06
331.344	113.06
331.572	97.06
331.801	103.06
332.03	91.06
332.258	94.06
332.486	106.06
332.715	99.06
332.943	100.06
333.172	104.06
333.4	104.06
333.629	95.06
333.857	117.06
334.085	102.06
334.314	95.06
334.542	98.06
334.771	100.06
334.999	107.06
335.227	97.06
335.455	92.06
335.684	94.06
335.912	79.06
336.14	113.06
336.369	89.06
336.597	110.06
336.825	107.06
337.053	93.06
337.281	112.06
337.51	94.06
337.738	87.06
337.966	97.06
338.194	108.06
338.422	86.06
338.65	99.06
338.878	99.06
339.106	102.06
339.334	87.06
339.562	89.06
339.79	95.06
340.018	95.06
340.246	101.06
340.474	88.06
340.702	83.06
340.93	97.06
341.158	91.06
341.386	90.06
341.614	97.06
341.842	87.06
342.07	93.06
342.298	95.06
342.526	101.06
342.754	95.06
342.981	91.06
343.209	86.06
343.437	94.06
343.665	85.06
343.893	98.06
344.12	89.06
344.348	84.06
344.576	85.06
344.804	101.06
345.031	98.06
345.259	90.06
345.487	85.06
345.714	92.06
345.942	86.06
346.17	92.06
346.397	92.06
346.625	100.06
346.853	92.06
347.08	94.06
347.308	92.06
347.535	94.06
347.763	92.06
347.99	92.06
348.218	101.06
348.445	113.06
348.673	91.06
348.9	101.06
349.128	104.06
349.355	94.06
349.583	83.06
349.81	105.06
350.037	86.06
350.265	90.06
350.492	85.06
350.72	100.06
350.947	119.06
351.174	110.06
351.402	115.06
351.629	92.06
351.856	109.06
352.083	120.06
352.311	109.06
352.538	115.06
352.765	124.06
352.992	116.06
353.22	109.06
353.447	121.06
353.674	111.06
353.901	113.06
354.128	101.06
354.355	100.06
354.583	106.06
354.81	108.06
355.037	101.06
355.264	87.06
355.491	85.06
355.718	109.06
355.945	102.06
356.172	88.06
356.399	99.06
356.626	94.06
356.853	100.06
357.08	87.06
357.307	92.06
357.534	105.06
357.761	105.06
357.988	103.06
358.215	89.06
358.441	108.06
358.668	83.06
358.895	80.06
359.122	95.06
359.349	77.06
359.576	102.06
359.802	104.06
360.029	107.06
360.256	107.06
360.483	107.06
360.709	91.06
360.936	91.06
361.163	101.06
361.39	99.06
361.616	95.06
361.843	94.06
362.07	97.06
362.296	96.06
362.523	89.06
362.749	89.06
362.976	92.06
363.203	94.06
363.429	82.06
363.656	93.06
363.882	97.06
364.109	93.06
364.335	99.06
364.562	84.06
364.788	93.06
365.015	93.06
365.241	92.06
365.468	110.06
365.694	101.06
365.92	104.06
366.147	89.06
366.373	91.06
366.599	74.06
366.826	92.06
367.052	87.06
367.278	94.06
367.505	95.06
367.731	101.06
367.957	95.06
368.184	82.06
368.41	93.06
368.636	106.06
368.862	118.06
369.089	99.06
369.315	90.06
369.541	89.06
369.767	99.06
369.993	101.06
370.219	86.06
370.445	85.06
370.672	98.06
370.898	95.06
371.124	89.06
371.35	87.06
371.576	91.06
371.802	101.06
372.028	96.06
372.254	85.06
372.48	104.06
372.706	77.06
372.932	91.06
373.158	93.06
373.384	103.06
373.61	103.06
373.835	76.06
374.061	89.06
374.287	85.06
374.513	78.06
374.739	78.06
374.965	77.06
375.191	83.06
375.416	79.06
375.642	89.06
375.868	94.06
376.094	88.06
376.319	72.06
376.545	84.06
376.771	95.06
376.997	90.06
377.222	81.06
377.448	95.06
377.674	91.06
377.899	87.06
378.125	89.06
378.35	96.06
378.576	105.06
378.802	105.06
379.027	103.06
379.253	91.06
379.478	108.06
379.704	92.06
379.929	89.06
380.155	85.06
380.38	94.06
380.606	102.06
380.831	91.06
381.057	108.06
381.282	94.06
381.507	94.06
381.733	94.06
381.958	96.06
382.184	111.06
382.409	107.06
382.634	113.06
382.86	98.06
383.085	96.06
383.31	101.06
383.535	96.06
383.761	104.06
383.986	102.06
384.211	85.06
384.436	99.06
384.662	96.06
384.887	107.06
385.112	110.06
385.337	113.06
385.562	117.06
385.787	95.06
386.013	107.06
386.238	118.06
386.463	117.06
386.688	111.06
386.913	124.06
387.138	120.06
387.363	99.06
387.588	106.06
387.813	101.06
388.038	103.06
388.263	108.06
388.488	112.06
388.713	102.06
388.938	90.06
389.163	95.06
389.387	98.06
389.612	86.06
389.837	93.06
390.062	89.06
390.287	90.06
390.512	105.06
390.736	106.06
390.961	88.06
391.186	90.06
391.411	97.06
391.636	100.06
391.86	83.06
392.085	86.06
392.31	73.06
392.534	75.06
392.759	98.06
392.984	81.06
393.208	91.06
393.433	101.06
393.658	86.06
393.882	82.06
394.107	82.06
394.331	89.06
394.556	83.06
394.78	86.06
395.005	84.06
395.229	100.06
395.454	97.06
395.678	89.06
395.903	93.06
396.127	87.06
396.352	84.06
396.576	92.06
396.801	97.06
397.025	91.06
397.249	93.06
397.474	96.06
397.698	96.06
397.922	84.06
398.147	89.06
398.371	86.06
398.595	80.06
398.82	80.06
399.044	85.06
399.268	84.06
399.492	95.06
399.717	93.06
399.941	86.06
400.165	87.06
400.389	87.06
400.613	81.06
400.837	78.06
401.062	104.06
401.286	85.06
401.51	90.06
401.734	86.06
401.958	105.06
402.182	111.06
402.406	136.06
402.63	113.06
402.854	89.06
403.078	86.06
403.302	77.06
403.526	77.06
403.75	99.06
403.974	76.06
404.198	81.06
404.422	103.06
404.645	85.06
404.869	95.06
405.093	98.06
405.317	95.06
405.541	92.06
405.765	107.06
405.988	108.06
406.212	163.06
406.436	190.06
406.66	124.06
406.883	102.06
407.107	89.06
407.331	92.06
407.555	107.06
407.778	77.06
408.002	90.06
408.226	85.06
408.449	99.06
408.673	76.06
408.896	89.06
409.12	100.06
409.344	93.06
409.567	79.06
409.791	83.06
410.014	92.06
410.238	98.06
410.461	87.06
410.685	99.06
410.908	88.06
411.132	110.06
411.355	103.06
411.578	86.06
411.802	88.06
412.025	78.06
412.249	75.06
412.472	101.06
412.695	83.06
412.919	81.06
413.142	75.06
413.365	95.06
413.589	83.06
413.812	82.06
414.035	90.06
414.258	87.06
414.482	78.06
414.705	95.06
414.928	102.06
415.151	94.06
415.374	91.06
415.597	102.06
415.821	93.06
416.044	93.06
416.267	94.06
416.49	107.06
416.713	94.06
416.936	86.06
417.159	90.06
417.382	87.06
417.605	93.06
417.828	82.06
418.051	93.06
418.274	103.06
418.497	89.06
418.72	105.06
418.943	90.06
419.166	91.06
419.389	92.06
419.611	86.06
419.834	97.06
420.057	82.06
420.28	95.06
420.503	92.06
420.726	93.06
420.948	82.06
421.171	93.06
421.394	99.06
421.617	79.06
421.839	101.06
422.062	97.06
422.285	87.06
422.507	97.06
422.73	105.06
422.953	95.06
423.175	94.06
423.398	90.06
423.621	92.06
423.843	101.06
424.066	83.06
424.288	96.06
424.511	98.06
424.733	114.06
424.956	106.06
425.178	109.06
425.401	95.06
425.623	99.06
425.846	88.06
426.068	90.06
426.291	99.06
426.513	85.06
426.735	87.06
426.958	100.06
427.18	97.06
427.402	135.06
427.625	153.06
427.847	143.06
428.069	103.06
428.292	98.06
428.514	94.06
428.736	91.06
428.958	71.06
429.181	83.06
429.403	79.06
429.625	88.06
429.847	98.06
430.069	100.06
430.292	97.06
430.514	86.06
430.736	73.06
430.958	92.06
431.18	83.06
431.402	87.06
431.624	93.06
431.846	93.06
432.068	94.06
432.29	91.06
432.512	90.06
432.734	95.06
432.956	90.06
433.178	93.06
433.4	94.06
433.622	98.06
433.844	80.06
434.066	86.06
434.287	71.06
434.509	86.06
434.731	91.06
434.953	81.06
435.175	103.06
435.397	91.06
435.618	95.06
435.84	91.06
436.062	114.06
436.284	112.06
436.505	110.06
436.727	100.06
436.949	97.06
437.17	75.06
437.392	92.06
437.614	86.06
437.835	108.06
438.057	120.06
438.278	117.06
438.5	93.06
438.721	106.06
438.943	97.06
439.165	86.06
439.386	103.06
439.608	95.06
439.829	106.06
440.05	115.06
440.272	130.06
440.493	80.06
440.715	85.06
440.936	93.06
441.158	88.06
441.379	102.06
441.6	95.06
441.822	79.06
442.043	89.06
442.264	109.06
442.486	103.06
442.707	87.06
442.928	106.06
443.149	118.06
443.371	123.06
443.592	109.06
443.813	113.06
444.034	101.06
444.255	82.06
444.476	89.06
444.698	88.06
444.919	97.06
445.14	125.06
445.361	126.06
445.582	107.06
445.803	116.06
446.024	135.06
446.245	125.06
446.466	106.06
446.687	101.06
446.908	81.06
447.129	84.06
447.35	86.06
447.571	76.06
447.792	95.06
448.013	89.06
448.234	118.06
448.455	105.06
448.675	124.06
448.896	112.06
449.117	106.06
449.338	110.06
449.559	133.06
449.779	125.06
450	77.06
450.221	81.06
450.442	95.06
450.662	85.06
450.883	114.06
451.104	109.06
451.324	98.06
451.545	79.06
451.766	93.06
451.986	79.06
452.207	81.06
452.428	97.06
452.648	94.06
452.869	96.06
453.089	123.06
453.31	115.06
453.53	90.06
453.751	88.06
453.971	110.06
454.192	110.06
454.412	91.06
454.633	98.06
454.853	93.06
455.073	91.06
455.294	81.06
455.514	101.06
455.734	100.06
455.955	91.06
456.175	86.06
456.395	76.06
456.616	94.06
456.836	95.06
457.056	101.06
457.276	94.06
457.497	100.06
457.717	97.06
457.937	81.06
458.157	85.06
458.377	89.06
458.598	110.06
458.818	145.06
459.038	152.06
459.258	111.06
459.478	92.06
459.698	83.06
459.918	88.06
460.138	79.06
460.358	83.06
460.578	77.06
460.798	95.06
461.018	99.06
461.238	84.06
461.458	93.06
461.678	77.06
461.898	68.06
462.118	88.06
462.338	91.06
462.558	103.06
462.777	86.06
462.997	87.06
463.217	82.06
463.437	101.06
463.657	93.06
463.876	79.06
464.096	100.06
464.316	93.06
464.536	83.06
464.755	89.06
464.975	111.06
465.195	159.06
465.414	144.06
465.634	102.06
465.854	62.06
466.073	73.06
466.293	87.06
466.512	96.06
466.732	101.06
466.951	92.06
467.171	94.06
467.391	101.06
467.61	104.06
467.829	95.06
468.049	100.06
468.268	94.06
468.488	86.06
468.707	85.06
468.927	81.06
469.146	101.06
469.365	86.06
469.585	92.06
469.804	85.06
470.023	90.06
470.243	96.06
470.462	94.06
470.681	114.06
470.901	85.06
471.12	75.06
471.339	95.06
471.558	84.06
471.777	84.06
471.997	83.06
472.216	90.06
472.435	78.06
472.654	83.06
472.873	93.06
473.092	83.06
473.311	89.06
473.53	83.06
473.749	73.06
473.968	86.06
474.187	100.06
474.406	114.06
474.625	87.06
474.844	96.06
475.063	90.06
475.282	99.06
475.501	88.06
475.72	83.06
475.939	85.06
476.158	81.06
476.377	91.06
476.596	95.06
476.814	87.06
477.033	100.06
477.252	99.06
477.471	90.06
477.69	89.06
477.908	98.06
478.127	76.06
478.346	91.06
478.564	82.06
478.783	104.06
479.002	89.06
479.22	89.06
479.439	104.06
479.658	123.06
479.876	104.06
480.095	83.06
480.313	97.06
480.532	85.06
480.751	83.06
480.969	77.06
481.188	107.06
481.406	112.06
481.624	92.06
481.843	90.06
482.061	90.06
482.28	89.06
482.498	85.06
482.717	85.06
482.935	100.06
483.153	86.06
483.372	89.06
483.59	83.06
483.808	104.06
484.027	81.06
484.245	93.06
484.463	89.06
484.681	99.06
484.9	89.06
485.118	100.06
485.336	99.06
485.554	92.06
485.772	103.06
485.99	89.06
486.209	100.06
486.427	101.06
486.645	97.06
486.863	104.06
487.081	118.06
487.299	93.06
487.517	110.06
487.735	102.06
487.953	102.06
488.171	103.06
488.389	97.06
488.607	100.06
488.825	92.06
489.043	98.06
489.261	90.06
489.479	91.06
489.696	90.06
489.914	107.06
490.132	89.06
490.35	107.06
490.568	86.06
490.786	100.06
491.003	88.06
491.221	94.06
491.439	85.06
491.657	87.06
491.874	93.06
492.092	87.06
492.31	96.06
492.527	104.06
492.745	90.06
492.963	82.06
493.18	82.06
493.398	98.06
493.615	94.06
493.833	91.06
494.05	98.06
494.268	101.06
494.485	93.06
494.703	93.06
494.92	79.06
495.138	87.06
495.355	92.06
495.573	94.06
495.79	93.06
496.008	90.06
496.225	83.06
496.442	90.06
496.66	96.06
496.877	104.06
497.094	92.06
497.312	93.06
497.529	103.06
497.746	101.06
497.963	98.06
498.181	93.06
498.398	101.06
498.615	95.06
498.832	100.06
499.049	94.06
499.267	101.06
499.484	97.06
499.701	86.06
499.918	90.06
500.135	88.06
500.352	92.06
500.569	80.06
500.786	95.06
501.003	91.06
501.22	93.06
501.437	94.06
501.654	88.06
501.871	94.06
502.088	110.06
502.305	88.06
502.522	91.06
502.739	99.06
502.956	90.06
503.172	99.06
503.389	114.06
503.606	106.06
503.823	85.06
504.04	97.06
504.256	90.06
504.473	90.06
504.69	88.06
504.907	97.06
505.123	89.06
505.34	103.06
505.557	89.06
505.773	95.06
505.99	102.06
506.207	77.06
506.423	81.06
506.64	89.06
506.856	94.06
507.073	84.06
507.289	83.06
507.506	110.06
507.722	106.06
507.939	98.06
508.155	97.06
508.372	84.06
508.588	96.06
508.805	104.06
509.021	93.06
509.238	104.06
509.454	99.06
509.67	92.06
509.887	94.06
510.103	131.06
510.319	210.06
510.536	739.06
510.752	2106.06
510.968	593.06
511.184	153.06
511.401	113.06
511.617	99.06
511.833	93.06
512.049	85.06
512.265	104.06
512.481	106.06
512.698	83.06
512.914	100.06
513.13	104.06
513.346	89.06
513.562	111.06
513.778	92.06
513.994	95.06
514.21	97.06
514.426	94.06
514.642	129.06
514.858	126.06
515.074	175.06
515.29	431.06
515.506	1376.06
515.721	511.06
515.937	145.06
516.153	119.06
516.369	97.06
516.585	101.06
516.801	101.06
517.016	85.06
517.232	93.06
517.448	107.06
517.664	86.06
517.879	94.06
518.095	87.06
518.311	88.06
518.527	88.06
518.742	94.06
518.958	88.06
519.173	112.06
519.389	99.06
519.605	90.06
519.82	102.06
520.036	109.06
520.251	116.06
520.467	114.06
520.682	96.06
520.898	105.06
521.113	98.06
521.329	139.06
521.544	195.06
521.76	539.06
521.975	2279.06
522.19	1338.06
522.406	297.06
522.621	129.06
522.836	91.06
523.052	89.06
523.267	88.06
523.482	104.06
523.698	86.06
523.913	114.06
524.128	101.06
524.343	81.06
524.559	91.06
524.774	85.06
524.989	107.06
525.204	103.06
525.419	95.06
525.634	91.06
525.849	85.06
526.064	79.06
526.28	100.06
526.495	85.06
526.71	103.06
526.925	93.06
527.14	83.06
527.355	89.06
527.57	92.06
527.785	87.06
527.999	105.06
528.214	106.06
528.429	86.06
528.644	100.06
528.859	109.06
529.074	108.06
529.289	117.06
529.503	174.06
529.718	102.06
529.933	98.06
530.148	101.06
530.363	108.06
530.577	93.06
530.792	100.06
531.007	87.06
531.221	101.06
531.436	113.06
531.651	87.06
531.865	76.06
532.08	78.06
532.295	97.06
532.509	100.06
532.724	88.06
532.938	106.06
533.153	102.06
533.367	94.06
533.582	95.06
533.796	95.06
534.011	100.06
534.225	108.06
534.44	102.06
534.654	90.06
534.868	84.06
535.083	86.06
535.297	95.06
535.511	107.06
535.726	99.06
535.94	107.06
536.154	100.06
536.369	100.06
536.583	96.06
536.797	95.06
537.011	95.06
537.225	86.06
537.44	87.06
537.654	90.06
537.868	95.06
538.082	99.06
538.296	84.06
538.51	95.06
538.724	88.06
538.938	92.06
539.153	109.06
539.367	115.06
539.581	101.06
539.795	98.06
540.009	100.06
540.222	100.06
540.436	108.06
540.65	101.06
540.864	99.06
541.078	104.06
541.292	84.06
541.506	104.06
541.72	92.06
541.934	88.06
542.147	98.06
542.361	87.06
542.575	97.06
542.789	94.06
543.002	91.06
543.216	83.06
543.43	103.06
543.644	94.06
543.857	98.06
544.071	111.06
544.285	94.06
544.498	87.06
544.712	93.06
544.925	82.06
545.139	80.06
545.352	97.06
545.566	106.06
545.779	99.06
545.993	95.06
546.206	93.06
546.42	100.06
546.633	97.06
546.847	97.06
547.06	100.06
547.274	103.06
547.487	95.06
547.7	92.06
547.914	94.06
548.127	87.06
548.34	78.06
548.554	93.06
548.767	87.06
548.98	94.06
549.193	83.06
549.407	88.06
549.62	86.06
549.833	91.06
550.046	89.06
550.259	107.06
550.473	79.06
550.686	101.06
550.899	90.06
551.112	93.06
551.325	99.06
551.538	86.06
551.751	93.06
551.964	105.06
552.177	98.06
552.39	92.06
552.603	95.06
552.816	92.06
553.029	81.06
553.242	86.06
553.455	88.06
553.667	103.06
553.88	110.06
554.093	97.06
554.306	74.06
554.519	83.06
554.732	101.06
554.944	81.06
555.157	89.06
555.37	104.06
555.583	95.06
555.795	109.06
556.008	100.06
556.221	95.06
556.433	99.06
556.646	96.06
556.859	87.06
557.071	98.06
557.284	89.06
557.496	84.06
557.709	90.06
557.921	98.06
558.134	111.06
558.346	85.06
558.559	93.06
558.771	93.06
558.984	107.06
559.196	95.06
559.409	102.06
559.621	71.06
559.833	90.06
560.046	86.06
560.258	89.06
560.47	93.06
560.683	92.06
560.895	101.06
561.107	87.06
561.32	93.06
561.532	76.06
561.744	90.06
561.956	90.06
562.168	88.06
562.381	93.06
562.593	87.06
562.805	95.06
563.017	83.06
563.229	91.06
563.441	97.06
563.653	86.06
563.865	96.06
564.077	84.06
564.289	101.06
564.501	95.06
564.713	98.06
564.925	81.06
565.137	104.06
565.349	99.06
565.561	111.06
565.773	81.06
565.985	94.06
566.197	86.06
566.408	91.06
566.62	101.06
566.832	97.06
567.044	103.06
567.255	95.06
567.467	95.06
567.679	80.06
567.891	91.06
568.102	105.06
568.314	93.06
568.526	84.06
568.737	85.06
568.949	86.06
569.161	79.06
569.372	78.06
569.584	90.06
569.795	99.06
570.007	122.06
570.218	238.06
570.43	131.06
570.641	94.06
570.853	100.06
571.064	97.06
571.276	86.06
571.487	83.06
571.698	85.06
571.91	94.06
572.121	95.06
572.333	98.06
572.544	85.06
572.755	93.06
572.966	94.06
573.178	105.06
573.389	87.06
573.6	88.06
573.811	88.06
574.023	89.06
574.234	88.06
574.445	87.06
574.656	99.06
574.867	91.06
575.078	99.06
575.289	92.06
575.501	81.06
575.712	91.06
575.923	90.06
576.134	106.06
576.345	87.06
576.556	90.06
576.767	85.06
576.978	95.06
577.188	120.06
577.399	84.06
577.61	102.06
577.821	95.06
578.032	130.06
578.243	264.06
578.454	734.06
578.665	199.06
578.875	91.06
579.086	92.06
579.297	99.06
579.508	102.06
579.718	91.06
579.929	96.06
580.14	87.06
580.35	75.06
580.561	97.06
580.772	85.06
580.982	90.06
581.193	87.06
581.403	88.06
581.614	70.06
581.825	81.06
582.035	93.06
582.246	89.06
582.456	78.06
582.667	92.06
582.877	85.06
583.087	89.06
583.298	86.06
583.508	93.06
583.719	82.06
583.929	89.06
584.139	99.06
584.35	88.06
584.56	81.06
584.77	90.06
584.981	89.06
585.191	93.06
585.401	86.06
585.611	93.06
585.821	91.06
586.032	93.06
586.242	78.06
586.452	89.06
586.662	83.06
586.872	90.06
587.082	96.06
587.292	82.06
587.502	78.06
587.713	85.06
587.923	92.06
588.133	86.06
588.343	94.06
588.553	91.06
588.762	100.06
588.972	91.06
589.182	97.06
589.392	86.06
589.602	91.06
589.812	85.06
590.022	86.06
590.232	95.06
590.441	102.06
590.651	97.06
590.861	89.06
591.071	90.06
591.281	92.06
591.49	95.06
591.7	83.06
591.91	86.06
592.119	84.06
592.329	91.06
592.539	101.06
592.748	106.06
592.958	93.06
593.167	75.06
593.377	90.06
593.587	93.06
593.796	88.06
594.006	84.06
594.215	95.06
594.424	77.06
594.634	93.06
594.843	91.06
595.053	89.06
595.262	97.06
595.472	79.06
595.681	95.06
595.89	93.06
596.1	88.06
596.309	92.06
596.518	84.06
596.727	97.06
596.937	85.06
597.146	74.06
597.355	94.06
597.564	86.06
597.774	97.06
597.983	75.06
598.192	83.06
598.401	74.06
598.61	100.06
598.819	89.06
599.028	87.06
599.237	95.06
599.446	85.06
599.655	93.06
599.864	92.06
600.073	95.06
600.282	99.06
600.491	106.06
600.7	92.06
600.909	75.06
601.118	95.06
601.327	92.06
601.536	106.06
601.745	101.06
601.953	94.06
602.162	89.06
602.371	77.06
602.58	81.06
602.789	100.06
602.997	80.06
603.206	82.06
603.415	72.06
603.623	102.06
603.832	103.06
604.041	77.06
604.249	83.06
604.458	91.06
604.666	85.06
604.875	99.06
605.084	90.06
605.292	100.06
605.501	92.06
605.709	92.06
605.918	95.06
606.126	77.06
606.334	91.06
606.543	90.06
606.751	111.06
606.96	100.06
607.168	79.06
607.376	103.06
607.585	85.06
607.793	90.06
608.001	72.06
608.21	85.06
608.418	79.06
608.626	97.06
608.834	89.06
609.043	85.06
609.251	101.06
609.459	92.06
609.667	79.06
609.875	94.06
610.083	83.06
610.291	86.06
610.499	89.06
610.707	89.06
610.916	77.06
611.124	93.06
611.332	86.06
611.54	93.06
611.748	93.06
611.955	90.06
612.163	88.06
612.371	94.06
612.579	82.06
612.787	87.06
612.995	74.06
613.203	96.06
613.411	90.06
613.618	97.06
613.826	91.06
614.034	93.06
614.242	90.06
614.449	90.06
614.657	84.06
614.865	94.06
615.072	85.06
615.28	74.06
615.488	93.06
615.695	86.06
615.903	99.06
616.111	107.06
616.318	91.06
616.526	93.06
616.733	86.06
616.941	94.06
617.148	98.06
617.356	88.06
617.563	101.06
617.771	85.06
617.978	76.06
618.185	87.06
618.393	95.06
618.6	75.06
618.807	85.06
619.015	69.06
619.222	101.06
619.429	69.06
619.637	95.06
619.844	97.06
620.051	89.06
620.258	102.06
620.466	86.06
620.673	92.06
620.88	100.06
621.087	81.06
621.294	78.06
621.501	92.06
621.708	88.06
621.915	92.06
622.122	81.06
622.329	85.06
622.536	80.06
622.743	75.06
622.95	95.06
623.157	81.06
623.364	92.06
623.571	79.06
623.778	94.06
623.985	81.06
624.192	91.06
624.399	97.06
624.606	93.06
624.812	77.06
625.019	94.06
625.226	90.06
625.433	88.06
625.639	81.06
625.846	85.06
626.053	86.06
626.259	79.06
626.466	94.06
626.673	83.06
626.879	87.06
627.086	86.06
627.293	94.06
627.499	79.06
627.706	98.06
627.912	98.06
628.119	79.06
628.325	97.06
628.532	99.06
628.738	73.06
628.945	86.06
629.151	87.06
629.357	88.06
629.564	95.06
629.77	84.06
629.976	83.06
630.183	90.06
630.389	96.06
630.595	83.06
630.802	89.06
631.008	81.06
631.214	82.06
631.42	95.06
631.627	80.06
631.833	78.06
632.039	81.06
632.245	79.06
632.451	73.06
632.657	83.06
632.863	76.06
633.069	79.06
633.275	91.06
633.481	77.06
633.688	94.06
633.893	98.06
634.099	81.06
634.305	69.06
634.511	85.06
634.717	92.06
634.923	95.06
635.129	88.06
635.335	80.06
635.541	81.06
635.747	83.06
635.952	89.06
636.158	90.06
636.364	82.06
636.57	88.06
636.775	83.06
636.981	89.06
637.187	92.06
637.392	79.06
637.598	87.06
637.804	88.06
638.009	83.06
638.215	103.06
638.421	76.06
638.626	78.06
638.832	84.06
639.037	95.06
639.243	78.06
639.448	83.06
639.654	91.06
639.859	79.06
640.065	84.06
640.27	97.06
640.475	82.06
640.681	86.06
640.886	79.06
641.091	75.06
641.297	87.06
641.502	83.06
641.707	103.06
641.913	83.06
642.118	76.06
642.323	98.06
642.528	77.06
642.733	82.06
642.939	94.06
643.144	90.06
643.349	86.06
643.554	87.06
643.759	81.06
643.964	80.06
644.169	74.06
644.374	97.06
644.579	78.06
644.784	80.06
644.989	86.06
645.194	92.06
645.399	73.06
645.604	77.06
645.809	102.06
646.014	77.06
646.219	104.06
646.423	75.06
646.628	88.06
646.833	93.06
647.038	101.06
647.243	84.06
647.447	85.06
647.652	89.06
647.857	88.06
648.062	84.06
648.266	92.06
648.471	97.06
648.676	102.06
648.88	97.06
649.085	105.06
649.289	83.06
649.494	96.06
649.698	127.06
649.903	86.06
650.107	98.06
650.312	103.06
650.516	94.06
650.721	99.06
650.925	81.06
651.13	77.06
651.334	97.06
651.539	92.06
651.743	88.06
651.947	75.06
652.152	91.06
652.356	79.06
652.56	90.06
652.764	79.06
652.969	85.06
653.173	87.06
653.377	91.06
653.581	71.06
653.785	72.06
653.99	85.06
654.194	87.06
654.398	83.06
654.602	91.06
654.806	90.06
655.01	96.06
655.214	73.06
655.418	77.06
655.622	93.06
655.826	90.06
656.03	101.06
656.234	78.06
656.438	82.06
656.642	93.06
656.846	91.06
657.049	80.06
657.253	88.06
657.457	91.06
657.661	81.06
657.865	82.06
658.068	96.06
658.272	81.06
658.476	102.06
658.68	87.06
658.883	90.06
659.087	78.06
659.291	76.06
659.494	73.06
659.698	80.06
659.901	81.06
660.105	71.06
660.309	81.06
660.512	83.06
660.716	78.06
660.919	84.06
661.123	84.06
661.326	92.06
661.53	84.06
661.733	100.06
661.936	89.06
662.14	96.06
662.343	85.06
662.546	74.06
662.75	77.06
662.953	81.06
663.156	84.06
663.36	70.06
663.563	100.06
663.766	74.06
663.969	93.06
664.173	90.06
664.376	84.06
664.579	86.06
664.782	90.06
664.985	72.06
665.188	79.06
665.391	81.06
665.594	71.06
665.797	78.06
666	69.06
666.203	73.06
666.406	84.06
666.609	79.06
666.812	87.06
667.015	84.06
667.218	86.06
667.421	71.06
667.624	76.06
667.827	75.06
668.03	88.06
668.232	91.06
668.435	91.06
668.638	81.06
668.841	93.06
669.043	87.06
669.246	75.06
669.449	83.06
669.651	87.06
669.854	81.06
670.057	85.06
670.259	83.06
670.462	82.06
670.665	85.06
670.867	82.06
671.07	92.06
671.272	70.06
671.475	85.06
671.677	91.06
671.88	87.06
672.082	80.06
672.284	78.06
672.487	93.06
672.689	69.06
672.892	83.06
