Data from Uncirc_2001_H10_HRD10591_00074.txt Node
Date: Wed Jan 03 10:44:11 EST 2024
User: Yrep
Spectrometer: HR+D1059
Trigger mode: 1
Integration Time (sec): 1.000000E-1
Scans to average: 1
Electric dark correction enabled: true
Nonlinearity correction enabled: false
Boxcar width: 0
XAxis mode: Wavelengths
Number of Pixels in Spectrum: 2048
>>>>>Begin Spectral Data<<<<<
223.165	-6.81
223.4	-6.81
223.635	-6.81
223.869	-26.81
224.104	-29.81
224.338	-13.81
224.573	-19.81
224.808	-14.81
225.042	-15.81
225.277	-8.81
225.511	7.19
225.746	6.19
225.98	-3.81
226.215	22.19
226.449	19.19
226.683	32.19
226.918	29.19
227.152	24.19
227.387	15.19
227.621	32.19
227.856	52.19
228.09	50.19
228.324	46.19
228.559	55.19
228.793	48.19
229.027	42.19
229.262	73.19
229.496	72.19
229.73	80.19
229.964	85.19
230.199	79.19
230.433	60.19
230.667	80.19
230.901	87.19
231.136	72.19
231.37	68.19
231.604	78.19
231.838	75.19
232.072	82.19
232.306	67.19
232.541	89.19
232.775	80.19
233.009	81.19
233.243	76.19
233.477	78.19
233.711	76.19
233.945	62.19
234.179	72.19
234.413	91.19
234.647	73.19
234.881	83.19
235.115	80.19
235.349	73.19
235.583	84.19
235.817	78.19
236.051	70.19
236.285	84.19
236.519	74.19
236.753	84.19
236.987	80.19
237.221	76.19
237.455	82.19
237.689	84.19
237.922	75.19
238.156	82.19
238.39	76.19
238.624	84.19
238.858	65.19
239.091	75.19
239.325	74.19
239.559	80.19
239.793	76.19
240.027	63.19
240.26	79.19
240.494	89.19
240.728	80.19
240.961	90.19
241.195	67.19
241.429	84.19
241.662	71.19
241.896	67.19
242.13	75.19
242.363	76.19
242.597	79.19
242.83	69.19
243.064	81.19
243.298	73.19
243.531	75.19
243.765	81.19
243.998	76.19
244.232	69.19
244.465	79.19
244.699	74.19
244.932	73.19
245.166	67.19
245.399	83.19
245.633	88.19
245.866	70.19
246.099	70.19
246.333	71.19
246.566	60.19
246.8	72.19
247.033	73.19
247.266	81.19
247.5	55.19
247.733	70.19
247.966	80.19
248.2	83.19
248.433	80.19
248.666	82.19
248.899	90.19
249.133	86.19
249.366	97.19
249.599	82.19
249.832	84.19
250.066	70.19
250.299	80.19
250.532	72.19
250.765	69.19
250.998	86.19
251.231	75.19
251.465	90.19
251.698	72.19
251.931	66.19
252.164	83.19
252.397	76.19
252.63	72.19
252.863	69.19
253.096	82.19
253.329	87.19
253.562	91.19
253.795	82.19
254.028	73.19
254.261	75.19
254.494	85.19
254.727	82.19
254.96	76.19
255.193	82.19
255.426	76.19
255.659	77.19
255.892	86.19
256.124	62.19
256.357	80.19
256.59	77.19
256.823	77.19
257.056	56.19
257.289	83.19
257.521	75.19
257.754	94.19
257.987	89.19
258.22	76.19
258.452	82.19
258.685	86.19
258.918	75.19
259.151	87.19
259.383	67.19
259.616	81.19
259.849	77.19
260.081	84.19
260.314	70.19
260.547	76.19
260.779	70.19
261.012	95.19
261.244	89.19
261.477	83.19
261.71	88.19
261.942	99.19
262.175	112.19
262.407	88.19
262.64	87.19
262.872	82.19
263.105	82.19
263.337	84.19
263.57	89.19
263.802	75.19
264.035	78.19
264.267	88.19
264.499	88.19
264.732	79.19
264.964	73.19
265.197	84.19
265.429	85.19
265.661	86.19
265.894	72.19
266.126	66.19
266.358	75.19
266.591	87.19
266.823	78.19
267.055	78.19
267.287	88.19
267.52	79.19
267.752	82.19
267.984	73.19
268.216	81.19
268.448	77.19
268.681	88.19
268.913	84.19
269.145	79.19
269.377	77.19
269.609	78.19
269.841	90.19
270.073	92.19
270.306	74.19
270.538	83.19
270.77	89.19
271.002	108.19
271.234	82.19
271.466	86.19
271.698	83.19
271.93	92.19
272.162	72.19
272.394	89.19
272.626	85.19
272.858	82.19
273.09	88.19
273.322	80.19
273.553	77.19
273.785	82.19
274.017	90.19
274.249	102.19
274.481	82.19
274.713	83.19
274.945	84.19
275.176	100.19
275.408	96.19
275.64	98.19
275.872	74.19
276.104	77.19
276.335	88.19
276.567	81.19
276.799	88.19
277.031	84.19
277.262	68.19
277.494	78.19
277.726	83.19
277.957	81.19
278.189	87.19
278.421	86.19
278.652	80.19
278.884	79.19
279.115	86.19
279.347	93.19
279.579	95.19
279.81	88.19
280.042	91.19
280.273	70.19
280.505	64.19
280.736	84.19
280.968	86.19
281.199	87.19
281.431	100.19
281.662	80.19
281.894	82.19
282.125	92.19
282.356	118.19
282.588	127.19
282.819	123.19
283.051	82.19
283.282	77.19
283.513	95.19
283.745	87.19
283.976	88.19
284.207	95.19
284.439	71.19
284.67	81.19
284.901	82.19
285.132	92.19
285.364	72.19
285.595	84.19
285.826	72.19
286.057	81.19
286.288	85.19
286.52	91.19
286.751	84.19
286.982	80.19
287.213	77.19
287.444	84.19
287.675	79.19
287.906	78.19
288.138	90.19
288.369	95.19
288.6	96.19
288.831	86.19
289.062	82.19
289.293	102.19
289.524	89.19
289.755	91.19
289.986	87.19
290.217	94.19
290.448	88.19
290.679	86.19
290.91	90.19
291.141	99.19
291.371	90.19
291.602	91.19
291.833	85.19
292.064	90.19
292.295	91.19
292.526	95.19
292.757	85.19
292.987	76.19
293.218	98.19
293.449	90.19
293.68	91.19
293.91	95.19
294.141	85.19
294.372	65.19
294.603	76.19
294.833	88.19
295.064	86.19
295.295	88.19
295.525	98.19
295.756	87.19
295.987	117.19
296.217	130.19
296.448	108.19
296.679	88.19
296.909	88.19
297.14	79.19
297.37	93.19
297.601	86.19
297.831	99.19
298.062	87.19
298.292	81.19
298.523	88.19
298.753	84.19
298.984	94.19
299.214	87.19
299.445	101.19
299.675	108.19
299.905	97.19
300.136	92.19
300.366	85.19
300.597	88.19
300.827	86.19
301.057	92.19
301.288	96.19
301.518	93.19
301.748	78.19
301.979	102.19
302.209	85.19
302.439	98.19
302.669	87.19
302.9	87.19
303.13	86.19
303.36	87.19
303.59	84.19
303.82	106.19
304.051	91.19
304.281	90.19
304.511	102.19
304.741	77.19
304.971	96.19
305.201	95.19
305.431	85.19
305.661	86.19
305.891	104.19
306.121	100.19
306.352	94.19
306.582	96.19
306.812	103.19
307.042	91.19
307.272	91.19
307.502	83.19
307.731	89.19
307.961	81.19
308.191	97.19
308.421	84.19
308.651	84.19
308.881	82.19
309.111	88.19
309.341	93.19
309.571	88.19
309.8	97.19
310.03	92.19
310.26	105.19
310.49	93.19
310.72	96.19
310.949	81.19
311.179	96.19
311.409	94.19
311.639	80.19
311.868	81.19
312.098	90.19
312.328	80.19
312.557	91.19
312.787	96.19
313.017	107.19
313.246	87.19
313.476	98.19
313.706	88.19
313.935	96.19
314.165	96.19
314.394	93.19
314.624	105.19
314.853	99.19
315.083	106.19
315.312	78.19
315.542	80.19
315.771	88.19
316.001	84.19
316.23	82.19
316.46	80.19
316.689	90.19
316.919	93.19
317.148	108.19
317.377	94.19
317.607	84.19
317.836	79.19
318.065	96.19
318.295	80.19
318.524	87.19
318.753	89.19
318.983	101.19
319.212	96.19
319.441	103.19
319.67	95.19
319.9	76.19
320.129	80.19
320.358	100.19
320.587	99.19
320.816	102.19
321.046	97.19
321.275	102.19
321.504	90.19
321.733	87.19
321.962	106.19
322.191	120.19
322.42	98.19
322.649	93.19
322.878	101.19
323.108	111.19
323.337	115.19
323.566	118.19
323.795	141.19
324.024	192.19
324.253	352.19
324.482	732.19
324.71	1416.19
324.939	1808.19
325.168	671.19
325.397	224.19
325.626	138.19
325.855	135.19
326.084	125.19
326.313	116.19
326.542	150.19
326.77	187.19
326.999	407.19
327.228	801.19
327.457	1410.19
327.686	1117.19
327.914	326.19
328.143	163.19
328.372	122.19
328.6	120.19
328.829	105.19
329.058	120.19
329.287	108.19
329.515	103.19
329.744	104.19
329.972	96.19
330.201	91.19
330.43	94.19
330.658	111.19
330.887	131.19
331.115	112.19
331.344	96.19
331.572	97.19
331.801	101.19
332.03	106.19
332.258	74.19
332.486	80.19
332.715	105.19
332.943	84.19
333.172	90.19
333.4	87.19
333.629	91.19
333.857	116.19
334.085	105.19
334.314	104.19
334.542	100.19
334.771	99.19
334.999	86.19
335.227	75.19
335.455	92.19
335.684	102.19
335.912	90.19
336.14	89.19
336.369	102.19
336.597	101.19
336.825	96.19
337.053	88.19
337.281	83.19
337.51	90.19
337.738	75.19
337.966	86.19
338.194	89.19
338.422	95.19
338.65	106.19
338.878	84.19
339.106	86.19
339.334	92.19
339.562	96.19
339.79	84.19
340.018	86.19
340.246	100.19
340.474	107.19
340.702	92.19
340.93	78.19
341.158	94.19
341.386	86.19
341.614	89.19
341.842	110.19
342.07	93.19
342.298	82.19
342.526	96.19
342.754	97.19
342.981	102.19
343.209	91.19
343.437	82.19
343.665	78.19
343.893	91.19
344.12	93.19
344.348	93.19
344.576	84.19
344.804	97.19
345.031	102.19
345.259	95.19
345.487	96.19
345.714	72.19
345.942	85.19
346.17	90.19
346.397	95.19
346.625	92.19
346.853	87.19
347.08	83.19
347.308	87.19
347.535	91.19
347.763	90.19
347.99	91.19
348.218	90.19
348.445	107.19
348.673	92.19
348.9	104.19
349.128	99.19
349.355	96.19
349.583	85.19
349.81	100.19
350.037	90.19
350.265	87.19
350.492	84.19
350.72	94.19
350.947	100.19
351.174	108.19
351.402	107.19
351.629	114.19
351.856	106.19
352.083	103.19
352.311	117.19
352.538	99.19
352.765	111.19
352.992	115.19
353.22	104.19
353.447	96.19
353.674	104.19
353.901	99.19
354.128	99.19
354.355	102.19
354.583	83.19
354.81	94.19
355.037	90.19
355.264	80.19
355.491	96.19
355.718	80.19
355.945	90.19
356.172	83.19
356.399	84.19
356.626	102.19
356.853	91.19
357.08	95.19
357.307	84.19
357.534	92.19
357.761	99.19
357.988	109.19
358.215	110.19
358.441	90.19
358.668	82.19
358.895	85.19
359.122	79.19
359.349	76.19
359.576	100.19
359.802	99.19
360.029	110.19
360.256	106.19
360.483	87.19
360.709	74.19
360.936	100.19
361.163	98.19
361.39	97.19
361.616	80.19
361.843	73.19
362.07	78.19
362.296	82.19
362.523	90.19
362.749	86.19
362.976	79.19
363.203	89.19
363.429	94.19
363.656	92.19
363.882	88.19
364.109	92.19
364.335	82.19
364.562	85.19
364.788	90.19
365.015	98.19
365.241	96.19
365.468	100.19
365.694	99.19
365.92	103.19
366.147	85.19
366.373	87.19
366.599	78.19
366.826	85.19
367.052	96.19
367.278	93.19
367.505	91.19
367.731	95.19
367.957	96.19
368.184	76.19
368.41	84.19
368.636	121.19
368.862	100.19
369.089	116.19
369.315	112.19
369.541	72.19
369.767	79.19
369.993	92.19
370.219	85.19
370.445	97.19
370.672	101.19
370.898	86.19
371.124	72.19
371.35	94.19
371.576	89.19
371.802	72.19
372.028	82.19
372.254	86.19
372.48	75.19
372.706	96.19
372.932	85.19
373.158	84.19
373.384	83.19
373.61	93.19
373.835	88.19
374.061	88.19
374.287	98.19
374.513	83.19
374.739	90.19
374.965	87.19
375.191	90.19
375.416	83.19
375.642	84.19
375.868	75.19
376.094	79.19
376.319	99.19
376.545	81.19
376.771	65.19
376.997	86.19
377.222	92.19
377.448	88.19
377.674	82.19
377.899	84.19
378.125	87.19
378.35	100.19
378.576	90.19
378.802	91.19
379.027	88.19
379.253	92.19
379.478	87.19
379.704	94.19
379.929	88.19
380.155	89.19
380.38	86.19
380.606	78.19
380.831	84.19
381.057	99.19
381.282	90.19
381.507	96.19
381.733	104.19
381.958	95.19
382.184	84.19
382.409	87.19
382.634	106.19
382.86	90.19
383.085	98.19
383.31	106.19
383.535	92.19
383.761	94.19
383.986	87.19
384.211	87.19
384.436	95.19
384.662	107.19
384.887	93.19
385.112	109.19
385.337	94.19
385.562	99.19
385.787	92.19
386.013	113.19
386.238	105.19
386.463	92.19
386.688	109.19
386.913	102.19
387.138	99.19
387.363	103.19
387.588	93.19
387.813	102.19
388.038	102.19
388.263	110.19
388.488	122.19
388.713	99.19
388.938	85.19
389.163	90.19
389.387	96.19
389.612	99.19
389.837	102.19
390.062	100.19
390.287	90.19
390.512	94.19
390.736	92.19
390.961	86.19
391.186	97.19
391.411	88.19
391.636	86.19
391.86	92.19
392.085	81.19
392.31	98.19
392.534	90.19
392.759	81.19
392.984	83.19
393.208	103.19
393.433	100.19
393.658	92.19
393.882	88.19
394.107	81.19
394.331	97.19
394.556	82.19
394.78	87.19
395.005	88.19
395.229	85.19
395.454	91.19
395.678	86.19
395.903	88.19
396.127	82.19
396.352	86.19
396.576	83.19
396.801	98.19
397.025	71.19
397.249	82.19
397.474	95.19
397.698	77.19
397.922	92.19
398.147	88.19
398.371	90.19
398.595	95.19
398.82	91.19
399.044	77.19
399.268	85.19
399.492	87.19
399.717	84.19
399.941	85.19
400.165	92.19
400.389	93.19
400.613	94.19
400.837	88.19
401.062	80.19
401.286	82.19
401.51	98.19
401.734	105.19
401.958	96.19
402.182	119.19
402.406	159.19
402.63	107.19
402.854	93.19
403.078	80.19
403.302	74.19
403.526	87.19
403.75	96.19
403.974	80.19
404.198	80.19
404.422	77.19
404.645	92.19
404.869	85.19
405.093	82.19
405.317	96.19
405.541	80.19
405.765	101.19
405.988	119.19
406.212	171.19
406.436	212.19
406.66	129.19
406.883	87.19
407.107	87.19
407.331	100.19
407.555	105.19
407.778	104.19
408.002	95.19
408.226	79.19
408.449	76.19
408.673	91.19
408.896	75.19
409.12	93.19
409.344	87.19
409.567	88.19
409.791	88.19
410.014	93.19
410.238	92.19
410.461	86.19
410.685	95.19
410.908	100.19
411.132	102.19
411.355	98.19
411.578	90.19
411.802	76.19
412.025	89.19
412.249	94.19
412.472	95.19
412.695	88.19
412.919	74.19
413.142	88.19
413.365	87.19
413.589	83.19
413.812	74.19
414.035	85.19
414.258	83.19
414.482	86.19
414.705	111.19
414.928	88.19
415.151	86.19
415.374	81.19
415.597	106.19
415.821	97.19
416.044	98.19
416.267	67.19
416.49	90.19
416.713	88.19
416.936	94.19
417.159	89.19
417.382	99.19
417.605	86.19
417.828	78.19
418.051	80.19
418.274	89.19
418.497	78.19
418.72	106.19
418.943	99.19
419.166	84.19
419.389	85.19
419.611	80.19
419.834	86.19
420.057	90.19
420.28	85.19
420.503	62.19
420.726	89.19
420.948	78.19
421.171	79.19
421.394	88.19
421.617	87.19
421.839	83.19
422.062	99.19
422.285	78.19
422.507	99.19
422.73	104.19
422.953	102.19
423.175	82.19
423.398	86.19
423.621	91.19
423.843	78.19
424.066	89.19
424.288	70.19
424.511	96.19
424.733	97.19
424.956	80.19
425.178	96.19
425.401	102.19
425.623	95.19
425.846	101.19
426.068	95.19
426.291	90.19
426.513	87.19
426.735	92.19
426.958	89.19
427.18	103.19
427.402	124.19
427.625	172.19
427.847	120.19
428.069	96.19
428.292	84.19
428.514	88.19
428.736	77.19
428.958	98.19
429.181	78.19
429.403	79.19
429.625	86.19
429.847	92.19
430.069	86.19
430.292	100.19
430.514	87.19
430.736	81.19
430.958	89.19
431.18	84.19
431.402	84.19
431.624	97.19
431.846	84.19
432.068	80.19
432.29	86.19
432.512	77.19
432.734	87.19
432.956	84.19
433.178	106.19
433.4	96.19
433.622	85.19
433.844	92.19
434.066	75.19
434.287	91.19
434.509	79.19
434.731	92.19
434.953	90.19
435.175	92.19
435.397	86.19
435.618	90.19
435.84	100.19
436.062	116.19
436.284	110.19
436.505	97.19
436.727	106.19
436.949	78.19
437.17	85.19
437.392	88.19
437.614	93.19
437.835	94.19
438.057	110.19
438.278	103.19
438.5	103.19
438.721	119.19
438.943	102.19
439.165	92.19
439.386	89.19
439.608	92.19
439.829	91.19
440.05	113.19
440.272	118.19
440.493	96.19
440.715	85.19
440.936	87.19
441.158	89.19
441.379	83.19
441.6	84.19
441.822	83.19
442.043	82.19
442.264	94.19
442.486	103.19
442.707	91.19
442.928	90.19
443.149	131.19
443.371	114.19
443.592	102.19
443.813	121.19
444.034	94.19
444.255	80.19
444.476	87.19
444.698	85.19
444.919	94.19
445.14	118.19
445.361	111.19
445.582	121.19
445.803	132.19
446.024	120.19
446.245	124.19
446.466	96.19
446.687	84.19
446.908	91.19
447.129	82.19
447.35	84.19
447.571	91.19
447.792	81.19
448.013	100.19
448.234	103.19
448.455	102.19
448.675	105.19
448.896	124.19
449.117	114.19
449.338	100.19
449.559	112.19
449.779	115.19
450	74.19
450.221	87.19
450.442	62.19
450.662	79.19
450.883	97.19
451.104	103.19
451.324	94.19
451.545	94.19
451.766	82.19
451.986	79.19
452.207	98.19
452.428	92.19
452.648	111.19
452.869	103.19
453.089	103.19
453.31	124.19
453.53	87.19
453.751	100.19
453.971	99.19
454.192	100.19
454.412	86.19
454.633	89.19
454.853	82.19
455.073	90.19
455.294	86.19
455.514	98.19
455.734	85.19
455.955	84.19
456.175	87.19
456.395	95.19
456.616	92.19
456.836	91.19
457.056	77.19
457.276	85.19
457.497	83.19
457.717	75.19
457.937	85.19
458.157	96.19
458.377	91.19
458.598	115.19
458.818	147.19
459.038	136.19
459.258	115.19
459.478	87.19
459.698	90.19
459.918	83.19
460.138	82.19
460.358	79.19
460.578	76.19
460.798	101.19
461.018	85.19
461.238	88.19
461.458	86.19
461.678	81.19
461.898	87.19
462.118	92.19
462.338	78.19
462.558	83.19
462.777	87.19
462.997	92.19
463.217	76.19
463.437	80.19
463.657	83.19
463.876	83.19
464.096	86.19
464.316	99.19
464.536	79.19
464.755	95.19
464.975	108.19
465.195	166.19
465.414	148.19
465.634	83.19
465.854	97.19
466.073	90.19
466.293	91.19
466.512	82.19
466.732	86.19
466.951	86.19
467.171	79.19
467.391	88.19
467.61	99.19
467.829	88.19
468.049	96.19
468.268	80.19
468.488	83.19
468.707	89.19
468.927	87.19
469.146	83.19
469.365	80.19
469.585	98.19
469.804	90.19
470.023	99.19
470.243	88.19
470.462	84.19
470.681	110.19
470.901	89.19
471.12	89.19
471.339	88.19
471.558	78.19
471.777	88.19
471.997	86.19
472.216	88.19
472.435	99.19
472.654	93.19
472.873	78.19
473.092	88.19
473.311	80.19
473.53	87.19
473.749	88.19
473.968	123.19
474.187	95.19
474.406	96.19
474.625	75.19
474.844	86.19
475.063	70.19
475.282	73.19
475.501	85.19
475.72	85.19
475.939	88.19
476.158	84.19
476.377	77.19
476.596	72.19
476.814	88.19
477.033	87.19
477.252	86.19
477.471	81.19
477.69	98.19
477.908	90.19
478.127	83.19
478.346	87.19
478.564	92.19
478.783	90.19
479.002	99.19
479.22	96.19
479.439	107.19
479.658	91.19
479.876	95.19
480.095	84.19
480.313	95.19
480.532	98.19
480.751	91.19
480.969	81.19
481.188	89.19
481.406	118.19
481.624	88.19
481.843	74.19
482.061	83.19
482.28	83.19
482.498	97.19
482.717	86.19
482.935	86.19
483.153	86.19
483.372	87.19
483.59	91.19
483.808	92.19
484.027	82.19
484.245	83.19
484.463	95.19
484.681	91.19
484.9	83.19
485.118	111.19
485.336	106.19
485.554	103.19
485.772	94.19
485.99	97.19
486.209	97.19
486.427	100.19
486.645	96.19
486.863	110.19
487.081	104.19
487.299	97.19
487.517	95.19
487.735	86.19
487.953	86.19
488.171	97.19
488.389	96.19
488.607	93.19
488.825	84.19
489.043	85.19
489.261	84.19
489.479	85.19
489.696	95.19
489.914	79.19
490.132	95.19
490.35	81.19
490.568	83.19
490.786	80.19
491.003	74.19
491.221	91.19
491.439	95.19
491.657	84.19
491.874	80.19
492.092	91.19
492.31	91.19
492.527	89.19
492.745	92.19
492.963	103.19
493.18	90.19
493.398	91.19
493.615	96.19
493.833	81.19
494.05	86.19
494.268	87.19
494.485	80.19
494.703	89.19
494.92	87.19
495.138	75.19
495.355	81.19
495.573	85.19
495.79	80.19
496.008	75.19
496.225	79.19
496.442	82.19
496.66	74.19
496.877	81.19
497.094	78.19
497.312	90.19
497.529	82.19
497.746	84.19
497.963	87.19
498.181	78.19
498.398	84.19
498.615	112.19
498.832	97.19
499.049	83.19
499.267	82.19
499.484	65.19
499.701	82.19
499.918	104.19
500.135	77.19
500.352	98.19
500.569	103.19
500.786	95.19
501.003	93.19
501.22	86.19
501.437	97.19
501.654	92.19
501.871	118.19
502.088	94.19
502.305	85.19
502.522	89.19
502.739	81.19
502.956	79.19
503.172	75.19
503.389	106.19
503.606	86.19
503.823	91.19
504.04	82.19
504.256	91.19
504.473	94.19
504.69	91.19
504.907	83.19
505.123	83.19
505.34	80.19
505.557	89.19
505.773	86.19
505.99	96.19
506.207	84.19
506.423	93.19
506.64	80.19
506.856	78.19
507.073	92.19
507.289	89.19
507.506	101.19
507.722	98.19
507.939	103.19
508.155	88.19
508.372	100.19
508.588	114.19
508.805	97.19
509.021	88.19
509.238	97.19
509.454	107.19
509.67	101.19
509.887	118.19
510.103	120.19
510.319	196.19
510.536	747.19
510.752	2210.19
510.968	614.19
511.184	162.19
511.401	97.19
511.617	84.19
511.833	86.19
512.049	97.19
512.265	95.19
512.481	92.19
512.698	102.19
512.914	100.19
513.13	83.19
513.346	108.19
513.562	90.19
513.778	87.19
513.994	101.19
514.21	106.19
514.426	122.19
514.642	144.19
514.858	122.19
515.074	154.19
515.29	458.19
515.506	1395.19
515.721	520.19
515.937	157.19
516.153	114.19
516.369	81.19
516.585	98.19
516.801	93.19
517.016	95.19
517.232	86.19
517.448	86.19
517.664	103.19
517.879	82.19
518.095	107.19
518.311	101.19
518.527	77.19
518.742	89.19
518.958	101.19
519.173	90.19
519.389	89.19
519.605	96.19
519.82	103.19
520.036	110.19
520.251	127.19
520.467	114.19
520.682	105.19
520.898	99.19
521.113	115.19
521.329	136.19
521.544	214.19
521.76	559.19
521.975	2326.19
522.19	1373.19
522.406	284.19
522.621	128.19
522.836	92.19
523.052	102.19
523.267	86.19
523.482	96.19
523.698	94.19
523.913	111.19
524.128	97.19
524.343	106.19
524.559	82.19
524.774	67.19
524.989	96.19
525.204	113.19
525.419	85.19
525.634	86.19
525.849	95.19
526.064	98.19
526.28	97.19
526.495	84.19
526.71	86.19
526.925	82.19
527.14	91.19
527.355	90.19
527.57	92.19
527.785	96.19
527.999	107.19
528.214	99.19
528.429	89.19
528.644	90.19
528.859	88.19
529.074	97.19
529.289	111.19
529.503	169.19
529.718	96.19
529.933	84.19
530.148	83.19
530.363	97.19
530.577	92.19
530.792	89.19
531.007	95.19
531.221	65.19
531.436	80.19
531.651	100.19
531.865	78.19
532.08	89.19
532.295	98.19
532.509	84.19
532.724	78.19
532.938	89.19
533.153	92.19
533.367	91.19
533.582	102.19
533.796	91.19
534.011	83.19
534.225	83.19
534.44	88.19
534.654	90.19
534.868	83.19
535.083	86.19
535.297	77.19
535.511	88.19
535.726	94.19
535.94	83.19
536.154	86.19
536.369	90.19
536.583	91.19
536.797	78.19
537.011	92.19
537.225	84.19
537.44	76.19
537.654	97.19
537.868	84.19
538.082	85.19
538.296	86.19
538.51	83.19
538.724	101.19
538.938	94.19
539.153	101.19
539.367	98.19
539.581	90.19
539.795	82.19
540.009	83.19
540.222	85.19
540.436	71.19
540.65	90.19
540.864	88.19
541.078	88.19
541.292	73.19
541.506	65.19
541.72	100.19
541.934	87.19
542.147	88.19
542.361	84.19
542.575	86.19
542.789	101.19
543.002	80.19
543.216	82.19
543.43	81.19
543.644	95.19
543.857	90.19
544.071	82.19
544.285	91.19
544.498	84.19
544.712	88.19
544.925	89.19
545.139	101.19
545.352	103.19
545.566	89.19
545.779	78.19
545.993	84.19
546.206	88.19
546.42	83.19
546.633	88.19
546.847	85.19
547.06	81.19
547.274	88.19
547.487	83.19
547.7	87.19
547.914	93.19
548.127	100.19
548.34	83.19
548.554	82.19
548.767	92.19
548.98	83.19
549.193	78.19
549.407	103.19
549.62	79.19
549.833	86.19
550.046	94.19
550.259	85.19
550.473	85.19
550.686	91.19
550.899	89.19
551.112	78.19
551.325	86.19
551.538	73.19
551.751	88.19
551.964	99.19
552.177	99.19
552.39	96.19
552.603	96.19
552.816	90.19
553.029	90.19
553.242	86.19
553.455	89.19
553.667	102.19
553.88	98.19
554.093	83.19
554.306	92.19
554.519	88.19
554.732	85.19
554.944	88.19
555.157	82.19
555.37	82.19
555.583	97.19
555.795	92.19
556.008	91.19
556.221	85.19
556.433	92.19
556.646	85.19
556.859	97.19
557.071	88.19
557.284	89.19
557.496	76.19
557.709	99.19
557.921	88.19
558.134	100.19
558.346	97.19
558.559	80.19
558.771	80.19
558.984	91.19
559.196	75.19
559.409	82.19
559.621	79.19
559.833	90.19
560.046	74.19
560.258	92.19
560.47	88.19
560.683	75.19
560.895	83.19
561.107	80.19
561.32	92.19
561.532	88.19
561.744	80.19
561.956	76.19
562.168	72.19
562.381	91.19
562.593	96.19
562.805	98.19
563.017	83.19
563.229	86.19
563.441	83.19
563.653	86.19
563.865	88.19
564.077	68.19
564.289	86.19
564.501	97.19
564.713	83.19
564.925	81.19
565.137	87.19
565.349	81.19
565.561	80.19
565.773	94.19
565.985	82.19
566.197	92.19
566.408	88.19
566.62	80.19
566.832	84.19
567.044	87.19
567.255	101.19
567.467	90.19
567.679	87.19
567.891	99.19
568.102	84.19
568.314	73.19
568.526	85.19
568.737	83.19
568.949	98.19
569.161	84.19
569.372	97.19
569.584	90.19
569.795	93.19
570.007	107.19
570.218	260.19
570.43	130.19
570.641	80.19
570.853	78.19
571.064	76.19
571.276	80.19
571.487	79.19
571.698	97.19
571.91	80.19
572.121	102.19
572.333	86.19
572.544	81.19
572.755	94.19
572.966	95.19
573.178	87.19
573.389	86.19
573.6	82.19
573.811	100.19
574.023	87.19
574.234	91.19
574.445	80.19
574.656	88.19
574.867	84.19
575.078	85.19
575.289	89.19
575.501	82.19
575.712	86.19
575.923	89.19
576.134	82.19
576.345	82.19
576.556	81.19
576.767	82.19
576.978	91.19
577.188	72.19
577.399	84.19
577.61	86.19
577.821	105.19
578.032	113.19
578.243	268.19
578.454	740.19
578.665	228.19
578.875	103.19
579.086	100.19
579.297	99.19
579.508	102.19
579.718	87.19
579.929	102.19
580.14	75.19
580.35	87.19
580.561	88.19
580.772	77.19
580.982	96.19
581.193	72.19
581.403	101.19
581.614	80.19
581.825	92.19
582.035	92.19
582.246	80.19
582.456	90.19
582.667	85.19
582.877	80.19
583.087	95.19
583.298	83.19
583.508	79.19
583.719	81.19
583.929	85.19
584.139	85.19
584.35	85.19
584.56	87.19
584.77	91.19
584.981	77.19
585.191	86.19
585.401	91.19
585.611	90.19
585.821	90.19
586.032	75.19
586.242	85.19
586.452	89.19
586.662	92.19
586.872	101.19
587.082	87.19
587.292	91.19
587.502	75.19
587.713	91.19
587.923	87.19
588.133	80.19
588.343	77.19
588.553	95.19
588.762	89.19
588.972	95.19
589.182	87.19
589.392	89.19
589.602	92.19
589.812	72.19
590.022	91.19
590.232	92.19
590.441	91.19
590.651	96.19
590.861	88.19
591.071	82.19
591.281	99.19
591.49	79.19
591.7	91.19
591.91	93.19
592.119	82.19
592.329	95.19
592.539	79.19
592.748	89.19
592.958	97.19
593.167	84.19
593.377	87.19
593.587	95.19
593.796	88.19
594.006	82.19
594.215	91.19
594.424	82.19
594.634	76.19
594.843	83.19
595.053	69.19
595.262	85.19
595.472	85.19
595.681	87.19
595.89	87.19
596.1	72.19
596.309	85.19
596.518	88.19
596.727	79.19
596.937	68.19
597.146	85.19
597.355	92.19
597.564	78.19
597.774	90.19
597.983	83.19
598.192	94.19
598.401	87.19
598.61	89.19
598.819	86.19
599.028	82.19
599.237	84.19
599.446	86.19
599.655	88.19
599.864	89.19
600.073	82.19
600.282	78.19
600.491	80.19
600.7	88.19
600.909	106.19
601.118	88.19
601.327	86.19
601.536	79.19
601.745	74.19
601.953	84.19
602.162	95.19
602.371	81.19
602.58	88.19
602.789	97.19
602.997	86.19
603.206	80.19
603.415	98.19
603.623	70.19
603.832	91.19
604.041	80.19
604.249	88.19
604.458	89.19
604.666	93.19
604.875	78.19
605.084	84.19
605.292	79.19
605.501	86.19
605.709	90.19
605.918	85.19
606.126	76.19
606.334	95.19
606.543	94.19
606.751	88.19
606.96	83.19
607.168	79.19
607.376	94.19
607.585	97.19
607.793	94.19
608.001	77.19
608.21	88.19
608.418	91.19
608.626	95.19
608.834	78.19
609.043	86.19
609.251	82.19
609.459	88.19
609.667	92.19
609.875	95.19
610.083	84.19
610.291	77.19
610.499	69.19
610.707	83.19
610.916	78.19
611.124	83.19
611.332	83.19
611.54	71.19
611.748	76.19
611.955	86.19
612.163	89.19
612.371	97.19
612.579	82.19
612.787	84.19
612.995	82.19
613.203	91.19
613.411	74.19
613.618	80.19
613.826	88.19
614.034	86.19
614.242	84.19
614.449	77.19
614.657	84.19
614.865	85.19
615.072	85.19
615.28	93.19
615.488	91.19
615.695	95.19
615.903	95.19
616.111	98.19
616.318	106.19
616.526	97.19
616.733	94.19
616.941	74.19
617.148	90.19
617.356	86.19
617.563	86.19
617.771	92.19
617.978	91.19
618.185	98.19
618.393	87.19
618.6	79.19
618.807	98.19
619.015	95.19
619.222	86.19
619.429	89.19
619.637	95.19
619.844	101.19
620.051	73.19
620.258	86.19
620.466	89.19
620.673	86.19
620.88	88.19
621.087	74.19
621.294	86.19
621.501	82.19
621.708	92.19
621.915	87.19
622.122	82.19
622.329	91.19
622.536	90.19
622.743	87.19
622.95	96.19
623.157	84.19
623.364	99.19
623.571	95.19
623.778	83.19
623.985	95.19
624.192	77.19
624.399	89.19
624.606	90.19
624.812	80.19
625.019	87.19
625.226	86.19
625.433	80.19
625.639	73.19
625.846	77.19
626.053	72.19
626.259	65.19
626.466	80.19
626.673	75.19
626.879	85.19
627.086	79.19
627.293	92.19
627.499	85.19
627.706	75.19
627.912	67.19
628.119	74.19
628.325	85.19
628.532	75.19
628.738	70.19
628.945	82.19
629.151	76.19
629.357	78.19
629.564	81.19
629.77	70.19
629.976	86.19
630.183	93.19
630.389	96.19
630.595	67.19
630.802	97.19
631.008	89.19
631.214	81.19
631.42	89.19
631.627	91.19
631.833	77.19
632.039	93.19
632.245	79.19
632.451	96.19
632.657	92.19
632.863	86.19
633.069	72.19
633.275	83.19
633.481	88.19
633.688	75.19
633.893	95.19
634.099	98.19
634.305	89.19
634.511	91.19
634.717	88.19
634.923	92.19
635.129	92.19
635.335	82.19
635.541	92.19
635.747	95.19
635.952	88.19
636.158	84.19
636.364	80.19
636.57	74.19
636.775	80.19
636.981	75.19
637.187	68.19
637.392	77.19
637.598	82.19
637.804	84.19
638.009	74.19
638.215	81.19
638.421	82.19
638.626	79.19
638.832	101.19
639.037	74.19
639.243	83.19
639.448	88.19
639.654	85.19
639.859	79.19
640.065	75.19
640.27	90.19
640.475	58.19
640.681	80.19
640.886	91.19
641.091	76.19
641.297	95.19
641.502	86.19
641.707	91.19
641.913	75.19
642.118	85.19
642.323	81.19
642.528	85.19
642.733	82.19
642.939	66.19
643.144	82.19
643.349	84.19
643.554	73.19
643.759	72.19
643.964	74.19
644.169	87.19
644.374	97.19
644.579	89.19
644.784	75.19
644.989	100.19
645.194	78.19
645.399	80.19
645.604	77.19
645.809	85.19
646.014	79.19
646.219	83.19
646.423	73.19
646.628	93.19
646.833	82.19
647.038	81.19
647.243	87.19
647.447	73.19
647.652	83.19
647.857	74.19
648.062	87.19
648.266	87.19
648.471	96.19
648.676	102.19
648.88	85.19
649.085	77.19
649.289	82.19
649.494	99.19
649.698	122.19
649.903	103.19
650.107	90.19
650.312	92.19
650.516	82.19
650.721	73.19
650.925	66.19
651.13	99.19
651.334	83.19
651.539	93.19
651.743	84.19
651.947	84.19
652.152	80.19
652.356	91.19
652.56	72.19
652.764	69.19
652.969	99.19
653.173	84.19
653.377	98.19
653.581	76.19
653.785	97.19
653.99	87.19
654.194	71.19
654.398	83.19
654.602	98.19
654.806	98.19
655.01	94.19
655.214	87.19
655.418	86.19
655.622	70.19
655.826	76.19
656.03	78.19
656.234	96.19
656.438	84.19
656.642	98.19
656.846	78.19
657.049	97.19
657.253	85.19
657.457	86.19
657.661	87.19
657.865	66.19
658.068	73.19
658.272	75.19
658.476	83.19
658.68	92.19
658.883	98.19
659.087	81.19
659.291	81.19
659.494	87.19
659.698	74.19
659.901	84.19
660.105	91.19
660.309	83.19
660.512	86.19
660.716	84.19
660.919	78.19
661.123	72.19
661.326	72.19
661.53	91.19
661.733	80.19
661.936	76.19
662.14	72.19
662.343	89.19
662.546	83.19
662.75	85.19
662.953	88.19
663.156	83.19
663.36	68.19
663.563	78.19
663.766	89.19
663.969	90.19
664.173	80.19
664.376	86.19
664.579	78.19
664.782	85.19
664.985	83.19
665.188	78.19
665.391	74.19
665.594	67.19
665.797	78.19
666	88.19
666.203	94.19
666.406	83.19
666.609	86.19
666.812	66.19
667.015	73.19
667.218	91.19
667.421	59.19
667.624	82.19
667.827	79.19
668.03	74.19
668.232	78.19
668.435	85.19
668.638	76.19
668.841	74.19
669.043	64.19
669.246	72.19
669.449	92.19
669.651	87.19
669.854	93.19
670.057	82.19
670.259	76.19
670.462	83.19
670.665	75.19
670.867	94.19
671.07	74.19
671.272	91.19
671.475	87.19
671.677	85.19
671.88	73.19
672.082	83.19
672.284	93.19
672.487	90.19
672.689	84.19
672.892	77.19
