Data from Uncirc_2001_H10_HRD10591_00071.txt Node
Date: Wed Jan 03 10:44:11 EST 2024
User: Yrep
Spectrometer: HR+D1059
Trigger mode: 1
Integration Time (sec): 1.000000E-1
Scans to average: 1
Electric dark correction enabled: true
Nonlinearity correction enabled: false
Boxcar width: 0
XAxis mode: Wavelengths
Number of Pixels in Spectrum: 2048
>>>>>Begin Spectral Data<<<<<
223.165	-28.69
223.4	-28.69
223.635	-28.69
223.869	-26.69
224.104	-23.69
224.338	-22.69
224.573	-23.69
224.808	-9.69
225.042	5.31
225.277	22.31
225.511	13.31
225.746	3.31
225.98	0.31
226.215	15.31
226.449	11.31
226.683	17.31
226.918	28.31
227.152	18.31
227.387	51.31
227.621	49.31
227.856	43.31
228.09	52.31
228.324	59.31
228.559	37.31
228.793	44.31
229.027	69.31
229.262	74.31
229.496	68.31
229.73	86.31
229.964	80.31
230.199	70.31
230.433	71.31
230.667	82.31
230.901	68.31
231.136	66.31
231.37	85.31
231.604	86.31
231.838	86.31
232.072	72.31
232.306	80.31
232.541	76.31
232.775	78.31
233.009	76.31
233.243	74.31
233.477	82.31
233.711	76.31
233.945	91.31
234.179	73.31
234.413	72.31
234.647	96.31
234.881	76.31
235.115	83.31
235.349	75.31
235.583	92.31
235.817	73.31
236.051	81.31
236.285	80.31
236.519	75.31
236.753	82.31
236.987	80.31
237.221	85.31
237.455	92.31
237.689	83.31
237.922	59.31
238.156	70.31
238.39	91.31
238.624	81.31
238.858	84.31
239.091	64.31
239.325	78.31
239.559	83.31
239.793	73.31
240.027	88.31
240.26	79.31
240.494	85.31
240.728	80.31
240.961	83.31
241.195	77.31
241.429	77.31
241.662	65.31
241.896	78.31
242.13	82.31
242.363	65.31
242.597	64.31
242.83	77.31
243.064	86.31
243.298	80.31
243.531	91.31
243.765	76.31
243.998	85.31
244.232	95.31
244.465	80.31
244.699	66.31
244.932	70.31
245.166	95.31
245.399	74.31
245.633	84.31
245.866	94.31
246.099	79.31
246.333	91.31
246.566	73.31
246.8	72.31
247.033	71.31
247.266	68.31
247.5	73.31
247.733	77.31
247.966	83.31
248.2	79.31
248.433	72.31
248.666	96.31
248.899	85.31
249.133	90.31
249.366	93.31
249.599	99.31
249.832	87.31
250.066	70.31
250.299	80.31
250.532	90.31
250.765	77.31
250.998	78.31
251.231	89.31
251.465	76.31
251.698	70.31
251.931	86.31
252.164	69.31
252.397	80.31
252.63	72.31
252.863	84.31
253.096	78.31
253.329	87.31
253.562	82.31
253.795	86.31
254.028	85.31
254.261	81.31
254.494	75.31
254.727	94.31
254.96	71.31
255.193	83.31
255.426	99.31
255.659	89.31
255.892	82.31
256.124	87.31
256.357	80.31
256.59	67.31
256.823	73.31
257.056	71.31
257.289	74.31
257.521	77.31
257.754	77.31
257.987	78.31
258.22	88.31
258.452	59.31
258.685	89.31
258.918	82.31
259.151	80.31
259.383	82.31
259.616	72.31
259.849	90.31
260.081	88.31
260.314	95.31
260.547	89.31
260.779	93.31
261.012	81.31
261.244	86.31
261.477	80.31
261.71	90.31
261.942	101.31
262.175	125.31
262.407	113.31
262.64	81.31
262.872	82.31
263.105	77.31
263.337	92.31
263.57	73.31
263.802	93.31
264.035	88.31
264.267	89.31
264.499	88.31
264.732	81.31
264.964	84.31
265.197	81.31
265.429	90.31
265.661	84.31
265.894	98.31
266.126	80.31
266.358	88.31
266.591	73.31
266.823	84.31
267.055	80.31
267.287	79.31
267.52	92.31
267.752	86.31
267.984	80.31
268.216	90.31
268.448	85.31
268.681	91.31
268.913	95.31
269.145	80.31
269.377	83.31
269.609	73.31
269.841	79.31
270.073	84.31
270.306	83.31
270.538	72.31
270.77	74.31
271.002	77.31
271.234	91.31
271.466	79.31
271.698	86.31
271.93	81.31
272.162	90.31
272.394	80.31
272.626	88.31
272.858	77.31
273.09	91.31
273.322	80.31
273.553	91.31
273.785	83.31
274.017	97.31
274.249	88.31
274.481	92.31
274.713	95.31
274.945	91.31
275.176	81.31
275.408	81.31
275.64	74.31
275.872	106.31
276.104	88.31
276.335	89.31
276.567	105.31
276.799	96.31
277.031	86.31
277.262	96.31
277.494	92.31
277.726	87.31
277.957	92.31
278.189	82.31
278.421	88.31
278.652	88.31
278.884	90.31
279.115	93.31
279.347	73.31
279.579	109.31
279.81	98.31
280.042	81.31
280.273	89.31
280.505	96.31
280.736	81.31
280.968	87.31
281.199	71.31
281.431	75.31
281.662	83.31
281.894	80.31
282.125	102.31
282.356	112.31
282.588	155.31
282.819	117.31
283.051	90.31
283.282	85.31
283.513	97.31
283.745	81.31
283.976	80.31
284.207	91.31
284.439	83.31
284.67	86.31
284.901	92.31
285.132	83.31
285.364	90.31
285.595	89.31
285.826	82.31
286.057	101.31
286.288	87.31
286.52	78.31
286.751	87.31
286.982	82.31
287.213	92.31
287.444	84.31
287.675	97.31
287.906	97.31
288.138	96.31
288.369	102.31
288.6	87.31
288.831	87.31
289.062	76.31
289.293	82.31
289.524	94.31
289.755	75.31
289.986	91.31
290.217	102.31
290.448	95.31
290.679	73.31
290.91	84.31
291.141	89.31
291.371	93.31
291.602	87.31
291.833	90.31
292.064	74.31
292.295	99.31
292.526	85.31
292.757	101.31
292.987	90.31
293.218	92.31
293.449	84.31
293.68	102.31
293.91	90.31
294.141	92.31
294.372	85.31
294.603	84.31
294.833	82.31
295.064	90.31
295.295	74.31
295.525	78.31
295.756	107.31
295.987	104.31
296.217	144.31
296.448	123.31
296.679	106.31
296.909	79.31
297.14	100.31
297.37	94.31
297.601	96.31
297.831	93.31
298.062	90.31
298.292	84.31
298.523	78.31
298.753	85.31
298.984	92.31
299.214	91.31
299.445	82.31
299.675	89.31
299.905	98.31
300.136	97.31
300.366	81.31
300.597	86.31
300.827	92.31
301.057	99.31
301.288	111.31
301.518	98.31
301.748	79.31
301.979	95.31
302.209	93.31
302.439	76.31
302.669	87.31
302.9	79.31
303.13	84.31
303.36	94.31
303.59	81.31
303.82	98.31
304.051	103.31
304.281	90.31
304.511	89.31
304.741	76.31
304.971	91.31
305.201	73.31
305.431	80.31
305.661	84.31
305.891	88.31
306.121	93.31
306.352	114.31
306.582	90.31
306.812	87.31
307.042	88.31
307.272	86.31
307.502	91.31
307.731	89.31
307.961	101.31
308.191	107.31
308.421	97.31
308.651	88.31
308.881	95.31
309.111	90.31
309.341	96.31
309.571	82.31
309.8	100.31
310.03	111.31
310.26	94.31
310.49	98.31
310.72	116.31
310.949	104.31
311.179	114.31
311.409	96.31
311.639	101.31
311.868	98.31
312.098	106.31
312.328	83.31
312.557	101.31
312.787	100.31
313.017	108.31
313.246	89.31
313.476	96.31
313.706	94.31
313.935	91.31
314.165	90.31
314.394	80.31
314.624	110.31
314.853	91.31
315.083	95.31
315.312	92.31
315.542	107.31
315.771	86.31
316.001	88.31
316.23	109.31
316.46	78.31
316.689	97.31
316.919	99.31
317.148	87.31
317.377	107.31
317.607	104.31
317.836	91.31
318.065	95.31
318.295	88.31
318.524	78.31
318.753	91.31
318.983	95.31
319.212	108.31
319.441	113.31
319.67	101.31
319.9	101.31
320.129	100.31
320.358	82.31
320.587	108.31
320.816	107.31
321.046	99.31
321.275	100.31
321.504	94.31
321.733	91.31
321.962	106.31
322.191	115.31
322.42	104.31
322.649	110.31
322.878	110.31
323.108	109.31
323.337	123.31
323.566	135.31
323.795	157.31
324.024	187.31
324.253	398.31
324.482	772.31
324.71	1548.31
324.939	1997.31
325.168	733.31
325.397	238.31
325.626	157.31
325.855	119.31
326.084	123.31
326.313	128.31
326.542	136.31
326.77	219.31
326.999	438.31
327.228	872.31
327.457	1548.31
327.686	1192.31
327.914	338.31
328.143	192.31
328.372	137.31
328.6	128.31
328.829	113.31
329.058	126.31
329.287	131.31
329.515	107.31
329.744	93.31
329.972	84.31
330.201	109.31
330.43	108.31
330.658	109.31
330.887	142.31
331.115	126.31
331.344	104.31
331.572	102.31
331.801	103.31
332.03	100.31
332.258	106.31
332.486	82.31
332.715	66.31
332.943	84.31
333.172	85.31
333.4	82.31
333.629	113.31
333.857	128.31
334.085	105.31
334.314	98.31
334.542	98.31
334.771	88.31
334.999	96.31
335.227	98.31
335.455	108.31
335.684	95.31
335.912	110.31
336.14	98.31
336.369	85.31
336.597	94.31
336.825	105.31
337.053	92.31
337.281	94.31
337.51	84.31
337.738	89.31
337.966	101.31
338.194	94.31
338.422	93.31
338.65	95.31
338.878	93.31
339.106	102.31
339.334	99.31
339.562	100.31
339.79	91.31
340.018	101.31
340.246	115.31
340.474	97.31
340.702	100.31
340.93	87.31
341.158	93.31
341.386	100.31
341.614	105.31
341.842	89.31
342.07	94.31
342.298	93.31
342.526	80.31
342.754	84.31
342.981	88.31
343.209	89.31
343.437	99.31
343.665	91.31
343.893	82.31
344.12	92.31
344.348	96.31
344.576	92.31
344.804	99.31
345.031	88.31
345.259	102.31
345.487	89.31
345.714	98.31
345.942	103.31
346.17	94.31
346.397	91.31
346.625	73.31
346.853	96.31
347.08	95.31
347.308	98.31
347.535	105.31
347.763	93.31
347.99	88.31
348.218	112.31
348.445	102.31
348.673	105.31
348.9	97.31
349.128	93.31
349.355	103.31
349.583	95.31
349.81	93.31
350.037	106.31
350.265	78.31
350.492	93.31
350.72	92.31
350.947	92.31
351.174	113.31
351.402	133.31
351.629	112.31
351.856	109.31
352.083	97.31
352.311	101.31
352.538	115.31
352.765	109.31
352.992	136.31
353.22	120.31
353.447	89.31
353.674	92.31
353.901	89.31
354.128	107.31
354.355	97.31
354.583	104.31
354.81	91.31
355.037	84.31
355.264	89.31
355.491	98.31
355.718	96.31
355.945	88.31
356.172	113.31
356.399	89.31
356.626	103.31
356.853	101.31
357.08	90.31
357.307	100.31
357.534	106.31
357.761	83.31
357.988	103.31
358.215	90.31
358.441	91.31
358.668	90.31
358.895	83.31
359.122	96.31
359.349	94.31
359.576	103.31
359.802	104.31
360.029	101.31
360.256	123.31
360.483	96.31
360.709	82.31
360.936	93.31
361.163	85.31
361.39	89.31
361.616	88.31
361.843	86.31
362.07	89.31
362.296	111.31
362.523	88.31
362.749	102.31
362.976	96.31
363.203	89.31
363.429	76.31
363.656	99.31
363.882	93.31
364.109	80.31
364.335	98.31
364.562	90.31
364.788	80.31
365.015	93.31
365.241	93.31
365.468	118.31
365.694	108.31
365.92	98.31
366.147	91.31
366.373	86.31
366.599	90.31
366.826	94.31
367.052	94.31
367.278	102.31
367.505	98.31
367.731	90.31
367.957	100.31
368.184	72.31
368.41	92.31
368.636	109.31
368.862	117.31
369.089	119.31
369.315	108.31
369.541	88.31
369.767	89.31
369.993	95.31
370.219	88.31
370.445	88.31
370.672	89.31
370.898	110.31
371.124	83.31
371.35	84.31
371.576	89.31
371.802	82.31
372.028	91.31
372.254	84.31
372.48	76.31
372.706	81.31
372.932	89.31
373.158	98.31
373.384	90.31
373.61	85.31
373.835	96.31
374.061	104.31
374.287	91.31
374.513	86.31
374.739	92.31
374.965	93.31
375.191	85.31
375.416	97.31
375.642	95.31
375.868	81.31
376.094	101.31
376.319	72.31
376.545	84.31
376.771	91.31
376.997	89.31
377.222	84.31
377.448	84.31
377.674	89.31
377.899	95.31
378.125	93.31
378.35	97.31
378.576	93.31
378.802	75.31
379.027	89.31
379.253	93.31
379.478	94.31
379.704	102.31
379.929	94.31
380.155	93.31
380.38	83.31
380.606	99.31
380.831	97.31
381.057	116.31
381.282	100.31
381.507	97.31
381.733	100.31
381.958	97.31
382.184	82.31
382.409	92.31
382.634	115.31
382.86	112.31
383.085	108.31
383.31	99.31
383.535	85.31
383.761	94.31
383.986	93.31
384.211	84.31
384.436	81.31
384.662	78.31
384.887	94.31
385.112	108.31
385.337	107.31
385.562	97.31
385.787	113.31
386.013	103.31
386.238	98.31
386.463	106.31
386.688	98.31
386.913	93.31
387.138	114.31
387.363	98.31
387.588	98.31
387.813	101.31
388.038	91.31
388.263	94.31
388.488	98.31
388.713	97.31
388.938	116.31
389.163	101.31
389.387	99.31
389.612	101.31
389.837	94.31
390.062	89.31
390.287	93.31
390.512	100.31
390.736	99.31
390.961	98.31
391.186	90.31
391.411	95.31
391.636	85.31
391.86	90.31
392.085	91.31
392.31	81.31
392.534	84.31
392.759	77.31
392.984	88.31
393.208	99.31
393.433	105.31
393.658	90.31
393.882	72.31
394.107	84.31
394.331	100.31
394.556	92.31
394.78	99.31
395.005	100.31
395.229	78.31
395.454	82.31
395.678	93.31
395.903	85.31
396.127	90.31
396.352	81.31
396.576	95.31
396.801	97.31
397.025	81.31
397.249	88.31
397.474	77.31
397.698	80.31
397.922	81.31
398.147	75.31
398.371	102.31
398.595	89.31
398.82	96.31
399.044	91.31
399.268	98.31
399.492	97.31
399.717	81.31
399.941	98.31
400.165	96.31
400.389	90.31
400.613	89.31
400.837	84.31
401.062	91.31
401.286	92.31
401.51	91.31
401.734	91.31
401.958	100.31
402.182	129.31
402.406	161.31
402.63	119.31
402.854	85.31
403.078	99.31
403.302	108.31
403.526	100.31
403.75	89.31
403.974	92.31
404.198	89.31
404.422	96.31
404.645	93.31
404.869	92.31
405.093	94.31
405.317	95.31
405.541	105.31
405.765	98.31
405.988	133.31
406.212	180.31
406.436	253.31
406.66	150.31
406.883	118.31
407.107	103.31
407.331	102.31
407.555	97.31
407.778	112.31
408.002	97.31
408.226	95.31
408.449	94.31
408.673	94.31
408.896	93.31
409.12	98.31
409.344	93.31
409.567	94.31
409.791	100.31
410.014	97.31
410.238	93.31
410.461	83.31
410.685	86.31
410.908	93.31
411.132	109.31
411.355	110.31
411.578	85.31
411.802	105.31
412.025	85.31
412.249	101.31
412.472	90.31
412.695	108.31
412.919	101.31
413.142	93.31
413.365	88.31
413.589	77.31
413.812	86.31
414.035	99.31
414.258	97.31
414.482	105.31
414.705	79.31
414.928	102.31
415.151	101.31
415.374	104.31
415.597	92.31
415.821	96.31
416.044	99.31
416.267	105.31
416.49	93.31
416.713	91.31
416.936	98.31
417.159	96.31
417.382	83.31
417.605	93.31
417.828	80.31
418.051	78.31
418.274	108.31
418.497	100.31
418.72	95.31
418.943	87.31
419.166	94.31
419.389	85.31
419.611	86.31
419.834	80.31
420.057	95.31
420.28	92.31
420.503	86.31
420.726	85.31
420.948	69.31
421.171	87.31
421.394	89.31
421.617	89.31
421.839	98.31
422.062	92.31
422.285	80.31
422.507	94.31
422.73	101.31
422.953	98.31
423.175	99.31
423.398	85.31
423.621	84.31
423.843	103.31
424.066	81.31
424.288	96.31
424.511	91.31
424.733	100.31
424.956	114.31
425.178	97.31
425.401	112.31
425.623	98.31
425.846	80.31
426.068	88.31
426.291	90.31
426.513	77.31
426.735	81.31
426.958	91.31
427.18	92.31
427.402	130.31
427.625	168.31
427.847	128.31
428.069	110.31
428.292	89.31
428.514	89.31
428.736	91.31
428.958	77.31
429.181	94.31
429.403	78.31
429.625	86.31
429.847	92.31
430.069	98.31
430.292	107.31
430.514	60.31
430.736	89.31
430.958	94.31
431.18	91.31
431.402	94.31
431.624	78.31
431.846	74.31
432.068	86.31
432.29	78.31
432.512	82.31
432.734	101.31
432.956	90.31
433.178	92.31
433.4	89.31
433.622	83.31
433.844	87.31
434.066	104.31
434.287	95.31
434.509	79.31
434.731	89.31
434.953	93.31
435.175	82.31
435.397	88.31
435.618	84.31
435.84	98.31
436.062	116.31
436.284	136.31
436.505	112.31
436.727	88.31
436.949	97.31
437.17	76.31
437.392	90.31
437.614	97.31
437.835	117.31
438.057	124.31
438.278	95.31
438.5	95.31
438.721	120.31
438.943	101.31
439.165	96.31
439.386	85.31
439.608	99.31
439.829	106.31
440.05	130.31
440.272	141.31
440.493	100.31
440.715	76.31
440.936	90.31
441.158	87.31
441.379	93.31
441.6	97.31
441.822	101.31
442.043	101.31
442.264	97.31
442.486	94.31
442.707	89.31
442.928	101.31
443.149	132.31
443.371	130.31
443.592	113.31
443.813	116.31
444.034	85.31
444.255	79.31
444.476	75.31
444.698	82.31
444.919	87.31
445.14	132.31
445.361	128.31
445.582	125.31
445.803	137.31
446.024	133.31
446.245	132.31
446.466	97.31
446.687	86.31
446.908	81.31
447.129	86.31
447.35	95.31
447.571	83.31
447.792	87.31
448.013	109.31
448.234	109.31
448.455	90.31
448.675	116.31
448.896	119.31
449.117	114.31
449.338	107.31
449.559	119.31
449.779	134.31
450	92.31
450.221	86.31
450.442	89.31
450.662	90.31
450.883	103.31
451.104	122.31
451.324	94.31
451.545	77.31
451.766	80.31
451.986	94.31
452.207	98.31
452.428	92.31
452.648	96.31
452.869	108.31
453.089	123.31
453.31	119.31
453.53	91.31
453.751	100.31
453.971	101.31
454.192	112.31
454.412	106.31
454.633	86.31
454.853	90.31
455.073	88.31
455.294	99.31
455.514	110.31
455.734	98.31
455.955	74.31
456.175	93.31
456.395	76.31
456.616	82.31
456.836	84.31
457.056	89.31
457.276	88.31
457.497	83.31
457.717	89.31
457.937	93.31
458.157	90.31
458.377	93.31
458.598	106.31
458.818	146.31
459.038	158.31
459.258	118.31
459.478	84.31
459.698	84.31
459.918	78.31
460.138	72.31
460.358	84.31
460.578	84.31
460.798	82.31
461.018	86.31
461.238	104.31
461.458	68.31
461.678	82.31
461.898	81.31
462.118	84.31
462.338	96.31
462.558	102.31
462.777	76.31
462.997	76.31
463.217	96.31
463.437	96.31
463.657	94.31
463.876	90.31
464.096	84.31
464.316	103.31
464.536	82.31
464.755	88.31
464.975	107.31
465.195	167.31
465.414	152.31
465.634	84.31
465.854	86.31
466.073	87.31
466.293	86.31
466.512	94.31
466.732	80.31
466.951	80.31
467.171	94.31
467.391	89.31
467.61	93.31
467.829	110.31
468.049	82.31
468.268	86.31
468.488	73.31
468.707	83.31
468.927	82.31
469.146	92.31
469.365	102.31
469.585	96.31
469.804	94.31
470.023	105.31
470.243	95.31
470.462	89.31
470.681	120.31
470.901	91.31
471.12	78.31
471.339	86.31
471.558	86.31
471.777	89.31
471.997	80.31
472.216	82.31
472.435	91.31
472.654	82.31
472.873	92.31
473.092	93.31
473.311	94.31
473.53	98.31
473.749	83.31
473.968	96.31
474.187	105.31
474.406	110.31
474.625	104.31
474.844	102.31
475.063	83.31
475.282	97.31
475.501	70.31
475.72	101.31
475.939	77.31
476.158	87.31
476.377	74.31
476.596	100.31
476.814	88.31
477.033	95.31
477.252	98.31
477.471	79.31
477.69	95.31
477.908	78.31
478.127	80.31
478.346	76.31
478.564	103.31
478.783	97.31
479.002	84.31
479.22	97.31
479.439	114.31
479.658	101.31
479.876	85.31
480.095	104.31
480.313	85.31
480.532	93.31
480.751	89.31
480.969	86.31
481.188	101.31
481.406	103.31
481.624	80.31
481.843	92.31
482.061	91.31
482.28	87.31
482.498	93.31
482.717	91.31
482.935	87.31
483.153	76.31
483.372	60.31
483.59	90.31
483.808	84.31
484.027	90.31
484.245	88.31
484.463	90.31
484.681	100.31
484.9	88.31
485.118	78.31
485.336	97.31
485.554	89.31
485.772	87.31
485.99	94.31
486.209	92.31
486.427	99.31
486.645	100.31
486.863	104.31
487.081	85.31
487.299	98.31
487.517	93.31
487.735	91.31
487.953	75.31
488.171	92.31
488.389	99.31
488.607	120.31
488.825	98.31
489.043	89.31
489.261	91.31
489.479	91.31
489.696	85.31
489.914	89.31
490.132	91.31
490.35	85.31
490.568	94.31
490.786	103.31
491.003	81.31
491.221	94.31
491.439	98.31
491.657	77.31
491.874	88.31
492.092	109.31
492.31	94.31
492.527	81.31
492.745	94.31
492.963	86.31
493.18	94.31
493.398	82.31
493.615	93.31
493.833	79.31
494.05	80.31
494.268	86.31
494.485	83.31
494.703	93.31
494.92	90.31
495.138	74.31
495.355	89.31
495.573	93.31
495.79	95.31
496.008	103.31
496.225	103.31
496.442	104.31
496.66	109.31
496.877	86.31
497.094	89.31
497.312	94.31
497.529	99.31
497.746	104.31
497.963	88.31
498.181	93.31
498.398	90.31
498.615	111.31
498.832	97.31
499.049	91.31
499.267	76.31
499.484	84.31
499.701	81.31
499.918	116.31
500.135	111.31
500.352	93.31
500.569	97.31
500.786	95.31
501.003	82.31
501.22	103.31
501.437	95.31
501.654	99.31
501.871	114.31
502.088	93.31
502.305	94.31
502.522	91.31
502.739	87.31
502.956	98.31
503.172	97.31
503.389	106.31
503.606	106.31
503.823	97.31
504.04	107.31
504.256	99.31
504.473	77.31
504.69	89.31
504.907	87.31
505.123	99.31
505.34	86.31
505.557	91.31
505.773	94.31
505.99	94.31
506.207	102.31
506.423	117.31
506.64	89.31
506.856	94.31
507.073	90.31
507.289	92.31
507.506	93.31
507.722	120.31
507.939	111.31
508.155	92.31
508.372	96.31
508.588	84.31
508.805	92.31
509.021	96.31
509.238	111.31
509.454	94.31
509.67	105.31
509.887	114.31
510.103	134.31
510.319	232.31
510.536	834.31
510.752	2524.31
510.968	694.31
511.184	179.31
511.401	118.31
511.617	91.31
511.833	97.31
512.049	97.31
512.265	81.31
512.481	96.31
512.698	90.31
512.914	93.31
513.13	99.31
513.346	89.31
513.562	90.31
513.778	112.31
513.994	98.31
514.21	94.31
514.426	109.31
514.642	130.31
514.858	127.31
515.074	176.31
515.29	489.31
515.506	1603.31
515.721	582.31
515.937	169.31
516.153	90.31
516.369	97.31
516.585	93.31
516.801	80.31
517.016	92.31
517.232	97.31
517.448	98.31
517.664	91.31
517.879	93.31
518.095	86.31
518.311	83.31
518.527	92.31
518.742	93.31
518.958	98.31
519.173	93.31
519.389	96.31
519.605	98.31
519.82	113.31
520.036	102.31
520.251	121.31
520.467	106.31
520.682	105.31
520.898	117.31
521.113	116.31
521.329	140.31
521.544	219.31
521.76	619.31
521.975	2678.31
522.19	1605.31
522.406	328.31
522.621	128.31
522.836	102.31
523.052	89.31
523.267	87.31
523.482	90.31
523.698	104.31
523.913	128.31
524.128	105.31
524.343	90.31
524.559	94.31
524.774	99.31
524.989	99.31
525.204	107.31
525.419	88.31
525.634	85.31
525.849	84.31
526.064	103.31
526.28	79.31
526.495	83.31
526.71	86.31
526.925	85.31
527.14	87.31
527.355	85.31
527.57	89.31
527.785	93.31
527.999	106.31
528.214	85.31
528.429	83.31
528.644	94.31
528.859	84.31
529.074	109.31
529.289	112.31
529.503	174.31
529.718	104.31
529.933	90.31
530.148	90.31
530.363	104.31
530.577	82.31
530.792	86.31
531.007	82.31
531.221	87.31
531.436	103.31
531.651	98.31
531.865	98.31
532.08	99.31
532.295	103.31
532.509	76.31
532.724	89.31
532.938	103.31
533.153	100.31
533.367	93.31
533.582	86.31
533.796	91.31
534.011	86.31
534.225	113.31
534.44	90.31
534.654	69.31
534.868	84.31
535.083	93.31
535.297	93.31
535.511	109.31
535.726	106.31
535.94	100.31
536.154	107.31
536.369	95.31
536.583	84.31
536.797	100.31
537.011	88.31
537.225	86.31
537.44	94.31
537.654	92.31
537.868	91.31
538.082	80.31
538.296	96.31
538.51	74.31
538.724	86.31
538.938	80.31
539.153	103.31
539.367	103.31
539.581	100.31
539.795	86.31
540.009	101.31
540.222	102.31
540.436	89.31
540.65	99.31
540.864	97.31
541.078	96.31
541.292	76.31
541.506	96.31
541.72	90.31
541.934	92.31
542.147	87.31
542.361	102.31
542.575	88.31
542.789	85.31
543.002	77.31
543.216	94.31
543.43	88.31
543.644	94.31
543.857	104.31
544.071	91.31
544.285	88.31
544.498	81.31
544.712	94.31
544.925	97.31
545.139	77.31
545.352	92.31
545.566	78.31
545.779	84.31
545.993	91.31
546.206	90.31
546.42	81.31
546.633	96.31
546.847	94.31
547.06	98.31
547.274	93.31
547.487	88.31
547.7	80.31
547.914	91.31
548.127	99.31
548.34	79.31
548.554	86.31
548.767	97.31
548.98	84.31
549.193	97.31
549.407	90.31
549.62	92.31
549.833	91.31
550.046	89.31
550.259	85.31
550.473	80.31
550.686	77.31
550.899	87.31
551.112	86.31
551.325	83.31
551.538	91.31
551.751	92.31
551.964	98.31
552.177	97.31
552.39	99.31
552.603	91.31
552.816	89.31
553.029	95.31
553.242	105.31
553.455	89.31
553.667	90.31
553.88	98.31
554.093	110.31
554.306	80.31
554.519	96.31
554.732	77.31
554.944	97.31
555.157	87.31
555.37	88.31
555.583	95.31
555.795	101.31
556.008	90.31
556.221	96.31
556.433	92.31
556.646	97.31
556.859	80.31
557.071	95.31
557.284	95.31
557.496	82.31
557.709	90.31
557.921	84.31
558.134	95.31
558.346	78.31
558.559	94.31
558.771	81.31
558.984	101.31
559.196	90.31
559.409	98.31
559.621	89.31
559.833	93.31
560.046	86.31
560.258	91.31
560.47	96.31
560.683	85.31
560.895	93.31
561.107	92.31
561.32	77.31
561.532	105.31
561.744	89.31
561.956	100.31
562.168	93.31
562.381	99.31
562.593	87.31
562.805	98.31
563.017	68.31
563.229	86.31
563.441	95.31
563.653	101.31
563.865	85.31
564.077	80.31
564.289	80.31
564.501	106.31
564.713	86.31
564.925	78.31
565.137	99.31
565.349	103.31
565.561	104.31
565.773	92.31
565.985	78.31
566.197	106.31
566.408	92.31
566.62	92.31
566.832	98.31
567.044	99.31
567.255	73.31
567.467	83.31
567.679	89.31
567.891	82.31
568.102	100.31
568.314	81.31
568.526	93.31
568.737	97.31
568.949	89.31
569.161	92.31
569.372	87.31
569.584	83.31
569.795	95.31
570.007	118.31
570.218	253.31
570.43	132.31
570.641	114.31
570.853	88.31
571.064	94.31
571.276	85.31
571.487	85.31
571.698	100.31
571.91	104.31
572.121	85.31
572.333	78.31
572.544	105.31
572.755	85.31
572.966	86.31
573.178	82.31
573.389	93.31
573.6	81.31
573.811	87.31
574.023	91.31
574.234	86.31
574.445	92.31
574.656	79.31
574.867	97.31
575.078	88.31
575.289	89.31
575.501	90.31
575.712	89.31
575.923	88.31
576.134	98.31
576.345	73.31
576.556	91.31
576.767	104.31
576.978	98.31
577.188	107.31
577.399	89.31
577.61	95.31
577.821	108.31
578.032	117.31
578.243	287.31
578.454	841.31
578.665	222.31
578.875	96.31
579.086	93.31
579.297	93.31
579.508	92.31
579.718	96.31
579.929	86.31
580.14	83.31
580.35	92.31
580.561	96.31
580.772	81.31
580.982	90.31
581.193	88.31
581.403	79.31
581.614	91.31
581.825	104.31
582.035	82.31
582.246	91.31
582.456	90.31
582.667	81.31
582.877	89.31
583.087	90.31
583.298	86.31
583.508	92.31
583.719	90.31
583.929	93.31
584.139	90.31
584.35	90.31
584.56	86.31
584.77	99.31
584.981	82.31
585.191	84.31
585.401	86.31
585.611	77.31
585.821	90.31
586.032	81.31
586.242	93.31
586.452	81.31
586.662	81.31
586.872	76.31
587.082	84.31
587.292	89.31
587.502	81.31
587.713	99.31
587.923	92.31
588.133	83.31
588.343	87.31
588.553	98.31
588.762	104.31
588.972	91.31
589.182	98.31
589.392	79.31
589.602	92.31
589.812	85.31
590.022	97.31
590.232	75.31
590.441	91.31
590.651	97.31
590.861	96.31
591.071	85.31
591.281	92.31
591.49	78.31
591.7	84.31
591.91	93.31
592.119	93.31
592.329	76.31
592.539	93.31
592.748	91.31
592.958	84.31
593.167	88.31
593.377	83.31
593.587	92.31
593.796	89.31
594.006	93.31
594.215	106.31
594.424	84.31
594.634	90.31
594.843	85.31
595.053	90.31
595.262	76.31
595.472	76.31
595.681	74.31
595.89	97.31
596.1	78.31
596.309	100.31
596.518	89.31
596.727	86.31
596.937	96.31
597.146	89.31
597.355	89.31
597.564	86.31
597.774	93.31
597.983	81.31
598.192	88.31
598.401	73.31
598.61	97.31
598.819	83.31
599.028	84.31
599.237	86.31
599.446	93.31
599.655	97.31
599.864	90.31
600.073	87.31
600.282	92.31
600.491	85.31
600.7	75.31
600.909	90.31
601.118	101.31
601.327	81.31
601.536	91.31
601.745	98.31
601.953	92.31
602.162	117.31
602.371	90.31
602.58	93.31
602.789	88.31
602.997	82.31
603.206	83.31
603.415	89.31
603.623	89.31
603.832	99.31
604.041	83.31
604.249	84.31
604.458	69.31
604.666	95.31
604.875	88.31
605.084	79.31
605.292	85.31
605.501	93.31
605.709	87.31
605.918	81.31
606.126	86.31
606.334	97.31
606.543	83.31
606.751	92.31
606.96	94.31
607.168	102.31
607.376	99.31
607.585	93.31
607.793	87.31
608.001	84.31
608.21	88.31
608.418	84.31
608.626	88.31
608.834	90.31
609.043	94.31
609.251	80.31
609.459	76.31
609.667	86.31
609.875	79.31
610.083	96.31
610.291	92.31
610.499	75.31
610.707	75.31
610.916	80.31
611.124	97.31
611.332	80.31
611.54	77.31
611.748	90.31
611.955	100.31
612.163	77.31
612.371	94.31
612.579	98.31
612.787	86.31
612.995	83.31
613.203	91.31
613.411	84.31
613.618	86.31
613.826	90.31
614.034	85.31
614.242	84.31
614.449	91.31
614.657	83.31
614.865	95.31
615.072	68.31
615.28	88.31
615.488	83.31
615.695	88.31
615.903	104.31
616.111	90.31
616.318	92.31
616.526	100.31
616.733	100.31
616.941	99.31
617.148	91.31
617.356	83.31
617.563	96.31
617.771	94.31
617.978	78.31
618.185	87.31
618.393	89.31
618.6	71.31
618.807	84.31
619.015	66.31
619.222	92.31
619.429	81.31
619.637	72.31
619.844	94.31
620.051	88.31
620.258	86.31
620.466	91.31
620.673	86.31
620.88	92.31
621.087	94.31
621.294	95.31
621.501	78.31
621.708	74.31
621.915	87.31
622.122	86.31
622.329	85.31
622.536	88.31
622.743	91.31
622.95	79.31
623.157	87.31
623.364	83.31
623.571	76.31
623.778	91.31
623.985	82.31
624.192	86.31
624.399	81.31
624.606	93.31
624.812	86.31
625.019	65.31
625.226	85.31
625.433	87.31
625.639	86.31
625.846	73.31
626.053	70.31
626.259	77.31
626.466	80.31
626.673	89.31
626.879	87.31
627.086	93.31
627.293	80.31
627.499	84.31
627.706	81.31
627.912	83.31
628.119	77.31
628.325	87.31
628.532	85.31
628.738	94.31
628.945	89.31
629.151	84.31
629.357	81.31
629.564	83.31
629.77	64.31
629.976	73.31
630.183	72.31
630.389	79.31
630.595	85.31
630.802	100.31
631.008	92.31
631.214	89.31
631.42	80.31
631.627	82.31
631.833	81.31
632.039	83.31
632.245	95.31
632.451	75.31
632.657	94.31
632.863	75.31
633.069	74.31
633.275	92.31
633.481	89.31
633.688	95.31
633.893	89.31
634.099	76.31
634.305	81.31
634.511	96.31
634.717	83.31
634.923	84.31
635.129	88.31
635.335	87.31
635.541	86.31
635.747	88.31
635.952	87.31
636.158	87.31
636.364	82.31
636.57	89.31
636.775	84.31
636.981	79.31
637.187	94.31
637.392	85.31
637.598	92.31
637.804	86.31
638.009	77.31
638.215	85.31
638.421	98.31
638.626	81.31
638.832	86.31
639.037	84.31
639.243	72.31
639.448	82.31
639.654	84.31
639.859	92.31
640.065	74.31
640.27	82.31
640.475	91.31
640.681	83.31
640.886	83.31
641.091	70.31
641.297	104.31
641.502	93.31
641.707	77.31
641.913	73.31
642.118	85.31
642.323	86.31
642.528	72.31
642.733	94.31
642.939	94.31
643.144	77.31
643.349	84.31
643.554	91.31
643.759	86.31
643.964	77.31
644.169	105.31
644.374	93.31
644.579	97.31
644.784	76.31
644.989	88.31
645.194	91.31
645.399	80.31
645.604	100.31
645.809	93.31
646.014	82.31
646.219	86.31
646.423	90.31
646.628	85.31
646.833	95.31
647.038	79.31
647.243	88.31
647.447	75.31
647.652	85.31
647.857	81.31
648.062	84.31
648.266	87.31
648.471	87.31
648.676	90.31
648.88	83.31
649.085	85.31
649.289	90.31
649.494	92.31
649.698	132.31
649.903	87.31
650.107	92.31
650.312	87.31
650.516	94.31
650.721	88.31
650.925	94.31
651.13	69.31
651.334	85.31
651.539	70.31
651.743	81.31
651.947	83.31
652.152	89.31
652.356	67.31
652.56	75.31
652.764	89.31
652.969	78.31
653.173	77.31
653.377	79.31
653.581	83.31
653.785	86.31
653.99	93.31
654.194	91.31
654.398	100.31
654.602	82.31
654.806	86.31
655.01	98.31
655.214	94.31
655.418	81.31
655.622	71.31
655.826	84.31
656.03	78.31
656.234	85.31
656.438	91.31
656.642	86.31
656.846	89.31
657.049	84.31
657.253	92.31
657.457	80.31
657.661	90.31
657.865	82.31
658.068	80.31
658.272	91.31
658.476	77.31
658.68	68.31
658.883	81.31
659.087	79.31
659.291	78.31
659.494	91.31
659.698	83.31
659.901	82.31
660.105	88.31
660.309	87.31
660.512	81.31
660.716	77.31
660.919	92.31
661.123	100.31
661.326	97.31
661.53	96.31
661.733	85.31
661.936	82.31
662.14	85.31
662.343	81.31
662.546	78.31
662.75	80.31
662.953	86.31
663.156	73.31
663.36	70.31
663.563	70.31
663.766	83.31
663.969	95.31
664.173	82.31
664.376	94.31
664.579	84.31
664.782	74.31
664.985	83.31
665.188	82.31
665.391	91.31
665.594	87.31
665.797	80.31
666	72.31
666.203	85.31
666.406	82.31
666.609	74.31
666.812	75.31
667.015	78.31
667.218	82.31
667.421	86.31
667.624	74.31
667.827	77.31
668.03	76.31
668.232	81.31
668.435	88.31
668.638	87.31
668.841	80.31
669.043	81.31
669.246	89.31
669.449	89.31
669.651	84.31
669.854	83.31
670.057	89.31
670.259	85.31
670.462	81.31
670.665	76.31
670.867	96.31
671.07	84.31
671.272	85.31
671.475	86.31
671.677	87.31
671.88	89.31
672.082	82.31
672.284	56.31
672.487	73.31
672.689	81.31
672.892	72.31
