Data from Uncirc_2001_H10_HRD10591_00075.txt Node
Date: Wed Jan 03 10:44:11 EST 2024
User: Yrep
Spectrometer: HR+D1059
Trigger mode: 1
Integration Time (sec): 1.000000E-1
Scans to average: 1
Electric dark correction enabled: true
Nonlinearity correction enabled: false
Boxcar width: 0
XAxis mode: Wavelengths
Number of Pixels in Spectrum: 2048
>>>>>Begin Spectral Data<<<<<
223.165	-26.62
223.4	-26.62
223.635	-26.62
223.869	-16.62
224.104	-26.62
224.338	-23.62
224.573	-14.62
224.808	-15.62
225.042	-12.62
225.277	-8.62
225.511	0.38
225.746	22.38
225.98	13.38
226.215	17.38
226.449	16.38
226.683	26.38
226.918	21.38
227.152	27.38
227.387	54.38
227.621	32.38
227.856	53.38
228.09	52.38
228.324	59.38
228.559	63.38
228.793	60.38
229.027	51.38
229.262	74.38
229.496	81.38
229.73	74.38
229.964	85.38
230.199	73.38
230.433	79.38
230.667	78.38
230.901	74.38
231.136	73.38
231.37	81.38
231.604	81.38
231.838	75.38
232.072	85.38
232.306	80.38
232.541	85.38
232.775	87.38
233.009	87.38
233.243	90.38
233.477	66.38
233.711	83.38
233.945	83.38
234.179	88.38
234.413	86.38
234.647	81.38
234.881	65.38
235.115	84.38
235.349	90.38
235.583	88.38
235.817	86.38
236.051	91.38
236.285	84.38
236.519	73.38
236.753	86.38
236.987	85.38
237.221	84.38
237.455	94.38
237.689	87.38
237.922	79.38
238.156	77.38
238.39	77.38
238.624	73.38
238.858	73.38
239.091	90.38
239.325	79.38
239.559	74.38
239.793	84.38
240.027	79.38
240.26	76.38
240.494	85.38
240.728	84.38
240.961	79.38
241.195	78.38
241.429	65.38
241.662	81.38
241.896	78.38
242.13	74.38
242.363	82.38
242.597	81.38
242.83	73.38
243.064	82.38
243.298	75.38
243.531	70.38
243.765	86.38
243.998	77.38
244.232	84.38
244.465	80.38
244.699	88.38
244.932	76.38
245.166	74.38
245.399	86.38
245.633	79.38
245.866	81.38
246.099	88.38
246.333	85.38
246.566	77.38
246.8	75.38
247.033	81.38
247.266	78.38
247.5	89.38
247.733	75.38
247.966	80.38
248.2	76.38
248.433	84.38
248.666	71.38
248.899	95.38
249.133	84.38
249.366	96.38
249.599	105.38
249.832	77.38
250.066	79.38
250.299	82.38
250.532	68.38
250.765	71.38
250.998	83.38
251.231	79.38
251.465	73.38
251.698	83.38
251.931	81.38
252.164	77.38
252.397	81.38
252.63	81.38
252.863	71.38
253.096	77.38
253.329	63.38
253.562	62.38
253.795	76.38
254.028	82.38
254.261	83.38
254.494	81.38
254.727	94.38
254.96	86.38
255.193	73.38
255.426	73.38
255.659	78.38
255.892	83.38
256.124	73.38
256.357	78.38
256.59	79.38
256.823	73.38
257.056	73.38
257.289	83.38
257.521	79.38
257.754	83.38
257.987	83.38
258.22	92.38
258.452	90.38
258.685	82.38
258.918	75.38
259.151	93.38
259.383	78.38
259.616	83.38
259.849	67.38
260.081	87.38
260.314	77.38
260.547	93.38
260.779	85.38
261.012	79.38
261.244	79.38
261.477	81.38
261.71	87.38
261.942	98.38
262.175	107.38
262.407	91.38
262.64	88.38
262.872	79.38
263.105	92.38
263.337	74.38
263.57	86.38
263.802	86.38
264.035	86.38
264.267	79.38
264.499	91.38
264.732	89.38
264.964	94.38
265.197	75.38
265.429	90.38
265.661	97.38
265.894	75.38
266.126	99.38
266.358	86.38
266.591	75.38
266.823	98.38
267.055	87.38
267.287	86.38
267.52	85.38
267.752	90.38
267.984	86.38
268.216	87.38
268.448	90.38
268.681	77.38
268.913	93.38
269.145	87.38
269.377	85.38
269.609	89.38
269.841	85.38
270.073	82.38
270.306	84.38
270.538	80.38
270.77	81.38
271.002	87.38
271.234	94.38
271.466	86.38
271.698	93.38
271.93	82.38
272.162	102.38
272.394	83.38
272.626	95.38
272.858	90.38
273.09	87.38
273.322	92.38
273.553	101.38
273.785	94.38
274.017	91.38
274.249	95.38
274.481	91.38
274.713	87.38
274.945	96.38
275.176	97.38
275.408	83.38
275.64	91.38
275.872	82.38
276.104	86.38
276.335	110.38
276.567	111.38
276.799	108.38
277.031	91.38
277.262	92.38
277.494	62.38
277.726	91.38
277.957	83.38
278.189	77.38
278.421	79.38
278.652	81.38
278.884	95.38
279.115	94.38
279.347	83.38
279.579	86.38
279.81	75.38
280.042	82.38
280.273	90.38
280.505	90.38
280.736	76.38
280.968	87.38
281.199	86.38
281.431	84.38
281.662	87.38
281.894	79.38
282.125	98.38
282.356	117.38
282.588	132.38
282.819	116.38
283.051	85.38
283.282	95.38
283.513	101.38
283.745	89.38
283.976	75.38
284.207	90.38
284.439	82.38
284.67	82.38
284.901	93.38
285.132	94.38
285.364	89.38
285.595	97.38
285.826	84.38
286.057	100.38
286.288	93.38
286.52	88.38
286.751	87.38
286.982	82.38
287.213	94.38
287.444	89.38
287.675	84.38
287.906	92.38
288.138	92.38
288.369	97.38
288.6	104.38
288.831	96.38
289.062	91.38
289.293	87.38
289.524	79.38
289.755	97.38
289.986	90.38
290.217	85.38
290.448	65.38
290.679	87.38
290.91	93.38
291.141	103.38
291.371	93.38
291.602	83.38
291.833	85.38
292.064	87.38
292.295	100.38
292.526	90.38
292.757	81.38
292.987	87.38
293.218	79.38
293.449	101.38
293.68	98.38
293.91	90.38
294.141	80.38
294.372	88.38
294.603	100.38
294.833	86.38
295.064	92.38
295.295	90.38
295.525	87.38
295.756	116.38
295.987	118.38
296.217	135.38
296.448	125.38
296.679	99.38
296.909	76.38
297.14	90.38
297.37	101.38
297.601	79.38
297.831	86.38
298.062	76.38
298.292	93.38
298.523	98.38
298.753	92.38
298.984	84.38
299.214	94.38
299.445	104.38
299.675	93.38
299.905	83.38
300.136	99.38
300.366	87.38
300.597	93.38
300.827	88.38
301.057	107.38
301.288	112.38
301.518	90.38
301.748	71.38
301.979	112.38
302.209	106.38
302.439	106.38
302.669	92.38
302.9	92.38
303.13	91.38
303.36	95.38
303.59	98.38
303.82	99.38
304.051	94.38
304.281	95.38
304.511	98.38
304.741	80.38
304.971	87.38
305.201	88.38
305.431	108.38
305.661	95.38
305.891	93.38
306.121	82.38
306.352	99.38
306.582	100.38
306.812	91.38
307.042	84.38
307.272	88.38
307.502	108.38
307.731	86.38
307.961	102.38
308.191	91.38
308.421	97.38
308.651	82.38
308.881	83.38
309.111	92.38
309.341	94.38
309.571	94.38
309.8	94.38
310.03	90.38
310.26	102.38
310.49	101.38
310.72	112.38
310.949	94.38
311.179	96.38
311.409	105.38
311.639	107.38
311.868	103.38
312.098	98.38
312.328	94.38
312.557	110.38
312.787	111.38
313.017	107.38
313.246	106.38
313.476	94.38
313.706	75.38
313.935	90.38
314.165	102.38
314.394	109.38
314.624	89.38
314.853	89.38
315.083	92.38
315.312	82.38
315.542	86.38
315.771	93.38
316.001	85.38
316.23	104.38
316.46	87.38
316.689	89.38
316.919	97.38
317.148	103.38
317.377	100.38
317.607	93.38
317.836	93.38
318.065	87.38
318.295	81.38
318.524	98.38
318.753	91.38
318.983	97.38
319.212	100.38
319.441	107.38
319.67	109.38
319.9	92.38
320.129	102.38
320.358	100.38
320.587	94.38
320.816	79.38
321.046	91.38
321.275	105.38
321.504	97.38
321.733	118.38
321.962	84.38
322.191	102.38
322.42	106.38
322.649	109.38
322.878	107.38
323.108	106.38
323.337	119.38
323.566	146.38
323.795	151.38
324.024	197.38
324.253	381.38
324.482	785.38
324.71	1575.38
324.939	1963.38
325.168	725.38
325.397	235.38
325.626	152.38
325.855	142.38
326.084	116.38
326.313	117.38
326.542	159.38
326.77	220.38
326.999	439.38
327.228	847.38
327.457	1497.38
327.686	1165.38
327.914	332.38
328.143	190.38
328.372	151.38
328.6	113.38
328.829	119.38
329.058	111.38
329.287	121.38
329.515	111.38
329.744	103.38
329.972	103.38
330.201	112.38
330.43	106.38
330.658	133.38
330.887	149.38
331.115	142.38
331.344	111.38
331.572	102.38
331.801	118.38
332.03	109.38
332.258	92.38
332.486	91.38
332.715	91.38
332.943	85.38
333.172	109.38
333.4	96.38
333.629	91.38
333.857	110.38
334.085	98.38
334.314	106.38
334.542	109.38
334.771	95.38
334.999	89.38
335.227	111.38
335.455	85.38
335.684	96.38
335.912	94.38
336.14	101.38
336.369	92.38
336.597	94.38
336.825	102.38
337.053	97.38
337.281	98.38
337.51	89.38
337.738	104.38
337.966	96.38
338.194	111.38
338.422	98.38
338.65	101.38
338.878	88.38
339.106	99.38
339.334	97.38
339.562	82.38
339.79	106.38
340.018	103.38
340.246	91.38
340.474	96.38
340.702	90.38
340.93	100.38
341.158	99.38
341.386	104.38
341.614	100.38
341.842	78.38
342.07	93.38
342.298	86.38
342.526	91.38
342.754	99.38
342.981	85.38
343.209	76.38
343.437	119.38
343.665	94.38
343.893	100.38
344.12	102.38
344.348	94.38
344.576	103.38
344.804	99.38
345.031	106.38
345.259	112.38
345.487	79.38
345.714	88.38
345.942	86.38
346.17	91.38
346.397	94.38
346.625	90.38
346.853	100.38
347.08	75.38
347.308	99.38
347.535	95.38
347.763	99.38
347.99	107.38
348.218	91.38
348.445	97.38
348.673	89.38
348.9	94.38
349.128	101.38
349.355	93.38
349.583	95.38
349.81	85.38
350.037	85.38
350.265	96.38
350.492	94.38
350.72	100.38
350.947	108.38
351.174	125.38
351.402	101.38
351.629	118.38
351.856	100.38
352.083	108.38
352.311	107.38
352.538	109.38
352.765	111.38
352.992	122.38
353.22	124.38
353.447	95.38
353.674	94.38
353.901	100.38
354.128	101.38
354.355	98.38
354.583	86.38
354.81	97.38
355.037	102.38
355.264	90.38
355.491	95.38
355.718	90.38
355.945	90.38
356.172	104.38
356.399	101.38
356.626	79.38
356.853	91.38
357.08	98.38
357.307	101.38
357.534	87.38
357.761	100.38
357.988	91.38
358.215	115.38
358.441	69.38
358.668	95.38
358.895	92.38
359.122	84.38
359.349	103.38
359.576	95.38
359.802	103.38
360.029	118.38
360.256	106.38
360.483	94.38
360.709	103.38
360.936	98.38
361.163	98.38
361.39	80.38
361.616	93.38
361.843	106.38
362.07	102.38
362.296	94.38
362.523	93.38
362.749	102.38
362.976	100.38
363.203	94.38
363.429	88.38
363.656	99.38
363.882	84.38
364.109	97.38
364.335	109.38
364.562	100.38
364.788	96.38
365.015	94.38
365.241	83.38
365.468	105.38
365.694	115.38
365.92	105.38
366.147	98.38
366.373	114.38
366.599	77.38
366.826	89.38
367.052	87.38
367.278	102.38
367.505	86.38
367.731	95.38
367.957	103.38
368.184	95.38
368.41	86.38
368.636	112.38
368.862	122.38
369.089	100.38
369.315	102.38
369.541	93.38
369.767	82.38
369.993	91.38
370.219	87.38
370.445	98.38
370.672	92.38
370.898	83.38
371.124	80.38
371.35	94.38
371.576	113.38
371.802	93.38
372.028	99.38
372.254	77.38
372.48	97.38
372.706	94.38
372.932	82.38
373.158	92.38
373.384	81.38
373.61	95.38
373.835	92.38
374.061	83.38
374.287	101.38
374.513	98.38
374.739	91.38
374.965	87.38
375.191	103.38
375.416	76.38
375.642	106.38
375.868	99.38
376.094	101.38
376.319	86.38
376.545	100.38
376.771	92.38
376.997	103.38
377.222	92.38
377.448	108.38
377.674	84.38
377.899	87.38
378.125	95.38
378.35	95.38
378.576	101.38
378.802	96.38
379.027	89.38
379.253	102.38
379.478	88.38
379.704	90.38
379.929	92.38
380.155	98.38
380.38	102.38
380.606	95.38
380.831	106.38
381.057	100.38
381.282	92.38
381.507	101.38
381.733	88.38
381.958	102.38
382.184	102.38
382.409	115.38
382.634	108.38
382.86	97.38
383.085	92.38
383.31	93.38
383.535	98.38
383.761	103.38
383.986	91.38
384.211	99.38
384.436	110.38
384.662	110.38
384.887	110.38
385.112	95.38
385.337	98.38
385.562	105.38
385.787	104.38
386.013	101.38
386.238	122.38
386.463	113.38
386.688	98.38
386.913	107.38
387.138	111.38
387.363	88.38
387.588	113.38
387.813	95.38
388.038	96.38
388.263	107.38
388.488	98.38
388.713	91.38
388.938	91.38
389.163	99.38
389.387	98.38
389.612	87.38
389.837	86.38
390.062	88.38
390.287	92.38
390.512	98.38
390.736	93.38
390.961	85.38
391.186	100.38
391.411	88.38
391.636	94.38
391.86	108.38
392.085	93.38
392.31	96.38
392.534	86.38
392.759	79.38
392.984	101.38
393.208	101.38
393.433	92.38
393.658	102.38
393.882	94.38
394.107	94.38
394.331	85.38
394.556	77.38
394.78	79.38
395.005	92.38
395.229	88.38
395.454	88.38
395.678	98.38
395.903	90.38
396.127	83.38
396.352	87.38
396.576	81.38
396.801	99.38
397.025	105.38
397.249	83.38
397.474	102.38
397.698	103.38
397.922	82.38
398.147	95.38
398.371	97.38
398.595	92.38
398.82	92.38
399.044	86.38
399.268	83.38
399.492	94.38
399.717	99.38
399.941	86.38
400.165	90.38
400.389	96.38
400.613	89.38
400.837	90.38
401.062	92.38
401.286	95.38
401.51	102.38
401.734	92.38
401.958	99.38
402.182	133.38
402.406	153.38
402.63	121.38
402.854	92.38
403.078	83.38
403.302	90.38
403.526	93.38
403.75	89.38
403.974	90.38
404.198	74.38
404.422	82.38
404.645	100.38
404.869	97.38
405.093	99.38
405.317	94.38
405.541	111.38
405.765	109.38
405.988	134.38
406.212	184.38
406.436	243.38
406.66	146.38
406.883	85.38
407.107	100.38
407.331	97.38
407.555	93.38
407.778	92.38
408.002	86.38
408.226	98.38
408.449	93.38
408.673	100.38
408.896	98.38
409.12	88.38
409.344	86.38
409.567	103.38
409.791	102.38
410.014	106.38
410.238	100.38
410.461	115.38
410.685	97.38
410.908	91.38
411.132	114.38
411.355	105.38
411.578	91.38
411.802	93.38
412.025	87.38
412.249	81.38
412.472	108.38
412.695	93.38
412.919	89.38
413.142	93.38
413.365	93.38
413.589	98.38
413.812	87.38
414.035	87.38
414.258	97.38
414.482	103.38
414.705	98.38
414.928	91.38
415.151	87.38
415.374	102.38
415.597	78.38
415.821	83.38
416.044	81.38
416.267	99.38
416.49	79.38
416.713	91.38
416.936	94.38
417.159	92.38
417.382	97.38
417.605	98.38
417.828	99.38
418.051	91.38
418.274	99.38
418.497	104.38
418.72	88.38
418.943	86.38
419.166	90.38
419.389	103.38
419.611	92.38
419.834	89.38
420.057	91.38
420.28	85.38
420.503	98.38
420.726	100.38
420.948	86.38
421.171	88.38
421.394	91.38
421.617	97.38
421.839	85.38
422.062	93.38
422.285	104.38
422.507	92.38
422.73	106.38
422.953	92.38
423.175	89.38
423.398	80.38
423.621	104.38
423.843	93.38
424.066	79.38
424.288	97.38
424.511	98.38
424.733	102.38
424.956	101.38
425.178	102.38
425.401	105.38
425.623	86.38
425.846	85.38
426.068	88.38
426.291	88.38
426.513	88.38
426.735	97.38
426.958	102.38
427.18	116.38
427.402	148.38
427.625	171.38
427.847	134.38
428.069	97.38
428.292	89.38
428.514	81.38
428.736	93.38
428.958	98.38
429.181	86.38
429.403	96.38
429.625	86.38
429.847	95.38
430.069	91.38
430.292	94.38
430.514	93.38
430.736	87.38
430.958	78.38
431.18	85.38
431.402	94.38
431.624	95.38
431.846	80.38
432.068	74.38
432.29	105.38
432.512	90.38
432.734	90.38
432.956	95.38
433.178	94.38
433.4	99.38
433.622	91.38
433.844	94.38
434.066	105.38
434.287	95.38
434.509	83.38
434.731	99.38
434.953	95.38
435.175	97.38
435.397	93.38
435.618	91.38
435.84	102.38
436.062	133.38
436.284	120.38
436.505	107.38
436.727	109.38
436.949	86.38
437.17	89.38
437.392	91.38
437.614	108.38
437.835	104.38
438.057	120.38
438.278	124.38
438.5	103.38
438.721	111.38
438.943	113.38
439.165	77.38
439.386	94.38
439.608	95.38
439.829	113.38
440.05	113.38
440.272	138.38
440.493	92.38
440.715	89.38
440.936	98.38
441.158	86.38
441.379	94.38
441.6	99.38
441.822	84.38
442.043	77.38
442.264	108.38
442.486	104.38
442.707	93.38
442.928	103.38
443.149	148.38
443.371	136.38
443.592	101.38
443.813	115.38
444.034	102.38
444.255	89.38
444.476	75.38
444.698	95.38
444.919	102.38
445.14	130.38
445.361	131.38
445.582	107.38
445.803	154.38
446.024	138.38
446.245	131.38
446.466	97.38
446.687	83.38
446.908	100.38
447.129	89.38
447.35	97.38
447.571	112.38
447.792	86.38
448.013	90.38
448.234	115.38
448.455	104.38
448.675	98.38
448.896	103.38
449.117	98.38
449.338	90.38
449.559	132.38
449.779	132.38
450	94.38
450.221	89.38
450.442	97.38
450.662	103.38
450.883	105.38
451.104	105.38
451.324	99.38
451.545	97.38
451.766	97.38
451.986	94.38
452.207	99.38
452.428	101.38
452.648	94.38
452.869	125.38
453.089	125.38
453.31	118.38
453.53	98.38
453.751	79.38
453.971	101.38
454.192	116.38
454.412	106.38
454.633	83.38
454.853	94.38
455.073	93.38
455.294	82.38
455.514	82.38
455.734	92.38
455.955	83.38
456.175	88.38
456.395	90.38
456.616	69.38
456.836	91.38
457.056	80.38
457.276	76.38
457.497	88.38
457.717	96.38
457.937	98.38
458.157	85.38
458.377	99.38
458.598	120.38
458.818	153.38
459.038	155.38
459.258	119.38
459.478	94.38
459.698	79.38
459.918	97.38
460.138	85.38
460.358	81.38
460.578	100.38
460.798	76.38
461.018	95.38
461.238	91.38
461.458	95.38
461.678	96.38
461.898	97.38
462.118	84.38
462.338	94.38
462.558	86.38
462.777	86.38
462.997	98.38
463.217	91.38
463.437	76.38
463.657	93.38
463.876	92.38
464.096	88.38
464.316	92.38
464.536	85.38
464.755	93.38
464.975	106.38
465.195	168.38
465.414	165.38
465.634	107.38
465.854	100.38
466.073	94.38
466.293	68.38
466.512	84.38
466.732	81.38
466.951	94.38
467.171	99.38
467.391	96.38
467.61	93.38
467.829	93.38
468.049	101.38
468.268	72.38
468.488	93.38
468.707	72.38
468.927	75.38
469.146	86.38
469.365	86.38
469.585	82.38
469.804	102.38
470.023	87.38
470.243	104.38
470.462	115.38
470.681	107.38
470.901	93.38
471.12	99.38
471.339	87.38
471.558	92.38
471.777	94.38
471.997	88.38
472.216	94.38
472.435	94.38
472.654	88.38
472.873	89.38
473.092	87.38
473.311	98.38
473.53	79.38
473.749	80.38
473.968	101.38
474.187	110.38
474.406	96.38
474.625	83.38
474.844	91.38
475.063	96.38
475.282	91.38
475.501	82.38
475.72	85.38
475.939	84.38
476.158	94.38
476.377	95.38
476.596	98.38
476.814	95.38
477.033	97.38
477.252	83.38
477.471	101.38
477.69	99.38
477.908	95.38
478.127	86.38
478.346	89.38
478.564	102.38
478.783	78.38
479.002	94.38
479.22	97.38
479.439	109.38
479.658	108.38
479.876	100.38
480.095	91.38
480.313	81.38
480.532	98.38
480.751	105.38
480.969	102.38
481.188	107.38
481.406	91.38
481.624	79.38
481.843	92.38
482.061	99.38
482.28	71.38
482.498	86.38
482.717	96.38
482.935	106.38
483.153	98.38
483.372	94.38
483.59	81.38
483.808	90.38
484.027	93.38
484.245	87.38
484.463	86.38
484.681	90.38
484.9	87.38
485.118	101.38
485.336	91.38
485.554	103.38
485.772	98.38
485.99	99.38
486.209	88.38
486.427	114.38
486.645	95.38
486.863	111.38
487.081	104.38
487.299	95.38
487.517	94.38
487.735	95.38
487.953	92.38
488.171	88.38
488.389	101.38
488.607	84.38
488.825	96.38
489.043	93.38
489.261	81.38
489.479	91.38
489.696	95.38
489.914	96.38
490.132	95.38
490.35	89.38
490.568	111.38
490.786	99.38
491.003	88.38
491.221	107.38
491.439	92.38
491.657	110.38
491.874	82.38
492.092	85.38
492.31	88.38
492.527	98.38
492.745	83.38
492.963	94.38
493.18	93.38
493.398	97.38
493.615	95.38
493.833	98.38
494.05	90.38
494.268	91.38
494.485	90.38
494.703	81.38
494.92	78.38
495.138	80.38
495.355	88.38
495.573	101.38
495.79	103.38
496.008	97.38
496.225	94.38
496.442	100.38
496.66	77.38
496.877	92.38
497.094	91.38
497.312	83.38
497.529	84.38
497.746	91.38
497.963	101.38
498.181	89.38
498.398	98.38
498.615	105.38
498.832	95.38
499.049	84.38
499.267	98.38
499.484	92.38
499.701	92.38
499.918	94.38
500.135	93.38
500.352	95.38
500.569	98.38
500.786	99.38
501.003	93.38
501.22	88.38
501.437	97.38
501.654	90.38
501.871	112.38
502.088	102.38
502.305	93.38
502.522	96.38
502.739	88.38
502.956	82.38
503.172	89.38
503.389	94.38
503.606	99.38
503.823	105.38
504.04	103.38
504.256	87.38
504.473	93.38
504.69	101.38
504.907	93.38
505.123	83.38
505.34	103.38
505.557	87.38
505.773	97.38
505.99	74.38
506.207	99.38
506.423	106.38
506.64	102.38
506.856	87.38
507.073	89.38
507.289	89.38
507.506	89.38
507.722	110.38
507.939	103.38
508.155	90.38
508.372	95.38
508.588	93.38
508.805	103.38
509.021	104.38
509.238	101.38
509.454	99.38
509.67	109.38
509.887	114.38
510.103	130.38
510.319	223.38
510.536	815.38
510.752	2545.38
510.968	694.38
511.184	155.38
511.401	107.38
511.617	91.38
511.833	91.38
512.049	101.38
512.265	97.38
512.481	86.38
512.698	93.38
512.914	91.38
513.13	97.38
513.346	85.38
513.562	91.38
513.778	112.38
513.994	97.38
514.21	106.38
514.426	122.38
514.642	134.38
514.858	111.38
515.074	183.38
515.29	502.38
515.506	1594.38
515.721	572.38
515.937	157.38
516.153	113.38
516.369	86.38
516.585	102.38
516.801	93.38
517.016	96.38
517.232	97.38
517.448	91.38
517.664	90.38
517.879	89.38
518.095	87.38
518.311	115.38
518.527	95.38
518.742	91.38
518.958	92.38
519.173	96.38
519.389	106.38
519.605	109.38
519.82	109.38
520.036	100.38
520.251	116.38
520.467	116.38
520.682	95.38
520.898	99.38
521.113	123.38
521.329	147.38
521.544	230.38
521.76	612.38
521.975	2663.38
522.19	1595.38
522.406	340.38
522.621	129.38
522.836	100.38
523.052	103.38
523.267	98.38
523.482	101.38
523.698	100.38
523.913	113.38
524.128	101.38
524.343	108.38
524.559	107.38
524.774	89.38
524.989	98.38
525.204	111.38
525.419	110.38
525.634	90.38
525.849	85.38
526.064	94.38
526.28	89.38
526.495	102.38
526.71	101.38
526.925	91.38
527.14	89.38
527.355	92.38
527.57	84.38
527.785	90.38
527.999	92.38
528.214	86.38
528.429	93.38
528.644	105.38
528.859	103.38
529.074	98.38
529.289	117.38
529.503	179.38
529.718	120.38
529.933	87.38
530.148	84.38
530.363	79.38
530.577	83.38
530.792	87.38
531.007	102.38
531.221	98.38
531.436	101.38
531.651	94.38
531.865	81.38
532.08	84.38
532.295	103.38
532.509	90.38
532.724	86.38
532.938	100.38
533.153	93.38
533.367	102.38
533.582	101.38
533.796	90.38
534.011	96.38
534.225	91.38
534.44	89.38
534.654	86.38
534.868	98.38
535.083	93.38
535.297	103.38
535.511	90.38
535.726	112.38
535.94	111.38
536.154	101.38
536.369	89.38
536.583	78.38
536.797	100.38
537.011	84.38
537.225	80.38
537.44	88.38
537.654	90.38
537.868	91.38
538.082	94.38
538.296	95.38
538.51	78.38
538.724	95.38
538.938	92.38
539.153	100.38
539.367	103.38
539.581	97.38
539.795	90.38
540.009	87.38
540.222	91.38
540.436	85.38
540.65	91.38
540.864	95.38
541.078	92.38
541.292	86.38
541.506	95.38
541.72	102.38
541.934	90.38
542.147	92.38
542.361	96.38
542.575	103.38
542.789	94.38
543.002	90.38
543.216	98.38
543.43	90.38
543.644	85.38
543.857	95.38
544.071	107.38
544.285	92.38
544.498	94.38
544.712	89.38
544.925	93.38
545.139	90.38
545.352	95.38
545.566	92.38
545.779	92.38
545.993	90.38
546.206	92.38
546.42	81.38
546.633	94.38
546.847	92.38
547.06	87.38
547.274	95.38
547.487	89.38
547.7	91.38
547.914	97.38
548.127	81.38
548.34	86.38
548.554	103.38
548.767	91.38
548.98	88.38
549.193	91.38
549.407	87.38
549.62	77.38
549.833	89.38
550.046	71.38
550.259	81.38
550.473	89.38
550.686	78.38
550.899	89.38
551.112	101.38
551.325	85.38
551.538	105.38
551.751	109.38
551.964	87.38
552.177	93.38
552.39	87.38
552.603	95.38
552.816	97.38
553.029	98.38
553.242	85.38
553.455	89.38
553.667	122.38
553.88	99.38
554.093	96.38
554.306	110.38
554.519	94.38
554.732	89.38
554.944	102.38
555.157	98.38
555.37	90.38
555.583	88.38
555.795	90.38
556.008	86.38
556.221	83.38
556.433	100.38
556.646	91.38
556.859	106.38
557.071	92.38
557.284	82.38
557.496	89.38
557.709	103.38
557.921	80.38
558.134	103.38
558.346	97.38
558.559	82.38
558.771	85.38
558.984	81.38
559.196	93.38
559.409	82.38
559.621	88.38
559.833	90.38
560.046	96.38
560.258	76.38
560.47	91.38
560.683	96.38
560.895	95.38
561.107	89.38
561.32	89.38
561.532	77.38
561.744	89.38
561.956	104.38
562.168	106.38
562.381	104.38
562.593	87.38
562.805	97.38
563.017	94.38
563.229	97.38
563.441	94.38
563.653	92.38
563.865	74.38
564.077	91.38
564.289	93.38
564.501	103.38
564.713	92.38
564.925	104.38
565.137	99.38
565.349	99.38
565.561	94.38
565.773	74.38
565.985	94.38
566.197	84.38
566.408	84.38
566.62	86.38
566.832	87.38
567.044	82.38
567.255	76.38
567.467	84.38
567.679	83.38
567.891	100.38
568.102	79.38
568.314	90.38
568.526	81.38
568.737	75.38
568.949	86.38
569.161	85.38
569.372	96.38
569.584	85.38
569.795	104.38
570.007	109.38
570.218	254.38
570.43	151.38
570.641	95.38
570.853	87.38
571.064	81.38
571.276	94.38
571.487	110.38
571.698	83.38
571.91	95.38
572.121	85.38
572.333	84.38
572.544	95.38
572.755	91.38
572.966	97.38
573.178	89.38
573.389	93.38
573.6	91.38
573.811	107.38
574.023	95.38
574.234	85.38
574.445	96.38
574.656	83.38
574.867	101.38
575.078	86.38
575.289	88.38
575.501	85.38
575.712	96.38
575.923	98.38
576.134	86.38
576.345	103.38
576.556	93.38
576.767	71.38
576.978	98.38
577.188	101.38
577.399	101.38
577.61	89.38
577.821	93.38
578.032	121.38
578.243	287.38
578.454	819.38
578.665	242.38
578.875	110.38
579.086	89.38
579.297	83.38
579.508	89.38
579.718	87.38
579.929	79.38
580.14	78.38
580.35	92.38
580.561	90.38
580.772	83.38
580.982	81.38
581.193	83.38
581.403	96.38
581.614	99.38
581.825	96.38
582.035	88.38
582.246	96.38
582.456	86.38
582.667	91.38
582.877	82.38
583.087	79.38
583.298	89.38
583.508	100.38
583.719	96.38
583.929	87.38
584.139	84.38
584.35	80.38
584.56	87.38
584.77	92.38
584.981	89.38
585.191	95.38
585.401	100.38
585.611	89.38
585.821	110.38
586.032	83.38
586.242	86.38
586.452	81.38
586.662	88.38
586.872	68.38
587.082	83.38
587.292	79.38
587.502	102.38
587.713	93.38
587.923	93.38
588.133	92.38
588.343	95.38
588.553	80.38
588.762	93.38
588.972	98.38
589.182	81.38
589.392	81.38
589.602	71.38
589.812	82.38
590.022	84.38
590.232	95.38
590.441	89.38
590.651	97.38
590.861	85.38
591.071	87.38
591.281	102.38
591.49	95.38
591.7	89.38
591.91	92.38
592.119	93.38
592.329	105.38
592.539	80.38
592.748	85.38
592.958	89.38
593.167	86.38
593.377	81.38
593.587	87.38
593.796	96.38
594.006	91.38
594.215	77.38
594.424	83.38
594.634	81.38
594.843	93.38
595.053	90.38
595.262	82.38
595.472	102.38
595.681	98.38
595.89	97.38
596.1	81.38
596.309	96.38
596.518	80.38
596.727	106.38
596.937	89.38
597.146	81.38
597.355	86.38
597.564	97.38
597.774	97.38
597.983	92.38
598.192	82.38
598.401	88.38
598.61	85.38
598.819	108.38
599.028	75.38
599.237	89.38
599.446	106.38
599.655	90.38
599.864	94.38
600.073	83.38
600.282	88.38
600.491	98.38
600.7	85.38
600.909	95.38
601.118	85.38
601.327	98.38
601.536	68.38
601.745	77.38
601.953	77.38
602.162	93.38
602.371	86.38
602.58	95.38
602.789	110.38
602.997	94.38
603.206	99.38
603.415	92.38
603.623	70.38
603.832	75.38
604.041	84.38
604.249	82.38
604.458	79.38
604.666	88.38
604.875	88.38
605.084	92.38
605.292	93.38
605.501	83.38
605.709	83.38
605.918	89.38
606.126	88.38
606.334	84.38
606.543	93.38
606.751	97.38
606.96	86.38
607.168	92.38
607.376	90.38
607.585	87.38
607.793	86.38
608.001	97.38
608.21	99.38
608.418	92.38
608.626	90.38
608.834	90.38
609.043	90.38
609.251	86.38
609.459	82.38
609.667	98.38
609.875	78.38
610.083	89.38
610.291	96.38
610.499	92.38
610.707	92.38
610.916	91.38
611.124	91.38
611.332	93.38
611.54	98.38
611.748	87.38
611.955	98.38
612.163	74.38
612.371	79.38
612.579	83.38
612.787	95.38
612.995	91.38
613.203	85.38
613.411	89.38
613.618	92.38
613.826	82.38
614.034	101.38
614.242	84.38
614.449	81.38
614.657	78.38
614.865	85.38
615.072	75.38
615.28	98.38
615.488	94.38
615.695	94.38
615.903	104.38
616.111	92.38
616.318	104.38
616.526	83.38
616.733	105.38
616.941	100.38
617.148	98.38
617.356	91.38
617.563	90.38
617.771	90.38
617.978	97.38
618.185	78.38
618.393	82.38
618.6	74.38
618.807	92.38
619.015	98.38
619.222	86.38
619.429	79.38
619.637	94.38
619.844	82.38
620.051	91.38
620.258	92.38
620.466	96.38
620.673	94.38
620.88	85.38
621.087	97.38
621.294	85.38
621.501	84.38
621.708	78.38
621.915	87.38
622.122	84.38
622.329	96.38
622.536	100.38
622.743	82.38
622.95	87.38
623.157	88.38
623.364	91.38
623.571	76.38
623.778	89.38
623.985	86.38
624.192	94.38
624.399	84.38
624.606	92.38
624.812	83.38
625.019	80.38
625.226	69.38
625.433	81.38
625.639	73.38
625.846	89.38
626.053	91.38
626.259	81.38
626.466	85.38
626.673	70.38
626.879	89.38
627.086	89.38
627.293	90.38
627.499	87.38
627.706	79.38
627.912	86.38
628.119	85.38
628.325	95.38
628.532	87.38
628.738	86.38
628.945	80.38
629.151	86.38
629.357	83.38
629.564	90.38
629.77	90.38
629.976	90.38
630.183	87.38
630.389	91.38
630.595	84.38
630.802	81.38
631.008	92.38
631.214	90.38
631.42	91.38
631.627	94.38
631.833	78.38
632.039	93.38
632.245	82.38
632.451	90.38
632.657	93.38
632.863	71.38
633.069	95.38
633.275	90.38
633.481	86.38
633.688	81.38
633.893	94.38
634.099	66.38
634.305	92.38
634.511	86.38
634.717	93.38
634.923	85.38
635.129	80.38
635.335	83.38
635.541	90.38
635.747	99.38
635.952	92.38
636.158	83.38
636.364	99.38
636.57	88.38
636.775	86.38
636.981	97.38
637.187	89.38
637.392	85.38
637.598	73.38
637.804	93.38
638.009	81.38
638.215	87.38
638.421	78.38
638.626	91.38
638.832	93.38
639.037	84.38
639.243	98.38
639.448	87.38
639.654	99.38
639.859	75.38
640.065	77.38
640.27	80.38
640.475	92.38
640.681	91.38
640.886	95.38
641.091	90.38
641.297	96.38
641.502	79.38
641.707	80.38
641.913	68.38
642.118	77.38
642.323	82.38
642.528	101.38
642.733	85.38
642.939	85.38
643.144	87.38
643.349	74.38
643.554	91.38
643.759	92.38
643.964	86.38
644.169	85.38
644.374	86.38
644.579	84.38
644.784	69.38
644.989	74.38
645.194	97.38
645.399	95.38
645.604	89.38
645.809	95.38
646.014	95.38
646.219	72.38
646.423	91.38
646.628	78.38
646.833	90.38
647.038	91.38
647.243	91.38
647.447	93.38
647.652	94.38
647.857	83.38
648.062	92.38
648.266	88.38
648.471	83.38
648.676	93.38
648.88	85.38
649.085	92.38
649.289	97.38
649.494	107.38
649.698	132.38
649.903	101.38
650.107	86.38
650.312	91.38
650.516	81.38
650.721	89.38
650.925	91.38
651.13	89.38
651.334	83.38
651.539	87.38
651.743	81.38
651.947	93.38
652.152	82.38
652.356	91.38
652.56	82.38
652.764	75.38
652.969	88.38
653.173	81.38
653.377	88.38
653.581	89.38
653.785	94.38
653.99	78.38
654.194	70.38
654.398	86.38
654.602	81.38
654.806	102.38
655.01	93.38
655.214	92.38
655.418	92.38
655.622	85.38
655.826	75.38
656.03	86.38
656.234	85.38
656.438	93.38
656.642	84.38
656.846	75.38
657.049	89.38
657.253	95.38
657.457	85.38
657.661	91.38
657.865	85.38
658.068	86.38
658.272	81.38
658.476	95.38
658.68	92.38
658.883	86.38
659.087	81.38
659.291	80.38
659.494	94.38
659.698	86.38
659.901	79.38
660.105	90.38
660.309	83.38
660.512	79.38
660.716	70.38
660.919	70.38
661.123	90.38
661.326	84.38
661.53	82.38
661.733	87.38
661.936	85.38
662.14	85.38
662.343	80.38
662.546	89.38
662.75	83.38
662.953	81.38
663.156	86.38
663.36	72.38
663.563	80.38
663.766	80.38
663.969	82.38
664.173	84.38
664.376	89.38
664.579	81.38
664.782	89.38
664.985	87.38
665.188	91.38
665.391	80.38
665.594	77.38
665.797	83.38
666	82.38
666.203	84.38
666.406	82.38
666.609	68.38
666.812	86.38
667.015	94.38
667.218	75.38
667.421	83.38
667.624	86.38
667.827	80.38
668.03	83.38
668.232	80.38
668.435	82.38
668.638	78.38
668.841	65.38
669.043	59.38
669.246	91.38
669.449	79.38
669.651	70.38
669.854	86.38
670.057	85.38
670.259	86.38
670.462	66.38
670.665	75.38
670.867	75.38
671.07	64.38
671.272	83.38
671.475	77.38
671.677	71.38
671.88	85.38
672.082	85.38
672.284	91.38
672.487	97.38
672.689	82.38
672.892	83.38
