Data from Circ_2014_H10_HRD10591_00078.txt Node
Date: Wed Jan 03 10:02:24 EST 2024
User: Yrep
Spectrometer: HR+D1059
Trigger mode: 1
Integration Time (sec): 1.000000E-1
Scans to average: 1
Electric dark correction enabled: true
Nonlinearity correction enabled: false
Boxcar width: 0
XAxis mode: Wavelengths
Number of Pixels in Spectrum: 2048
>>>>>Begin Spectral Data<<<<<
223.165	-14.62
223.4	-14.62
223.635	-14.62
223.869	-9.62
224.104	-17.62
224.338	-12.62
224.573	-24.62
224.808	-17.62
225.042	-15.62
225.277	-14.62
225.511	20.38
225.746	7.38
225.98	2.38
226.215	16.38
226.449	8.38
226.683	28.38
226.918	26.38
227.152	17.38
227.387	19.38
227.621	30.38
227.856	38.38
228.09	34.38
228.324	51.38
228.559	41.38
228.793	38.38
229.027	64.38
229.262	78.38
229.496	80.38
229.73	89.38
229.964	79.38
230.199	62.38
230.433	84.38
230.667	71.38
230.901	80.38
231.136	70.38
231.37	84.38
231.604	74.38
231.838	87.38
232.072	76.38
232.306	84.38
232.541	74.38
232.775	79.38
233.009	66.38
233.243	81.38
233.477	76.38
233.711	80.38
233.945	79.38
234.179	78.38
234.413	72.38
234.647	75.38
234.881	68.38
235.115	67.38
235.349	62.38
235.583	84.38
235.817	89.38
236.051	82.38
236.285	73.38
236.519	62.38
236.753	77.38
236.987	70.38
237.221	79.38
237.455	89.38
237.689	75.38
237.922	66.38
238.156	79.38
238.39	71.38
238.624	76.38
238.858	78.38
239.091	66.38
239.325	81.38
239.559	75.38
239.793	84.38
240.027	73.38
240.26	82.38
240.494	67.38
240.728	91.38
240.961	73.38
241.195	81.38
241.429	67.38
241.662	60.38
241.896	74.38
242.13	58.38
242.363	78.38
242.597	77.38
242.83	90.38
243.064	71.38
243.298	72.38
243.531	58.38
243.765	84.38
243.998	63.38
244.232	82.38
244.465	89.38
244.699	68.38
244.932	60.38
245.166	72.38
245.399	77.38
245.633	64.38
245.866	74.38
246.099	65.38
246.333	58.38
246.566	73.38
246.8	76.38
247.033	72.38
247.266	60.38
247.5	72.38
247.733	69.38
247.966	64.38
248.2	84.38
248.433	78.38
248.666	77.38
248.899	64.38
249.133	88.38
249.366	84.38
249.599	94.38
249.832	73.38
250.066	83.38
250.299	77.38
250.532	89.38
250.765	73.38
250.998	79.38
251.231	82.38
251.465	78.38
251.698	76.38
251.931	69.38
252.164	80.38
252.397	71.38
252.63	79.38
252.863	73.38
253.096	71.38
253.329	82.38
253.562	78.38
253.795	72.38
254.028	65.38
254.261	88.38
254.494	72.38
254.727	81.38
254.96	67.38
255.193	63.38
255.426	82.38
255.659	82.38
255.892	64.38
256.124	74.38
256.357	72.38
256.59	68.38
256.823	69.38
257.056	72.38
257.289	64.38
257.521	60.38
257.754	76.38
257.987	74.38
258.22	80.38
258.452	77.38
258.685	87.38
258.918	80.38
259.151	81.38
259.383	69.38
259.616	86.38
259.849	69.38
260.081	77.38
260.314	88.38
260.547	74.38
260.779	94.38
261.012	81.38
261.244	88.38
261.477	83.38
261.71	87.38
261.942	119.38
262.175	113.38
262.407	78.38
262.64	88.38
262.872	79.38
263.105	60.38
263.337	83.38
263.57	74.38
263.802	85.38
264.035	96.38
264.267	77.38
264.499	81.38
264.732	62.38
264.964	71.38
265.197	64.38
265.429	77.38
265.661	82.38
265.894	83.38
266.126	74.38
266.358	88.38
266.591	81.38
266.823	72.38
267.055	83.38
267.287	76.38
267.52	73.38
267.752	70.38
267.984	78.38
268.216	84.38
268.448	82.38
268.681	60.38
268.913	86.38
269.145	79.38
269.377	72.38
269.609	94.38
269.841	68.38
270.073	60.38
270.306	91.38
270.538	84.38
270.77	88.38
271.002	80.38
271.234	94.38
271.466	93.38
271.698	97.38
271.93	88.38
272.162	87.38
272.394	81.38
272.626	75.38
272.858	81.38
273.09	67.38
273.322	76.38
273.553	85.38
273.785	78.38
274.017	80.38
274.249	82.38
274.481	84.38
274.713	83.38
274.945	80.38
275.176	75.38
275.408	70.38
275.64	79.38
275.872	74.38
276.104	72.38
276.335	82.38
276.567	106.38
276.799	108.38
277.031	96.38
277.262	93.38
277.494	70.38
277.726	71.38
277.957	69.38
278.189	79.38
278.421	85.38
278.652	76.38
278.884	91.38
279.115	81.38
279.347	89.38
279.579	85.38
279.81	84.38
280.042	90.38
280.273	96.38
280.505	85.38
280.736	83.38
280.968	96.38
281.199	72.38
281.431	78.38
281.662	88.38
281.894	96.38
282.125	92.38
282.356	116.38
282.588	137.38
282.819	109.38
283.051	83.38
283.282	90.38
283.513	83.38
283.745	86.38
283.976	99.38
284.207	70.38
284.439	80.38
284.67	86.38
284.901	83.38
285.132	64.38
285.364	82.38
285.595	77.38
285.826	76.38
286.057	88.38
286.288	73.38
286.52	83.38
286.751	77.38
286.982	83.38
287.213	77.38
287.444	74.38
287.675	84.38
287.906	94.38
288.138	85.38
288.369	74.38
288.6	74.38
288.831	80.38
289.062	77.38
289.293	94.38
289.524	82.38
289.755	78.38
289.986	78.38
290.217	83.38
290.448	74.38
290.679	67.38
290.91	83.38
291.141	69.38
291.371	89.38
291.602	85.38
291.833	77.38
292.064	84.38
292.295	83.38
292.526	87.38
292.757	87.38
292.987	74.38
293.218	84.38
293.449	82.38
293.68	77.38
293.91	74.38
294.141	80.38
294.372	73.38
294.603	84.38
294.833	84.38
295.064	76.38
295.295	92.38
295.525	90.38
295.756	103.38
295.987	121.38
296.217	137.38
296.448	106.38
296.679	87.38
296.909	96.38
297.14	92.38
297.37	81.38
297.601	76.38
297.831	83.38
298.062	72.38
298.292	90.38
298.523	69.38
298.753	88.38
298.984	93.38
299.214	87.38
299.445	92.38
299.675	79.38
299.905	102.38
300.136	76.38
300.366	73.38
300.597	87.38
300.827	90.38
301.057	91.38
301.288	91.38
301.518	77.38
301.748	84.38
301.979	95.38
302.209	98.38
302.439	93.38
302.669	81.38
302.9	80.38
303.13	86.38
303.36	90.38
303.59	94.38
303.82	99.38
304.051	96.38
304.281	79.38
304.511	80.38
304.741	74.38
304.971	100.38
305.201	73.38
305.431	87.38
305.661	85.38
305.891	79.38
306.121	83.38
306.352	96.38
306.582	94.38
306.812	99.38
307.042	87.38
307.272	104.38
307.502	93.38
307.731	102.38
307.961	81.38
308.191	97.38
308.421	90.38
308.651	78.38
308.881	92.38
309.111	82.38
309.341	81.38
309.571	87.38
309.8	74.38
310.03	88.38
310.26	81.38
310.49	88.38
310.72	100.38
310.949	90.38
311.179	93.38
311.409	90.38
311.639	83.38
311.868	102.38
312.098	96.38
312.328	103.38
312.557	97.38
312.787	82.38
313.017	95.38
313.246	87.38
313.476	78.38
313.706	95.38
313.935	98.38
314.165	88.38
314.394	95.38
314.624	88.38
314.853	92.38
315.083	99.38
315.312	82.38
315.542	95.38
315.771	75.38
316.001	81.38
316.23	80.38
316.46	90.38
316.689	100.38
316.919	93.38
317.148	83.38
317.377	86.38
317.607	87.38
317.836	90.38
318.065	90.38
318.295	94.38
318.524	81.38
318.753	85.38
318.983	96.38
319.212	99.38
319.441	105.38
319.67	103.38
319.9	95.38
320.129	74.38
320.358	79.38
320.587	91.38
320.816	97.38
321.046	95.38
321.275	87.38
321.504	87.38
321.733	85.38
321.962	87.38
322.191	89.38
322.42	102.38
322.649	92.38
322.878	100.38
323.108	109.38
323.337	122.38
323.566	127.38
323.795	160.38
324.024	195.38
324.253	382.38
324.482	787.38
324.71	1570.38
324.939	2144.38
325.168	775.38
325.397	227.38
325.626	137.38
325.855	112.38
326.084	125.38
326.313	136.38
326.542	148.38
326.77	224.38
326.999	431.38
327.228	872.38
327.457	1556.38
327.686	1279.38
327.914	361.38
328.143	197.38
328.372	185.38
328.6	135.38
328.829	116.38
329.058	136.38
329.287	133.38
329.515	117.38
329.744	94.38
329.972	136.38
330.201	190.38
330.43	243.38
330.658	181.38
330.887	146.38
331.115	121.38
331.344	92.38
331.572	105.38
331.801	94.38
332.03	99.38
332.258	89.38
332.486	95.38
332.715	84.38
332.943	77.38
333.172	95.38
333.4	87.38
333.629	90.38
333.857	120.38
334.085	117.38
334.314	184.38
334.542	264.38
334.771	252.38
334.999	109.38
335.227	95.38
335.455	87.38
335.684	95.38
335.912	99.38
336.14	95.38
336.369	99.38
336.597	93.38
336.825	80.38
337.053	89.38
337.281	94.38
337.51	80.38
337.738	92.38
337.966	88.38
338.194	88.38
338.422	92.38
338.65	75.38
338.878	95.38
339.106	96.38
339.334	97.38
339.562	86.38
339.79	87.38
340.018	99.38
340.246	82.38
340.474	84.38
340.702	88.38
340.93	96.38
341.158	79.38
341.386	96.38
341.614	89.38
341.842	90.38
342.07	92.38
342.298	106.38
342.526	86.38
342.754	79.38
342.981	92.38
343.209	76.38
343.437	92.38
343.665	89.38
343.893	81.38
344.12	92.38
344.348	87.38
344.576	98.38
344.804	88.38
345.031	92.38
345.259	86.38
345.487	98.38
345.714	93.38
345.942	87.38
346.17	84.38
346.397	79.38
346.625	80.38
346.853	79.38
347.08	88.38
347.308	110.38
347.535	89.38
347.763	94.38
347.99	84.38
348.218	86.38
348.445	93.38
348.673	111.38
348.9	95.38
349.128	100.38
349.355	87.38
349.583	77.38
349.81	80.38
350.037	77.38
350.265	94.38
350.492	75.38
350.72	103.38
350.947	94.38
351.174	95.38
351.402	113.38
351.629	84.38
351.856	106.38
352.083	103.38
352.311	114.38
352.538	99.38
352.765	111.38
352.992	114.38
353.22	109.38
353.447	104.38
353.674	98.38
353.901	92.38
354.128	84.38
354.355	93.38
354.583	81.38
354.81	86.38
355.037	81.38
355.264	85.38
355.491	87.38
355.718	95.38
355.945	88.38
356.172	86.38
356.399	91.38
356.626	94.38
356.853	87.38
357.08	87.38
357.307	75.38
357.534	96.38
357.761	87.38
357.988	88.38
358.215	90.38
358.441	97.38
358.668	94.38
358.895	95.38
359.122	88.38
359.349	75.38
359.576	77.38
359.802	87.38
360.029	109.38
360.256	119.38
360.483	90.38
360.709	86.38
360.936	102.38
361.163	73.38
361.39	85.38
361.616	90.38
361.843	98.38
362.07	82.38
362.296	87.38
362.523	91.38
362.749	74.38
362.976	80.38
363.203	89.38
363.429	88.38
363.656	90.38
363.882	76.38
364.109	91.38
364.335	93.38
364.562	71.38
364.788	84.38
365.015	92.38
365.241	93.38
365.468	102.38
365.694	97.38
365.92	94.38
366.147	96.38
366.373	79.38
366.599	75.38
366.826	82.38
367.052	80.38
367.278	81.38
367.505	72.38
367.731	90.38
367.957	76.38
368.184	88.38
368.41	87.38
368.636	124.38
368.862	125.38
369.089	111.38
369.315	94.38
369.541	80.38
369.767	89.38
369.993	92.38
370.219	81.38
370.445	82.38
370.672	74.38
370.898	83.38
371.124	91.38
371.35	80.38
371.576	78.38
371.802	83.38
372.028	84.38
372.254	87.38
372.48	94.38
372.706	92.38
372.932	82.38
373.158	81.38
373.384	80.38
373.61	104.38
373.835	85.38
374.061	68.38
374.287	85.38
374.513	87.38
374.739	74.38
374.965	89.38
375.191	80.38
375.416	81.38
375.642	76.38
375.868	80.38
376.094	86.38
376.319	85.38
376.545	71.38
376.771	90.38
376.997	73.38
377.222	92.38
377.448	87.38
377.674	79.38
377.899	90.38
378.125	82.38
378.35	100.38
378.576	89.38
378.802	75.38
379.027	83.38
379.253	85.38
379.478	82.38
379.704	88.38
379.929	89.38
380.155	85.38
380.38	93.38
380.606	92.38
380.831	81.38
381.057	86.38
381.282	89.38
381.507	94.38
381.733	88.38
381.958	100.38
382.184	74.38
382.409	94.38
382.634	87.38
382.86	97.38
383.085	104.38
383.31	95.38
383.535	91.38
383.761	87.38
383.986	96.38
384.211	93.38
384.436	72.38
384.662	94.38
384.887	99.38
385.112	93.38
385.337	93.38
385.562	103.38
385.787	94.38
386.013	98.38
386.238	106.38
386.463	101.38
386.688	97.38
386.913	73.38
387.138	84.38
387.363	97.38
387.588	98.38
387.813	91.38
388.038	88.38
388.263	102.38
388.488	105.38
388.713	103.38
388.938	83.38
389.163	79.38
389.387	82.38
389.612	89.38
389.837	73.38
390.062	91.38
390.287	82.38
390.512	84.38
390.736	77.38
390.961	84.38
391.186	79.38
391.411	88.38
391.636	82.38
391.86	72.38
392.085	95.38
392.31	73.38
392.534	61.38
392.759	76.38
392.984	89.38
393.208	78.38
393.433	88.38
393.658	96.38
393.882	74.38
394.107	73.38
394.331	74.38
394.556	71.38
394.78	74.38
395.005	92.38
395.229	57.38
395.454	77.38
395.678	79.38
395.903	82.38
396.127	72.38
396.352	73.38
396.576	92.38
396.801	93.38
397.025	71.38
397.249	81.38
397.474	88.38
397.698	92.38
397.922	69.38
398.147	94.38
398.371	74.38
398.595	85.38
398.82	91.38
399.044	82.38
399.268	68.38
399.492	93.38
399.717	76.38
399.941	83.38
400.165	87.38
400.389	94.38
400.613	92.38
400.837	69.38
401.062	86.38
401.286	84.38
401.51	89.38
401.734	92.38
401.958	100.38
402.182	113.38
402.406	151.38
402.63	128.38
402.854	88.38
403.078	91.38
403.302	92.38
403.526	80.38
403.75	88.38
403.974	75.38
404.198	95.38
404.422	93.38
404.645	84.38
404.869	83.38
405.093	83.38
405.317	105.38
405.541	96.38
405.765	95.38
405.988	94.38
406.212	144.38
406.436	233.38
406.66	148.38
406.883	85.38
407.107	96.38
407.331	94.38
407.555	84.38
407.778	88.38
408.002	86.38
408.226	84.38
408.449	78.38
408.673	84.38
408.896	87.38
409.12	94.38
409.344	87.38
409.567	97.38
409.791	80.38
410.014	80.38
410.238	93.38
410.461	74.38
410.685	96.38
410.908	100.38
411.132	102.38
411.355	87.38
411.578	89.38
411.802	82.38
412.025	88.38
412.249	86.38
412.472	90.38
412.695	108.38
412.919	95.38
413.142	79.38
413.365	98.38
413.589	77.38
413.812	73.38
414.035	83.38
414.258	91.38
414.482	85.38
414.705	63.38
414.928	89.38
415.151	91.38
415.374	82.38
415.597	87.38
415.821	78.38
416.044	86.38
416.267	68.38
416.49	75.38
416.713	79.38
416.936	90.38
417.159	80.38
417.382	81.38
417.605	88.38
417.828	85.38
418.051	75.38
418.274	81.38
418.497	80.38
418.72	72.38
418.943	90.38
419.166	88.38
419.389	83.38
419.611	96.38
419.834	77.38
420.057	92.38
420.28	86.38
420.503	86.38
420.726	87.38
420.948	80.38
421.171	89.38
421.394	65.38
421.617	80.38
421.839	94.38
422.062	82.38
422.285	90.38
422.507	94.38
422.73	99.38
422.953	87.38
423.175	84.38
423.398	82.38
423.621	76.38
423.843	92.38
424.066	88.38
424.288	92.38
424.511	74.38
424.733	92.38
424.956	112.38
425.178	95.38
425.401	114.38
425.623	104.38
425.846	99.38
426.068	100.38
426.291	89.38
426.513	79.38
426.735	73.38
426.958	93.38
427.18	101.38
427.402	137.38
427.625	172.38
427.847	152.38
428.069	113.38
428.292	87.38
428.514	77.38
428.736	87.38
428.958	79.38
429.181	82.38
429.403	85.38
429.625	74.38
429.847	97.38
430.069	97.38
430.292	86.38
430.514	81.38
430.736	80.38
430.958	74.38
431.18	86.38
431.402	72.38
431.624	72.38
431.846	70.38
432.068	77.38
432.29	93.38
432.512	94.38
432.734	83.38
432.956	90.38
433.178	96.38
433.4	81.38
433.622	81.38
433.844	84.38
434.066	93.38
434.287	71.38
434.509	77.38
434.731	94.38
434.953	84.38
435.175	70.38
435.397	95.38
435.618	90.38
435.84	102.38
436.062	125.38
436.284	109.38
436.505	90.38
436.727	101.38
436.949	85.38
437.17	77.38
437.392	77.38
437.614	90.38
437.835	93.38
438.057	120.38
438.278	91.38
438.5	91.38
438.721	109.38
438.943	101.38
439.165	73.38
439.386	70.38
439.608	75.38
439.829	103.38
440.05	113.38
440.272	131.38
440.493	82.38
440.715	76.38
440.936	84.38
441.158	79.38
441.379	99.38
441.6	77.38
441.822	83.38
442.043	86.38
442.264	113.38
442.486	96.38
442.707	88.38
442.928	99.38
443.149	136.38
443.371	130.38
443.592	104.38
443.813	109.38
444.034	109.38
444.255	96.38
444.476	84.38
444.698	73.38
444.919	75.38
445.14	128.38
445.361	126.38
445.582	121.38
445.803	118.38
446.024	122.38
446.245	128.38
446.466	94.38
446.687	90.38
446.908	88.38
447.129	81.38
447.35	86.38
447.571	89.38
447.792	86.38
448.013	83.38
448.234	115.38
448.455	92.38
448.675	101.38
448.896	114.38
449.117	96.38
449.338	106.38
449.559	136.38
449.779	140.38
450	95.38
450.221	80.38
450.442	85.38
450.662	99.38
450.883	97.38
451.104	124.38
451.324	89.38
451.545	80.38
451.766	82.38
451.986	77.38
452.207	90.38
452.428	79.38
452.648	87.38
452.869	100.38
453.089	118.38
453.31	111.38
453.53	102.38
453.751	96.38
453.971	95.38
454.192	104.38
454.412	82.38
454.633	90.38
454.853	89.38
455.073	71.38
455.294	87.38
455.514	96.38
455.734	85.38
455.955	73.38
456.175	78.38
456.395	84.38
456.616	83.38
456.836	89.38
457.056	74.38
457.276	85.38
457.497	79.38
457.717	76.38
457.937	74.38
458.157	84.38
458.377	102.38
458.598	99.38
458.818	152.38
459.038	144.38
459.258	113.38
459.478	86.38
459.698	69.38
459.918	90.38
460.138	74.38
460.358	75.38
460.578	85.38
460.798	99.38
461.018	93.38
461.238	92.38
461.458	89.38
461.678	76.38
461.898	75.38
462.118	82.38
462.338	84.38
462.558	89.38
462.777	79.38
462.997	73.38
463.217	86.38
463.437	82.38
463.657	79.38
463.876	69.38
464.096	91.38
464.316	98.38
464.536	103.38
464.755	97.38
464.975	93.38
465.195	170.38
465.414	165.38
465.634	99.38
465.854	81.38
466.073	94.38
466.293	88.38
466.512	89.38
466.732	83.38
466.951	103.38
467.171	83.38
467.391	82.38
467.61	97.38
467.829	111.38
468.049	116.38
468.268	144.38
468.488	93.38
468.707	78.38
468.927	89.38
469.146	88.38
469.365	82.38
469.585	79.38
469.804	82.38
470.023	104.38
470.243	83.38
470.462	91.38
470.681	102.38
470.901	86.38
471.12	91.38
471.339	98.38
471.558	85.38
471.777	75.38
471.997	108.38
472.216	201.38
472.435	316.38
472.654	154.38
472.873	103.38
473.092	82.38
473.311	95.38
473.53	90.38
473.749	82.38
473.968	90.38
474.187	103.38
474.406	86.38
474.625	73.38
474.844	72.38
475.063	91.38
475.282	82.38
475.501	83.38
475.72	82.38
475.939	79.38
476.158	73.38
476.377	80.38
476.596	71.38
476.814	101.38
477.033	92.38
477.252	87.38
477.471	84.38
477.69	81.38
477.908	87.38
478.127	91.38
478.346	78.38
478.564	89.38
478.783	89.38
479.002	93.38
479.22	79.38
479.439	105.38
479.658	94.38
479.876	81.38
480.095	88.38
480.313	96.38
480.532	83.38
480.751	113.38
480.969	185.38
481.188	538.38
481.406	353.38
481.624	120.38
481.843	94.38
482.061	80.38
482.28	73.38
482.498	84.38
482.717	88.38
482.935	98.38
483.153	86.38
483.372	93.38
483.59	86.38
483.808	90.38
484.027	74.38
484.245	90.38
484.463	69.38
484.681	88.38
484.9	82.38
485.118	87.38
485.336	85.38
485.554	87.38
485.772	94.38
485.99	83.38
486.209	89.38
486.427	89.38
486.645	99.38
486.863	117.38
487.081	86.38
487.299	70.38
487.517	82.38
487.735	72.38
487.953	95.38
488.171	78.38
488.389	93.38
488.607	103.38
488.825	95.38
489.043	88.38
489.261	88.38
489.479	78.38
489.696	83.38
489.914	85.38
490.132	99.38
490.35	81.38
490.568	65.38
490.786	67.38
491.003	88.38
491.221	84.38
491.439	99.38
491.657	96.38
491.874	93.38
492.092	82.38
492.31	93.38
492.527	83.38
492.745	85.38
492.963	80.38
493.18	85.38
493.398	85.38
493.615	93.38
493.833	100.38
494.05	85.38
494.268	86.38
494.485	84.38
494.703	82.38
494.92	78.38
495.138	88.38
495.355	77.38
495.573	84.38
495.79	97.38
496.008	96.38
496.225	88.38
496.442	73.38
496.66	78.38
496.877	79.38
497.094	100.38
497.312	74.38
497.529	76.38
497.746	89.38
497.963	83.38
498.181	85.38
498.398	75.38
498.615	97.38
498.832	107.38
499.049	97.38
499.267	102.38
499.484	80.38
499.701	90.38
499.918	95.38
500.135	81.38
500.352	82.38
500.569	90.38
500.786	92.38
501.003	80.38
501.22	77.38
501.437	85.38
501.654	86.38
501.871	86.38
502.088	94.38
502.305	87.38
502.522	81.38
502.739	90.38
502.956	81.38
503.172	87.38
503.389	103.38
503.606	85.38
503.823	97.38
504.04	96.38
504.256	82.38
504.473	81.38
504.69	92.38
504.907	87.38
505.123	88.38
505.34	76.38
505.557	69.38
505.773	84.38
505.99	79.38
506.207	77.38
506.423	82.38
506.64	78.38
506.856	65.38
507.073	89.38
507.289	91.38
507.506	93.38
507.722	121.38
507.939	110.38
508.155	101.38
508.372	89.38
508.588	90.38
508.805	88.38
509.021	94.38
509.238	89.38
509.454	87.38
509.67	95.38
509.887	101.38
510.103	121.38
510.319	215.38
510.536	737.38
510.752	2492.38
510.968	725.38
511.184	158.38
511.401	122.38
511.617	96.38
511.833	80.38
512.049	97.38
512.265	78.38
512.481	79.38
512.698	76.38
512.914	85.38
513.13	87.38
513.346	81.38
513.562	89.38
513.778	91.38
513.994	82.38
514.21	105.38
514.426	97.38
514.642	135.38
514.858	129.38
515.074	165.38
515.29	475.38
515.506	1655.38
515.721	625.38
515.937	174.38
516.153	115.38
516.369	107.38
516.585	109.38
516.801	88.38
517.016	88.38
517.232	68.38
517.448	86.38
517.664	91.38
517.879	90.38
518.095	98.38
518.311	92.38
518.527	82.38
518.742	89.38
518.958	99.38
519.173	83.38
519.389	95.38
519.605	95.38
519.82	96.38
520.036	106.38
520.251	114.38
520.467	106.38
520.682	97.38
520.898	115.38
521.113	111.38
521.329	141.38
521.544	211.38
521.76	561.38
521.975	2720.38
522.19	1700.38
522.406	351.38
522.621	116.38
522.836	105.38
523.052	88.38
523.267	84.38
523.482	91.38
523.698	82.38
523.913	136.38
524.128	104.38
524.343	104.38
524.559	92.38
524.774	92.38
524.989	79.38
525.204	91.38
525.419	113.38
525.634	88.38
525.849	83.38
526.064	85.38
526.28	104.38
526.495	93.38
526.71	69.38
526.925	84.38
527.14	88.38
527.355	83.38
527.57	87.38
527.785	83.38
527.999	84.38
528.214	67.38
528.429	91.38
528.644	80.38
528.859	84.38
529.074	80.38
529.289	134.38
529.503	188.38
529.718	122.38
529.933	97.38
530.148	73.38
530.363	82.38
530.577	94.38
530.792	80.38
531.007	94.38
531.221	97.38
531.436	83.38
531.651	81.38
531.865	80.38
532.08	77.38
532.295	84.38
532.509	80.38
532.724	71.38
532.938	91.38
533.153	82.38
533.367	92.38
533.582	89.38
533.796	93.38
534.011	83.38
534.225	85.38
534.44	81.38
534.654	86.38
534.868	101.38
535.083	87.38
535.297	88.38
535.511	103.38
535.726	100.38
535.94	85.38
536.154	92.38
536.369	86.38
536.583	78.38
536.797	85.38
537.011	72.38
537.225	96.38
537.44	100.38
537.654	84.38
537.868	96.38
538.082	80.38
538.296	78.38
538.51	79.38
538.724	80.38
538.938	95.38
539.153	95.38
539.367	95.38
539.581	98.38
539.795	93.38
540.009	84.38
540.222	79.38
540.436	81.38
540.65	77.38
540.864	89.38
541.078	97.38
541.292	86.38
541.506	91.38
541.72	82.38
541.934	80.38
542.147	81.38
542.361	65.38
542.575	79.38
542.789	80.38
543.002	79.38
543.216	87.38
543.43	89.38
543.644	88.38
543.857	101.38
544.071	77.38
544.285	94.38
544.498	96.38
544.712	89.38
544.925	79.38
545.139	88.38
545.352	85.38
545.566	96.38
545.779	93.38
545.993	87.38
546.206	87.38
546.42	92.38
546.633	81.38
546.847	84.38
547.06	70.38
547.274	80.38
547.487	86.38
547.7	84.38
547.914	82.38
548.127	93.38
548.34	95.38
548.554	79.38
548.767	85.38
548.98	90.38
549.193	86.38
549.407	89.38
549.62	83.38
549.833	80.38
550.046	82.38
550.259	97.38
550.473	88.38
550.686	88.38
550.899	84.38
551.112	75.38
551.325	81.38
551.538	79.38
551.751	83.38
551.964	83.38
552.177	100.38
552.39	91.38
552.603	92.38
552.816	66.38
553.029	87.38
553.242	85.38
553.455	88.38
553.667	93.38
553.88	96.38
554.093	98.38
554.306	100.38
554.519	77.38
554.732	73.38
554.944	93.38
555.157	64.38
555.37	92.38
555.583	91.38
555.795	74.38
556.008	81.38
556.221	88.38
556.433	89.38
556.646	81.38
556.859	90.38
557.071	76.38
557.284	82.38
557.496	81.38
557.709	85.38
557.921	100.38
558.134	86.38
558.346	89.38
558.559	102.38
558.771	93.38
558.984	85.38
559.196	88.38
559.409	85.38
559.621	95.38
559.833	79.38
560.046	84.38
560.258	93.38
560.47	97.38
560.683	77.38
560.895	98.38
561.107	82.38
561.32	84.38
561.532	85.38
561.744	84.38
561.956	90.38
562.168	79.38
562.381	97.38
562.593	82.38
562.805	98.38
563.017	99.38
563.229	96.38
563.441	85.38
563.653	84.38
563.865	71.38
564.077	77.38
564.289	80.38
564.501	91.38
564.713	89.38
564.925	101.38
565.137	102.38
565.349	79.38
565.561	87.38
565.773	84.38
565.985	88.38
566.197	96.38
566.408	79.38
566.62	76.38
566.832	76.38
567.044	81.38
567.255	95.38
567.467	67.38
567.679	73.38
567.891	80.38
568.102	86.38
568.314	82.38
568.526	71.38
568.737	85.38
568.949	66.38
569.161	63.38
569.372	78.38
569.584	84.38
569.795	80.38
570.007	113.38
570.218	254.38
570.43	125.38
570.641	86.38
570.853	77.38
571.064	78.38
571.276	90.38
571.487	90.38
571.698	75.38
571.91	86.38
572.121	71.38
572.333	83.38
572.544	75.38
572.755	70.38
572.966	93.38
573.178	89.38
573.389	98.38
573.6	77.38
573.811	84.38
574.023	100.38
574.234	81.38
574.445	74.38
574.656	82.38
574.867	90.38
575.078	86.38
575.289	73.38
575.501	89.38
575.712	67.38
575.923	84.38
576.134	83.38
576.345	81.38
576.556	81.38
576.767	83.38
576.978	91.38
577.188	88.38
577.399	93.38
577.61	86.38
577.821	101.38
578.032	104.38
578.243	273.38
578.454	788.38
578.665	222.38
578.875	99.38
579.086	86.38
579.297	74.38
579.508	72.38
579.718	82.38
579.929	96.38
580.14	87.38
580.35	81.38
580.561	80.38
580.772	77.38
580.982	95.38
581.193	81.38
581.403	87.38
581.614	82.38
581.825	82.38
582.035	100.38
582.246	89.38
582.456	88.38
582.667	75.38
582.877	90.38
583.087	103.38
583.298	90.38
583.508	101.38
583.719	83.38
583.929	79.38
584.139	84.38
584.35	79.38
584.56	90.38
584.77	95.38
584.981	79.38
585.191	73.38
585.401	76.38
585.611	74.38
585.821	84.38
586.032	80.38
586.242	75.38
586.452	88.38
586.662	88.38
586.872	88.38
587.082	91.38
587.292	84.38
587.502	70.38
587.713	77.38
587.923	78.38
588.133	86.38
588.343	71.38
588.553	81.38
588.762	90.38
588.972	74.38
589.182	98.38
589.392	96.38
589.602	88.38
589.812	90.38
590.022	92.38
590.232	80.38
590.441	70.38
590.651	81.38
590.861	77.38
591.071	69.38
591.281	79.38
591.49	93.38
591.7	86.38
591.91	85.38
592.119	80.38
592.329	73.38
592.539	97.38
592.748	89.38
592.958	83.38
593.167	69.38
593.377	68.38
593.587	86.38
593.796	71.38
594.006	72.38
594.215	82.38
594.424	84.38
594.634	86.38
594.843	70.38
595.053	85.38
595.262	96.38
595.472	84.38
595.681	91.38
595.89	80.38
596.1	86.38
596.309	68.38
596.518	60.38
596.727	80.38
596.937	99.38
597.146	92.38
597.355	68.38
597.564	69.38
597.774	86.38
597.983	83.38
598.192	73.38
598.401	88.38
598.61	72.38
598.819	69.38
599.028	78.38
599.237	87.38
599.446	87.38
599.655	86.38
599.864	87.38
600.073	88.38
600.282	96.38
600.491	88.38
600.7	68.38
600.909	81.38
601.118	88.38
601.327	92.38
601.536	69.38
601.745	81.38
601.953	82.38
602.162	83.38
602.371	81.38
602.58	82.38
602.789	91.38
602.997	73.38
603.206	85.38
603.415	84.38
603.623	84.38
603.832	98.38
604.041	80.38
604.249	67.38
604.458	85.38
604.666	68.38
604.875	82.38
605.084	87.38
605.292	78.38
605.501	70.38
605.709	73.38
605.918	75.38
606.126	83.38
606.334	76.38
606.543	82.38
606.751	73.38
606.96	69.38
607.168	82.38
607.376	82.38
607.585	72.38
607.793	84.38
608.001	77.38
608.21	76.38
608.418	80.38
608.626	89.38
608.834	80.38
609.043	82.38
609.251	91.38
609.459	83.38
609.667	94.38
609.875	81.38
610.083	80.38
610.291	77.38
610.499	82.38
610.707	84.38
610.916	74.38
611.124	84.38
611.332	79.38
611.54	72.38
611.748	96.38
611.955	87.38
612.163	86.38
612.371	83.38
612.579	96.38
612.787	76.38
612.995	81.38
613.203	87.38
613.411	79.38
613.618	80.38
613.826	77.38
614.034	80.38
614.242	89.38
614.449	69.38
614.657	68.38
614.865	70.38
615.072	86.38
615.28	75.38
615.488	77.38
615.695	77.38
615.903	84.38
616.111	96.38
616.318	84.38
616.526	86.38
616.733	85.38
616.941	82.38
617.148	85.38
617.356	80.38
617.563	96.38
617.771	92.38
617.978	87.38
618.185	83.38
618.393	79.38
618.6	84.38
618.807	80.38
619.015	80.38
619.222	81.38
619.429	83.38
619.637	90.38
619.844	74.38
620.051	80.38
620.258	66.38
620.466	69.38
620.673	71.38
620.88	81.38
621.087	74.38
621.294	65.38
621.501	82.38
621.708	87.38
621.915	88.38
622.122	85.38
622.329	74.38
622.536	69.38
622.743	84.38
622.95	81.38
623.157	71.38
623.364	84.38
623.571	69.38
623.778	77.38
623.985	73.38
624.192	69.38
624.399	86.38
624.606	77.38
624.812	59.38
625.019	90.38
625.226	77.38
625.433	86.38
625.639	72.38
625.846	83.38
626.053	97.38
626.259	77.38
626.466	85.38
626.673	79.38
626.879	68.38
627.086	74.38
627.293	78.38
627.499	82.38
627.706	84.38
627.912	94.38
628.119	76.38
628.325	73.38
628.532	75.38
628.738	83.38
628.945	70.38
629.151	88.38
629.357	61.38
629.564	83.38
629.77	77.38
629.976	82.38
630.183	77.38
630.389	81.38
630.595	85.38
630.802	83.38
631.008	82.38
631.214	77.38
631.42	86.38
631.627	81.38
631.833	80.38
632.039	72.38
632.245	80.38
632.451	62.38
632.657	67.38
632.863	84.38
633.069	87.38
633.275	84.38
633.481	65.38
633.688	84.38
633.893	67.38
634.099	85.38
634.305	90.38
634.511	76.38
634.717	66.38
634.923	71.38
635.129	75.38
635.335	72.38
635.541	73.38
635.747	82.38
635.952	88.38
636.158	71.38
636.364	97.38
636.57	104.38
636.775	85.38
636.981	61.38
637.187	83.38
637.392	77.38
637.598	70.38
637.804	82.38
638.009	65.38
638.215	77.38
638.421	87.38
638.626	85.38
638.832	88.38
639.037	70.38
639.243	77.38
639.448	89.38
639.654	82.38
639.859	72.38
640.065	80.38
640.27	79.38
640.475	89.38
640.681	76.38
640.886	74.38
641.091	90.38
641.297	89.38
641.502	95.38
641.707	81.38
641.913	87.38
642.118	74.38
642.323	76.38
642.528	78.38
642.733	82.38
642.939	80.38
643.144	85.38
643.349	81.38
643.554	70.38
643.759	72.38
643.964	88.38
644.169	74.38
644.374	77.38
644.579	71.38
644.784	77.38
644.989	79.38
645.194	87.38
645.399	80.38
645.604	81.38
645.809	70.38
646.014	80.38
646.219	86.38
646.423	90.38
646.628	69.38
646.833	71.38
647.038	78.38
647.243	75.38
647.447	69.38
647.652	76.38
647.857	77.38
648.062	77.38
648.266	85.38
648.471	65.38
648.676	79.38
648.88	78.38
649.085	69.38
649.289	68.38
649.494	101.38
649.698	137.38
649.903	91.38
650.107	86.38
650.312	68.38
650.516	90.38
650.721	80.38
650.925	72.38
651.13	78.38
651.334	81.38
651.539	89.38
651.743	79.38
651.947	81.38
652.152	80.38
652.356	85.38
652.56	79.38
652.764	81.38
652.969	78.38
653.173	85.38
653.377	87.38
653.581	82.38
653.785	77.38
653.99	74.38
654.194	74.38
654.398	79.38
654.602	82.38
654.806	71.38
655.01	86.38
655.214	89.38
655.418	78.38
655.622	83.38
655.826	72.38
656.03	73.38
656.234	81.38
656.438	80.38
656.642	74.38
656.846	79.38
657.049	83.38
657.253	80.38
657.457	80.38
657.661	72.38
657.865	78.38
658.068	89.38
658.272	92.38
658.476	81.38
658.68	72.38
658.883	75.38
659.087	64.38
659.291	77.38
659.494	65.38
659.698	75.38
659.901	68.38
660.105	75.38
660.309	82.38
660.512	85.38
660.716	64.38
660.919	83.38
661.123	95.38
661.326	83.38
661.53	74.38
661.733	76.38
661.936	88.38
662.14	76.38
662.343	84.38
662.546	79.38
662.75	79.38
662.953	76.38
663.156	76.38
663.36	77.38
663.563	81.38
663.766	60.38
663.969	74.38
664.173	74.38
664.376	77.38
664.579	76.38
664.782	82.38
664.985	88.38
665.188	78.38
665.391	73.38
665.594	71.38
665.797	84.38
666	63.38
666.203	67.38
666.406	72.38
666.609	80.38
666.812	88.38
667.015	81.38
667.218	87.38
667.421	77.38
667.624	93.38
667.827	73.38
668.03	77.38
668.232	73.38
668.435	71.38
668.638	86.38
668.841	88.38
669.043	80.38
669.246	88.38
669.449	73.38
669.651	74.38
669.854	72.38
670.057	77.38
670.259	76.38
670.462	72.38
670.665	86.38
670.867	77.38
671.07	82.38
671.272	68.38
671.475	78.38
671.677	85.38
671.88	79.38
672.082	69.38
672.284	75.38
672.487	86.38
672.689	77.38
672.892	88.38
