Data from Circ_2014_H10_HRD10591_00009.txt Node
Date: Wed Jan 03 10:02:11 EST 2024
User: Yrep
Spectrometer: HR+D1059
Trigger mode: 1
Integration Time (sec): 1.000000E-1
Scans to average: 1
Electric dark correction enabled: true
Nonlinearity correction enabled: false
Boxcar width: 0
XAxis mode: Wavelengths
Number of Pixels in Spectrum: 2048
>>>>>Begin Spectral Data<<<<<
223.165	-20.94
223.4	-20.94
223.635	-20.94
223.869	-8.94
224.104	-6.94
224.338	-24.94
224.573	-24.94
224.808	-10.94
225.042	-10.94
225.277	-0.94
225.511	1.06
225.746	3.06
225.98	10.06
226.215	8.06
226.449	15.06
226.683	10.06
226.918	26.06
227.152	36.06
227.387	40.06
227.621	39.06
227.856	37.06
228.09	49.06
228.324	55.06
228.559	69.06
228.793	53.06
229.027	66.06
229.262	76.06
229.496	74.06
229.73	87.06
229.964	97.06
230.199	68.06
230.433	91.06
230.667	74.06
230.901	75.06
231.136	79.06
231.37	74.06
231.604	86.06
231.838	80.06
232.072	88.06
232.306	90.06
232.541	78.06
232.775	78.06
233.009	74.06
233.243	79.06
233.477	88.06
233.711	83.06
233.945	76.06
234.179	80.06
234.413	73.06
234.647	84.06
234.881	81.06
235.115	70.06
235.349	91.06
235.583	68.06
235.817	75.06
236.051	75.06
236.285	66.06
236.519	74.06
236.753	68.06
236.987	91.06
237.221	89.06
237.455	87.06
237.689	81.06
237.922	80.06
238.156	80.06
238.39	90.06
238.624	88.06
238.858	80.06
239.091	65.06
239.325	83.06
239.559	86.06
239.793	91.06
240.027	82.06
240.26	78.06
240.494	82.06
240.728	74.06
240.961	78.06
241.195	78.06
241.429	95.06
241.662	85.06
241.896	75.06
242.13	86.06
242.363	62.06
242.597	66.06
242.83	75.06
243.064	74.06
243.298	87.06
243.531	79.06
243.765	70.06
243.998	86.06
244.232	70.06
244.465	83.06
244.699	90.06
244.932	77.06
245.166	79.06
245.399	64.06
245.633	80.06
245.866	78.06
246.099	72.06
246.333	75.06
246.566	85.06
246.8	89.06
247.033	85.06
247.266	73.06
247.5	73.06
247.733	78.06
247.966	84.06
248.2	81.06
248.433	72.06
248.666	79.06
248.899	81.06
249.133	82.06
249.366	110.06
249.599	98.06
249.832	95.06
250.066	97.06
250.299	84.06
250.532	73.06
250.765	89.06
250.998	70.06
251.231	75.06
251.465	80.06
251.698	67.06
251.931	64.06
252.164	76.06
252.397	89.06
252.63	89.06
252.863	90.06
253.096	81.06
253.329	79.06
253.562	84.06
253.795	83.06
254.028	87.06
254.261	83.06
254.494	87.06
254.727	85.06
254.96	75.06
255.193	78.06
255.426	75.06
255.659	80.06
255.892	87.06
256.124	79.06
256.357	84.06
256.59	85.06
256.823	78.06
257.056	78.06
257.289	85.06
257.521	81.06
257.754	72.06
257.987	67.06
258.22	78.06
258.452	69.06
258.685	83.06
258.918	88.06
259.151	91.06
259.383	89.06
259.616	86.06
259.849	87.06
260.081	82.06
260.314	76.06
260.547	73.06
260.779	93.06
261.012	87.06
261.244	91.06
261.477	89.06
261.71	92.06
261.942	119.06
262.175	141.06
262.407	105.06
262.64	87.06
262.872	82.06
263.105	86.06
263.337	79.06
263.57	83.06
263.802	87.06
264.035	81.06
264.267	90.06
264.499	73.06
264.732	80.06
264.964	75.06
265.197	84.06
265.429	75.06
265.661	85.06
265.894	85.06
266.126	72.06
266.358	84.06
266.591	81.06
266.823	84.06
267.055	81.06
267.287	85.06
267.52	89.06
267.752	72.06
267.984	81.06
268.216	87.06
268.448	100.06
268.681	97.06
268.913	85.06
269.145	87.06
269.377	85.06
269.609	82.06
269.841	78.06
270.073	87.06
270.306	80.06
270.538	95.06
270.77	86.06
271.002	82.06
271.234	84.06
271.466	76.06
271.698	90.06
271.93	96.06
272.162	74.06
272.394	85.06
272.626	89.06
272.858	84.06
273.09	89.06
273.322	73.06
273.553	77.06
273.785	92.06
274.017	91.06
274.249	103.06
274.481	83.06
274.713	88.06
274.945	89.06
275.176	75.06
275.408	87.06
275.64	96.06
275.872	76.06
276.104	102.06
276.335	102.06
276.567	100.06
276.799	129.06
277.031	106.06
277.262	85.06
277.494	85.06
277.726	83.06
277.957	100.06
278.189	86.06
278.421	89.06
278.652	87.06
278.884	94.06
279.115	90.06
279.347	83.06
279.579	66.06
279.81	83.06
280.042	81.06
280.273	85.06
280.505	83.06
280.736	89.06
280.968	86.06
281.199	91.06
281.431	68.06
281.662	89.06
281.894	88.06
282.125	95.06
282.356	130.06
282.588	157.06
282.819	153.06
283.051	87.06
283.282	83.06
283.513	84.06
283.745	82.06
283.976	71.06
284.207	88.06
284.439	95.06
284.67	85.06
284.901	89.06
285.132	77.06
285.364	74.06
285.595	96.06
285.826	102.06
286.057	91.06
286.288	97.06
286.52	74.06
286.751	81.06
286.982	87.06
287.213	89.06
287.444	92.06
287.675	74.06
287.906	100.06
288.138	86.06
288.369	95.06
288.6	96.06
288.831	94.06
289.062	91.06
289.293	102.06
289.524	78.06
289.755	85.06
289.986	99.06
290.217	83.06
290.448	74.06
290.679	90.06
290.91	90.06
291.141	76.06
291.371	98.06
291.602	87.06
291.833	90.06
292.064	78.06
292.295	89.06
292.526	82.06
292.757	85.06
292.987	99.06
293.218	77.06
293.449	80.06
293.68	86.06
293.91	83.06
294.141	90.06
294.372	98.06
294.603	77.06
294.833	81.06
295.064	81.06
295.295	88.06
295.525	81.06
295.756	109.06
295.987	129.06
296.217	148.06
296.448	143.06
296.679	106.06
296.909	97.06
297.14	90.06
297.37	97.06
297.601	87.06
297.831	101.06
298.062	85.06
298.292	93.06
298.523	91.06
298.753	85.06
298.984	84.06
299.214	96.06
299.445	98.06
299.675	114.06
299.905	90.06
300.136	90.06
300.366	82.06
300.597	90.06
300.827	89.06
301.057	98.06
301.288	117.06
301.518	95.06
301.748	109.06
301.979	106.06
302.209	85.06
302.439	88.06
302.669	98.06
302.9	94.06
303.13	95.06
303.36	103.06
303.59	110.06
303.82	108.06
304.051	102.06
304.281	95.06
304.511	84.06
304.741	96.06
304.971	97.06
305.201	89.06
305.431	90.06
305.661	79.06
305.891	96.06
306.121	96.06
306.352	101.06
306.582	122.06
306.812	86.06
307.042	94.06
307.272	82.06
307.502	106.06
307.731	86.06
307.961	104.06
308.191	77.06
308.421	99.06
308.651	91.06
308.881	79.06
309.111	107.06
309.341	90.06
309.571	103.06
309.8	82.06
310.03	92.06
310.26	97.06
310.49	101.06
310.72	91.06
310.949	106.06
311.179	99.06
311.409	104.06
311.639	86.06
311.868	103.06
312.098	98.06
312.328	107.06
312.557	102.06
312.787	116.06
313.017	99.06
313.246	93.06
313.476	86.06
313.706	90.06
313.935	85.06
314.165	89.06
314.394	99.06
314.624	101.06
314.853	99.06
315.083	95.06
315.312	108.06
315.542	89.06
315.771	95.06
316.001	87.06
316.23	87.06
316.46	78.06
316.689	101.06
316.919	83.06
317.148	92.06
317.377	102.06
317.607	101.06
317.836	77.06
318.065	90.06
318.295	93.06
318.524	92.06
318.753	92.06
318.983	97.06
319.212	91.06
319.441	127.06
319.67	131.06
319.9	91.06
320.129	106.06
320.358	113.06
320.587	97.06
320.816	108.06
321.046	95.06
321.275	93.06
321.504	90.06
321.733	97.06
321.962	92.06
322.191	98.06
322.42	105.06
322.649	115.06
322.878	111.06
323.108	111.06
323.337	127.06
323.566	145.06
323.795	168.06
324.024	237.06
324.253	454.06
324.482	1002.06
324.71	2079.06
324.939	2747.06
325.168	1018.06
325.397	291.06
325.626	164.06
325.855	142.06
326.084	139.06
326.313	130.06
326.542	170.06
326.77	262.06
326.999	512.06
327.228	1059.06
327.457	2028.06
327.686	1634.06
327.914	441.06
328.143	229.06
328.372	174.06
328.6	133.06
328.829	132.06
329.058	121.06
329.287	135.06
329.515	110.06
329.744	110.06
329.972	95.06
330.201	107.06
330.43	107.06
330.658	140.06
330.887	157.06
331.115	138.06
331.344	106.06
331.572	106.06
331.801	102.06
332.03	118.06
332.258	106.06
332.486	100.06
332.715	104.06
332.943	101.06
333.172	107.06
333.4	104.06
333.629	94.06
333.857	111.06
334.085	133.06
334.314	107.06
334.542	98.06
334.771	108.06
334.999	98.06
335.227	98.06
335.455	100.06
335.684	102.06
335.912	97.06
336.14	93.06
336.369	107.06
336.597	95.06
336.825	92.06
337.053	82.06
337.281	97.06
337.51	95.06
337.738	98.06
337.966	94.06
338.194	84.06
338.422	98.06
338.65	118.06
338.878	100.06
339.106	94.06
339.334	86.06
339.562	94.06
339.79	74.06
340.018	86.06
340.246	90.06
340.474	96.06
340.702	92.06
340.93	81.06
341.158	97.06
341.386	102.06
341.614	101.06
341.842	79.06
342.07	82.06
342.298	84.06
342.526	94.06
342.754	79.06
342.981	88.06
343.209	89.06
343.437	104.06
343.665	109.06
343.893	86.06
344.12	86.06
344.348	94.06
344.576	92.06
344.804	107.06
345.031	103.06
345.259	110.06
345.487	88.06
345.714	99.06
345.942	101.06
346.17	94.06
346.397	99.06
346.625	98.06
346.853	84.06
347.08	89.06
347.308	100.06
347.535	100.06
347.763	89.06
347.99	86.06
348.218	103.06
348.445	94.06
348.673	95.06
348.9	91.06
349.128	105.06
349.355	99.06
349.583	89.06
349.81	98.06
350.037	113.06
350.265	92.06
350.492	96.06
350.72	97.06
350.947	100.06
351.174	111.06
351.402	118.06
351.629	106.06
351.856	103.06
352.083	114.06
352.311	116.06
352.538	120.06
352.765	119.06
352.992	97.06
353.22	106.06
353.447	104.06
353.674	100.06
353.901	89.06
354.128	102.06
354.355	106.06
354.583	94.06
354.81	118.06
355.037	92.06
355.264	104.06
355.491	103.06
355.718	101.06
355.945	102.06
356.172	102.06
356.399	92.06
356.626	81.06
356.853	89.06
357.08	88.06
357.307	93.06
357.534	97.06
357.761	84.06
357.988	96.06
358.215	103.06
358.441	100.06
358.668	109.06
358.895	89.06
359.122	89.06
359.349	80.06
359.576	96.06
359.802	89.06
360.029	117.06
360.256	114.06
360.483	113.06
360.709	86.06
360.936	87.06
361.163	95.06
361.39	98.06
361.616	102.06
361.843	99.06
362.07	98.06
362.296	103.06
362.523	94.06
362.749	102.06
362.976	84.06
363.203	83.06
363.429	85.06
363.656	85.06
363.882	88.06
364.109	98.06
364.335	89.06
364.562	88.06
364.788	98.06
365.015	99.06
365.241	113.06
365.468	106.06
365.694	108.06
365.92	90.06
366.147	92.06
366.373	76.06
366.599	90.06
366.826	85.06
367.052	86.06
367.278	89.06
367.505	96.06
367.731	95.06
367.957	88.06
368.184	87.06
368.41	94.06
368.636	114.06
368.862	127.06
369.089	116.06
369.315	97.06
369.541	80.06
369.767	94.06
369.993	86.06
370.219	103.06
370.445	86.06
370.672	87.06
370.898	90.06
371.124	83.06
371.35	87.06
371.576	103.06
371.802	83.06
372.028	78.06
372.254	92.06
372.48	91.06
372.706	83.06
372.932	81.06
373.158	102.06
373.384	88.06
373.61	88.06
373.835	105.06
374.061	95.06
374.287	89.06
374.513	76.06
374.739	85.06
374.965	76.06
375.191	81.06
375.416	86.06
375.642	100.06
375.868	81.06
376.094	92.06
376.319	97.06
376.545	83.06
376.771	92.06
376.997	79.06
377.222	92.06
377.448	90.06
377.674	85.06
377.899	92.06
378.125	91.06
378.35	90.06
378.576	102.06
378.802	95.06
379.027	86.06
379.253	98.06
379.478	89.06
379.704	110.06
379.929	92.06
380.155	89.06
380.38	101.06
380.606	103.06
380.831	93.06
381.057	104.06
381.282	86.06
381.507	98.06
381.733	101.06
381.958	98.06
382.184	103.06
382.409	108.06
382.634	115.06
382.86	103.06
383.085	107.06
383.31	110.06
383.535	103.06
383.761	91.06
383.986	95.06
384.211	114.06
384.436	109.06
384.662	104.06
384.887	115.06
385.112	117.06
385.337	126.06
385.562	104.06
385.787	100.06
386.013	121.06
386.238	127.06
386.463	117.06
386.688	103.06
386.913	98.06
387.138	120.06
387.363	124.06
387.588	107.06
387.813	99.06
388.038	114.06
388.263	125.06
388.488	119.06
388.713	104.06
388.938	106.06
389.163	99.06
389.387	99.06
389.612	89.06
389.837	96.06
390.062	93.06
390.287	90.06
390.512	85.06
390.736	94.06
390.961	97.06
391.186	86.06
391.411	84.06
391.636	95.06
391.86	84.06
392.085	89.06
392.31	90.06
392.534	87.06
392.759	100.06
392.984	103.06
393.208	91.06
393.433	87.06
393.658	92.06
393.882	88.06
394.107	73.06
394.331	92.06
394.556	85.06
394.78	93.06
395.005	108.06
395.229	87.06
395.454	80.06
395.678	78.06
395.903	97.06
396.127	98.06
396.352	95.06
396.576	87.06
396.801	102.06
397.025	97.06
397.249	74.06
397.474	78.06
397.698	93.06
397.922	90.06
398.147	90.06
398.371	86.06
398.595	85.06
398.82	85.06
399.044	87.06
399.268	85.06
399.492	87.06
399.717	87.06
399.941	89.06
400.165	81.06
400.389	92.06
400.613	98.06
400.837	85.06
401.062	95.06
401.286	85.06
401.51	93.06
401.734	93.06
401.958	105.06
402.182	145.06
402.406	194.06
402.63	136.06
402.854	97.06
403.078	82.06
403.302	90.06
403.526	98.06
403.75	84.06
403.974	95.06
404.198	98.06
404.422	86.06
404.645	82.06
404.869	102.06
405.093	103.06
405.317	89.06
405.541	117.06
405.765	109.06
405.988	133.06
406.212	213.06
406.436	284.06
406.66	176.06
406.883	114.06
407.107	97.06
407.331	110.06
407.555	101.06
407.778	90.06
408.002	96.06
408.226	75.06
408.449	84.06
408.673	92.06
408.896	94.06
409.12	93.06
409.344	81.06
409.567	68.06
409.791	94.06
410.014	113.06
410.238	103.06
410.461	93.06
410.685	80.06
410.908	90.06
411.132	106.06
411.355	94.06
411.578	102.06
411.802	88.06
412.025	101.06
412.249	82.06
412.472	107.06
412.695	96.06
412.919	89.06
413.142	102.06
413.365	84.06
413.589	97.06
413.812	84.06
414.035	96.06
414.258	93.06
414.482	90.06
414.705	93.06
414.928	79.06
415.151	100.06
415.374	105.06
415.597	94.06
415.821	104.06
416.044	91.06
416.267	87.06
416.49	94.06
416.713	86.06
416.936	86.06
417.159	78.06
417.382	81.06
417.605	90.06
417.828	89.06
418.051	88.06
418.274	80.06
418.497	78.06
418.72	96.06
418.943	88.06
419.166	98.06
419.389	79.06
419.611	85.06
419.834	95.06
420.057	86.06
420.28	78.06
420.503	103.06
420.726	92.06
420.948	78.06
421.171	87.06
421.394	86.06
421.617	94.06
421.839	79.06
422.062	99.06
422.285	101.06
422.507	91.06
422.73	109.06
422.953	105.06
423.175	89.06
423.398	101.06
423.621	94.06
423.843	90.06
424.066	77.06
424.288	82.06
424.511	90.06
424.733	107.06
424.956	100.06
425.178	104.06
425.401	97.06
425.623	96.06
425.846	94.06
426.068	101.06
426.291	88.06
426.513	85.06
426.735	84.06
426.958	94.06
427.18	120.06
427.402	156.06
427.625	199.06
427.847	145.06
428.069	107.06
428.292	98.06
428.514	85.06
428.736	94.06
428.958	71.06
429.181	89.06
429.403	80.06
429.625	82.06
429.847	85.06
430.069	88.06
430.292	92.06
430.514	67.06
430.736	84.06
430.958	89.06
431.18	83.06
431.402	83.06
431.624	79.06
431.846	99.06
432.068	86.06
432.29	82.06
432.512	91.06
432.734	72.06
432.956	83.06
433.178	92.06
433.4	102.06
433.622	105.06
433.844	97.06
434.066	79.06
434.287	94.06
434.509	92.06
434.731	98.06
434.953	78.06
435.175	88.06
435.397	79.06
435.618	92.06
435.84	99.06
436.062	127.06
436.284	117.06
436.505	106.06
436.727	100.06
436.949	89.06
437.17	101.06
437.392	72.06
437.614	98.06
437.835	110.06
438.057	98.06
438.278	114.06
438.5	101.06
438.721	122.06
438.943	97.06
439.165	85.06
439.386	70.06
439.608	91.06
439.829	106.06
440.05	128.06
440.272	152.06
440.493	109.06
440.715	97.06
440.936	83.06
441.158	82.06
441.379	79.06
441.6	93.06
441.822	101.06
442.043	86.06
442.264	119.06
442.486	105.06
442.707	97.06
442.928	115.06
443.149	150.06
443.371	157.06
443.592	116.06
443.813	116.06
444.034	103.06
444.255	74.06
444.476	79.06
444.698	84.06
444.919	85.06
445.14	140.06
445.361	124.06
445.582	128.06
445.803	168.06
446.024	148.06
446.245	150.06
446.466	124.06
446.687	94.06
446.908	83.06
447.129	78.06
447.35	99.06
447.571	88.06
447.792	105.06
448.013	103.06
448.234	108.06
448.455	99.06
448.675	132.06
448.896	121.06
449.117	100.06
449.338	113.06
449.559	135.06
449.779	135.06
450	95.06
450.221	84.06
450.442	82.06
450.662	93.06
450.883	113.06
451.104	123.06
451.324	98.06
451.545	88.06
451.766	103.06
451.986	97.06
452.207	84.06
452.428	84.06
452.648	101.06
452.869	128.06
453.089	137.06
453.31	136.06
453.53	81.06
453.751	102.06
453.971	107.06
454.192	123.06
454.412	85.06
454.633	85.06
454.853	80.06
455.073	90.06
455.294	93.06
455.514	93.06
455.734	86.06
455.955	97.06
456.175	81.06
456.395	90.06
456.616	83.06
456.836	90.06
457.056	93.06
457.276	85.06
457.497	77.06
457.717	83.06
457.937	94.06
458.157	85.06
458.377	95.06
458.598	101.06
458.818	181.06
459.038	188.06
459.258	134.06
459.478	91.06
459.698	95.06
459.918	95.06
460.138	85.06
460.358	82.06
460.578	81.06
460.798	82.06
461.018	99.06
461.238	90.06
461.458	79.06
461.678	74.06
461.898	81.06
462.118	78.06
462.338	72.06
462.558	78.06
462.777	84.06
462.997	92.06
463.217	83.06
463.437	90.06
463.657	85.06
463.876	99.06
464.096	91.06
464.316	113.06
464.536	97.06
464.755	97.06
464.975	110.06
465.195	225.06
465.414	201.06
465.634	111.06
465.854	80.06
466.073	78.06
466.293	83.06
466.512	78.06
466.732	85.06
466.951	93.06
467.171	85.06
467.391	86.06
467.61	105.06
467.829	96.06
468.049	93.06
468.268	78.06
468.488	94.06
468.707	102.06
468.927	90.06
469.146	89.06
469.365	99.06
469.585	90.06
469.804	103.06
470.023	116.06
470.243	85.06
470.462	107.06
470.681	122.06
470.901	108.06
471.12	108.06
471.339	85.06
471.558	94.06
471.777	90.06
471.997	84.06
472.216	100.06
472.435	101.06
472.654	98.06
472.873	101.06
473.092	86.06
473.311	97.06
473.53	90.06
473.749	79.06
473.968	80.06
474.187	103.06
474.406	91.06
474.625	81.06
474.844	87.06
475.063	72.06
475.282	86.06
475.501	78.06
475.72	77.06
475.939	87.06
476.158	81.06
476.377	87.06
476.596	93.06
476.814	97.06
477.033	93.06
477.252	93.06
477.471	83.06
477.69	97.06
477.908	89.06
478.127	91.06
478.346	81.06
478.564	90.06
478.783	98.06
479.002	105.06
479.22	108.06
479.439	110.06
479.658	117.06
479.876	107.06
480.095	82.06
480.313	105.06
480.532	105.06
480.751	94.06
480.969	103.06
481.188	119.06
481.406	91.06
481.624	86.06
481.843	90.06
482.061	96.06
482.28	85.06
482.498	87.06
482.717	86.06
482.935	87.06
483.153	79.06
483.372	83.06
483.59	78.06
483.808	80.06
484.027	77.06
484.245	100.06
484.463	105.06
484.681	106.06
484.9	82.06
485.118	90.06
485.336	84.06
485.554	96.06
485.772	92.06
485.99	89.06
486.209	108.06
486.427	114.06
486.645	104.06
486.863	118.06
487.081	108.06
487.299	93.06
487.517	103.06
487.735	91.06
487.953	83.06
488.171	100.06
488.389	113.06
488.607	101.06
488.825	81.06
489.043	88.06
489.261	89.06
489.479	87.06
489.696	90.06
489.914	96.06
490.132	90.06
490.35	88.06
490.568	75.06
490.786	85.06
491.003	100.06
491.221	82.06
491.439	86.06
491.657	98.06
491.874	86.06
492.092	88.06
492.31	82.06
492.527	96.06
492.745	91.06
492.963	84.06
493.18	85.06
493.398	89.06
493.615	101.06
493.833	97.06
494.05	113.06
494.268	93.06
494.485	94.06
494.703	83.06
494.92	98.06
495.138	99.06
495.355	106.06
495.573	82.06
495.79	89.06
496.008	93.06
496.225	79.06
496.442	94.06
496.66	109.06
496.877	81.06
497.094	93.06
497.312	102.06
497.529	94.06
497.746	83.06
497.963	92.06
498.181	98.06
498.398	100.06
498.615	110.06
498.832	99.06
499.049	99.06
499.267	78.06
499.484	92.06
499.701	85.06
499.918	93.06
500.135	77.06
500.352	95.06
500.569	82.06
500.786	86.06
501.003	97.06
501.22	96.06
501.437	89.06
501.654	83.06
501.871	123.06
502.088	95.06
502.305	106.06
502.522	79.06
502.739	108.06
502.956	92.06
503.172	83.06
503.389	77.06
503.606	117.06
503.823	80.06
504.04	76.06
504.256	85.06
504.473	87.06
504.69	82.06
504.907	89.06
505.123	93.06
505.34	100.06
505.557	83.06
505.773	93.06
505.99	81.06
506.207	88.06
506.423	96.06
506.64	87.06
506.856	93.06
507.073	92.06
507.289	94.06
507.506	99.06
507.722	118.06
507.939	113.06
508.155	104.06
508.372	85.06
508.588	84.06
508.805	105.06
509.021	112.06
509.238	101.06
509.454	97.06
509.67	106.06
509.887	100.06
510.103	140.06
510.319	247.06
510.536	948.06
510.752	3307.06
510.968	916.06
511.184	188.06
511.401	115.06
511.617	95.06
511.833	84.06
512.049	87.06
512.265	100.06
512.481	99.06
512.698	90.06
512.914	88.06
513.13	105.06
513.346	89.06
513.562	93.06
513.778	117.06
513.994	101.06
514.21	92.06
514.426	124.06
514.642	163.06
514.858	142.06
515.074	205.06
515.29	629.06
515.506	2263.06
515.721	853.06
515.937	190.06
516.153	113.06
516.369	119.06
516.585	87.06
516.801	82.06
517.016	91.06
517.232	100.06
517.448	83.06
517.664	90.06
517.879	93.06
518.095	76.06
518.311	110.06
518.527	94.06
518.742	89.06
518.958	79.06
519.173	98.06
519.389	89.06
519.605	93.06
519.82	114.06
520.036	105.06
520.251	125.06
520.467	127.06
520.682	110.06
520.898	111.06
521.113	134.06
521.329	156.06
521.544	283.06
521.76	778.06
521.975	3721.06
522.19	2296.06
522.406	452.06
522.621	137.06
522.836	96.06
523.052	108.06
523.267	102.06
523.482	95.06
523.698	118.06
523.913	153.06
524.128	101.06
524.343	95.06
524.559	100.06
524.774	89.06
524.989	105.06
525.204	109.06
525.419	96.06
525.634	89.06
525.849	113.06
526.064	102.06
526.28	98.06
526.495	87.06
526.71	85.06
526.925	85.06
527.14	94.06
527.355	85.06
527.57	96.06
527.785	85.06
527.999	94.06
528.214	89.06
528.429	94.06
528.644	94.06
528.859	88.06
529.074	85.06
529.289	139.06
529.503	223.06
529.718	115.06
529.933	100.06
530.148	90.06
530.363	85.06
530.577	101.06
530.792	93.06
531.007	84.06
531.221	92.06
531.436	92.06
531.651	85.06
531.865	88.06
532.08	87.06
532.295	92.06
532.509	101.06
532.724	84.06
532.938	91.06
533.153	104.06
533.367	86.06
533.582	91.06
533.796	77.06
534.011	89.06
534.225	95.06
534.44	87.06
534.654	85.06
534.868	76.06
535.083	109.06
535.297	101.06
535.511	101.06
535.726	123.06
535.94	110.06
536.154	97.06
536.369	90.06
536.583	95.06
536.797	86.06
537.011	106.06
537.225	87.06
537.44	93.06
537.654	90.06
537.868	83.06
538.082	87.06
538.296	82.06
538.51	74.06
538.724	89.06
538.938	82.06
539.153	77.06
539.367	115.06
539.581	109.06
539.795	86.06
540.009	83.06
540.222	98.06
540.436	93.06
540.65	93.06
540.864	100.06
541.078	94.06
541.292	78.06
541.506	94.06
541.72	89.06
541.934	90.06
542.147	85.06
542.361	96.06
542.575	78.06
542.789	92.06
543.002	89.06
543.216	97.06
543.43	110.06
543.644	90.06
543.857	86.06
544.071	87.06
544.285	92.06
544.498	83.06
544.712	93.06
544.925	99.06
545.139	96.06
545.352	77.06
545.566	102.06
545.779	94.06
545.993	93.06
546.206	94.06
546.42	77.06
546.633	82.06
546.847	98.06
547.06	84.06
547.274	99.06
547.487	97.06
547.7	85.06
547.914	94.06
548.127	93.06
548.34	90.06
548.554	88.06
548.767	99.06
548.98	97.06
549.193	87.06
549.407	97.06
549.62	93.06
549.833	86.06
550.046	86.06
550.259	82.06
550.473	102.06
550.686	106.06
550.899	99.06
551.112	98.06
551.325	86.06
551.538	84.06
551.751	89.06
551.964	84.06
552.177	77.06
552.39	91.06
552.603	92.06
552.816	86.06
553.029	82.06
553.242	102.06
553.455	99.06
553.667	113.06
553.88	96.06
554.093	93.06
554.306	90.06
554.519	104.06
554.732	97.06
554.944	89.06
555.157	90.06
555.37	97.06
555.583	92.06
555.795	95.06
556.008	95.06
556.221	93.06
556.433	93.06
556.646	100.06
556.859	99.06
557.071	91.06
557.284	89.06
557.496	81.06
557.709	77.06
557.921	99.06
558.134	86.06
558.346	90.06
558.559	95.06
558.771	88.06
558.984	70.06
559.196	83.06
559.409	91.06
559.621	72.06
559.833	84.06
560.046	83.06
560.258	81.06
560.47	87.06
560.683	105.06
560.895	77.06
561.107	86.06
561.32	79.06
561.532	86.06
561.744	100.06
561.956	91.06
562.168	82.06
562.381	81.06
562.593	95.06
562.805	86.06
563.017	86.06
563.229	86.06
563.441	98.06
563.653	89.06
563.865	87.06
564.077	83.06
564.289	79.06
564.501	81.06
564.713	106.06
564.925	90.06
565.137	117.06
565.349	101.06
565.561	81.06
565.773	89.06
565.985	85.06
566.197	89.06
566.408	82.06
566.62	93.06
566.832	105.06
567.044	86.06
567.255	95.06
567.467	82.06
567.679	79.06
567.891	78.06
568.102	88.06
568.314	93.06
568.526	94.06
568.737	90.06
568.949	97.06
569.161	84.06
569.372	83.06
569.584	83.06
569.795	94.06
570.007	136.06
570.218	313.06
570.43	173.06
570.641	105.06
570.853	92.06
571.064	85.06
571.276	87.06
571.487	83.06
571.698	93.06
571.91	90.06
572.121	83.06
572.333	95.06
572.544	83.06
572.755	78.06
572.966	87.06
573.178	87.06
573.389	90.06
573.6	84.06
573.811	87.06
574.023	85.06
574.234	98.06
574.445	86.06
574.656	97.06
574.867	93.06
575.078	77.06
575.289	86.06
575.501	87.06
575.712	99.06
575.923	82.06
576.134	89.06
576.345	88.06
576.556	97.06
576.767	86.06
576.978	83.06
577.188	99.06
577.399	101.06
577.61	91.06
577.821	95.06
578.032	117.06
578.243	324.06
578.454	1059.06
578.665	281.06
578.875	118.06
579.086	89.06
579.297	92.06
579.508	96.06
579.718	88.06
579.929	78.06
580.14	80.06
580.35	83.06
580.561	87.06
580.772	84.06
580.982	78.06
581.193	81.06
581.403	95.06
581.614	78.06
581.825	94.06
582.035	87.06
582.246	83.06
582.456	79.06
582.667	90.06
582.877	85.06
583.087	91.06
583.298	90.06
583.508	84.06
583.719	91.06
583.929	83.06
584.139	90.06
584.35	76.06
584.56	86.06
584.77	88.06
584.981	94.06
585.191	78.06
585.401	92.06
585.611	86.06
585.821	92.06
586.032	77.06
586.242	74.06
586.452	83.06
586.662	84.06
586.872	103.06
587.082	72.06
587.292	107.06
587.502	87.06
587.713	81.06
587.923	95.06
588.133	79.06
588.343	86.06
588.553	82.06
588.762	76.06
588.972	123.06
589.182	216.06
589.392	125.06
589.602	96.06
589.812	138.06
590.022	114.06
590.232	95.06
590.441	95.06
590.651	78.06
590.861	77.06
591.071	76.06
591.281	85.06
591.49	77.06
591.7	77.06
591.91	86.06
592.119	93.06
592.329	85.06
592.539	106.06
592.748	86.06
592.958	85.06
593.167	79.06
593.377	75.06
593.587	96.06
593.796	89.06
594.006	86.06
594.215	87.06
594.424	88.06
594.634	78.06
594.843	93.06
595.053	89.06
595.262	91.06
595.472	97.06
595.681	94.06
595.89	84.06
596.1	69.06
596.309	104.06
596.518	90.06
596.727	82.06
596.937	73.06
597.146	85.06
597.355	99.06
597.564	84.06
597.774	93.06
597.983	83.06
598.192	84.06
598.401	85.06
598.61	83.06
598.819	83.06
599.028	85.06
599.237	97.06
599.446	99.06
599.655	93.06
599.864	85.06
600.073	77.06
600.282	80.06
600.491	73.06
600.7	77.06
600.909	80.06
601.118	88.06
601.327	79.06
601.536	82.06
601.745	85.06
601.953	89.06
602.162	80.06
602.371	91.06
602.58	89.06
602.789	86.06
602.997	80.06
603.206	79.06
603.415	94.06
603.623	90.06
603.832	84.06
604.041	85.06
604.249	93.06
604.458	100.06
604.666	91.06
604.875	79.06
605.084	87.06
605.292	83.06
605.501	95.06
605.709	79.06
605.918	94.06
606.126	75.06
606.334	88.06
606.543	85.06
606.751	97.06
606.96	85.06
607.168	99.06
607.376	74.06
607.585	83.06
607.793	76.06
608.001	82.06
608.21	90.06
608.418	95.06
608.626	83.06
608.834	78.06
609.043	102.06
609.251	96.06
609.459	78.06
609.667	97.06
609.875	88.06
610.083	86.06
610.291	97.06
610.499	105.06
610.707	81.06
610.916	86.06
611.124	87.06
611.332	91.06
611.54	101.06
611.748	86.06
611.955	101.06
612.163	92.06
612.371	85.06
612.579	79.06
612.787	81.06
612.995	90.06
613.203	86.06
613.411	91.06
613.618	95.06
613.826	61.06
614.034	74.06
614.242	98.06
614.449	82.06
614.657	77.06
614.865	78.06
615.072	95.06
615.28	87.06
615.488	102.06
615.695	94.06
615.903	95.06
616.111	91.06
616.318	101.06
616.526	73.06
616.733	86.06
616.941	75.06
617.148	91.06
617.356	84.06
617.563	83.06
617.771	89.06
617.978	69.06
618.185	92.06
618.393	81.06
618.6	87.06
618.807	88.06
619.015	89.06
619.222	96.06
619.429	95.06
619.637	90.06
619.844	79.06
620.051	78.06
620.258	96.06
620.466	88.06
620.673	97.06
620.88	89.06
621.087	85.06
621.294	84.06
621.501	77.06
621.708	83.06
621.915	81.06
622.122	74.06
622.329	85.06
622.536	89.06
622.743	76.06
622.95	79.06
623.157	85.06
623.364	82.06
623.571	84.06
623.778	80.06
623.985	83.06
624.192	83.06
624.399	82.06
624.606	93.06
624.812	101.06
625.019	75.06
625.226	86.06
625.433	73.06
625.639	92.06
625.846	84.06
626.053	78.06
626.259	74.06
626.466	82.06
626.673	88.06
626.879	75.06
627.086	83.06
627.293	85.06
627.499	75.06
627.706	80.06
627.912	83.06
628.119	78.06
628.325	91.06
628.532	91.06
628.738	74.06
628.945	84.06
629.151	85.06
629.357	82.06
629.564	73.06
629.77	78.06
629.976	83.06
630.183	87.06
630.389	85.06
630.595	79.06
630.802	71.06
631.008	90.06
631.214	87.06
631.42	87.06
631.627	80.06
631.833	79.06
632.039	84.06
632.245	93.06
632.451	99.06
632.657	68.06
632.863	82.06
633.069	86.06
633.275	89.06
633.481	86.06
633.688	71.06
633.893	91.06
634.099	70.06
634.305	77.06
634.511	89.06
634.717	82.06
634.923	84.06
635.129	78.06
635.335	97.06
635.541	78.06
635.747	86.06
635.952	84.06
636.158	83.06
636.364	80.06
636.57	86.06
636.775	79.06
636.981	72.06
637.187	78.06
637.392	78.06
637.598	98.06
637.804	82.06
638.009	91.06
638.215	82.06
638.421	89.06
638.626	89.06
638.832	93.06
639.037	92.06
639.243	90.06
639.448	81.06
639.654	87.06
639.859	84.06
640.065	87.06
640.27	106.06
640.475	91.06
640.681	74.06
640.886	74.06
641.091	84.06
641.297	92.06
641.502	84.06
641.707	82.06
641.913	88.06
642.118	81.06
642.323	84.06
642.528	87.06
642.733	83.06
642.939	82.06
643.144	85.06
643.349	89.06
643.554	77.06
643.759	78.06
643.964	84.06
644.169	85.06
644.374	103.06
644.579	84.06
644.784	92.06
644.989	89.06
645.194	99.06
645.399	99.06
645.604	83.06
645.809	88.06
646.014	86.06
646.219	89.06
646.423	81.06
646.628	78.06
646.833	91.06
647.038	88.06
647.243	90.06
647.447	85.06
647.652	88.06
647.857	90.06
648.062	90.06
648.266	77.06
648.471	97.06
648.676	96.06
648.88	93.06
649.085	81.06
649.289	99.06
649.494	96.06
649.698	153.06
649.903	102.06
650.107	102.06
650.312	80.06
650.516	85.06
650.721	78.06
650.925	84.06
651.13	82.06
651.334	85.06
651.539	70.06
651.743	95.06
651.947	84.06
652.152	92.06
652.356	90.06
652.56	83.06
652.764	86.06
652.969	95.06
653.173	70.06
653.377	87.06
653.581	74.06
653.785	76.06
653.99	83.06
654.194	92.06
654.398	97.06
654.602	98.06
654.806	90.06
655.01	98.06
655.214	86.06
655.418	84.06
655.622	97.06
655.826	84.06
656.03	91.06
656.234	94.06
656.438	92.06
656.642	93.06
656.846	94.06
657.049	82.06
657.253	82.06
657.457	89.06
657.661	82.06
657.865	86.06
658.068	77.06
658.272	78.06
658.476	89.06
658.68	87.06
658.883	70.06
659.087	90.06
659.291	84.06
659.494	85.06
659.698	78.06
659.901	74.06
660.105	79.06
660.309	87.06
660.512	66.06
660.716	82.06
660.919	76.06
661.123	83.06
661.326	86.06
661.53	81.06
661.733	89.06
661.936	87.06
662.14	75.06
662.343	74.06
662.546	78.06
662.75	69.06
662.953	78.06
663.156	81.06
663.36	76.06
663.563	81.06
663.766	80.06
663.969	70.06
664.173	74.06
664.376	90.06
664.579	77.06
664.782	102.06
664.985	89.06
665.188	72.06
665.391	86.06
665.594	82.06
665.797	70.06
666	74.06
666.203	67.06
666.406	98.06
666.609	79.06
666.812	92.06
667.015	78.06
667.218	76.06
667.421	81.06
667.624	83.06
667.827	88.06
668.03	85.06
668.232	76.06
668.435	85.06
668.638	84.06
668.841	86.06
669.043	78.06
669.246	85.06
669.449	78.06
669.651	68.06
669.854	88.06
670.057	87.06
670.259	89.06
670.462	90.06
670.665	94.06
670.867	90.06
671.07	97.06
671.272	79.06
671.475	78.06
671.677	90.06
671.88	86.06
672.082	73.06
672.284	88.06
672.487	81.06
672.689	72.06
672.892	87.06
