Data from Circ_2014_H10_HRD10591_00042.txt Node
Date: Wed Jan 03 10:02:17 EST 2024
User: Yrep
Spectrometer: HR+D1059
Trigger mode: 1
Integration Time (sec): 1.000000E-1
Scans to average: 1
Electric dark correction enabled: true
Nonlinearity correction enabled: false
Boxcar width: 0
XAxis mode: Wavelengths
Number of Pixels in Spectrum: 2048
>>>>>Begin Spectral Data<<<<<
223.165	-21.69
223.4	-21.69
223.635	-21.69
223.869	-20.69
224.104	-12.69
224.338	-19.69
224.573	-18.69
224.808	-9.69
225.042	-14.69
225.277	-1.69
225.511	-1.69
225.746	-5.69
225.98	-4.69
226.215	-4.69
226.449	22.31
226.683	24.31
226.918	46.31
227.152	43.31
227.387	38.31
227.621	39.31
227.856	43.31
228.09	44.31
228.324	45.31
228.559	57.31
228.793	63.31
229.027	78.31
229.262	68.31
229.496	84.31
229.73	86.31
229.964	82.31
230.199	73.31
230.433	79.31
230.667	87.31
230.901	88.31
231.136	79.31
231.37	84.31
231.604	77.31
231.838	101.31
232.072	90.31
232.306	74.31
232.541	79.31
232.775	92.31
233.009	84.31
233.243	96.31
233.477	87.31
233.711	88.31
233.945	81.31
234.179	88.31
234.413	86.31
234.647	76.31
234.881	83.31
235.115	84.31
235.349	83.31
235.583	91.31
235.817	78.31
236.051	88.31
236.285	78.31
236.519	77.31
236.753	79.31
236.987	77.31
237.221	79.31
237.455	87.31
237.689	73.31
237.922	76.31
238.156	73.31
238.39	74.31
238.624	79.31
238.858	82.31
239.091	74.31
239.325	78.31
239.559	80.31
239.793	72.31
240.027	84.31
240.26	81.31
240.494	91.31
240.728	85.31
240.961	70.31
241.195	94.31
241.429	79.31
241.662	77.31
241.896	64.31
242.13	73.31
242.363	77.31
242.597	68.31
242.83	87.31
243.064	59.31
243.298	77.31
243.531	71.31
243.765	83.31
243.998	88.31
244.232	85.31
244.465	85.31
244.699	97.31
244.932	90.31
245.166	95.31
245.399	72.31
245.633	73.31
245.866	80.31
246.099	81.31
246.333	88.31
246.566	93.31
246.8	86.31
247.033	85.31
247.266	84.31
247.5	73.31
247.733	79.31
247.966	69.31
248.2	85.31
248.433	77.31
248.666	89.31
248.899	80.31
249.133	95.31
249.366	98.31
249.599	96.31
249.832	81.31
250.066	85.31
250.299	68.31
250.532	85.31
250.765	72.31
250.998	85.31
251.231	77.31
251.465	89.31
251.698	87.31
251.931	76.31
252.164	79.31
252.397	79.31
252.63	91.31
252.863	78.31
253.096	73.31
253.329	90.31
253.562	90.31
253.795	73.31
254.028	84.31
254.261	82.31
254.494	92.31
254.727	88.31
254.96	97.31
255.193	82.31
255.426	80.31
255.659	72.31
255.892	83.31
256.124	85.31
256.357	78.31
256.59	89.31
256.823	79.31
257.056	79.31
257.289	95.31
257.521	86.31
257.754	85.31
257.987	87.31
258.22	80.31
258.452	82.31
258.685	78.31
258.918	86.31
259.151	90.31
259.383	80.31
259.616	85.31
259.849	87.31
260.081	71.31
260.314	88.31
260.547	84.31
260.779	80.31
261.012	89.31
261.244	86.31
261.477	99.31
261.71	98.31
261.942	124.31
262.175	119.31
262.407	85.31
262.64	89.31
262.872	83.31
263.105	74.31
263.337	88.31
263.57	75.31
263.802	89.31
264.035	74.31
264.267	67.31
264.499	85.31
264.732	93.31
264.964	79.31
265.197	86.31
265.429	100.31
265.661	98.31
265.894	83.31
266.126	90.31
266.358	78.31
266.591	82.31
266.823	84.31
267.055	86.31
267.287	75.31
267.52	88.31
267.752	91.31
267.984	76.31
268.216	74.31
268.448	83.31
268.681	93.31
268.913	79.31
269.145	74.31
269.377	91.31
269.609	71.31
269.841	84.31
270.073	83.31
270.306	84.31
270.538	78.31
270.77	95.31
271.002	73.31
271.234	86.31
271.466	93.31
271.698	88.31
271.93	75.31
272.162	73.31
272.394	107.31
272.626	78.31
272.858	91.31
273.09	77.31
273.322	89.31
273.553	76.31
273.785	83.31
274.017	86.31
274.249	84.31
274.481	91.31
274.713	89.31
274.945	80.31
275.176	72.31
275.408	83.31
275.64	88.31
275.872	85.31
276.104	94.31
276.335	98.31
276.567	103.31
276.799	107.31
277.031	104.31
277.262	106.31
277.494	91.31
277.726	76.31
277.957	99.31
278.189	89.31
278.421	71.31
278.652	75.31
278.884	84.31
279.115	88.31
279.347	96.31
279.579	88.31
279.81	97.31
280.042	91.31
280.273	93.31
280.505	85.31
280.736	85.31
280.968	78.31
281.199	90.31
281.431	71.31
281.662	84.31
281.894	95.31
282.125	93.31
282.356	108.31
282.588	140.31
282.819	128.31
283.051	101.31
283.282	93.31
283.513	87.31
283.745	77.31
283.976	79.31
284.207	90.31
284.439	87.31
284.67	99.31
284.901	78.31
285.132	88.31
285.364	91.31
285.595	78.31
285.826	92.31
286.057	93.31
286.288	91.31
286.52	92.31
286.751	92.31
286.982	80.31
287.213	89.31
287.444	99.31
287.675	85.31
287.906	85.31
288.138	80.31
288.369	91.31
288.6	94.31
288.831	82.31
289.062	100.31
289.293	89.31
289.524	95.31
289.755	73.31
289.986	96.31
290.217	83.31
290.448	82.31
290.679	80.31
290.91	99.31
291.141	81.31
291.371	76.31
291.602	83.31
291.833	92.31
292.064	90.31
292.295	89.31
292.526	99.31
292.757	84.31
292.987	87.31
293.218	96.31
293.449	88.31
293.68	80.31
293.91	90.31
294.141	91.31
294.372	102.31
294.603	88.31
294.833	99.31
295.064	99.31
295.295	91.31
295.525	99.31
295.756	106.31
295.987	109.31
296.217	133.31
296.448	127.31
296.679	96.31
296.909	85.31
297.14	85.31
297.37	83.31
297.601	84.31
297.831	74.31
298.062	98.31
298.292	87.31
298.523	81.31
298.753	82.31
298.984	89.31
299.214	83.31
299.445	101.31
299.675	95.31
299.905	92.31
300.136	87.31
300.366	89.31
300.597	107.31
300.827	85.31
301.057	104.31
301.288	112.31
301.518	90.31
301.748	93.31
301.979	86.31
302.209	90.31
302.439	89.31
302.669	86.31
302.9	90.31
303.13	88.31
303.36	92.31
303.59	99.31
303.82	104.31
304.051	90.31
304.281	90.31
304.511	97.31
304.741	97.31
304.971	86.31
305.201	92.31
305.431	90.31
305.661	84.31
305.891	93.31
306.121	109.31
306.352	100.31
306.582	115.31
306.812	99.31
307.042	100.31
307.272	96.31
307.502	90.31
307.731	86.31
307.961	98.31
308.191	94.31
308.421	103.31
308.651	98.31
308.881	90.31
309.111	99.31
309.341	85.31
309.571	109.31
309.8	88.31
310.03	89.31
310.26	94.31
310.49	87.31
310.72	86.31
310.949	103.31
311.179	117.31
311.409	104.31
311.639	101.31
311.868	93.31
312.098	88.31
312.328	96.31
312.557	108.31
312.787	100.31
313.017	98.31
313.246	98.31
313.476	84.31
313.706	95.31
313.935	82.31
314.165	104.31
314.394	99.31
314.624	83.31
314.853	103.31
315.083	105.31
315.312	88.31
315.542	93.31
315.771	103.31
316.001	95.31
316.23	87.31
316.46	89.31
316.689	103.31
316.919	92.31
317.148	100.31
317.377	104.31
317.607	94.31
317.836	89.31
318.065	103.31
318.295	102.31
318.524	91.31
318.753	99.31
318.983	86.31
319.212	83.31
319.441	122.31
319.67	111.31
319.9	106.31
320.129	99.31
320.358	89.31
320.587	92.31
320.816	119.31
321.046	114.31
321.275	105.31
321.504	91.31
321.733	102.31
321.962	101.31
322.191	102.31
322.42	98.31
322.649	104.31
322.878	110.31
323.108	115.31
323.337	114.31
323.566	135.31
323.795	147.31
324.024	188.31
324.253	366.31
324.482	781.31
324.71	1561.31
324.939	2014.31
325.168	758.31
325.397	228.31
325.626	133.31
325.855	132.31
326.084	136.31
326.313	142.31
326.542	179.31
326.77	223.31
326.999	443.31
327.228	849.31
327.457	1516.31
327.686	1229.31
327.914	348.31
328.143	194.31
328.372	142.31
328.6	140.31
328.829	101.31
329.058	120.31
329.287	132.31
329.515	106.31
329.744	111.31
329.972	101.31
330.201	118.31
330.43	109.31
330.658	129.31
330.887	141.31
331.115	130.31
331.344	105.31
331.572	99.31
331.801	97.31
332.03	109.31
332.258	115.31
332.486	94.31
332.715	101.31
332.943	107.31
333.172	96.31
333.4	102.31
333.629	93.31
333.857	116.31
334.085	101.31
334.314	126.31
334.542	146.31
334.771	144.31
334.999	99.31
335.227	101.31
335.455	99.31
335.684	115.31
335.912	98.31
336.14	92.31
336.369	91.31
336.597	87.31
336.825	95.31
337.053	94.31
337.281	74.31
337.51	89.31
337.738	104.31
337.966	89.31
338.194	92.31
338.422	111.31
338.65	85.31
338.878	91.31
339.106	84.31
339.334	101.31
339.562	83.31
339.79	88.31
340.018	75.31
340.246	95.31
340.474	104.31
340.702	104.31
340.93	88.31
341.158	107.31
341.386	107.31
341.614	102.31
341.842	92.31
342.07	93.31
342.298	90.31
342.526	102.31
342.754	79.31
342.981	91.31
343.209	105.31
343.437	105.31
343.665	85.31
343.893	96.31
344.12	91.31
344.348	90.31
344.576	88.31
344.804	93.31
345.031	86.31
345.259	71.31
345.487	97.31
345.714	92.31
345.942	94.31
346.17	88.31
346.397	101.31
346.625	91.31
346.853	102.31
347.08	88.31
347.308	80.31
347.535	85.31
347.763	91.31
347.99	95.31
348.218	109.31
348.445	100.31
348.673	111.31
348.9	98.31
349.128	93.31
349.355	88.31
349.583	86.31
349.81	91.31
350.037	107.31
350.265	86.31
350.492	101.31
350.72	93.31
350.947	102.31
351.174	101.31
351.402	100.31
351.629	95.31
351.856	102.31
352.083	118.31
352.311	100.31
352.538	107.31
352.765	106.31
352.992	106.31
353.22	105.31
353.447	99.31
353.674	102.31
353.901	100.31
354.128	109.31
354.355	99.31
354.583	108.31
354.81	99.31
355.037	84.31
355.264	88.31
355.491	98.31
355.718	110.31
355.945	89.31
356.172	95.31
356.399	100.31
356.626	80.31
356.853	110.31
357.08	97.31
357.307	78.31
357.534	98.31
357.761	95.31
357.988	101.31
358.215	97.31
358.441	103.31
358.668	104.31
358.895	83.31
359.122	79.31
359.349	84.31
359.576	95.31
359.802	105.31
360.029	110.31
360.256	117.31
360.483	88.31
360.709	88.31
360.936	98.31
361.163	91.31
361.39	98.31
361.616	88.31
361.843	90.31
362.07	98.31
362.296	98.31
362.523	89.31
362.749	93.31
362.976	87.31
363.203	100.31
363.429	92.31
363.656	99.31
363.882	92.31
364.109	89.31
364.335	87.31
364.562	80.31
364.788	87.31
365.015	95.31
365.241	88.31
365.468	106.31
365.694	106.31
365.92	100.31
366.147	98.31
366.373	71.31
366.599	89.31
366.826	97.31
367.052	92.31
367.278	88.31
367.505	91.31
367.731	101.31
367.957	84.31
368.184	77.31
368.41	116.31
368.636	125.31
368.862	131.31
369.089	106.31
369.315	89.31
369.541	98.31
369.767	87.31
369.993	87.31
370.219	90.31
370.445	99.31
370.672	91.31
370.898	92.31
371.124	91.31
371.35	86.31
371.576	109.31
371.802	91.31
372.028	99.31
372.254	70.31
372.48	71.31
372.706	91.31
372.932	79.31
373.158	90.31
373.384	93.31
373.61	76.31
373.835	101.31
374.061	102.31
374.287	87.31
374.513	84.31
374.739	100.31
374.965	98.31
375.191	88.31
375.416	96.31
375.642	105.31
375.868	86.31
376.094	103.31
376.319	81.31
376.545	82.31
376.771	101.31
376.997	99.31
377.222	91.31
377.448	104.31
377.674	95.31
377.899	97.31
378.125	89.31
378.35	91.31
378.576	100.31
378.802	93.31
379.027	95.31
379.253	92.31
379.478	87.31
379.704	98.31
379.929	95.31
380.155	93.31
380.38	99.31
380.606	105.31
380.831	85.31
381.057	101.31
381.282	98.31
381.507	86.31
381.733	98.31
381.958	104.31
382.184	93.31
382.409	95.31
382.634	98.31
382.86	94.31
383.085	108.31
383.31	97.31
383.535	90.31
383.761	108.31
383.986	91.31
384.211	93.31
384.436	101.31
384.662	108.31
384.887	101.31
385.112	116.31
385.337	97.31
385.562	89.31
385.787	107.31
386.013	115.31
386.238	103.31
386.463	106.31
386.688	111.31
386.913	106.31
387.138	101.31
387.363	96.31
387.588	89.31
387.813	109.31
388.038	114.31
388.263	101.31
388.488	107.31
388.713	102.31
388.938	91.31
389.163	99.31
389.387	101.31
389.612	93.31
389.837	98.31
390.062	93.31
390.287	100.31
390.512	92.31
390.736	85.31
390.961	85.31
391.186	103.31
391.411	91.31
391.636	85.31
391.86	86.31
392.085	95.31
392.31	82.31
392.534	93.31
392.759	95.31
392.984	84.31
393.208	100.31
393.433	90.31
393.658	92.31
393.882	95.31
394.107	101.31
394.331	90.31
394.556	99.31
394.78	101.31
395.005	89.31
395.229	83.31
395.454	102.31
395.678	87.31
395.903	87.31
396.127	92.31
396.352	82.31
396.576	85.31
396.801	80.31
397.025	85.31
397.249	66.31
397.474	99.31
397.698	87.31
397.922	87.31
398.147	85.31
398.371	87.31
398.595	95.31
398.82	78.31
399.044	80.31
399.268	80.31
399.492	91.31
399.717	89.31
399.941	85.31
400.165	78.31
400.389	87.31
400.613	76.31
400.837	82.31
401.062	82.31
401.286	80.31
401.51	90.31
401.734	97.31
401.958	94.31
402.182	146.31
402.406	164.31
402.63	119.31
402.854	91.31
403.078	109.31
403.302	78.31
403.526	102.31
403.75	91.31
403.974	92.31
404.198	98.31
404.422	88.31
404.645	97.31
404.869	81.31
405.093	97.31
405.317	104.31
405.541	98.31
405.765	99.31
405.988	116.31
406.212	175.31
406.436	234.31
406.66	157.31
406.883	90.31
407.107	92.31
407.331	93.31
407.555	96.31
407.778	91.31
408.002	86.31
408.226	104.31
408.449	88.31
408.673	103.31
408.896	92.31
409.12	90.31
409.344	91.31
409.567	90.31
409.791	99.31
410.014	77.31
410.238	89.31
410.461	77.31
410.685	101.31
410.908	95.31
411.132	105.31
411.355	99.31
411.578	87.31
411.802	111.31
412.025	78.31
412.249	105.31
412.472	96.31
412.695	97.31
412.919	99.31
413.142	86.31
413.365	90.31
413.589	89.31
413.812	86.31
414.035	85.31
414.258	68.31
414.482	85.31
414.705	92.31
414.928	98.31
415.151	95.31
415.374	91.31
415.597	77.31
415.821	98.31
416.044	91.31
416.267	84.31
416.49	84.31
416.713	93.31
416.936	79.31
417.159	110.31
417.382	91.31
417.605	86.31
417.828	95.31
418.051	95.31
418.274	86.31
418.497	75.31
418.72	96.31
418.943	87.31
419.166	80.31
419.389	94.31
419.611	80.31
419.834	98.31
420.057	84.31
420.28	85.31
420.503	92.31
420.726	99.31
420.948	100.31
421.171	89.31
421.394	99.31
421.617	98.31
421.839	82.31
422.062	88.31
422.285	95.31
422.507	95.31
422.73	106.31
422.953	77.31
423.175	94.31
423.398	79.31
423.621	91.31
423.843	86.31
424.066	93.31
424.288	92.31
424.511	94.31
424.733	107.31
424.956	105.31
425.178	93.31
425.401	93.31
425.623	103.31
425.846	80.31
426.068	87.31
426.291	102.31
426.513	94.31
426.735	86.31
426.958	101.31
427.18	114.31
427.402	136.31
427.625	174.31
427.847	111.31
428.069	115.31
428.292	94.31
428.514	84.31
428.736	80.31
428.958	91.31
429.181	88.31
429.403	87.31
429.625	93.31
429.847	105.31
430.069	92.31
430.292	92.31
430.514	84.31
430.736	77.31
430.958	84.31
431.18	107.31
431.402	88.31
431.624	83.31
431.846	65.31
432.068	92.31
432.29	92.31
432.512	83.31
432.734	79.31
432.956	104.31
433.178	85.31
433.4	92.31
433.622	93.31
433.844	87.31
434.066	103.31
434.287	87.31
434.509	95.31
434.731	86.31
434.953	97.31
435.175	99.31
435.397	91.31
435.618	83.31
435.84	95.31
436.062	106.31
436.284	122.31
436.505	114.31
436.727	102.31
436.949	92.31
437.17	90.31
437.392	86.31
437.614	93.31
437.835	103.31
438.057	116.31
438.278	116.31
438.5	106.31
438.721	115.31
438.943	111.31
439.165	90.31
439.386	87.31
439.608	89.31
439.829	88.31
440.05	114.31
440.272	127.31
440.493	90.31
440.715	92.31
440.936	86.31
441.158	93.31
441.379	95.31
441.6	87.31
441.822	87.31
442.043	92.31
442.264	104.31
442.486	90.31
442.707	96.31
442.928	109.31
443.149	144.31
443.371	141.31
443.592	111.31
443.813	117.31
444.034	94.31
444.255	78.31
444.476	85.31
444.698	79.31
444.919	86.31
445.14	122.31
445.361	123.31
445.582	116.31
445.803	131.31
446.024	138.31
446.245	137.31
446.466	91.31
446.687	94.31
446.908	80.31
447.129	88.31
447.35	98.31
447.571	104.31
447.792	88.31
448.013	101.31
448.234	106.31
448.455	110.31
448.675	108.31
448.896	130.31
449.117	111.31
449.338	97.31
449.559	114.31
449.779	135.31
450	108.31
450.221	93.31
450.442	94.31
450.662	102.31
450.883	111.31
451.104	107.31
451.324	103.31
451.545	84.31
451.766	102.31
451.986	86.31
452.207	92.31
452.428	88.31
452.648	93.31
452.869	100.31
453.089	116.31
453.31	131.31
453.53	95.31
453.751	100.31
453.971	101.31
454.192	121.31
454.412	104.31
454.633	84.31
454.853	70.31
455.073	82.31
455.294	84.31
455.514	108.31
455.734	98.31
455.955	86.31
456.175	91.31
456.395	95.31
456.616	90.31
456.836	94.31
457.056	108.31
457.276	100.31
457.497	58.31
457.717	72.31
457.937	94.31
458.157	84.31
458.377	102.31
458.598	106.31
458.818	124.31
459.038	174.31
459.258	119.31
459.478	84.31
459.698	98.31
459.918	79.31
460.138	90.31
460.358	75.31
460.578	91.31
460.798	82.31
461.018	91.31
461.238	93.31
461.458	81.31
461.678	74.31
461.898	82.31
462.118	85.31
462.338	83.31
462.558	78.31
462.777	89.31
462.997	80.31
463.217	92.31
463.437	76.31
463.657	76.31
463.876	91.31
464.096	98.31
464.316	87.31
464.536	104.31
464.755	82.31
464.975	117.31
465.195	174.31
465.414	167.31
465.634	102.31
465.854	98.31
466.073	104.31
466.293	86.31
466.512	90.31
466.732	88.31
466.951	80.31
467.171	91.31
467.391	80.31
467.61	94.31
467.829	96.31
468.049	94.31
468.268	110.31
468.488	86.31
468.707	97.31
468.927	95.31
469.146	83.31
469.365	88.31
469.585	89.31
469.804	102.31
470.023	97.31
470.243	83.31
470.462	94.31
470.681	118.31
470.901	95.31
471.12	104.31
471.339	85.31
471.558	80.31
471.777	96.31
471.997	83.31
472.216	120.31
472.435	147.31
472.654	92.31
472.873	92.31
473.092	88.31
473.311	90.31
473.53	93.31
473.749	84.31
473.968	115.31
474.187	106.31
474.406	91.31
474.625	90.31
474.844	87.31
475.063	90.31
475.282	89.31
475.501	72.31
475.72	90.31
475.939	90.31
476.158	87.31
476.377	100.31
476.596	93.31
476.814	96.31
477.033	94.31
477.252	103.31
477.471	90.31
477.69	88.31
477.908	96.31
478.127	87.31
478.346	90.31
478.564	101.31
478.783	107.31
479.002	93.31
479.22	103.31
479.439	90.31
479.658	101.31
479.876	96.31
480.095	96.31
480.313	101.31
480.532	111.31
480.751	102.31
480.969	111.31
481.188	199.31
481.406	158.31
481.624	87.31
481.843	92.31
482.061	82.31
482.28	99.31
482.498	91.31
482.717	103.31
482.935	94.31
483.153	85.31
483.372	103.31
483.59	102.31
483.808	91.31
484.027	85.31
484.245	93.31
484.463	102.31
484.681	105.31
484.9	87.31
485.118	96.31
485.336	109.31
485.554	93.31
485.772	73.31
485.99	99.31
486.209	94.31
486.427	96.31
486.645	110.31
486.863	106.31
487.081	106.31
487.299	98.31
487.517	93.31
487.735	102.31
487.953	96.31
488.171	90.31
488.389	76.31
488.607	98.31
488.825	78.31
489.043	78.31
489.261	110.31
489.479	97.31
489.696	97.31
489.914	85.31
490.132	84.31
490.35	91.31
490.568	89.31
490.786	95.31
491.003	89.31
491.221	79.31
491.439	90.31
491.657	72.31
491.874	96.31
492.092	102.31
492.31	93.31
492.527	102.31
492.745	87.31
492.963	95.31
493.18	91.31
493.398	100.31
493.615	88.31
493.833	86.31
494.05	100.31
494.268	84.31
494.485	91.31
494.703	98.31
494.92	89.31
495.138	91.31
495.355	93.31
495.573	97.31
495.79	96.31
496.008	100.31
496.225	102.31
496.442	83.31
496.66	80.31
496.877	95.31
497.094	88.31
497.312	86.31
497.529	95.31
497.746	93.31
497.963	83.31
498.181	95.31
498.398	100.31
498.615	98.31
498.832	96.31
499.049	93.31
499.267	101.31
499.484	94.31
499.701	90.31
499.918	66.31
500.135	92.31
500.352	93.31
500.569	82.31
500.786	85.31
501.003	86.31
501.22	79.31
501.437	84.31
501.654	111.31
501.871	94.31
502.088	115.31
502.305	78.31
502.522	89.31
502.739	92.31
502.956	90.31
503.172	100.31
503.389	92.31
503.606	105.31
503.823	101.31
504.04	92.31
504.256	82.31
504.473	89.31
504.69	99.31
504.907	97.31
505.123	89.31
505.34	94.31
505.557	98.31
505.773	91.31
505.99	91.31
506.207	77.31
506.423	79.31
506.64	93.31
506.856	95.31
507.073	102.31
507.289	93.31
507.506	81.31
507.722	111.31
507.939	102.31
508.155	90.31
508.372	86.31
508.588	93.31
508.805	97.31
509.021	88.31
509.238	103.31
509.454	108.31
509.67	110.31
509.887	113.31
510.103	147.31
510.319	210.31
510.536	789.31
510.752	2724.31
510.968	774.31
511.184	176.31
511.401	120.31
511.617	112.31
511.833	86.31
512.049	89.31
512.265	92.31
512.481	79.31
512.698	98.31
512.914	102.31
513.13	89.31
513.346	79.31
513.562	92.31
513.778	87.31
513.994	100.31
514.21	114.31
514.426	123.31
514.642	135.31
514.858	133.31
515.074	186.31
515.29	489.31
515.506	1654.31
515.721	617.31
515.937	169.31
516.153	123.31
516.369	96.31
516.585	98.31
516.801	91.31
517.016	101.31
517.232	99.31
517.448	81.31
517.664	90.31
517.879	101.31
518.095	85.31
518.311	102.31
518.527	94.31
518.742	89.31
518.958	99.31
519.173	94.31
519.389	99.31
519.605	88.31
519.82	85.31
520.036	98.31
520.251	139.31
520.467	117.31
520.682	94.31
520.898	116.31
521.113	119.31
521.329	140.31
521.544	203.31
521.76	579.31
521.975	2720.31
522.19	1705.31
522.406	332.31
522.621	118.31
522.836	105.31
523.052	105.31
523.267	103.31
523.482	104.31
523.698	109.31
523.913	147.31
524.128	119.31
524.343	94.31
524.559	96.31
524.774	101.31
524.989	81.31
525.204	105.31
525.419	94.31
525.634	95.31
525.849	98.31
526.064	83.31
526.28	100.31
526.495	95.31
526.71	80.31
526.925	94.31
527.14	74.31
527.355	91.31
527.57	79.31
527.785	98.31
527.999	92.31
528.214	96.31
528.429	89.31
528.644	94.31
528.859	79.31
529.074	101.31
529.289	131.31
529.503	194.31
529.718	108.31
529.933	90.31
530.148	83.31
530.363	107.31
530.577	98.31
530.792	86.31
531.007	83.31
531.221	89.31
531.436	98.31
531.651	93.31
531.865	79.31
532.08	115.31
532.295	101.31
532.509	95.31
532.724	98.31
532.938	92.31
533.153	98.31
533.367	81.31
533.582	88.31
533.796	90.31
534.011	95.31
534.225	100.31
534.44	107.31
534.654	88.31
534.868	92.31
535.083	99.31
535.297	84.31
535.511	104.31
535.726	102.31
535.94	100.31
536.154	95.31
536.369	92.31
536.583	95.31
536.797	94.31
537.011	83.31
537.225	84.31
537.44	93.31
537.654	86.31
537.868	87.31
538.082	92.31
538.296	100.31
538.51	85.31
538.724	91.31
538.938	96.31
539.153	102.31
539.367	91.31
539.581	100.31
539.795	94.31
540.009	86.31
540.222	77.31
540.436	98.31
540.65	99.31
540.864	99.31
541.078	119.31
541.292	97.31
541.506	92.31
541.72	94.31
541.934	82.31
542.147	89.31
542.361	95.31
542.575	98.31
542.789	105.31
543.002	85.31
543.216	104.31
543.43	101.31
543.644	86.31
543.857	95.31
544.071	91.31
544.285	90.31
544.498	84.31
544.712	85.31
544.925	86.31
545.139	87.31
545.352	91.31
545.566	99.31
545.779	91.31
545.993	93.31
546.206	94.31
546.42	106.31
546.633	88.31
546.847	87.31
547.06	71.31
547.274	80.31
547.487	94.31
547.7	99.31
547.914	82.31
548.127	86.31
548.34	93.31
548.554	86.31
548.767	85.31
548.98	89.31
549.193	83.31
549.407	96.31
549.62	94.31
549.833	80.31
550.046	95.31
550.259	89.31
550.473	102.31
550.686	83.31
550.899	85.31
551.112	89.31
551.325	84.31
551.538	78.31
551.751	87.31
551.964	80.31
552.177	83.31
552.39	96.31
552.603	91.31
552.816	89.31
553.029	96.31
553.242	97.31
553.455	90.31
553.667	103.31
553.88	103.31
554.093	88.31
554.306	86.31
554.519	97.31
554.732	92.31
554.944	80.31
555.157	106.31
555.37	80.31
555.583	93.31
555.795	71.31
556.008	89.31
556.221	96.31
556.433	93.31
556.646	107.31
556.859	87.31
557.071	93.31
557.284	91.31
557.496	86.31
557.709	84.31
557.921	93.31
558.134	94.31
558.346	94.31
558.559	84.31
558.771	93.31
558.984	87.31
559.196	86.31
559.409	86.31
559.621	91.31
559.833	80.31
560.046	98.31
560.258	89.31
560.47	95.31
560.683	83.31
560.895	96.31
561.107	88.31
561.32	87.31
561.532	88.31
561.744	80.31
561.956	82.31
562.168	97.31
562.381	92.31
562.593	97.31
562.805	90.31
563.017	94.31
563.229	83.31
563.441	100.31
563.653	93.31
563.865	76.31
564.077	77.31
564.289	95.31
564.501	82.31
564.713	82.31
564.925	115.31
565.137	101.31
565.349	93.31
565.561	88.31
565.773	96.31
565.985	82.31
566.197	84.31
566.408	80.31
566.62	82.31
566.832	89.31
567.044	102.31
567.255	85.31
567.467	87.31
567.679	79.31
567.891	89.31
568.102	80.31
568.314	78.31
568.526	98.31
568.737	78.31
568.949	90.31
569.161	93.31
569.372	90.31
569.584	76.31
569.795	93.31
570.007	132.31
570.218	265.31
570.43	148.31
570.641	106.31
570.853	83.31
571.064	79.31
571.276	87.31
571.487	99.31
571.698	92.31
571.91	84.31
572.121	99.31
572.333	88.31
572.544	83.31
572.755	102.31
572.966	69.31
573.178	92.31
573.389	80.31
573.6	96.31
573.811	97.31
574.023	102.31
574.234	91.31
574.445	100.31
574.656	102.31
574.867	95.31
575.078	99.31
575.289	90.31
575.501	93.31
575.712	82.31
575.923	94.31
576.134	73.31
576.345	80.31
576.556	98.31
576.767	94.31
576.978	91.31
577.188	90.31
577.399	91.31
577.61	92.31
577.821	106.31
578.032	128.31
578.243	288.31
578.454	889.31
578.665	245.31
578.875	105.31
579.086	87.31
579.297	84.31
579.508	81.31
579.718	98.31
579.929	89.31
580.14	96.31
580.35	91.31
580.561	108.31
580.772	84.31
580.982	75.31
581.193	89.31
581.403	91.31
581.614	89.31
581.825	92.31
582.035	81.31
582.246	78.31
582.456	82.31
582.667	92.31
582.877	94.31
583.087	85.31
583.298	88.31
583.508	78.31
583.719	85.31
583.929	91.31
584.139	89.31
584.35	79.31
584.56	101.31
584.77	97.31
584.981	95.31
585.191	105.31
585.401	92.31
585.611	86.31
585.821	92.31
586.032	95.31
586.242	88.31
586.452	99.31
586.662	98.31
586.872	94.31
587.082	100.31
587.292	78.31
587.502	80.31
587.713	79.31
587.923	86.31
588.133	96.31
588.343	85.31
588.553	84.31
588.762	104.31
588.972	88.31
589.182	119.31
589.392	109.31
589.602	68.31
589.812	111.31
590.022	106.31
590.232	93.31
590.441	95.31
590.651	86.31
590.861	82.31
591.071	90.31
591.281	88.31
591.49	84.31
591.7	72.31
591.91	90.31
592.119	83.31
592.329	85.31
592.539	80.31
592.748	92.31
592.958	84.31
593.167	85.31
593.377	82.31
593.587	93.31
593.796	89.31
594.006	98.31
594.215	90.31
594.424	90.31
594.634	85.31
594.843	87.31
595.053	86.31
595.262	77.31
595.472	90.31
595.681	88.31
595.89	99.31
596.1	80.31
596.309	80.31
596.518	94.31
596.727	78.31
596.937	86.31
597.146	83.31
597.355	95.31
597.564	84.31
597.774	94.31
597.983	90.31
598.192	89.31
598.401	79.31
598.61	78.31
598.819	94.31
599.028	74.31
599.237	80.31
599.446	78.31
599.655	82.31
599.864	96.31
600.073	91.31
600.282	86.31
600.491	90.31
600.7	83.31
600.909	100.31
601.118	97.31
601.327	80.31
601.536	85.31
601.745	87.31
601.953	92.31
602.162	95.31
602.371	82.31
602.58	102.31
602.789	86.31
602.997	100.31
603.206	85.31
603.415	83.31
603.623	81.31
603.832	99.31
604.041	73.31
604.249	74.31
604.458	92.31
604.666	89.31
604.875	94.31
605.084	86.31
605.292	88.31
605.501	88.31
605.709	95.31
605.918	83.31
606.126	83.31
606.334	78.31
606.543	98.31
606.751	92.31
606.96	89.31
607.168	77.31
607.376	91.31
607.585	100.31
607.793	81.31
608.001	87.31
608.21	84.31
608.418	87.31
608.626	78.31
608.834	85.31
609.043	74.31
609.251	90.31
609.459	95.31
609.667	87.31
609.875	100.31
610.083	84.31
610.291	80.31
610.499	87.31
610.707	76.31
610.916	78.31
611.124	92.31
611.332	97.31
611.54	80.31
611.748	87.31
611.955	85.31
612.163	93.31
612.371	89.31
612.579	77.31
612.787	95.31
612.995	77.31
613.203	102.31
613.411	92.31
613.618	86.31
613.826	82.31
614.034	88.31
614.242	83.31
614.449	81.31
614.657	74.31
614.865	87.31
615.072	85.31
615.28	76.31
615.488	86.31
615.695	84.31
615.903	92.31
616.111	91.31
616.318	106.31
616.526	101.31
616.733	107.31
616.941	86.31
617.148	92.31
617.356	95.31
617.563	89.31
617.771	86.31
617.978	76.31
618.185	68.31
618.393	80.31
618.6	86.31
618.807	100.31
619.015	76.31
619.222	90.31
619.429	78.31
619.637	93.31
619.844	83.31
620.051	101.31
620.258	83.31
620.466	93.31
620.673	73.31
620.88	91.31
621.087	97.31
621.294	76.31
621.501	79.31
621.708	79.31
621.915	80.31
622.122	86.31
622.329	73.31
622.536	76.31
622.743	76.31
622.95	83.31
623.157	80.31
623.364	96.31
623.571	102.31
623.778	73.31
623.985	102.31
624.192	75.31
624.399	67.31
624.606	94.31
624.812	89.31
625.019	87.31
625.226	84.31
625.433	89.31
625.639	86.31
625.846	79.31
626.053	90.31
626.259	74.31
626.466	95.31
626.673	95.31
626.879	78.31
627.086	95.31
627.293	81.31
627.499	85.31
627.706	81.31
627.912	85.31
628.119	78.31
628.325	93.31
628.532	70.31
628.738	91.31
628.945	86.31
629.151	87.31
629.357	84.31
629.564	74.31
629.77	88.31
629.976	79.31
630.183	88.31
630.389	92.31
630.595	91.31
630.802	89.31
631.008	86.31
631.214	75.31
631.42	76.31
631.627	89.31
631.833	79.31
632.039	72.31
632.245	77.31
632.451	74.31
632.657	84.31
632.863	89.31
633.069	92.31
633.275	81.31
633.481	80.31
633.688	86.31
633.893	90.31
634.099	85.31
634.305	93.31
634.511	106.31
634.717	82.31
634.923	79.31
635.129	86.31
635.335	87.31
635.541	75.31
635.747	85.31
635.952	76.31
636.158	88.31
636.364	90.31
636.57	95.31
636.775	91.31
636.981	78.31
637.187	98.31
637.392	88.31
637.598	90.31
637.804	87.31
638.009	90.31
638.215	88.31
638.421	92.31
638.626	86.31
638.832	99.31
639.037	95.31
639.243	77.31
639.448	83.31
639.654	87.31
639.859	97.31
640.065	78.31
640.27	77.31
640.475	86.31
640.681	80.31
640.886	75.31
641.091	83.31
641.297	84.31
641.502	77.31
641.707	90.31
641.913	95.31
642.118	79.31
642.323	86.31
642.528	86.31
642.733	90.31
642.939	106.31
643.144	85.31
643.349	77.31
643.554	98.31
643.759	85.31
643.964	87.31
644.169	88.31
644.374	103.31
644.579	87.31
644.784	83.31
644.989	93.31
645.194	90.31
645.399	98.31
645.604	90.31
645.809	87.31
646.014	72.31
646.219	93.31
646.423	85.31
646.628	83.31
646.833	88.31
647.038	78.31
647.243	78.31
647.447	89.31
647.652	85.31
647.857	86.31
648.062	87.31
648.266	107.31
648.471	87.31
648.676	95.31
648.88	99.31
649.085	88.31
649.289	87.31
649.494	91.31
649.698	131.31
649.903	102.31
650.107	93.31
650.312	88.31
650.516	89.31
650.721	86.31
650.925	82.31
651.13	83.31
651.334	83.31
651.539	95.31
651.743	86.31
651.947	80.31
652.152	82.31
652.356	91.31
652.56	108.31
652.764	98.31
652.969	87.31
653.173	74.31
653.377	82.31
653.581	95.31
653.785	81.31
653.99	99.31
654.194	90.31
654.398	81.31
654.602	85.31
654.806	98.31
655.01	100.31
655.214	84.31
655.418	79.31
655.622	85.31
655.826	77.31
656.03	83.31
656.234	94.31
656.438	99.31
656.642	91.31
656.846	99.31
657.049	98.31
657.253	79.31
657.457	82.31
657.661	98.31
657.865	84.31
658.068	80.31
658.272	66.31
658.476	69.31
658.68	91.31
658.883	93.31
659.087	73.31
659.291	68.31
659.494	86.31
659.698	73.31
659.901	81.31
660.105	86.31
660.309	77.31
660.512	74.31
660.716	84.31
660.919	81.31
661.123	79.31
661.326	86.31
661.53	79.31
661.733	83.31
661.936	87.31
662.14	90.31
662.343	68.31
662.546	76.31
662.75	84.31
662.953	73.31
663.156	80.31
663.36	87.31
663.563	77.31
663.766	91.31
663.969	92.31
664.173	105.31
664.376	77.31
664.579	65.31
664.782	91.31
664.985	88.31
665.188	80.31
665.391	71.31
665.594	84.31
665.797	82.31
666	77.31
666.203	90.31
666.406	78.31
666.609	76.31
666.812	76.31
667.015	83.31
667.218	64.31
667.421	81.31
667.624	77.31
667.827	81.31
668.03	90.31
668.232	96.31
668.435	72.31
668.638	88.31
668.841	91.31
669.043	82.31
669.246	74.31
669.449	83.31
669.651	70.31
669.854	97.31
670.057	80.31
670.259	75.31
670.462	75.31
670.665	96.31
670.867	85.31
671.07	87.31
671.272	78.31
671.475	73.31
671.677	81.31
671.88	78.31
672.082	80.31
672.284	88.31
672.487	70.31
672.689	76.31
672.892	86.31
