Data from Circ_2014_H10_HRD10591_00074.txt Node
Date: Wed Jan 03 10:02:24 EST 2024
User: Yrep
Spectrometer: HR+D1059
Trigger mode: 1
Integration Time (sec): 1.000000E-1
Scans to average: 1
Electric dark correction enabled: true
Nonlinearity correction enabled: false
Boxcar width: 0
XAxis mode: Wavelengths
Number of Pixels in Spectrum: 2048
>>>>>Begin Spectral Data<<<<<
223.165	-20.31
223.4	-20.31
223.635	-20.31
223.869	-29.31
224.104	-24.31
224.338	-20.31
224.573	-14.31
224.808	-14.31
225.042	0.69
225.277	-2.31
225.511	-0.31
225.746	-5.31
225.98	9.69
226.215	12.69
226.449	3.69
226.683	32.69
226.918	33.69
227.152	37.69
227.387	36.69
227.621	45.69
227.856	27.69
228.09	38.69
228.324	49.69
228.559	55.69
228.793	52.69
229.027	65.69
229.262	74.69
229.496	65.69
229.73	69.69
229.964	83.69
230.199	71.69
230.433	78.69
230.667	80.69
230.901	86.69
231.136	64.69
231.37	79.69
231.604	78.69
231.838	67.69
232.072	73.69
232.306	86.69
232.541	69.69
232.775	83.69
233.009	78.69
233.243	86.69
233.477	79.69
233.711	82.69
233.945	79.69
234.179	96.69
234.413	65.69
234.647	73.69
234.881	66.69
235.115	74.69
235.349	79.69
235.583	85.69
235.817	65.69
236.051	65.69
236.285	65.69
236.519	72.69
236.753	69.69
236.987	79.69
237.221	71.69
237.455	85.69
237.689	62.69
237.922	68.69
238.156	75.69
238.39	64.69
238.624	76.69
238.858	72.69
239.091	79.69
239.325	80.69
239.559	69.69
239.793	69.69
240.027	83.69
240.26	75.69
240.494	70.69
240.728	73.69
240.961	69.69
241.195	67.69
241.429	72.69
241.662	79.69
241.896	86.69
242.13	57.69
242.363	61.69
242.597	57.69
242.83	68.69
243.064	77.69
243.298	77.69
243.531	72.69
243.765	87.69
243.998	62.69
244.232	60.69
244.465	69.69
244.699	92.69
244.932	84.69
245.166	70.69
245.399	61.69
245.633	83.69
245.866	90.69
246.099	67.69
246.333	76.69
246.566	79.69
246.8	91.69
247.033	71.69
247.266	73.69
247.5	72.69
247.733	64.69
247.966	71.69
248.2	75.69
248.433	83.69
248.666	73.69
248.899	74.69
249.133	75.69
249.366	90.69
249.599	83.69
249.832	87.69
250.066	81.69
250.299	71.69
250.532	73.69
250.765	78.69
250.998	78.69
251.231	79.69
251.465	70.69
251.698	67.69
251.931	73.69
252.164	73.69
252.397	81.69
252.63	79.69
252.863	86.69
253.096	85.69
253.329	66.69
253.562	77.69
253.795	78.69
254.028	71.69
254.261	70.69
254.494	73.69
254.727	74.69
254.96	80.69
255.193	70.69
255.426	83.69
255.659	80.69
255.892	68.69
256.124	68.69
256.357	83.69
256.59	73.69
256.823	63.69
257.056	73.69
257.289	81.69
257.521	69.69
257.754	63.69
257.987	71.69
258.22	78.69
258.452	71.69
258.685	75.69
258.918	70.69
259.151	86.69
259.383	81.69
259.616	67.69
259.849	72.69
260.081	88.69
260.314	68.69
260.547	87.69
260.779	77.69
261.012	76.69
261.244	85.69
261.477	78.69
261.71	92.69
261.942	102.69
262.175	119.69
262.407	90.69
262.64	92.69
262.872	77.69
263.105	83.69
263.337	96.69
263.57	79.69
263.802	68.69
264.035	75.69
264.267	77.69
264.499	77.69
264.732	80.69
264.964	89.69
265.197	74.69
265.429	81.69
265.661	71.69
265.894	65.69
266.126	81.69
266.358	73.69
266.591	84.69
266.823	81.69
267.055	80.69
267.287	72.69
267.52	74.69
267.752	87.69
267.984	84.69
268.216	84.69
268.448	93.69
268.681	79.69
268.913	81.69
269.145	76.69
269.377	81.69
269.609	69.69
269.841	76.69
270.073	66.69
270.306	74.69
270.538	76.69
270.77	73.69
271.002	83.69
271.234	83.69
271.466	89.69
271.698	74.69
271.93	83.69
272.162	93.69
272.394	89.69
272.626	69.69
272.858	64.69
273.09	80.69
273.322	76.69
273.553	85.69
273.785	74.69
274.017	81.69
274.249	82.69
274.481	68.69
274.713	78.69
274.945	81.69
275.176	91.69
275.408	89.69
275.64	79.69
275.872	82.69
276.104	82.69
276.335	92.69
276.567	95.69
276.799	115.69
277.031	93.69
277.262	93.69
277.494	96.69
277.726	80.69
277.957	93.69
278.189	85.69
278.421	82.69
278.652	92.69
278.884	81.69
279.115	89.69
279.347	73.69
279.579	89.69
279.81	89.69
280.042	89.69
280.273	85.69
280.505	90.69
280.736	88.69
280.968	80.69
281.199	72.69
281.431	83.69
281.662	66.69
281.894	79.69
282.125	96.69
282.356	107.69
282.588	134.69
282.819	118.69
283.051	76.69
283.282	77.69
283.513	73.69
283.745	68.69
283.976	95.69
284.207	85.69
284.439	70.69
284.67	78.69
284.901	63.69
285.132	73.69
285.364	80.69
285.595	82.69
285.826	89.69
286.057	95.69
286.288	83.69
286.52	76.69
286.751	80.69
286.982	90.69
287.213	87.69
287.444	80.69
287.675	71.69
287.906	92.69
288.138	86.69
288.369	80.69
288.6	98.69
288.831	79.69
289.062	85.69
289.293	80.69
289.524	80.69
289.755	88.69
289.986	82.69
290.217	89.69
290.448	95.69
290.679	75.69
290.91	81.69
291.141	91.69
291.371	88.69
291.602	89.69
291.833	70.69
292.064	86.69
292.295	78.69
292.526	86.69
292.757	83.69
292.987	84.69
293.218	84.69
293.449	83.69
293.68	82.69
293.91	82.69
294.141	89.69
294.372	71.69
294.603	78.69
294.833	83.69
295.064	68.69
295.295	93.69
295.525	78.69
295.756	93.69
295.987	113.69
296.217	134.69
296.448	115.69
296.679	92.69
296.909	81.69
297.14	90.69
297.37	84.69
297.601	71.69
297.831	76.69
298.062	77.69
298.292	79.69
298.523	72.69
298.753	80.69
298.984	83.69
299.214	80.69
299.445	74.69
299.675	74.69
299.905	104.69
300.136	94.69
300.366	94.69
300.597	97.69
300.827	83.69
301.057	83.69
301.288	102.69
301.518	94.69
301.748	86.69
301.979	93.69
302.209	75.69
302.439	86.69
302.669	83.69
302.9	80.69
303.13	96.69
303.36	76.69
303.59	93.69
303.82	106.69
304.051	95.69
304.281	85.69
304.511	89.69
304.741	76.69
304.971	82.69
305.201	70.69
305.431	75.69
305.661	82.69
305.891	85.69
306.121	89.69
306.352	105.69
306.582	104.69
306.812	98.69
307.042	100.69
307.272	94.69
307.502	94.69
307.731	94.69
307.961	84.69
308.191	83.69
308.421	85.69
308.651	79.69
308.881	87.69
309.111	100.69
309.341	93.69
309.571	86.69
309.8	88.69
310.03	99.69
310.26	110.69
310.49	79.69
310.72	78.69
310.949	101.69
311.179	91.69
311.409	93.69
311.639	93.69
311.868	74.69
312.098	82.69
312.328	75.69
312.557	91.69
312.787	105.69
313.017	104.69
313.246	87.69
313.476	92.69
313.706	82.69
313.935	94.69
314.165	95.69
314.394	103.69
314.624	89.69
314.853	102.69
315.083	91.69
315.312	87.69
315.542	83.69
315.771	73.69
316.001	87.69
316.23	94.69
316.46	92.69
316.689	82.69
316.919	80.69
317.148	78.69
317.377	85.69
317.607	87.69
317.836	86.69
318.065	76.69
318.295	85.69
318.524	80.69
318.753	80.69
318.983	101.69
319.212	85.69
319.441	97.69
319.67	109.69
319.9	82.69
320.129	93.69
320.358	78.69
320.587	88.69
320.816	101.69
321.046	105.69
321.275	92.69
321.504	89.69
321.733	89.69
321.962	89.69
322.191	113.69
322.42	89.69
322.649	101.69
322.878	109.69
323.108	115.69
323.337	110.69
323.566	122.69
323.795	138.69
324.024	194.69
324.253	364.69
324.482	769.69
324.71	1584.69
324.939	2030.69
325.168	770.69
325.397	234.69
325.626	135.69
325.855	117.69
326.084	112.69
326.313	117.69
326.542	133.69
326.77	215.69
326.999	415.69
327.228	855.69
327.457	1555.69
327.686	1255.69
327.914	349.69
328.143	205.69
328.372	165.69
328.6	136.69
328.829	135.69
329.058	114.69
329.287	132.69
329.515	109.69
329.744	85.69
329.972	123.69
330.201	153.69
330.43	202.69
330.658	148.69
330.887	149.69
331.115	123.69
331.344	85.69
331.572	86.69
331.801	104.69
332.03	102.69
332.258	95.69
332.486	92.69
332.715	79.69
332.943	89.69
333.172	88.69
333.4	102.69
333.629	118.69
333.857	104.69
334.085	119.69
334.314	160.69
334.542	209.69
334.771	198.69
334.999	93.69
335.227	91.69
335.455	101.69
335.684	93.69
335.912	87.69
336.14	80.69
336.369	84.69
336.597	90.69
336.825	82.69
337.053	101.69
337.281	76.69
337.51	95.69
337.738	92.69
337.966	99.69
338.194	81.69
338.422	102.69
338.65	92.69
338.878	87.69
339.106	74.69
339.334	90.69
339.562	87.69
339.79	79.69
340.018	79.69
340.246	80.69
340.474	87.69
340.702	81.69
340.93	83.69
341.158	71.69
341.386	86.69
341.614	88.69
341.842	91.69
342.07	86.69
342.298	93.69
342.526	83.69
342.754	91.69
342.981	79.69
343.209	87.69
343.437	75.69
343.665	93.69
343.893	97.69
344.12	84.69
344.348	100.69
344.576	93.69
344.804	81.69
345.031	95.69
345.259	87.69
345.487	97.69
345.714	74.69
345.942	86.69
346.17	90.69
346.397	86.69
346.625	93.69
346.853	82.69
347.08	87.69
347.308	95.69
347.535	80.69
347.763	96.69
347.99	94.69
348.218	85.69
348.445	104.69
348.673	90.69
348.9	79.69
349.128	87.69
349.355	83.69
349.583	80.69
349.81	91.69
350.037	99.69
350.265	91.69
350.492	102.69
350.72	85.69
350.947	97.69
351.174	104.69
351.402	96.69
351.629	88.69
351.856	86.69
352.083	100.69
352.311	87.69
352.538	113.69
352.765	104.69
352.992	92.69
353.22	119.69
353.447	109.69
353.674	104.69
353.901	102.69
354.128	88.69
354.355	85.69
354.583	93.69
354.81	101.69
355.037	94.69
355.264	94.69
355.491	87.69
355.718	79.69
355.945	86.69
356.172	81.69
356.399	86.69
356.626	95.69
356.853	87.69
357.08	84.69
357.307	93.69
357.534	86.69
357.761	91.69
357.988	90.69
358.215	102.69
358.441	85.69
358.668	98.69
358.895	99.69
359.122	75.69
359.349	91.69
359.576	94.69
359.802	90.69
360.029	101.69
360.256	112.69
360.483	104.69
360.709	89.69
360.936	95.69
361.163	89.69
361.39	82.69
361.616	90.69
361.843	85.69
362.07	88.69
362.296	72.69
362.523	78.69
362.749	77.69
362.976	74.69
363.203	88.69
363.429	82.69
363.656	102.69
363.882	87.69
364.109	70.69
364.335	95.69
364.562	96.69
364.788	92.69
365.015	88.69
365.241	92.69
365.468	98.69
365.694	99.69
365.92	88.69
366.147	93.69
366.373	87.69
366.599	79.69
366.826	76.69
367.052	85.69
367.278	87.69
367.505	94.69
367.731	86.69
367.957	88.69
368.184	72.69
368.41	95.69
368.636	99.69
368.862	109.69
369.089	98.69
369.315	80.69
369.541	83.69
369.767	85.69
369.993	67.69
370.219	74.69
370.445	75.69
370.672	78.69
370.898	80.69
371.124	83.69
371.35	80.69
371.576	83.69
371.802	95.69
372.028	95.69
372.254	75.69
372.48	75.69
372.706	76.69
372.932	87.69
373.158	89.69
373.384	91.69
373.61	90.69
373.835	92.69
374.061	74.69
374.287	83.69
374.513	80.69
374.739	94.69
374.965	95.69
375.191	101.69
375.416	80.69
375.642	88.69
375.868	82.69
376.094	82.69
376.319	83.69
376.545	79.69
376.771	80.69
376.997	96.69
377.222	84.69
377.448	68.69
377.674	75.69
377.899	91.69
378.125	87.69
378.35	83.69
378.576	68.69
378.802	86.69
379.027	93.69
379.253	89.69
379.478	84.69
379.704	84.69
379.929	94.69
380.155	82.69
380.38	91.69
380.606	96.69
380.831	95.69
381.057	86.69
381.282	74.69
381.507	90.69
381.733	79.69
381.958	79.69
382.184	94.69
382.409	99.69
382.634	102.69
382.86	87.69
383.085	90.69
383.31	97.69
383.535	94.69
383.761	91.69
383.986	90.69
384.211	106.69
384.436	88.69
384.662	88.69
384.887	85.69
385.112	79.69
385.337	103.69
385.562	105.69
385.787	89.69
386.013	113.69
386.238	101.69
386.463	100.69
386.688	112.69
386.913	107.69
387.138	116.69
387.363	96.69
387.588	98.69
387.813	94.69
388.038	101.69
388.263	100.69
388.488	104.69
388.713	89.69
388.938	99.69
389.163	89.69
389.387	100.69
389.612	85.69
389.837	100.69
390.062	89.69
390.287	89.69
390.512	82.69
390.736	70.69
390.961	92.69
391.186	88.69
391.411	97.69
391.636	92.69
391.86	77.69
392.085	96.69
392.31	86.69
392.534	86.69
392.759	96.69
392.984	75.69
393.208	76.69
393.433	71.69
393.658	85.69
393.882	89.69
394.107	88.69
394.331	93.69
394.556	83.69
394.78	92.69
395.005	89.69
395.229	73.69
395.454	88.69
395.678	77.69
395.903	73.69
396.127	83.69
396.352	84.69
396.576	90.69
396.801	96.69
397.025	80.69
397.249	97.69
397.474	81.69
397.698	80.69
397.922	76.69
398.147	86.69
398.371	76.69
398.595	90.69
398.82	81.69
399.044	66.69
399.268	103.69
399.492	74.69
399.717	84.69
399.941	98.69
400.165	85.69
400.389	85.69
400.613	93.69
400.837	79.69
401.062	79.69
401.286	89.69
401.51	90.69
401.734	85.69
401.958	96.69
402.182	131.69
402.406	154.69
402.63	104.69
402.854	86.69
403.078	82.69
403.302	80.69
403.526	81.69
403.75	82.69
403.974	84.69
404.198	78.69
404.422	70.69
404.645	81.69
404.869	95.69
405.093	85.69
405.317	92.69
405.541	100.69
405.765	101.69
405.988	96.69
406.212	166.69
406.436	207.69
406.66	131.69
406.883	100.69
407.107	77.69
407.331	96.69
407.555	99.69
407.778	93.69
408.002	75.69
408.226	79.69
408.449	72.69
408.673	82.69
408.896	81.69
409.12	86.69
409.344	83.69
409.567	91.69
409.791	88.69
410.014	84.69
410.238	78.69
410.461	94.69
410.685	84.69
410.908	81.69
411.132	85.69
411.355	103.69
411.578	89.69
411.802	99.69
412.025	85.69
412.249	79.69
412.472	79.69
412.695	88.69
412.919	76.69
413.142	94.69
413.365	98.69
413.589	85.69
413.812	89.69
414.035	88.69
414.258	88.69
414.482	91.69
414.705	93.69
414.928	90.69
415.151	86.69
415.374	80.69
415.597	81.69
415.821	75.69
416.044	94.69
416.267	77.69
416.49	85.69
416.713	98.69
416.936	79.69
417.159	87.69
417.382	90.69
417.605	87.69
417.828	100.69
418.051	93.69
418.274	74.69
418.497	82.69
418.72	79.69
418.943	82.69
419.166	85.69
419.389	90.69
419.611	82.69
419.834	90.69
420.057	86.69
420.28	89.69
420.503	83.69
420.726	91.69
420.948	79.69
421.171	80.69
421.394	83.69
421.617	82.69
421.839	96.69
422.062	93.69
422.285	88.69
422.507	101.69
422.73	102.69
422.953	96.69
423.175	87.69
423.398	91.69
423.621	81.69
423.843	81.69
424.066	89.69
424.288	70.69
424.511	79.69
424.733	87.69
424.956	95.69
425.178	87.69
425.401	115.69
425.623	96.69
425.846	86.69
426.068	101.69
426.291	81.69
426.513	101.69
426.735	105.69
426.958	84.69
427.18	104.69
427.402	127.69
427.625	176.69
427.847	131.69
428.069	130.69
428.292	80.69
428.514	88.69
428.736	86.69
428.958	77.69
429.181	85.69
429.403	75.69
429.625	80.69
429.847	90.69
430.069	92.69
430.292	93.69
430.514	83.69
430.736	72.69
430.958	93.69
431.18	81.69
431.402	93.69
431.624	94.69
431.846	84.69
432.068	79.69
432.29	75.69
432.512	77.69
432.734	78.69
432.956	95.69
433.178	87.69
433.4	102.69
433.622	89.69
433.844	74.69
434.066	73.69
434.287	78.69
434.509	72.69
434.731	83.69
434.953	89.69
435.175	86.69
435.397	80.69
435.618	95.69
435.84	119.69
436.062	113.69
436.284	103.69
436.505	88.69
436.727	85.69
436.949	89.69
437.17	89.69
437.392	105.69
437.614	94.69
437.835	98.69
438.057	125.69
438.278	117.69
438.5	101.69
438.721	115.69
438.943	105.69
439.165	83.69
439.386	90.69
439.608	83.69
439.829	111.69
440.05	125.69
440.272	131.69
440.493	82.69
440.715	95.69
440.936	83.69
441.158	80.69
441.379	81.69
441.6	90.69
441.822	77.69
442.043	99.69
442.264	114.69
442.486	95.69
442.707	86.69
442.928	106.69
443.149	128.69
443.371	133.69
443.592	115.69
443.813	106.69
444.034	104.69
444.255	82.69
444.476	85.69
444.698	81.69
444.919	84.69
445.14	122.69
445.361	117.69
445.582	101.69
445.803	147.69
446.024	136.69
446.245	125.69
446.466	90.69
446.687	83.69
446.908	82.69
447.129	84.69
447.35	90.69
447.571	88.69
447.792	98.69
448.013	91.69
448.234	91.69
448.455	96.69
448.675	108.69
448.896	113.69
449.117	101.69
449.338	91.69
449.559	125.69
449.779	133.69
450	101.69
450.221	94.69
450.442	101.69
450.662	100.69
450.883	105.69
451.104	113.69
451.324	90.69
451.545	89.69
451.766	78.69
451.986	86.69
452.207	99.69
452.428	85.69
452.648	96.69
452.869	111.69
453.089	110.69
453.31	113.69
453.53	98.69
453.751	82.69
453.971	96.69
454.192	104.69
454.412	84.69
454.633	83.69
454.853	77.69
455.073	74.69
455.294	90.69
455.514	92.69
455.734	85.69
455.955	73.69
456.175	85.69
456.395	80.69
456.616	70.69
456.836	61.69
457.056	86.69
457.276	81.69
457.497	82.69
457.717	82.69
457.937	86.69
458.157	84.69
458.377	81.69
458.598	113.69
458.818	141.69
459.038	148.69
459.258	118.69
459.478	81.69
459.698	95.69
459.918	92.69
460.138	90.69
460.358	81.69
460.578	68.69
460.798	86.69
461.018	88.69
461.238	87.69
461.458	93.69
461.678	89.69
461.898	88.69
462.118	73.69
462.338	76.69
462.558	81.69
462.777	87.69
462.997	99.69
463.217	88.69
463.437	79.69
463.657	75.69
463.876	64.69
464.096	102.69
464.316	89.69
464.536	95.69
464.755	95.69
464.975	102.69
465.195	158.69
465.414	156.69
465.634	83.69
465.854	69.69
466.073	79.69
466.293	84.69
466.512	86.69
466.732	85.69
466.951	95.69
467.171	66.69
467.391	80.69
467.61	111.69
467.829	102.69
468.049	120.69
468.268	122.69
468.488	82.69
468.707	78.69
468.927	99.69
469.146	96.69
469.365	79.69
469.585	83.69
469.804	91.69
470.023	99.69
470.243	86.69
470.462	92.69
470.681	109.69
470.901	101.69
471.12	90.69
471.339	80.69
471.558	75.69
471.777	94.69
471.997	96.69
472.216	145.69
472.435	245.69
472.654	126.69
472.873	85.69
473.092	93.69
473.311	88.69
473.53	82.69
473.749	83.69
473.968	85.69
474.187	95.69
474.406	91.69
474.625	103.69
474.844	65.69
475.063	62.69
475.282	89.69
475.501	77.69
475.72	90.69
475.939	87.69
476.158	97.69
476.377	80.69
476.596	89.69
476.814	86.69
477.033	66.69
477.252	75.69
477.471	92.69
477.69	84.69
477.908	87.69
478.127	70.69
478.346	75.69
478.564	92.69
478.783	91.69
479.002	94.69
479.22	84.69
479.439	81.69
479.658	100.69
479.876	96.69
480.095	69.69
480.313	83.69
480.532	82.69
480.751	90.69
480.969	144.69
481.188	378.69
481.406	260.69
481.624	110.69
481.843	76.69
482.061	83.69
482.28	76.69
482.498	89.69
482.717	80.69
482.935	86.69
483.153	80.69
483.372	78.69
483.59	90.69
483.808	88.69
484.027	71.69
484.245	83.69
484.463	75.69
484.681	71.69
484.9	80.69
485.118	91.69
485.336	85.69
485.554	102.69
485.772	90.69
485.99	105.69
486.209	109.69
486.427	97.69
486.645	110.69
486.863	97.69
487.081	91.69
487.299	102.69
487.517	88.69
487.735	75.69
487.953	83.69
488.171	85.69
488.389	88.69
488.607	97.69
488.825	97.69
489.043	92.69
489.261	109.69
489.479	82.69
489.696	94.69
489.914	93.69
490.132	100.69
490.35	89.69
490.568	79.69
490.786	92.69
491.003	86.69
491.221	90.69
491.439	77.69
491.657	84.69
491.874	92.69
492.092	83.69
492.31	86.69
492.527	74.69
492.745	96.69
492.963	73.69
493.18	84.69
493.398	82.69
493.615	100.69
493.833	92.69
494.05	87.69
494.268	89.69
494.485	93.69
494.703	96.69
494.92	85.69
495.138	85.69
495.355	88.69
495.573	93.69
495.79	74.69
496.008	82.69
496.225	88.69
496.442	91.69
496.66	96.69
496.877	78.69
497.094	98.69
497.312	94.69
497.529	84.69
497.746	84.69
497.963	82.69
498.181	79.69
498.398	105.69
498.615	121.69
498.832	93.69
499.049	89.69
499.267	91.69
499.484	81.69
499.701	86.69
499.918	85.69
500.135	78.69
500.352	92.69
500.569	94.69
500.786	77.69
501.003	75.69
501.22	95.69
501.437	72.69
501.654	89.69
501.871	101.69
502.088	78.69
502.305	93.69
502.522	96.69
502.739	80.69
502.956	102.69
503.172	77.69
503.389	88.69
503.606	95.69
503.823	86.69
504.04	88.69
504.256	88.69
504.473	89.69
504.69	65.69
504.907	89.69
505.123	86.69
505.34	77.69
505.557	75.69
505.773	78.69
505.99	89.69
506.207	93.69
506.423	98.69
506.64	94.69
506.856	89.69
507.073	109.69
507.289	90.69
507.506	80.69
507.722	122.69
507.939	111.69
508.155	79.69
508.372	84.69
508.588	78.69
508.805	78.69
509.021	89.69
509.238	86.69
509.454	93.69
509.67	102.69
509.887	113.69
510.103	126.69
510.319	199.69
510.536	718.69
510.752	2431.69
510.968	682.69
511.184	158.69
511.401	100.69
511.617	96.69
511.833	96.69
512.049	86.69
512.265	87.69
512.481	85.69
512.698	88.69
512.914	98.69
513.13	82.69
513.346	89.69
513.562	103.69
513.778	90.69
513.994	93.69
514.21	91.69
514.426	115.69
514.642	129.69
514.858	115.69
515.074	173.69
515.29	435.69
515.506	1482.69
515.721	581.69
515.937	132.69
516.153	102.69
516.369	96.69
516.585	74.69
516.801	81.69
517.016	107.69
517.232	92.69
517.448	88.69
517.664	89.69
517.879	88.69
518.095	74.69
518.311	84.69
518.527	94.69
518.742	88.69
518.958	93.69
519.173	85.69
519.389	84.69
519.605	98.69
519.82	102.69
520.036	97.69
520.251	116.69
520.467	115.69
520.682	101.69
520.898	105.69
521.113	110.69
521.329	111.69
521.544	202.69
521.76	544.69
521.975	2482.69
522.19	1531.69
522.406	339.69
522.621	117.69
522.836	93.69
523.052	93.69
523.267	95.69
523.482	102.69
523.698	101.69
523.913	110.69
524.128	98.69
524.343	87.69
524.559	81.69
524.774	93.69
524.989	89.69
525.204	101.69
525.419	78.69
525.634	84.69
525.849	87.69
526.064	77.69
526.28	90.69
526.495	77.69
526.71	85.69
526.925	95.69
527.14	77.69
527.355	60.69
527.57	95.69
527.785	84.69
527.999	93.69
528.214	89.69
528.429	87.69
528.644	86.69
528.859	75.69
529.074	83.69
529.289	122.69
529.503	181.69
529.718	106.69
529.933	76.69
530.148	92.69
530.363	99.69
530.577	68.69
530.792	85.69
531.007	82.69
531.221	75.69
531.436	82.69
531.651	93.69
531.865	82.69
532.08	81.69
532.295	92.69
532.509	89.69
532.724	88.69
532.938	84.69
533.153	89.69
533.367	82.69
533.582	94.69
533.796	85.69
534.011	93.69
534.225	94.69
534.44	85.69
534.654	92.69
534.868	97.69
535.083	93.69
535.297	93.69
535.511	95.69
535.726	100.69
535.94	102.69
536.154	82.69
536.369	86.69
536.583	80.69
536.797	91.69
537.011	76.69
537.225	70.69
537.44	96.69
537.654	84.69
537.868	81.69
538.082	75.69
538.296	81.69
538.51	78.69
538.724	78.69
538.938	78.69
539.153	104.69
539.367	113.69
539.581	102.69
539.795	94.69
540.009	76.69
540.222	81.69
540.436	70.69
540.65	87.69
540.864	87.69
541.078	98.69
541.292	89.69
541.506	90.69
541.72	80.69
541.934	76.69
542.147	84.69
542.361	80.69
542.575	73.69
542.789	89.69
543.002	80.69
543.216	82.69
543.43	100.69
543.644	100.69
543.857	78.69
544.071	94.69
544.285	93.69
544.498	79.69
544.712	87.69
544.925	88.69
545.139	87.69
545.352	86.69
545.566	70.69
545.779	77.69
545.993	75.69
546.206	91.69
546.42	85.69
546.633	63.69
546.847	98.69
547.06	66.69
547.274	79.69
547.487	91.69
547.7	93.69
547.914	81.69
548.127	86.69
548.34	87.69
548.554	98.69
548.767	75.69
548.98	69.69
549.193	80.69
549.407	75.69
549.62	81.69
549.833	78.69
550.046	84.69
550.259	82.69
550.473	75.69
550.686	77.69
550.899	84.69
551.112	88.69
551.325	85.69
551.538	88.69
551.751	90.69
551.964	86.69
552.177	94.69
552.39	78.69
552.603	84.69
552.816	86.69
553.029	84.69
553.242	94.69
553.455	88.69
553.667	114.69
553.88	111.69
554.093	89.69
554.306	87.69
554.519	82.69
554.732	95.69
554.944	66.69
555.157	88.69
555.37	80.69
555.583	79.69
555.795	85.69
556.008	83.69
556.221	90.69
556.433	76.69
556.646	85.69
556.859	75.69
557.071	102.69
557.284	94.69
557.496	87.69
557.709	86.69
557.921	89.69
558.134	87.69
558.346	85.69
558.559	87.69
558.771	77.69
558.984	87.69
559.196	89.69
559.409	81.69
559.621	85.69
559.833	78.69
560.046	83.69
560.258	83.69
560.47	75.69
560.683	78.69
560.895	73.69
561.107	87.69
561.32	73.69
561.532	96.69
561.744	86.69
561.956	85.69
562.168	75.69
562.381	98.69
562.593	86.69
562.805	93.69
563.017	63.69
563.229	78.69
563.441	82.69
563.653	76.69
563.865	77.69
564.077	83.69
564.289	78.69
564.501	91.69
564.713	83.69
564.925	86.69
565.137	111.69
565.349	100.69
565.561	78.69
565.773	83.69
565.985	71.69
566.197	81.69
566.408	94.69
566.62	75.69
566.832	66.69
567.044	97.69
567.255	93.69
567.467	86.69
567.679	72.69
567.891	93.69
568.102	82.69
568.314	87.69
568.526	82.69
568.737	71.69
568.949	90.69
569.161	72.69
569.372	83.69
569.584	86.69
569.795	101.69
570.007	111.69
570.218	239.69
570.43	130.69
570.641	89.69
570.853	69.69
571.064	82.69
571.276	73.69
571.487	81.69
571.698	105.69
571.91	79.69
572.121	78.69
572.333	71.69
572.544	90.69
572.755	90.69
572.966	88.69
573.178	69.69
573.389	87.69
573.6	94.69
573.811	72.69
574.023	80.69
574.234	82.69
574.445	79.69
574.656	80.69
574.867	81.69
575.078	82.69
575.289	76.69
575.501	87.69
575.712	90.69
575.923	73.69
576.134	84.69
576.345	93.69
576.556	82.69
576.767	84.69
576.978	88.69
577.188	98.69
577.399	89.69
577.61	73.69
577.821	87.69
578.032	110.69
578.243	239.69
578.454	742.69
578.665	208.69
578.875	104.69
579.086	89.69
579.297	91.69
579.508	73.69
579.718	81.69
579.929	90.69
580.14	86.69
580.35	80.69
580.561	96.69
580.772	81.69
580.982	71.69
581.193	83.69
581.403	90.69
581.614	79.69
581.825	85.69
582.035	91.69
582.246	84.69
582.456	84.69
582.667	82.69
582.877	78.69
583.087	93.69
583.298	85.69
583.508	80.69
583.719	73.69
583.929	86.69
584.139	83.69
584.35	81.69
584.56	84.69
584.77	80.69
584.981	65.69
585.191	80.69
585.401	75.69
585.611	84.69
585.821	80.69
586.032	78.69
586.242	83.69
586.452	90.69
586.662	97.69
586.872	73.69
587.082	84.69
587.292	66.69
587.502	82.69
587.713	94.69
587.923	78.69
588.133	82.69
588.343	83.69
588.553	76.69
588.762	87.69
588.972	82.69
589.182	87.69
589.392	92.69
589.602	74.69
589.812	96.69
590.022	71.69
590.232	83.69
590.441	85.69
590.651	73.69
590.861	92.69
591.071	80.69
591.281	83.69
591.49	84.69
591.7	69.69
591.91	75.69
592.119	81.69
592.329	87.69
592.539	82.69
592.748	85.69
592.958	88.69
593.167	70.69
593.377	78.69
593.587	86.69
593.796	78.69
594.006	98.69
594.215	74.69
594.424	85.69
594.634	78.69
594.843	79.69
595.053	84.69
595.262	75.69
595.472	75.69
595.681	81.69
595.89	91.69
596.1	78.69
596.309	84.69
596.518	77.69
596.727	81.69
596.937	83.69
597.146	82.69
597.355	78.69
597.564	78.69
597.774	84.69
597.983	91.69
598.192	78.69
598.401	78.69
598.61	79.69
598.819	80.69
599.028	77.69
599.237	82.69
599.446	83.69
599.655	86.69
599.864	86.69
600.073	78.69
600.282	86.69
600.491	83.69
600.7	86.69
600.909	82.69
601.118	80.69
601.327	94.69
601.536	75.69
601.745	83.69
601.953	82.69
602.162	84.69
602.371	75.69
602.58	79.69
602.789	76.69
602.997	82.69
603.206	91.69
603.415	89.69
603.623	80.69
603.832	83.69
604.041	93.69
604.249	75.69
604.458	79.69
604.666	89.69
604.875	78.69
605.084	78.69
605.292	83.69
605.501	56.69
605.709	88.69
605.918	63.69
606.126	74.69
606.334	94.69
606.543	87.69
606.751	89.69
606.96	93.69
607.168	75.69
607.376	88.69
607.585	73.69
607.793	80.69
608.001	90.69
608.21	96.69
608.418	94.69
608.626	79.69
608.834	80.69
609.043	88.69
609.251	73.69
609.459	84.69
609.667	85.69
609.875	87.69
610.083	71.69
610.291	87.69
610.499	91.69
610.707	72.69
610.916	78.69
611.124	70.69
611.332	91.69
611.54	89.69
611.748	82.69
611.955	92.69
612.163	86.69
612.371	89.69
612.579	83.69
612.787	83.69
612.995	85.69
613.203	97.69
613.411	69.69
613.618	74.69
613.826	83.69
614.034	82.69
614.242	86.69
614.449	84.69
614.657	83.69
614.865	81.69
615.072	88.69
615.28	86.69
615.488	84.69
615.695	94.69
615.903	81.69
616.111	86.69
616.318	104.69
616.526	79.69
616.733	83.69
616.941	83.69
617.148	82.69
617.356	86.69
617.563	88.69
617.771	87.69
617.978	85.69
618.185	80.69
618.393	83.69
618.6	89.69
618.807	79.69
619.015	98.69
619.222	79.69
619.429	81.69
619.637	74.69
619.844	85.69
620.051	77.69
620.258	83.69
620.466	62.69
620.673	85.69
620.88	85.69
621.087	88.69
621.294	70.69
621.501	86.69
621.708	74.69
621.915	93.69
622.122	93.69
622.329	74.69
622.536	82.69
622.743	83.69
622.95	78.69
623.157	69.69
623.364	80.69
623.571	72.69
623.778	74.69
623.985	82.69
624.192	80.69
624.399	76.69
624.606	70.69
624.812	80.69
625.019	71.69
625.226	71.69
625.433	78.69
625.639	82.69
625.846	67.69
626.053	92.69
626.259	72.69
626.466	80.69
626.673	69.69
626.879	83.69
627.086	74.69
627.293	74.69
627.499	94.69
627.706	93.69
627.912	85.69
628.119	81.69
628.325	81.69
628.532	93.69
628.738	88.69
628.945	100.69
629.151	82.69
629.357	83.69
629.564	78.69
629.77	91.69
629.976	88.69
630.183	74.69
630.389	82.69
630.595	82.69
630.802	76.69
631.008	79.69
631.214	90.69
631.42	82.69
631.627	73.69
631.833	82.69
632.039	83.69
632.245	69.69
632.451	79.69
632.657	76.69
632.863	85.69
633.069	77.69
633.275	79.69
633.481	72.69
633.688	81.69
633.893	89.69
634.099	83.69
634.305	89.69
634.511	81.69
634.717	74.69
634.923	78.69
635.129	95.69
635.335	83.69
635.541	67.69
635.747	81.69
635.952	79.69
636.158	91.69
636.364	98.69
636.57	95.69
636.775	90.69
636.981	81.69
637.187	83.69
637.392	63.69
637.598	69.69
637.804	73.69
638.009	75.69
638.215	84.69
638.421	87.69
638.626	73.69
638.832	73.69
639.037	92.69
639.243	85.69
639.448	73.69
639.654	87.69
639.859	72.69
640.065	76.69
640.27	88.69
640.475	86.69
640.681	88.69
640.886	78.69
641.091	79.69
641.297	89.69
641.502	79.69
641.707	85.69
641.913	92.69
642.118	79.69
642.323	87.69
642.528	83.69
642.733	99.69
642.939	79.69
643.144	90.69
643.349	76.69
643.554	72.69
643.759	89.69
643.964	86.69
644.169	90.69
644.374	78.69
644.579	80.69
644.784	75.69
644.989	85.69
645.194	94.69
645.399	91.69
645.604	89.69
645.809	79.69
646.014	65.69
646.219	69.69
646.423	71.69
646.628	82.69
646.833	85.69
647.038	67.69
647.243	80.69
647.447	82.69
647.652	72.69
647.857	82.69
648.062	90.69
648.266	84.69
648.471	88.69
648.676	85.69
648.88	83.69
649.085	89.69
649.289	84.69
649.494	95.69
649.698	128.69
649.903	90.69
650.107	78.69
650.312	84.69
650.516	90.69
650.721	92.69
650.925	79.69
651.13	60.69
651.334	77.69
651.539	71.69
651.743	78.69
651.947	70.69
652.152	71.69
652.356	59.69
652.56	71.69
652.764	66.69
652.969	91.69
653.173	89.69
653.377	83.69
653.581	78.69
653.785	68.69
653.99	77.69
654.194	77.69
654.398	76.69
654.602	100.69
654.806	89.69
655.01	86.69
655.214	73.69
655.418	85.69
655.622	82.69
655.826	86.69
656.03	79.69
656.234	78.69
656.438	82.69
656.642	84.69
656.846	95.69
657.049	88.69
657.253	98.69
657.457	73.69
657.661	77.69
657.865	67.69
658.068	66.69
658.272	71.69
658.476	74.69
658.68	80.69
658.883	78.69
659.087	74.69
659.291	78.69
659.494	66.69
659.698	76.69
659.901	74.69
660.105	69.69
660.309	88.69
660.512	87.69
660.716	74.69
660.919	75.69
661.123	68.69
661.326	73.69
661.53	84.69
661.733	82.69
661.936	76.69
662.14	82.69
662.343	75.69
662.546	79.69
662.75	69.69
662.953	80.69
663.156	79.69
663.36	74.69
663.563	84.69
663.766	64.69
663.969	77.69
664.173	67.69
664.376	83.69
664.579	89.69
664.782	72.69
664.985	71.69
665.188	72.69
665.391	83.69
665.594	73.69
665.797	76.69
666	58.69
666.203	74.69
666.406	62.69
666.609	82.69
666.812	83.69
667.015	91.69
667.218	75.69
667.421	75.69
667.624	72.69
667.827	82.69
668.03	85.69
668.232	75.69
668.435	83.69
668.638	73.69
668.841	67.69
669.043	92.69
669.246	75.69
669.449	67.69
669.651	69.69
669.854	72.69
670.057	69.69
670.259	80.69
670.462	79.69
670.665	83.69
670.867	81.69
671.07	81.69
671.272	67.69
671.475	66.69
671.677	85.69
671.88	85.69
672.082	71.69
672.284	79.69
672.487	54.69
672.689	68.69
672.892	85.69
