Data from Circ_2022_H10_HRD10591_00090.txt Node
Date: Wed Jan 03 09:53:55 EST 2024
User: Yrep
Spectrometer: HR+D1059
Trigger mode: 1
Integration Time (sec): 1.000000E-1
Scans to average: 1
Electric dark correction enabled: true
Nonlinearity correction enabled: false
Boxcar width: 0
XAxis mode: Wavelengths
Number of Pixels in Spectrum: 2048
>>>>>Begin Spectral Data<<<<<
223.165	-19.56
223.4	-19.56
223.635	-19.56
223.869	-28.56
224.104	-16.56
224.338	-13.56
224.573	-8.56
224.808	-4.56
225.042	-13.56
225.277	-11.56
225.511	6.44
225.746	2.44
225.98	18.44
226.215	15.44
226.449	5.44
226.683	15.44
226.918	24.44
227.152	28.44
227.387	49.44
227.621	47.44
227.856	38.44
228.09	44.44
228.324	55.44
228.559	58.44
228.793	51.44
229.027	82.44
229.262	66.44
229.496	70.44
229.73	106.44
229.964	106.44
230.199	79.44
230.433	80.44
230.667	71.44
230.901	80.44
231.136	68.44
231.37	74.44
231.604	98.44
231.838	73.44
232.072	72.44
232.306	75.44
232.541	89.44
232.775	84.44
233.009	76.44
233.243	74.44
233.477	84.44
233.711	69.44
233.945	74.44
234.179	65.44
234.413	80.44
234.647	74.44
234.881	77.44
235.115	63.44
235.349	86.44
235.583	64.44
235.817	89.44
236.051	68.44
236.285	79.44
236.519	96.44
236.753	79.44
236.987	91.44
237.221	97.44
237.455	85.44
237.689	83.44
237.922	80.44
238.156	82.44
238.39	69.44
238.624	81.44
238.858	78.44
239.091	70.44
239.325	82.44
239.559	86.44
239.793	83.44
240.027	82.44
240.26	70.44
240.494	83.44
240.728	71.44
240.961	65.44
241.195	72.44
241.429	66.44
241.662	87.44
241.896	78.44
242.13	83.44
242.363	75.44
242.597	83.44
242.83	83.44
243.064	87.44
243.298	66.44
243.531	75.44
243.765	76.44
243.998	74.44
244.232	83.44
244.465	89.44
244.699	82.44
244.932	74.44
245.166	67.44
245.399	85.44
245.633	73.44
245.866	65.44
246.099	87.44
246.333	80.44
246.566	92.44
246.8	88.44
247.033	74.44
247.266	80.44
247.5	75.44
247.733	85.44
247.966	89.44
248.2	85.44
248.433	84.44
248.666	78.44
248.899	92.44
249.133	86.44
249.366	105.44
249.599	92.44
249.832	86.44
250.066	74.44
250.299	76.44
250.532	69.44
250.765	89.44
250.998	78.44
251.231	85.44
251.465	70.44
251.698	88.44
251.931	81.44
252.164	80.44
252.397	88.44
252.63	72.44
252.863	84.44
253.096	81.44
253.329	85.44
253.562	74.44
253.795	72.44
254.028	92.44
254.261	88.44
254.494	90.44
254.727	92.44
254.96	87.44
255.193	78.44
255.426	91.44
255.659	84.44
255.892	95.44
256.124	85.44
256.357	75.44
256.59	75.44
256.823	76.44
257.056	90.44
257.289	76.44
257.521	70.44
257.754	89.44
257.987	69.44
258.22	76.44
258.452	78.44
258.685	74.44
258.918	88.44
259.151	70.44
259.383	92.44
259.616	66.44
259.849	69.44
260.081	87.44
260.314	95.44
260.547	89.44
260.779	87.44
261.012	74.44
261.244	88.44
261.477	99.44
261.71	107.44
261.942	150.44
262.175	156.44
262.407	115.44
262.64	85.44
262.872	78.44
263.105	79.44
263.337	75.44
263.57	92.44
263.802	67.44
264.035	79.44
264.267	83.44
264.499	90.44
264.732	83.44
264.964	89.44
265.197	101.44
265.429	89.44
265.661	97.44
265.894	86.44
266.126	82.44
266.358	90.44
266.591	62.44
266.823	79.44
267.055	90.44
267.287	97.44
267.52	88.44
267.752	90.44
267.984	81.44
268.216	82.44
268.448	83.44
268.681	82.44
268.913	78.44
269.145	88.44
269.377	85.44
269.609	84.44
269.841	76.44
270.073	85.44
270.306	76.44
270.538	84.44
270.77	72.44
271.002	71.44
271.234	76.44
271.466	97.44
271.698	73.44
271.93	78.44
272.162	68.44
272.394	79.44
272.626	93.44
272.858	97.44
273.09	91.44
273.322	89.44
273.553	103.44
273.785	92.44
274.017	83.44
274.249	78.44
274.481	85.44
274.713	96.44
274.945	93.44
275.176	96.44
275.408	102.44
275.64	100.44
275.872	95.44
276.104	99.44
276.335	104.44
276.567	130.44
276.799	152.44
277.031	156.44
277.262	128.44
277.494	101.44
277.726	90.44
277.957	88.44
278.189	76.44
278.421	79.44
278.652	95.44
278.884	101.44
279.115	94.44
279.347	76.44
279.579	86.44
279.81	103.44
280.042	112.44
280.273	128.44
280.505	93.44
280.736	105.44
280.968	92.44
281.199	94.44
281.431	92.44
281.662	88.44
281.894	97.44
282.125	111.44
282.356	142.44
282.588	170.44
282.819	127.44
283.051	97.44
283.282	82.44
283.513	88.44
283.745	96.44
283.976	103.44
284.207	82.44
284.439	89.44
284.67	86.44
284.901	87.44
285.132	90.44
285.364	85.44
285.595	94.44
285.826	88.44
286.057	89.44
286.288	92.44
286.52	90.44
286.751	97.44
286.982	90.44
287.213	82.44
287.444	107.44
287.675	97.44
287.906	84.44
288.138	84.44
288.369	107.44
288.6	83.44
288.831	83.44
289.062	95.44
289.293	94.44
289.524	76.44
289.755	85.44
289.986	92.44
290.217	83.44
290.448	91.44
290.679	86.44
290.91	85.44
291.141	76.44
291.371	91.44
291.602	86.44
291.833	75.44
292.064	94.44
292.295	94.44
292.526	96.44
292.757	111.44
292.987	92.44
293.218	84.44
293.449	90.44
293.68	96.44
293.91	88.44
294.141	90.44
294.372	81.44
294.603	91.44
294.833	85.44
295.064	77.44
295.295	91.44
295.525	105.44
295.756	113.44
295.987	147.44
296.217	178.44
296.448	161.44
296.679	86.44
296.909	103.44
297.14	94.44
297.37	91.44
297.601	95.44
297.831	107.44
298.062	103.44
298.292	97.44
298.523	90.44
298.753	90.44
298.984	95.44
299.214	85.44
299.445	100.44
299.675	95.44
299.905	100.44
300.136	95.44
300.366	94.44
300.597	91.44
300.827	105.44
301.057	103.44
301.288	124.44
301.518	106.44
301.748	90.44
301.979	91.44
302.209	94.44
302.439	91.44
302.669	82.44
302.9	84.44
303.13	107.44
303.36	114.44
303.59	112.44
303.82	119.44
304.051	107.44
304.281	91.44
304.511	72.44
304.741	83.44
304.971	86.44
305.201	87.44
305.431	88.44
305.661	101.44
305.891	90.44
306.121	95.44
306.352	111.44
306.582	131.44
306.812	105.44
307.042	111.44
307.272	108.44
307.502	106.44
307.731	112.44
307.961	106.44
308.191	92.44
308.421	102.44
308.651	89.44
308.881	100.44
309.111	97.44
309.341	91.44
309.571	99.44
309.8	94.44
310.03	94.44
310.26	101.44
310.49	106.44
310.72	96.44
310.949	114.44
311.179	122.44
311.409	93.44
311.639	97.44
311.868	98.44
312.098	97.44
312.328	100.44
312.557	112.44
312.787	142.44
313.017	111.44
313.246	113.44
313.476	96.44
313.706	100.44
313.935	108.44
314.165	115.44
314.394	120.44
314.624	115.44
314.853	115.44
315.083	106.44
315.312	98.44
315.542	87.44
315.771	85.44
316.001	96.44
316.23	89.44
316.46	96.44
316.689	98.44
316.919	90.44
317.148	118.44
317.377	103.44
317.607	103.44
317.836	98.44
318.065	82.44
318.295	94.44
318.524	93.44
318.753	100.44
318.983	110.44
319.212	96.44
319.441	115.44
319.67	114.44
319.9	107.44
320.129	87.44
320.358	90.44
320.587	97.44
320.816	110.44
321.046	122.44
321.275	112.44
321.504	112.44
321.733	94.44
321.962	92.44
322.191	120.44
322.42	115.44
322.649	122.44
322.878	137.44
323.108	141.44
323.337	148.44
323.566	164.44
323.795	193.44
324.024	258.44
324.253	584.44
324.482	1251.44
324.71	2617.44
324.939	3434.44
325.168	1270.44
325.397	329.44
325.626	189.44
325.855	165.44
326.084	161.44
326.313	176.44
326.542	189.44
326.77	310.44
326.999	638.44
327.228	1342.44
327.457	2425.44
327.686	1947.44
327.914	558.44
328.143	357.44
328.372	317.44
328.6	219.44
328.829	160.44
329.058	183.44
329.287	190.44
329.515	158.44
329.744	150.44
329.972	203.44
330.201	358.44
330.43	462.44
330.658	295.44
330.887	250.44
331.115	183.44
331.344	119.44
331.572	123.44
331.801	127.44
332.03	117.44
332.258	116.44
332.486	93.44
332.715	102.44
332.943	112.44
333.172	108.44
333.4	113.44
333.629	134.44
333.857	159.44
334.085	209.44
334.314	325.44
334.542	584.44
334.771	572.44
334.999	222.44
335.227	138.44
335.455	103.44
335.684	91.44
335.912	96.44
336.14	97.44
336.369	111.44
336.597	103.44
336.825	103.44
337.053	107.44
337.281	89.44
337.51	84.44
337.738	101.44
337.966	105.44
338.194	118.44
338.422	100.44
338.65	88.44
338.878	84.44
339.106	99.44
339.334	107.44
339.562	93.44
339.79	90.44
340.018	99.44
340.246	114.44
340.474	100.44
340.702	101.44
340.93	97.44
341.158	92.44
341.386	103.44
341.614	83.44
341.842	103.44
342.07	104.44
342.298	91.44
342.526	95.44
342.754	89.44
342.981	87.44
343.209	105.44
343.437	102.44
343.665	91.44
343.893	80.44
344.12	89.44
344.348	93.44
344.576	85.44
344.804	102.44
345.031	112.44
345.259	106.44
345.487	90.44
345.714	101.44
345.942	106.44
346.17	103.44
346.397	103.44
346.625	100.44
346.853	92.44
347.08	96.44
347.308	86.44
347.535	101.44
347.763	123.44
347.99	109.44
348.218	115.44
348.445	129.44
348.673	119.44
348.9	99.44
349.128	89.44
349.355	85.44
349.583	90.44
349.81	78.44
350.037	99.44
350.265	92.44
350.492	103.44
350.72	108.44
350.947	111.44
351.174	130.44
351.402	136.44
351.629	128.44
351.856	96.44
352.083	129.44
352.311	117.44
352.538	131.44
352.765	130.44
352.992	124.44
353.22	131.44
353.447	106.44
353.674	106.44
353.901	106.44
354.128	89.44
354.355	96.44
354.583	104.44
354.81	106.44
355.037	103.44
355.264	101.44
355.491	85.44
355.718	80.44
355.945	85.44
356.172	100.44
356.399	104.44
356.626	83.44
356.853	88.44
357.08	95.44
357.307	106.44
357.534	93.44
357.761	91.44
357.988	97.44
358.215	102.44
358.441	83.44
358.668	102.44
358.895	82.44
359.122	89.44
359.349	76.44
359.576	100.44
359.802	121.44
360.029	141.44
360.256	155.44
360.483	123.44
360.709	103.44
360.936	108.44
361.163	106.44
361.39	107.44
361.616	113.44
361.843	99.44
362.07	108.44
362.296	104.44
362.523	98.44
362.749	99.44
362.976	105.44
363.203	88.44
363.429	87.44
363.656	104.44
363.882	95.44
364.109	92.44
364.335	114.44
364.562	105.44
364.788	97.44
365.015	103.44
365.241	126.44
365.468	139.44
365.694	126.44
365.92	112.44
366.147	86.44
366.373	93.44
366.599	96.44
366.826	83.44
367.052	88.44
367.278	83.44
367.505	100.44
367.731	98.44
367.957	84.44
368.184	92.44
368.41	105.44
368.636	135.44
368.862	136.44
369.089	120.44
369.315	121.44
369.541	105.44
369.767	100.44
369.993	94.44
370.219	90.44
370.445	91.44
370.672	97.44
370.898	91.44
371.124	86.44
371.35	84.44
371.576	88.44
371.802	84.44
372.028	80.44
372.254	80.44
372.48	86.44
372.706	80.44
372.932	102.44
373.158	89.44
373.384	92.44
373.61	101.44
373.835	81.44
374.061	95.44
374.287	98.44
374.513	96.44
374.739	96.44
374.965	84.44
375.191	87.44
375.416	90.44
375.642	75.44
375.868	102.44
376.094	91.44
376.319	89.44
376.545	74.44
376.771	87.44
376.997	90.44
377.222	86.44
377.448	99.44
377.674	101.44
377.899	68.44
378.125	87.44
378.35	85.44
378.576	88.44
378.802	97.44
379.027	88.44
379.253	91.44
379.478	87.44
379.704	95.44
379.929	98.44
380.155	92.44
380.38	101.44
380.606	87.44
380.831	106.44
381.057	98.44
381.282	91.44
381.507	97.44
381.733	93.44
381.958	94.44
382.184	91.44
382.409	83.44
382.634	87.44
382.86	106.44
383.085	102.44
383.31	103.44
383.535	94.44
383.761	88.44
383.986	76.44
384.211	82.44
384.436	99.44
384.662	89.44
384.887	98.44
385.112	84.44
385.337	97.44
385.562	94.44
385.787	101.44
386.013	103.44
386.238	129.44
386.463	117.44
386.688	125.44
386.913	96.44
387.138	102.44
387.363	92.44
387.588	90.44
387.813	76.44
388.038	106.44
388.263	102.44
388.488	96.44
388.713	99.44
388.938	92.44
389.163	100.44
389.387	95.44
389.612	99.44
389.837	91.44
390.062	97.44
390.287	98.44
390.512	79.44
390.736	78.44
390.961	89.44
391.186	91.44
391.411	92.44
391.636	94.44
391.86	92.44
392.085	84.44
392.31	88.44
392.534	88.44
392.759	90.44
392.984	91.44
393.208	90.44
393.433	87.44
393.658	77.44
393.882	73.44
394.107	75.44
394.331	84.44
394.556	89.44
394.78	90.44
395.005	94.44
395.229	89.44
395.454	86.44
395.678	91.44
395.903	89.44
396.127	95.44
396.352	107.44
396.576	82.44
396.801	94.44
397.025	94.44
397.249	102.44
397.474	85.44
397.698	105.44
397.922	79.44
398.147	102.44
398.371	75.44
398.595	89.44
398.82	72.44
399.044	99.44
399.268	93.44
399.492	86.44
399.717	107.44
399.941	87.44
400.165	94.44
400.389	104.44
400.613	86.44
400.837	96.44
401.062	90.44
401.286	84.44
401.51	99.44
401.734	110.44
401.958	128.44
402.182	184.44
402.406	243.44
402.63	168.44
402.854	104.44
403.078	99.44
403.302	94.44
403.526	93.44
403.75	110.44
403.974	93.44
404.198	110.44
404.422	95.44
404.645	84.44
404.869	97.44
405.093	112.44
405.317	135.44
405.541	127.44
405.765	97.44
405.988	160.44
406.212	266.44
406.436	358.44
406.66	235.44
406.883	132.44
407.107	115.44
407.331	105.44
407.555	120.44
407.778	115.44
408.002	95.44
408.226	105.44
408.449	93.44
408.673	73.44
408.896	90.44
409.12	100.44
409.344	94.44
409.567	104.44
409.791	104.44
410.014	91.44
410.238	104.44
410.461	86.44
410.685	82.44
410.908	106.44
411.132	92.44
411.355	116.44
411.578	104.44
411.802	81.44
412.025	92.44
412.249	98.44
412.472	100.44
412.695	129.44
412.919	96.44
413.142	92.44
413.365	104.44
413.589	85.44
413.812	92.44
414.035	106.44
414.258	99.44
414.482	97.44
414.705	79.44
414.928	89.44
415.151	91.44
415.374	77.44
415.597	89.44
415.821	90.44
416.044	85.44
416.267	80.44
416.49	85.44
416.713	93.44
416.936	95.44
417.159	104.44
417.382	98.44
417.605	95.44
417.828	111.44
418.051	112.44
418.274	83.44
418.497	89.44
418.72	81.44
418.943	97.44
419.166	91.44
419.389	84.44
419.611	94.44
419.834	84.44
420.057	95.44
420.28	93.44
420.503	83.44
420.726	93.44
420.948	94.44
421.171	105.44
421.394	106.44
421.617	91.44
421.839	91.44
422.062	87.44
422.285	78.44
422.507	106.44
422.73	110.44
422.953	92.44
423.175	97.44
423.398	95.44
423.621	86.44
423.843	89.44
424.066	87.44
424.288	71.44
424.511	95.44
424.733	114.44
424.956	131.44
425.178	100.44
425.401	123.44
425.623	114.44
425.846	94.44
426.068	108.44
426.291	99.44
426.513	85.44
426.735	91.44
426.958	104.44
427.18	124.44
427.402	196.44
427.625	268.44
427.847	204.44
428.069	162.44
428.292	106.44
428.514	95.44
428.736	90.44
428.958	82.44
429.181	103.44
429.403	86.44
429.625	92.44
429.847	104.44
430.069	108.44
430.292	116.44
430.514	90.44
430.736	82.44
430.958	85.44
431.18	82.44
431.402	87.44
431.624	94.44
431.846	64.44
432.068	92.44
432.29	95.44
432.512	88.44
432.734	87.44
432.956	86.44
433.178	99.44
433.4	107.44
433.622	86.44
433.844	94.44
434.066	107.44
434.287	84.44
434.509	84.44
434.731	82.44
434.953	83.44
435.175	72.44
435.397	81.44
435.618	96.44
435.84	98.44
436.062	140.44
436.284	136.44
436.505	105.44
436.727	103.44
436.949	107.44
437.17	105.44
437.392	92.44
437.614	89.44
437.835	150.44
438.057	166.44
438.278	140.44
438.5	110.44
438.721	150.44
438.943	111.44
439.165	102.44
439.386	96.44
439.608	105.44
439.829	122.44
440.05	141.44
440.272	198.44
440.493	126.44
440.715	93.44
440.936	89.44
441.158	99.44
441.379	70.44
441.6	115.44
441.822	123.44
442.043	130.44
442.264	139.44
442.486	111.44
442.707	111.44
442.928	124.44
443.149	203.44
443.371	172.44
443.592	134.44
443.813	138.44
444.034	130.44
444.255	84.44
444.476	85.44
444.698	80.44
444.919	84.44
445.14	128.44
445.361	147.44
445.582	153.44
445.803	198.44
446.024	215.44
446.245	176.44
446.466	138.44
446.687	103.44
446.908	97.44
447.129	96.44
447.35	99.44
447.571	99.44
447.792	99.44
448.013	107.44
448.234	122.44
448.455	136.44
448.675	142.44
448.896	142.44
449.117	135.44
449.338	114.44
449.559	162.44
449.779	150.44
450	113.44
450.221	111.44
450.442	105.44
450.662	105.44
450.883	127.44
451.104	151.44
451.324	102.44
451.545	97.44
451.766	84.44
451.986	82.44
452.207	73.44
452.428	104.44
452.648	121.44
452.869	136.44
453.089	150.44
453.31	154.44
453.53	101.44
453.751	102.44
453.971	110.44
454.192	142.44
454.412	106.44
454.633	103.44
454.853	88.44
455.073	87.44
455.294	95.44
455.514	116.44
455.734	92.44
455.955	88.44
456.175	79.44
456.395	100.44
456.616	80.44
456.836	87.44
457.056	84.44
457.276	84.44
457.497	99.44
457.717	100.44
457.937	99.44
458.157	99.44
458.377	104.44
458.598	129.44
458.818	231.44
459.038	270.44
459.258	156.44
459.478	99.44
459.698	89.44
459.918	83.44
460.138	84.44
460.358	88.44
460.578	86.44
460.798	91.44
461.018	105.44
461.238	82.44
461.458	79.44
461.678	90.44
461.898	84.44
462.118	89.44
462.338	79.44
462.558	94.44
462.777	91.44
462.997	94.44
463.217	73.44
463.437	100.44
463.657	86.44
463.876	86.44
464.096	99.44
464.316	109.44
464.536	102.44
464.755	116.44
464.975	146.44
465.195	267.44
465.414	276.44
465.634	122.44
465.854	90.44
466.073	76.44
466.293	73.44
466.512	88.44
466.732	93.44
466.951	112.44
467.171	92.44
467.391	100.44
467.61	132.44
467.829	138.44
468.049	209.44
468.268	274.44
468.488	111.44
468.707	105.44
468.927	97.44
469.146	77.44
469.365	103.44
469.585	96.44
469.804	111.44
470.023	103.44
470.243	110.44
470.462	118.44
470.681	133.44
470.901	100.44
471.12	89.44
471.339	88.44
471.558	102.44
471.777	90.44
471.997	147.44
472.216	350.44
472.435	722.44
472.654	219.44
472.873	114.44
473.092	102.44
473.311	96.44
473.53	102.44
473.749	85.44
473.968	115.44
474.187	122.44
474.406	127.44
474.625	93.44
474.844	91.44
475.063	79.44
475.282	84.44
475.501	81.44
475.72	90.44
475.939	91.44
476.158	100.44
476.377	95.44
476.596	95.44
476.814	104.44
477.033	103.44
477.252	92.44
477.471	86.44
477.69	84.44
477.908	91.44
478.127	96.44
478.346	79.44
478.564	93.44
478.783	114.44
479.002	103.44
479.22	103.44
479.439	123.44
479.658	117.44
479.876	103.44
480.095	105.44
480.313	97.44
480.532	119.44
480.751	142.44
480.969	332.44
481.188	1228.44
481.406	807.44
481.624	177.44
481.843	101.44
482.061	96.44
482.28	88.44
482.498	95.44
482.717	75.44
482.935	78.44
483.153	82.44
483.372	90.44
483.59	87.44
483.808	85.44
484.027	98.44
484.245	76.44
484.463	81.44
484.681	92.44
484.9	106.44
485.118	87.44
485.336	83.44
485.554	98.44
485.772	88.44
485.99	97.44
486.209	100.44
486.427	113.44
486.645	112.44
486.863	141.44
487.081	97.44
487.299	91.44
487.517	89.44
487.735	102.44
487.953	90.44
488.171	88.44
488.389	99.44
488.607	112.44
488.825	91.44
489.043	100.44
489.261	95.44
489.479	80.44
489.696	91.44
489.914	82.44
490.132	100.44
490.35	97.44
490.568	87.44
490.786	90.44
491.003	88.44
491.221	87.44
491.439	103.44
491.657	88.44
491.874	87.44
492.092	90.44
492.31	68.44
492.527	79.44
492.745	87.44
492.963	70.44
493.18	79.44
493.398	88.44
493.615	79.44
493.833	79.44
494.05	106.44
494.268	81.44
494.485	78.44
494.703	94.44
494.92	86.44
495.138	102.44
495.355	103.44
495.573	81.44
495.79	84.44
496.008	83.44
496.225	98.44
496.442	88.44
496.66	97.44
496.877	101.44
497.094	83.44
497.312	93.44
497.529	96.44
497.746	95.44
497.963	93.44
498.181	99.44
498.398	110.44
498.615	132.44
498.832	128.44
499.049	106.44
499.267	92.44
499.484	81.44
499.701	92.44
499.918	100.44
500.135	98.44
500.352	89.44
500.569	88.44
500.786	82.44
501.003	93.44
501.22	103.44
501.437	89.44
501.654	111.44
501.871	138.44
502.088	90.44
502.305	86.44
502.522	83.44
502.739	82.44
502.956	79.44
503.172	101.44
503.389	110.44
503.606	144.44
503.823	102.44
504.04	102.44
504.256	94.44
504.473	104.44
504.69	91.44
504.907	82.44
505.123	93.44
505.34	95.44
505.557	83.44
505.773	83.44
505.99	92.44
506.207	93.44
506.423	88.44
506.64	90.44
506.856	92.44
507.073	101.44
507.289	96.44
507.506	115.44
507.722	140.44
507.939	152.44
508.155	116.44
508.372	103.44
508.588	92.44
508.805	94.44
509.021	94.44
509.238	96.44
509.454	113.44
509.67	126.44
509.887	127.44
510.103	149.44
510.319	282.44
510.536	1153.44
510.752	4127.44
510.968	1116.44
511.184	214.44
511.401	133.44
511.617	100.44
511.833	120.44
512.049	105.44
512.265	110.44
512.481	99.44
512.698	90.44
512.914	89.44
513.13	91.44
513.346	103.44
513.562	96.44
513.778	90.44
513.994	102.44
514.21	130.44
514.426	159.44
514.642	207.44
514.858	166.44
515.074	251.44
515.29	868.44
515.506	3154.44
515.721	1153.44
515.937	242.44
516.153	157.44
516.369	122.44
516.585	108.44
516.801	113.44
517.016	104.44
517.232	99.44
517.448	90.44
517.664	102.44
517.879	94.44
518.095	95.44
518.311	107.44
518.527	95.44
518.742	87.44
518.958	86.44
519.173	90.44
519.389	111.44
519.605	91.44
519.82	106.44
520.036	127.44
520.251	156.44
520.467	134.44
520.682	134.44
520.898	136.44
521.113	147.44
521.329	195.44
521.544	343.44
521.76	1102.44
521.975	5205.44
522.19	3227.44
522.406	614.44
522.621	187.44
522.836	124.44
523.052	126.44
523.267	94.44
523.482	91.44
523.698	140.44
523.913	153.44
524.128	133.44
524.343	99.44
524.559	101.44
524.774	86.44
524.989	106.44
525.204	116.44
525.419	116.44
525.634	107.44
525.849	111.44
526.064	86.44
526.28	96.44
526.495	85.44
526.71	90.44
526.925	86.44
527.14	85.44
527.355	84.44
527.57	99.44
527.785	97.44
527.999	69.44
528.214	79.44
528.429	90.44
528.644	124.44
528.859	103.44
529.074	110.44
529.289	148.44
529.503	328.44
529.718	143.44
529.933	94.44
530.148	89.44
530.363	97.44
530.577	89.44
530.792	76.44
531.007	94.44
531.221	91.44
531.436	100.44
531.651	92.44
531.865	99.44
532.08	95.44
532.295	89.44
532.509	90.44
532.724	91.44
532.938	83.44
533.153	98.44
533.367	98.44
533.582	84.44
533.796	94.44
534.011	98.44
534.225	114.44
534.44	93.44
534.654	102.44
534.868	92.44
535.083	92.44
535.297	100.44
535.511	126.44
535.726	128.44
535.94	122.44
536.154	103.44
536.369	102.44
536.583	95.44
536.797	86.44
537.011	96.44
537.225	94.44
537.44	106.44
537.654	99.44
537.868	82.44
538.082	81.44
538.296	99.44
538.51	100.44
538.724	84.44
538.938	89.44
539.153	102.44
539.367	140.44
539.581	106.44
539.795	94.44
540.009	98.44
540.222	91.44
540.436	91.44
540.65	104.44
540.864	100.44
541.078	114.44
541.292	107.44
541.506	91.44
541.72	101.44
541.934	78.44
542.147	98.44
542.361	88.44
542.575	92.44
542.789	91.44
543.002	91.44
543.216	90.44
543.43	91.44
543.644	97.44
543.857	87.44
544.071	105.44
544.285	99.44
544.498	89.44
544.712	82.44
544.925	80.44
545.139	89.44
545.352	88.44
545.566	106.44
545.779	81.44
545.993	81.44
546.206	90.44
546.42	88.44
546.633	103.44
546.847	106.44
547.06	93.44
547.274	85.44
547.487	84.44
547.7	102.44
547.914	88.44
548.127	97.44
548.34	102.44
548.554	80.44
548.767	92.44
548.98	92.44
549.193	88.44
549.407	86.44
549.62	87.44
549.833	83.44
550.046	93.44
550.259	101.44
550.473	91.44
550.686	82.44
550.899	82.44
551.112	94.44
551.325	94.44
551.538	105.44
551.751	83.44
551.964	96.44
552.177	97.44
552.39	78.44
552.603	90.44
552.816	95.44
553.029	102.44
553.242	100.44
553.455	119.44
553.667	120.44
553.88	120.44
554.093	101.44
554.306	98.44
554.519	104.44
554.732	94.44
554.944	87.44
555.157	80.44
555.37	96.44
555.583	83.44
555.795	95.44
556.008	85.44
556.221	96.44
556.433	90.44
556.646	98.44
556.859	84.44
557.071	88.44
557.284	84.44
557.496	95.44
557.709	95.44
557.921	82.44
558.134	88.44
558.346	81.44
558.559	99.44
558.771	91.44
558.984	97.44
559.196	92.44
559.409	87.44
559.621	94.44
559.833	82.44
560.046	97.44
560.258	100.44
560.47	87.44
560.683	98.44
560.895	94.44
561.107	82.44
561.32	86.44
561.532	82.44
561.744	101.44
561.956	106.44
562.168	92.44
562.381	95.44
562.593	85.44
562.805	89.44
563.017	92.44
563.229	104.44
563.441	83.44
563.653	87.44
563.865	86.44
564.077	88.44
564.289	83.44
564.501	83.44
564.713	76.44
564.925	100.44
565.137	121.44
565.349	105.44
565.561	80.44
565.773	91.44
565.985	70.44
566.197	87.44
566.408	87.44
566.62	95.44
566.832	100.44
567.044	109.44
567.255	95.44
567.467	80.44
567.679	91.44
567.891	87.44
568.102	94.44
568.314	92.44
568.526	94.44
568.737	90.44
568.949	82.44
569.161	95.44
569.372	111.44
569.584	77.44
569.795	93.44
570.007	127.44
570.218	374.44
570.43	165.44
570.641	86.44
570.853	96.44
571.064	90.44
571.276	84.44
571.487	107.44
571.698	94.44
571.91	87.44
572.121	85.44
572.333	90.44
572.544	92.44
572.755	78.44
572.966	89.44
573.178	86.44
573.389	91.44
573.6	82.44
573.811	99.44
574.023	100.44
574.234	94.44
574.445	98.44
574.656	75.44
574.867	98.44
575.078	86.44
575.289	92.44
575.501	102.44
575.712	91.44
575.923	66.44
576.134	77.44
576.345	99.44
576.556	96.44
576.767	85.44
576.978	104.44
577.188	105.44
577.399	97.44
577.61	98.44
577.821	103.44
578.032	137.44
578.243	388.44
578.454	1332.44
578.665	326.44
578.875	114.44
579.086	107.44
579.297	97.44
579.508	90.44
579.718	88.44
579.929	94.44
580.14	87.44
580.35	79.44
580.561	91.44
580.772	92.44
580.982	92.44
581.193	95.44
581.403	105.44
581.614	96.44
581.825	88.44
582.035	91.44
582.246	92.44
582.456	97.44
582.667	94.44
582.877	97.44
583.087	92.44
583.298	92.44
583.508	92.44
583.719	85.44
583.929	87.44
584.139	105.44
584.35	101.44
584.56	88.44
584.77	73.44
584.981	82.44
585.191	87.44
585.401	98.44
585.611	93.44
585.821	83.44
586.032	84.44
586.242	92.44
586.452	89.44
586.662	76.44
586.872	81.44
587.082	99.44
587.292	84.44
587.502	85.44
587.713	94.44
587.923	96.44
588.133	97.44
588.343	95.44
588.553	80.44
588.762	82.44
588.972	73.44
589.182	111.44
589.392	94.44
589.602	90.44
589.812	109.44
590.022	91.44
590.232	89.44
590.441	84.44
590.651	83.44
590.861	77.44
591.071	82.44
591.281	88.44
591.49	87.44
591.7	88.44
591.91	90.44
592.119	86.44
592.329	85.44
592.539	102.44
592.748	76.44
592.958	79.44
593.167	87.44
593.377	86.44
593.587	94.44
593.796	101.44
594.006	76.44
594.215	86.44
594.424	88.44
594.634	85.44
594.843	81.44
595.053	87.44
595.262	98.44
595.472	75.44
595.681	91.44
595.89	87.44
596.1	99.44
596.309	96.44
596.518	99.44
596.727	107.44
596.937	94.44
597.146	99.44
597.355	78.44
597.564	76.44
597.774	91.44
597.983	81.44
598.192	87.44
598.401	95.44
598.61	76.44
598.819	94.44
599.028	103.44
599.237	100.44
599.446	83.44
599.655	89.44
599.864	84.44
600.073	94.44
600.282	94.44
600.491	87.44
600.7	89.44
600.909	80.44
601.118	95.44
601.327	89.44
601.536	86.44
601.745	90.44
601.953	93.44
602.162	97.44
602.371	97.44
602.58	82.44
602.789	94.44
602.997	83.44
603.206	85.44
603.415	81.44
603.623	79.44
603.832	95.44
604.041	90.44
604.249	81.44
604.458	87.44
604.666	83.44
604.875	81.44
605.084	103.44
605.292	94.44
605.501	89.44
605.709	92.44
605.918	86.44
606.126	91.44
606.334	82.44
606.543	87.44
606.751	95.44
606.96	80.44
607.168	86.44
607.376	81.44
607.585	90.44
607.793	90.44
608.001	79.44
608.21	87.44
608.418	83.44
608.626	76.44
608.834	96.44
609.043	80.44
609.251	89.44
609.459	101.44
609.667	84.44
609.875	84.44
610.083	85.44
610.291	88.44
610.499	80.44
610.707	81.44
610.916	85.44
611.124	96.44
611.332	99.44
611.54	86.44
611.748	86.44
611.955	72.44
612.163	92.44
612.371	81.44
612.579	90.44
612.787	107.44
612.995	99.44
613.203	97.44
613.411	69.44
613.618	87.44
613.826	74.44
614.034	92.44
614.242	85.44
614.449	78.44
614.657	79.44
614.865	97.44
615.072	95.44
615.28	90.44
615.488	81.44
615.695	98.44
615.903	94.44
616.111	80.44
616.318	104.44
616.526	77.44
616.733	89.44
616.941	83.44
617.148	88.44
617.356	82.44
617.563	83.44
617.771	88.44
617.978	86.44
618.185	82.44
618.393	88.44
618.6	76.44
618.807	92.44
619.015	84.44
619.222	99.44
619.429	75.44
619.637	87.44
619.844	89.44
620.051	87.44
620.258	103.44
620.466	100.44
620.673	86.44
620.88	68.44
621.087	74.44
621.294	76.44
621.501	87.44
621.708	88.44
621.915	101.44
622.122	96.44
622.329	79.44
622.536	93.44
622.743	67.44
622.95	83.44
623.157	80.44
623.364	89.44
623.571	76.44
623.778	97.44
623.985	82.44
624.192	89.44
624.399	88.44
624.606	93.44
624.812	93.44
625.019	91.44
625.226	91.44
625.433	94.44
625.639	97.44
625.846	94.44
626.053	86.44
626.259	86.44
626.466	88.44
626.673	90.44
626.879	83.44
627.086	81.44
627.293	83.44
627.499	87.44
627.706	87.44
627.912	82.44
628.119	95.44
628.325	84.44
628.532	84.44
628.738	79.44
628.945	91.44
629.151	92.44
629.357	102.44
629.564	84.44
629.77	94.44
629.976	92.44
630.183	85.44
630.389	67.44
630.595	82.44
630.802	83.44
631.008	89.44
631.214	78.44
631.42	87.44
631.627	99.44
631.833	79.44
632.039	71.44
632.245	70.44
632.451	77.44
632.657	81.44
632.863	85.44
633.069	99.44
633.275	85.44
633.481	79.44
633.688	62.44
633.893	91.44
634.099	85.44
634.305	75.44
634.511	75.44
634.717	81.44
634.923	75.44
635.129	66.44
635.335	94.44
635.541	100.44
635.747	102.44
635.952	101.44
636.158	87.44
636.364	158.44
636.57	148.44
636.775	108.44
636.981	88.44
637.187	89.44
637.392	80.44
637.598	91.44
637.804	71.44
638.009	77.44
638.215	74.44
638.421	73.44
638.626	87.44
638.832	83.44
639.037	75.44
639.243	84.44
639.448	90.44
639.654	92.44
639.859	84.44
640.065	75.44
640.27	82.44
640.475	91.44
640.681	106.44
640.886	74.44
641.091	83.44
641.297	88.44
641.502	85.44
641.707	94.44
641.913	86.44
642.118	80.44
642.323	76.44
642.528	84.44
642.733	96.44
642.939	87.44
643.144	80.44
643.349	95.44
643.554	93.44
643.759	75.44
643.964	65.44
644.169	85.44
644.374	89.44
644.579	82.44
644.784	88.44
644.989	82.44
645.194	98.44
645.399	91.44
645.604	85.44
645.809	88.44
646.014	99.44
646.219	86.44
646.423	92.44
646.628	72.44
646.833	73.44
647.038	82.44
647.243	85.44
647.447	81.44
647.652	94.44
647.857	75.44
648.062	86.44
648.266	94.44
648.471	93.44
648.676	111.44
648.88	105.44
649.085	90.44
649.289	105.44
649.494	109.44
649.698	148.44
649.903	100.44
650.107	107.44
650.312	75.44
650.516	84.44
650.721	74.44
650.925	99.44
651.13	75.44
651.334	88.44
651.539	79.44
651.743	86.44
651.947	82.44
652.152	80.44
652.356	86.44
652.56	90.44
652.764	62.44
652.969	81.44
653.173	83.44
653.377	75.44
653.581	87.44
653.785	86.44
653.99	79.44
654.194	74.44
654.398	89.44
654.602	73.44
654.806	81.44
655.01	103.44
655.214	88.44
655.418	79.44
655.622	85.44
655.826	85.44
656.03	73.44
656.234	89.44
656.438	91.44
656.642	94.44
656.846	88.44
657.049	88.44
657.253	81.44
657.457	69.44
657.661	87.44
657.865	85.44
658.068	77.44
658.272	73.44
658.476	91.44
658.68	75.44
658.883	87.44
659.087	86.44
659.291	93.44
659.494	75.44
659.698	87.44
659.901	94.44
660.105	75.44
660.309	82.44
660.512	81.44
660.716	85.44
660.919	87.44
661.123	95.44
661.326	92.44
661.53	87.44
661.733	78.44
661.936	88.44
662.14	91.44
662.343	73.44
662.546	85.44
662.75	87.44
662.953	91.44
663.156	94.44
663.36	86.44
663.563	83.44
663.766	80.44
663.969	78.44
664.173	78.44
664.376	68.44
664.579	77.44
664.782	67.44
664.985	76.44
665.188	86.44
665.391	84.44
665.594	92.44
665.797	87.44
666	99.44
666.203	77.44
666.406	82.44
666.609	68.44
666.812	82.44
667.015	78.44
667.218	71.44
667.421	90.44
667.624	85.44
667.827	84.44
668.03	75.44
668.232	85.44
668.435	82.44
668.638	62.44
668.841	78.44
669.043	74.44
669.246	73.44
669.449	99.44
669.651	89.44
669.854	79.44
670.057	80.44
670.259	79.44
670.462	76.44
670.665	81.44
670.867	90.44
671.07	81.44
671.272	87.44
671.475	76.44
671.677	82.44
671.88	85.44
672.082	66.44
672.284	83.44
672.487	84.44
672.689	87.44
672.892	75.44
