Data from Circ_2022_H10_HRD10591_00006.txt Node
Date: Wed Jan 03 09:53:38 EST 2024
User: Yrep
Spectrometer: HR+D1059
Trigger mode: 1
Integration Time (sec): 1.000000E-1
Scans to average: 1
Electric dark correction enabled: true
Nonlinearity correction enabled: false
Boxcar width: 0
XAxis mode: Wavelengths
Number of Pixels in Spectrum: 2048
>>>>>Begin Spectral Data<<<<<
223.165	-11.44
223.4	-11.44
223.635	-11.44
223.869	-20.44
224.104	-21.44
224.338	-18.44
224.573	-17.44
224.808	-19.44
225.042	-9.44
225.277	1.56
225.511	-4.44
225.746	5.56
225.98	16.56
226.215	12.56
226.449	11.56
226.683	21.56
226.918	14.56
227.152	38.56
227.387	47.56
227.621	39.56
227.856	42.56
228.09	46.56
228.324	53.56
228.559	54.56
228.793	61.56
229.027	63.56
229.262	71.56
229.496	70.56
229.73	87.56
229.964	77.56
230.199	82.56
230.433	83.56
230.667	78.56
230.901	65.56
231.136	76.56
231.37	77.56
231.604	77.56
231.838	74.56
232.072	82.56
232.306	72.56
232.541	76.56
232.775	86.56
233.009	90.56
233.243	75.56
233.477	83.56
233.711	77.56
233.945	84.56
234.179	77.56
234.413	87.56
234.647	77.56
234.881	91.56
235.115	82.56
235.349	74.56
235.583	72.56
235.817	78.56
236.051	83.56
236.285	77.56
236.519	76.56
236.753	71.56
236.987	85.56
237.221	100.56
237.455	102.56
237.689	76.56
237.922	86.56
238.156	86.56
238.39	83.56
238.624	68.56
238.858	94.56
239.091	69.56
239.325	78.56
239.559	79.56
239.793	73.56
240.027	82.56
240.26	83.56
240.494	82.56
240.728	73.56
240.961	78.56
241.195	78.56
241.429	75.56
241.662	84.56
241.896	78.56
242.13	86.56
242.363	70.56
242.597	86.56
242.83	90.56
243.064	71.56
243.298	77.56
243.531	74.56
243.765	73.56
243.998	94.56
244.232	93.56
244.465	104.56
244.699	83.56
244.932	78.56
245.166	82.56
245.399	73.56
245.633	95.56
245.866	66.56
246.099	75.56
246.333	85.56
246.566	91.56
246.8	80.56
247.033	80.56
247.266	85.56
247.5	90.56
247.733	68.56
247.966	80.56
248.2	75.56
248.433	85.56
248.666	92.56
248.899	85.56
249.133	90.56
249.366	107.56
249.599	101.56
249.832	85.56
250.066	80.56
250.299	77.56
250.532	81.56
250.765	78.56
250.998	71.56
251.231	85.56
251.465	87.56
251.698	79.56
251.931	86.56
252.164	83.56
252.397	69.56
252.63	89.56
252.863	82.56
253.096	81.56
253.329	70.56
253.562	82.56
253.795	76.56
254.028	89.56
254.261	77.56
254.494	93.56
254.727	100.56
254.96	81.56
255.193	75.56
255.426	86.56
255.659	85.56
255.892	92.56
256.124	86.56
256.357	87.56
256.59	84.56
256.823	93.56
257.056	62.56
257.289	77.56
257.521	77.56
257.754	94.56
257.987	70.56
258.22	88.56
258.452	91.56
258.685	79.56
258.918	80.56
259.151	81.56
259.383	84.56
259.616	85.56
259.849	94.56
260.081	73.56
260.314	78.56
260.547	88.56
260.779	94.56
261.012	85.56
261.244	88.56
261.477	92.56
261.71	101.56
261.942	118.56
262.175	110.56
262.407	86.56
262.64	72.56
262.872	93.56
263.105	88.56
263.337	96.56
263.57	77.56
263.802	85.56
264.035	92.56
264.267	94.56
264.499	88.56
264.732	75.56
264.964	107.56
265.197	83.56
265.429	85.56
265.661	88.56
265.894	96.56
266.126	98.56
266.358	89.56
266.591	94.56
266.823	86.56
267.055	94.56
267.287	102.56
267.52	97.56
267.752	81.56
267.984	95.56
268.216	89.56
268.448	88.56
268.681	77.56
268.913	84.56
269.145	82.56
269.377	79.56
269.609	88.56
269.841	91.56
270.073	78.56
270.306	86.56
270.538	94.56
270.77	100.56
271.002	101.56
271.234	89.56
271.466	81.56
271.698	88.56
271.93	91.56
272.162	87.56
272.394	96.56
272.626	84.56
272.858	91.56
273.09	95.56
273.322	99.56
273.553	93.56
273.785	98.56
274.017	89.56
274.249	99.56
274.481	90.56
274.713	75.56
274.945	114.56
275.176	95.56
275.408	86.56
275.64	92.56
275.872	86.56
276.104	91.56
276.335	99.56
276.567	113.56
276.799	103.56
277.031	109.56
277.262	115.56
277.494	84.56
277.726	81.56
277.957	86.56
278.189	80.56
278.421	100.56
278.652	80.56
278.884	87.56
279.115	97.56
279.347	89.56
279.579	84.56
279.81	90.56
280.042	89.56
280.273	94.56
280.505	104.56
280.736	100.56
280.968	70.56
281.199	80.56
281.431	88.56
281.662	91.56
281.894	102.56
282.125	103.56
282.356	125.56
282.588	159.56
282.819	138.56
283.051	105.56
283.282	88.56
283.513	88.56
283.745	76.56
283.976	70.56
284.207	88.56
284.439	96.56
284.67	96.56
284.901	77.56
285.132	82.56
285.364	94.56
285.595	103.56
285.826	87.56
286.057	87.56
286.288	89.56
286.52	88.56
286.751	90.56
286.982	85.56
287.213	87.56
287.444	78.56
287.675	90.56
287.906	101.56
288.138	95.56
288.369	109.56
288.6	95.56
288.831	108.56
289.062	86.56
289.293	98.56
289.524	80.56
289.755	90.56
289.986	105.56
290.217	95.56
290.448	85.56
290.679	100.56
290.91	101.56
291.141	98.56
291.371	89.56
291.602	95.56
291.833	108.56
292.064	110.56
292.295	86.56
292.526	87.56
292.757	92.56
292.987	97.56
293.218	90.56
293.449	91.56
293.68	107.56
293.91	91.56
294.141	98.56
294.372	90.56
294.603	87.56
294.833	75.56
295.064	95.56
295.295	73.56
295.525	97.56
295.756	92.56
295.987	132.56
296.217	152.56
296.448	127.56
296.679	98.56
296.909	105.56
297.14	90.56
297.37	90.56
297.601	90.56
297.831	98.56
298.062	94.56
298.292	89.56
298.523	99.56
298.753	96.56
298.984	95.56
299.214	79.56
299.445	95.56
299.675	94.56
299.905	96.56
300.136	97.56
300.366	98.56
300.597	99.56
300.827	85.56
301.057	96.56
301.288	94.56
301.518	97.56
301.748	87.56
301.979	100.56
302.209	85.56
302.439	80.56
302.669	94.56
302.9	96.56
303.13	81.56
303.36	103.56
303.59	98.56
303.82	107.56
304.051	113.56
304.281	102.56
304.511	102.56
304.741	93.56
304.971	91.56
305.201	84.56
305.431	88.56
305.661	93.56
305.891	85.56
306.121	105.56
306.352	90.56
306.582	109.56
306.812	83.56
307.042	89.56
307.272	93.56
307.502	92.56
307.731	111.56
307.961	93.56
308.191	90.56
308.421	89.56
308.651	85.56
308.881	79.56
309.111	102.56
309.341	103.56
309.571	90.56
309.8	101.56
310.03	108.56
310.26	122.56
310.49	109.56
310.72	105.56
310.949	105.56
311.179	102.56
311.409	113.56
311.639	98.56
311.868	103.56
312.098	98.56
312.328	91.56
312.557	125.56
312.787	123.56
313.017	105.56
313.246	100.56
313.476	92.56
313.706	100.56
313.935	98.56
314.165	107.56
314.394	96.56
314.624	106.56
314.853	108.56
315.083	84.56
315.312	99.56
315.542	86.56
315.771	87.56
316.001	70.56
316.23	87.56
316.46	105.56
316.689	89.56
316.919	97.56
317.148	98.56
317.377	108.56
317.607	87.56
317.836	96.56
318.065	109.56
318.295	100.56
318.524	102.56
318.753	89.56
318.983	100.56
319.212	106.56
319.441	113.56
319.67	118.56
319.9	103.56
320.129	89.56
320.358	85.56
320.587	106.56
320.816	94.56
321.046	99.56
321.275	107.56
321.504	101.56
321.733	91.56
321.962	115.56
322.191	111.56
322.42	114.56
322.649	101.56
322.878	124.56
323.108	133.56
323.337	138.56
323.566	127.56
323.795	153.56
324.024	202.56
324.253	423.56
324.482	929.56
324.71	1872.56
324.939	2457.56
325.168	918.56
325.397	267.56
325.626	168.56
325.855	143.56
326.084	147.56
326.313	134.56
326.542	164.56
326.77	234.56
326.999	489.56
327.228	988.56
327.457	1863.56
327.686	1494.56
327.914	407.56
328.143	208.56
328.372	163.56
328.6	113.56
328.829	115.56
329.058	129.56
329.287	143.56
329.515	125.56
329.744	119.56
329.972	106.56
330.201	99.56
330.43	103.56
330.658	125.56
330.887	156.56
331.115	127.56
331.344	100.56
331.572	119.56
331.801	103.56
332.03	100.56
332.258	92.56
332.486	97.56
332.715	98.56
332.943	99.56
333.172	81.56
333.4	88.56
333.629	109.56
333.857	107.56
334.085	107.56
334.314	105.56
334.542	102.56
334.771	103.56
334.999	85.56
335.227	94.56
335.455	103.56
335.684	113.56
335.912	97.56
336.14	100.56
336.369	107.56
336.597	117.56
336.825	101.56
337.053	104.56
337.281	91.56
337.51	98.56
337.738	105.56
337.966	100.56
338.194	101.56
338.422	103.56
338.65	103.56
338.878	95.56
339.106	88.56
339.334	101.56
339.562	97.56
339.79	98.56
340.018	96.56
340.246	114.56
340.474	113.56
340.702	94.56
340.93	90.56
341.158	98.56
341.386	113.56
341.614	101.56
341.842	98.56
342.07	106.56
342.298	95.56
342.526	76.56
342.754	93.56
342.981	97.56
343.209	94.56
343.437	99.56
343.665	100.56
343.893	91.56
344.12	82.56
344.348	104.56
344.576	90.56
344.804	83.56
345.031	112.56
345.259	98.56
345.487	104.56
345.714	98.56
345.942	87.56
346.17	79.56
346.397	97.56
346.625	103.56
346.853	94.56
347.08	104.56
347.308	115.56
347.535	97.56
347.763	99.56
347.99	85.56
348.218	101.56
348.445	96.56
348.673	113.56
348.9	101.56
349.128	105.56
349.355	102.56
349.583	108.56
349.81	102.56
350.037	97.56
350.265	91.56
350.492	101.56
350.72	104.56
350.947	113.56
351.174	116.56
351.402	118.56
351.629	108.56
351.856	117.56
352.083	100.56
352.311	101.56
352.538	101.56
352.765	117.56
352.992	105.56
353.22	111.56
353.447	98.56
353.674	115.56
353.901	100.56
354.128	98.56
354.355	94.56
354.583	100.56
354.81	102.56
355.037	90.56
355.264	101.56
355.491	106.56
355.718	107.56
355.945	89.56
356.172	104.56
356.399	89.56
356.626	89.56
356.853	92.56
357.08	95.56
357.307	94.56
357.534	102.56
357.761	104.56
357.988	101.56
358.215	98.56
358.441	116.56
358.668	102.56
358.895	116.56
359.122	97.56
359.349	98.56
359.576	87.56
359.802	109.56
360.029	130.56
360.256	123.56
360.483	125.56
360.709	105.56
360.936	103.56
361.163	116.56
361.39	107.56
361.616	101.56
361.843	100.56
362.07	94.56
362.296	106.56
362.523	100.56
362.749	104.56
362.976	110.56
363.203	89.56
363.429	97.56
363.656	93.56
363.882	93.56
364.109	107.56
364.335	85.56
364.562	91.56
364.788	113.56
365.015	96.56
365.241	111.56
365.468	110.56
365.694	89.56
365.92	115.56
366.147	94.56
366.373	85.56
366.599	97.56
366.826	98.56
367.052	100.56
367.278	96.56
367.505	84.56
367.731	102.56
367.957	102.56
368.184	105.56
368.41	95.56
368.636	117.56
368.862	132.56
369.089	126.56
369.315	108.56
369.541	98.56
369.767	97.56
369.993	80.56
370.219	105.56
370.445	93.56
370.672	103.56
370.898	91.56
371.124	101.56
371.35	98.56
371.576	89.56
371.802	85.56
372.028	89.56
372.254	95.56
372.48	93.56
372.706	81.56
372.932	88.56
373.158	90.56
373.384	96.56
373.61	87.56
373.835	79.56
374.061	87.56
374.287	91.56
374.513	107.56
374.739	88.56
374.965	95.56
375.191	105.56
375.416	106.56
375.642	101.56
375.868	84.56
376.094	101.56
376.319	100.56
376.545	105.56
376.771	93.56
376.997	110.56
377.222	100.56
377.448	95.56
377.674	94.56
377.899	100.56
378.125	99.56
378.35	113.56
378.576	89.56
378.802	98.56
379.027	103.56
379.253	94.56
379.478	93.56
379.704	100.56
379.929	98.56
380.155	112.56
380.38	113.56
380.606	101.56
380.831	101.56
381.057	96.56
381.282	96.56
381.507	106.56
381.733	93.56
381.958	114.56
382.184	106.56
382.409	103.56
382.634	114.56
382.86	107.56
383.085	109.56
383.31	114.56
383.535	118.56
383.761	109.56
383.986	102.56
384.211	123.56
384.436	112.56
384.662	104.56
384.887	134.56
385.112	117.56
385.337	124.56
385.562	106.56
385.787	115.56
386.013	133.56
386.238	130.56
386.463	110.56
386.688	113.56
386.913	121.56
387.138	140.56
387.363	121.56
387.588	94.56
387.813	110.56
388.038	116.56
388.263	126.56
388.488	120.56
388.713	93.56
388.938	91.56
389.163	94.56
389.387	92.56
389.612	92.56
389.837	98.56
390.062	103.56
390.287	99.56
390.512	85.56
390.736	84.56
390.961	101.56
391.186	99.56
391.411	103.56
391.636	98.56
391.86	92.56
392.085	80.56
392.31	82.56
392.534	89.56
392.759	89.56
392.984	77.56
393.208	100.56
393.433	106.56
393.658	114.56
393.882	94.56
394.107	97.56
394.331	93.56
394.556	80.56
394.78	83.56
395.005	96.56
395.229	86.56
395.454	86.56
395.678	98.56
395.903	105.56
396.127	102.56
396.352	65.56
396.576	83.56
396.801	108.56
397.025	89.56
397.249	78.56
397.474	108.56
397.698	89.56
397.922	94.56
398.147	91.56
398.371	89.56
398.595	98.56
398.82	90.56
399.044	89.56
399.268	85.56
399.492	95.56
399.717	109.56
399.941	86.56
400.165	100.56
400.389	95.56
400.613	91.56
400.837	90.56
401.062	87.56
401.286	90.56
401.51	93.56
401.734	81.56
401.958	110.56
402.182	147.56
402.406	172.56
402.63	128.56
402.854	110.56
403.078	94.56
403.302	94.56
403.526	118.56
403.75	94.56
403.974	91.56
404.198	97.56
404.422	92.56
404.645	90.56
404.869	89.56
405.093	92.56
405.317	96.56
405.541	95.56
405.765	113.56
405.988	101.56
406.212	185.56
406.436	251.56
406.66	149.56
406.883	110.56
407.107	98.56
407.331	89.56
407.555	114.56
407.778	98.56
408.002	75.56
408.226	90.56
408.449	94.56
408.673	96.56
408.896	92.56
409.12	93.56
409.344	90.56
409.567	92.56
409.791	89.56
410.014	108.56
410.238	107.56
410.461	97.56
410.685	106.56
410.908	107.56
411.132	117.56
411.355	98.56
411.578	93.56
411.802	99.56
412.025	93.56
412.249	93.56
412.472	107.56
412.695	92.56
412.919	89.56
413.142	91.56
413.365	90.56
413.589	77.56
413.812	94.56
414.035	94.56
414.258	91.56
414.482	86.56
414.705	94.56
414.928	89.56
415.151	103.56
415.374	98.56
415.597	97.56
415.821	75.56
416.044	85.56
416.267	87.56
416.49	90.56
416.713	83.56
416.936	86.56
417.159	91.56
417.382	94.56
417.605	93.56
417.828	101.56
418.051	94.56
418.274	83.56
418.497	105.56
418.72	91.56
418.943	91.56
419.166	94.56
419.389	91.56
419.611	89.56
419.834	97.56
420.057	97.56
420.28	93.56
420.503	96.56
420.726	117.56
420.948	90.56
421.171	85.56
421.394	83.56
421.617	92.56
421.839	89.56
422.062	90.56
422.285	98.56
422.507	109.56
422.73	117.56
422.953	102.56
423.175	78.56
423.398	89.56
423.621	96.56
423.843	89.56
424.066	83.56
424.288	102.56
424.511	81.56
424.733	80.56
424.956	99.56
425.178	105.56
425.401	115.56
425.623	97.56
425.846	90.56
426.068	82.56
426.291	101.56
426.513	87.56
426.735	80.56
426.958	98.56
427.18	103.56
427.402	129.56
427.625	173.56
427.847	115.56
428.069	115.56
428.292	88.56
428.514	92.56
428.736	90.56
428.958	86.56
429.181	78.56
429.403	86.56
429.625	105.56
429.847	93.56
430.069	110.56
430.292	86.56
430.514	91.56
430.736	84.56
430.958	96.56
431.18	92.56
431.402	77.56
431.624	84.56
431.846	96.56
432.068	92.56
432.29	91.56
432.512	79.56
432.734	93.56
432.956	100.56
433.178	87.56
433.4	108.56
433.622	103.56
433.844	101.56
434.066	79.56
434.287	100.56
434.509	85.56
434.731	88.56
434.953	84.56
435.175	82.56
435.397	95.56
435.618	114.56
435.84	113.56
436.062	127.56
436.284	116.56
436.505	114.56
436.727	109.56
436.949	84.56
437.17	91.56
437.392	92.56
437.614	91.56
437.835	115.56
438.057	116.56
438.278	122.56
438.5	100.56
438.721	130.56
438.943	109.56
439.165	90.56
439.386	87.56
439.608	91.56
439.829	98.56
440.05	108.56
440.272	167.56
440.493	106.56
440.715	91.56
440.936	77.56
441.158	87.56
441.379	102.56
441.6	99.56
441.822	105.56
442.043	92.56
442.264	110.56
442.486	95.56
442.707	98.56
442.928	129.56
443.149	142.56
443.371	147.56
443.592	106.56
443.813	122.56
444.034	105.56
444.255	86.56
444.476	88.56
444.698	87.56
444.919	92.56
445.14	135.56
445.361	121.56
445.582	124.56
445.803	139.56
446.024	144.56
446.245	149.56
446.466	126.56
446.687	85.56
446.908	68.56
447.129	77.56
447.35	91.56
447.571	93.56
447.792	95.56
448.013	106.56
448.234	116.56
448.455	111.56
448.675	120.56
448.896	121.56
449.117	99.56
449.338	118.56
449.559	127.56
449.779	134.56
450	94.56
450.221	97.56
450.442	104.56
450.662	101.56
450.883	122.56
451.104	115.56
451.324	107.56
451.545	97.56
451.766	88.56
451.986	89.56
452.207	71.56
452.428	87.56
452.648	103.56
452.869	111.56
453.089	118.56
453.31	121.56
453.53	88.56
453.751	99.56
453.971	105.56
454.192	106.56
454.412	93.56
454.633	108.56
454.853	93.56
455.073	78.56
455.294	61.56
455.514	112.56
455.734	98.56
455.955	84.56
456.175	84.56
456.395	70.56
456.616	76.56
456.836	94.56
457.056	91.56
457.276	87.56
457.497	91.56
457.717	90.56
457.937	84.56
458.157	81.56
458.377	93.56
458.598	127.56
458.818	165.56
459.038	171.56
459.258	108.56
459.478	96.56
459.698	92.56
459.918	94.56
460.138	81.56
460.358	89.56
460.578	76.56
460.798	86.56
461.018	84.56
461.238	79.56
461.458	90.56
461.678	97.56
461.898	86.56
462.118	90.56
462.338	95.56
462.558	89.56
462.777	66.56
462.997	83.56
463.217	73.56
463.437	79.56
463.657	93.56
463.876	89.56
464.096	102.56
464.316	92.56
464.536	87.56
464.755	104.56
464.975	113.56
465.195	177.56
465.414	185.56
465.634	96.56
465.854	106.56
466.073	82.56
466.293	79.56
466.512	94.56
466.732	113.56
466.951	82.56
467.171	101.56
467.391	101.56
467.61	103.56
467.829	97.56
468.049	80.56
468.268	86.56
468.488	86.56
468.707	98.56
468.927	89.56
469.146	85.56
469.365	96.56
469.585	93.56
469.804	121.56
470.023	99.56
470.243	87.56
470.462	106.56
470.681	115.56
470.901	87.56
471.12	85.56
471.339	86.56
471.558	95.56
471.777	91.56
471.997	88.56
472.216	98.56
472.435	102.56
472.654	85.56
472.873	84.56
473.092	76.56
473.311	81.56
473.53	83.56
473.749	90.56
473.968	98.56
474.187	102.56
474.406	87.56
474.625	85.56
474.844	78.56
475.063	89.56
475.282	83.56
475.501	88.56
475.72	90.56
475.939	85.56
476.158	100.56
476.377	99.56
476.596	85.56
476.814	101.56
477.033	88.56
477.252	86.56
477.471	100.56
477.69	90.56
477.908	87.56
478.127	99.56
478.346	92.56
478.564	104.56
478.783	99.56
479.002	99.56
479.22	77.56
479.439	90.56
479.658	91.56
479.876	102.56
480.095	92.56
480.313	93.56
480.532	82.56
480.751	91.56
480.969	95.56
481.188	96.56
481.406	103.56
481.624	93.56
481.843	92.56
482.061	102.56
482.28	92.56
482.498	99.56
482.717	95.56
482.935	107.56
483.153	88.56
483.372	99.56
483.59	89.56
483.808	90.56
484.027	98.56
484.245	90.56
484.463	99.56
484.681	104.56
484.9	98.56
485.118	90.56
485.336	90.56
485.554	99.56
485.772	109.56
485.99	100.56
486.209	107.56
486.427	101.56
486.645	124.56
486.863	106.56
487.081	100.56
487.299	98.56
487.517	101.56
487.735	90.56
487.953	88.56
488.171	120.56
488.389	95.56
488.607	115.56
488.825	100.56
489.043	71.56
489.261	90.56
489.479	91.56
489.696	98.56
489.914	87.56
490.132	92.56
490.35	76.56
490.568	93.56
490.786	94.56
491.003	78.56
491.221	94.56
491.439	92.56
491.657	98.56
491.874	85.56
492.092	106.56
492.31	104.56
492.527	84.56
492.745	87.56
492.963	93.56
493.18	111.56
493.398	92.56
493.615	98.56
493.833	94.56
494.05	93.56
494.268	91.56
494.485	97.56
494.703	94.56
494.92	107.56
495.138	83.56
495.355	91.56
495.573	94.56
495.79	86.56
496.008	97.56
496.225	81.56
496.442	105.56
496.66	89.56
496.877	103.56
497.094	92.56
497.312	102.56
497.529	107.56
497.746	101.56
497.963	94.56
498.181	96.56
498.398	83.56
498.615	113.56
498.832	110.56
499.049	91.56
499.267	103.56
499.484	92.56
499.701	89.56
499.918	94.56
500.135	95.56
500.352	96.56
500.569	88.56
500.786	100.56
501.003	101.56
501.22	103.56
501.437	94.56
501.654	97.56
501.871	108.56
502.088	96.56
502.305	85.56
502.522	101.56
502.739	87.56
502.956	103.56
503.172	101.56
503.389	104.56
503.606	116.56
503.823	117.56
504.04	82.56
504.256	88.56
504.473	95.56
504.69	99.56
504.907	89.56
505.123	85.56
505.34	95.56
505.557	80.56
505.773	86.56
505.99	97.56
506.207	79.56
506.423	94.56
506.64	90.56
506.856	93.56
507.073	94.56
507.289	84.56
507.506	93.56
507.722	129.56
507.939	108.56
508.155	97.56
508.372	111.56
508.588	87.56
508.805	103.56
509.021	95.56
509.238	110.56
509.454	103.56
509.67	95.56
509.887	110.56
510.103	137.56
510.319	228.56
510.536	802.56
510.752	2787.56
510.968	785.56
511.184	173.56
511.401	115.56
511.617	114.56
511.833	102.56
512.049	100.56
512.265	117.56
512.481	84.56
512.698	99.56
512.914	98.56
513.13	92.56
513.346	100.56
513.562	110.56
513.778	88.56
513.994	97.56
514.21	106.56
514.426	100.56
514.642	158.56
514.858	133.56
515.074	199.56
515.29	514.56
515.506	1822.56
515.721	682.56
515.937	176.56
516.153	113.56
516.369	96.56
516.585	105.56
516.801	103.56
517.016	91.56
517.232	103.56
517.448	107.56
517.664	92.56
517.879	95.56
518.095	100.56
518.311	94.56
518.527	89.56
518.742	93.56
518.958	87.56
519.173	89.56
519.389	106.56
519.605	92.56
519.82	107.56
520.036	100.56
520.251	131.56
520.467	123.56
520.682	108.56
520.898	115.56
521.113	124.56
521.329	149.56
521.544	224.56
521.76	665.56
521.975	2990.56
522.19	1898.56
522.406	389.56
522.621	140.56
522.836	111.56
523.052	110.56
523.267	102.56
523.482	114.56
523.698	110.56
523.913	129.56
524.128	99.56
524.343	106.56
524.559	92.56
524.774	93.56
524.989	98.56
525.204	109.56
525.419	124.56
525.634	100.56
525.849	97.56
526.064	99.56
526.28	85.56
526.495	103.56
526.71	84.56
526.925	97.56
527.14	100.56
527.355	96.56
527.57	87.56
527.785	75.56
527.999	94.56
528.214	102.56
528.429	98.56
528.644	107.56
528.859	104.56
529.074	90.56
529.289	137.56
529.503	219.56
529.718	102.56
529.933	92.56
530.148	90.56
530.363	88.56
530.577	93.56
530.792	103.56
531.007	100.56
531.221	91.56
531.436	89.56
531.651	92.56
531.865	97.56
532.08	92.56
532.295	100.56
532.509	87.56
532.724	106.56
532.938	91.56
533.153	102.56
533.367	93.56
533.582	92.56
533.796	103.56
534.011	101.56
534.225	104.56
534.44	100.56
534.654	99.56
534.868	90.56
535.083	90.56
535.297	105.56
535.511	126.56
535.726	109.56
535.94	98.56
536.154	107.56
536.369	91.56
536.583	78.56
536.797	95.56
537.011	91.56
537.225	89.56
537.44	94.56
537.654	82.56
537.868	88.56
538.082	102.56
538.296	72.56
538.51	96.56
538.724	71.56
538.938	97.56
539.153	100.56
539.367	112.56
539.581	108.56
539.795	94.56
540.009	89.56
540.222	96.56
540.436	113.56
540.65	101.56
540.864	99.56
541.078	104.56
541.292	98.56
541.506	93.56
541.72	94.56
541.934	91.56
542.147	92.56
542.361	93.56
542.575	87.56
542.789	86.56
543.002	96.56
543.216	98.56
543.43	113.56
543.644	92.56
543.857	97.56
544.071	89.56
544.285	98.56
544.498	102.56
544.712	87.56
544.925	86.56
545.139	93.56
545.352	97.56
545.566	98.56
545.779	92.56
545.993	91.56
546.206	86.56
546.42	101.56
546.633	109.56
546.847	97.56
547.06	95.56
547.274	102.56
547.487	95.56
547.7	100.56
547.914	108.56
548.127	85.56
548.34	78.56
548.554	88.56
548.767	99.56
548.98	89.56
549.193	89.56
549.407	82.56
549.62	104.56
549.833	101.56
550.046	98.56
550.259	91.56
550.473	100.56
550.686	90.56
550.899	98.56
551.112	100.56
551.325	83.56
551.538	83.56
551.751	85.56
551.964	90.56
552.177	94.56
552.39	98.56
552.603	102.56
552.816	84.56
553.029	78.56
553.242	82.56
553.455	95.56
553.667	114.56
553.88	127.56
554.093	85.56
554.306	103.56
554.519	104.56
554.732	91.56
554.944	103.56
555.157	101.56
555.37	92.56
555.583	102.56
555.795	117.56
556.008	95.56
556.221	99.56
556.433	100.56
556.646	109.56
556.859	99.56
557.071	95.56
557.284	87.56
557.496	93.56
557.709	100.56
557.921	81.56
558.134	98.56
558.346	88.56
558.559	83.56
558.771	84.56
558.984	90.56
559.196	101.56
559.409	87.56
559.621	82.56
559.833	86.56
560.046	97.56
560.258	98.56
560.47	87.56
560.683	79.56
560.895	89.56
561.107	85.56
561.32	95.56
561.532	102.56
561.744	106.56
561.956	105.56
562.168	93.56
562.381	98.56
562.593	99.56
562.805	93.56
563.017	83.56
563.229	102.56
563.441	90.56
563.653	96.56
563.865	87.56
564.077	109.56
564.289	80.56
564.501	90.56
564.713	94.56
564.925	100.56
565.137	113.56
565.349	102.56
565.561	99.56
565.773	99.56
565.985	66.56
566.197	95.56
566.408	94.56
566.62	93.56
566.832	85.56
567.044	90.56
567.255	101.56
567.467	91.56
567.679	98.56
567.891	78.56
568.102	79.56
568.314	82.56
568.526	90.56
568.737	84.56
568.949	88.56
569.161	93.56
569.372	77.56
569.584	97.56
569.795	102.56
570.007	132.56
570.218	273.56
570.43	158.56
570.641	92.56
570.853	95.56
571.064	105.56
571.276	86.56
571.487	85.56
571.698	77.56
571.91	87.56
572.121	93.56
572.333	93.56
572.544	87.56
572.755	87.56
572.966	88.56
573.178	81.56
573.389	94.56
573.6	101.56
573.811	85.56
574.023	94.56
574.234	96.56
574.445	87.56
574.656	93.56
574.867	88.56
575.078	102.56
575.289	78.56
575.501	102.56
575.712	117.56
575.923	87.56
576.134	93.56
576.345	101.56
576.556	102.56
576.767	98.56
576.978	101.56
577.188	85.56
577.399	98.56
577.61	93.56
577.821	99.56
578.032	121.56
578.243	293.56
578.454	861.56
578.665	254.56
578.875	118.56
579.086	84.56
579.297	102.56
579.508	85.56
579.718	106.56
579.929	92.56
580.14	92.56
580.35	92.56
580.561	86.56
580.772	74.56
580.982	77.56
581.193	92.56
581.403	87.56
581.614	89.56
581.825	99.56
582.035	104.56
582.246	100.56
582.456	96.56
582.667	107.56
582.877	100.56
583.087	84.56
583.298	95.56
583.508	100.56
583.719	91.56
583.929	86.56
584.139	80.56
584.35	86.56
584.56	87.56
584.77	86.56
584.981	83.56
585.191	92.56
585.401	83.56
585.611	87.56
585.821	91.56
586.032	79.56
586.242	93.56
586.452	91.56
586.662	96.56
586.872	95.56
587.082	88.56
587.292	94.56
587.502	91.56
587.713	78.56
587.923	105.56
588.133	89.56
588.343	73.56
588.553	91.56
588.762	93.56
588.972	113.56
589.182	244.56
589.392	137.56
589.602	101.56
589.812	187.56
590.022	118.56
590.232	83.56
590.441	86.56
590.651	87.56
590.861	92.56
591.071	87.56
591.281	91.56
591.49	104.56
591.7	93.56
591.91	76.56
592.119	93.56
592.329	84.56
592.539	91.56
592.748	87.56
592.958	96.56
593.167	90.56
593.377	84.56
593.587	93.56
593.796	96.56
594.006	100.56
594.215	100.56
594.424	95.56
594.634	87.56
594.843	72.56
595.053	86.56
595.262	89.56
595.472	94.56
595.681	99.56
595.89	87.56
596.1	85.56
596.309	107.56
596.518	91.56
596.727	99.56
596.937	83.56
597.146	92.56
597.355	91.56
597.564	96.56
597.774	88.56
597.983	92.56
598.192	70.56
598.401	78.56
598.61	102.56
598.819	86.56
599.028	97.56
599.237	89.56
599.446	87.56
599.655	89.56
599.864	90.56
600.073	84.56
600.282	94.56
600.491	78.56
600.7	86.56
600.909	94.56
601.118	102.56
601.327	85.56
601.536	78.56
601.745	84.56
601.953	88.56
602.162	98.56
602.371	87.56
602.58	89.56
602.789	82.56
602.997	97.56
603.206	90.56
603.415	95.56
603.623	89.56
603.832	85.56
604.041	77.56
604.249	86.56
604.458	100.56
604.666	99.56
604.875	85.56
605.084	88.56
605.292	82.56
605.501	89.56
605.709	87.56
605.918	88.56
606.126	96.56
606.334	101.56
606.543	87.56
606.751	90.56
606.96	97.56
607.168	98.56
607.376	82.56
607.585	86.56
607.793	89.56
608.001	89.56
608.21	98.56
608.418	89.56
608.626	87.56
608.834	87.56
609.043	77.56
609.251	83.56
609.459	91.56
609.667	93.56
609.875	86.56
610.083	97.56
610.291	111.56
610.499	93.56
610.707	93.56
610.916	91.56
611.124	85.56
611.332	94.56
611.54	101.56
611.748	99.56
611.955	79.56
612.163	99.56
612.371	91.56
612.579	90.56
612.787	94.56
612.995	86.56
613.203	89.56
613.411	90.56
613.618	88.56
613.826	89.56
614.034	79.56
614.242	91.56
614.449	88.56
614.657	90.56
614.865	100.56
615.072	102.56
615.28	91.56
615.488	97.56
615.695	83.56
615.903	103.56
616.111	90.56
616.318	93.56
616.526	89.56
616.733	88.56
616.941	102.56
617.148	101.56
617.356	101.56
617.563	96.56
617.771	92.56
617.978	89.56
618.185	84.56
618.393	101.56
618.6	94.56
618.807	83.56
619.015	94.56
619.222	92.56
619.429	97.56
619.637	97.56
619.844	91.56
620.051	87.56
620.258	81.56
620.466	77.56
620.673	88.56
620.88	86.56
621.087	81.56
621.294	89.56
621.501	88.56
621.708	91.56
621.915	83.56
622.122	82.56
622.329	97.56
622.536	84.56
622.743	87.56
622.95	82.56
623.157	102.56
623.364	93.56
623.571	88.56
623.778	84.56
623.985	92.56
624.192	71.56
624.399	81.56
624.606	76.56
624.812	84.56
625.019	75.56
625.226	79.56
625.433	79.56
625.639	100.56
625.846	103.56
626.053	94.56
626.259	92.56
626.466	93.56
626.673	78.56
626.879	81.56
627.086	89.56
627.293	97.56
627.499	88.56
627.706	100.56
627.912	94.56
628.119	91.56
628.325	90.56
628.532	95.56
628.738	93.56
628.945	78.56
629.151	83.56
629.357	96.56
629.564	80.56
629.77	108.56
629.976	98.56
630.183	86.56
630.389	84.56
630.595	85.56
630.802	76.56
631.008	92.56
631.214	92.56
631.42	87.56
631.627	95.56
631.833	90.56
632.039	92.56
632.245	79.56
632.451	93.56
632.657	98.56
632.863	86.56
633.069	88.56
633.275	100.56
633.481	94.56
633.688	93.56
633.893	85.56
634.099	84.56
634.305	61.56
634.511	83.56
634.717	93.56
634.923	85.56
635.129	80.56
635.335	89.56
635.541	89.56
635.747	86.56
635.952	88.56
636.158	82.56
636.364	97.56
636.57	89.56
636.775	87.56
636.981	88.56
637.187	91.56
637.392	97.56
637.598	75.56
637.804	98.56
638.009	90.56
638.215	77.56
638.421	85.56
638.626	84.56
638.832	97.56
639.037	85.56
639.243	78.56
639.448	88.56
639.654	96.56
639.859	90.56
640.065	90.56
640.27	84.56
640.475	87.56
640.681	94.56
640.886	84.56
641.091	83.56
641.297	85.56
641.502	95.56
641.707	89.56
641.913	88.56
642.118	88.56
642.323	87.56
642.528	106.56
642.733	98.56
642.939	86.56
643.144	99.56
643.349	84.56
643.554	93.56
643.759	95.56
643.964	84.56
644.169	90.56
644.374	99.56
644.579	87.56
644.784	94.56
644.989	87.56
645.194	76.56
645.399	96.56
645.604	104.56
645.809	91.56
646.014	82.56
646.219	85.56
646.423	93.56
646.628	83.56
646.833	93.56
647.038	94.56
647.243	90.56
647.447	86.56
647.652	81.56
647.857	98.56
648.062	90.56
648.266	97.56
648.471	84.56
648.676	83.56
648.88	83.56
649.085	103.56
649.289	86.56
649.494	110.56
649.698	149.56
649.903	92.56
650.107	93.56
650.312	99.56
650.516	93.56
650.721	93.56
650.925	88.56
651.13	96.56
651.334	78.56
651.539	87.56
651.743	85.56
651.947	90.56
652.152	92.56
652.356	98.56
652.56	84.56
652.764	65.56
652.969	81.56
653.173	72.56
653.377	86.56
653.581	102.56
653.785	76.56
653.99	69.56
654.194	85.56
654.398	82.56
654.602	85.56
654.806	85.56
655.01	108.56
655.214	72.56
655.418	100.56
655.622	98.56
655.826	81.56
656.03	100.56
656.234	94.56
656.438	90.56
656.642	91.56
656.846	91.56
657.049	89.56
657.253	83.56
657.457	91.56
657.661	94.56
657.865	84.56
658.068	93.56
658.272	65.56
658.476	97.56
658.68	89.56
658.883	82.56
659.087	94.56
659.291	83.56
659.494	92.56
659.698	80.56
659.901	89.56
660.105	87.56
660.309	81.56
660.512	76.56
660.716	72.56
660.919	90.56
661.123	85.56
661.326	84.56
661.53	82.56
661.733	87.56
661.936	83.56
662.14	73.56
662.343	86.56
662.546	92.56
662.75	81.56
662.953	102.56
663.156	80.56
663.36	87.56
663.563	85.56
663.766	75.56
663.969	90.56
664.173	84.56
664.376	96.56
664.579	86.56
664.782	92.56
664.985	78.56
665.188	75.56
665.391	77.56
665.594	78.56
665.797	83.56
666	83.56
666.203	79.56
666.406	77.56
666.609	91.56
666.812	81.56
667.015	93.56
667.218	89.56
667.421	87.56
667.624	81.56
667.827	92.56
668.03	85.56
668.232	74.56
668.435	90.56
668.638	75.56
668.841	87.56
669.043	89.56
669.246	78.56
669.449	84.56
669.651	82.56
669.854	82.56
670.057	81.56
670.259	78.56
670.462	77.56
670.665	81.56
670.867	97.56
671.07	92.56
671.272	98.56
671.475	84.56
671.677	98.56
671.88	86.56
672.082	91.56
672.284	82.56
672.487	86.56
672.689	90.56
672.892	82.56
