Data from Circ_2022_H10_HRD10591_00013.txt Node
Date: Wed Jan 03 09:53:40 EST 2024
User: Yrep
Spectrometer: HR+D1059
Trigger mode: 1
Integration Time (sec): 1.000000E-1
Scans to average: 1
Electric dark correction enabled: true
Nonlinearity correction enabled: false
Boxcar width: 0
XAxis mode: Wavelengths
Number of Pixels in Spectrum: 2048
>>>>>Begin Spectral Data<<<<<
223.165	-8.31
223.4	-8.31
223.635	-8.31
223.869	-4.31
224.104	-32.31
224.338	-21.31
224.573	-19.31
224.808	-21.31
225.042	-4.31
225.277	0.69
225.511	1.69
225.746	11.69
225.98	-5.31
226.215	4.69
226.449	23.69
226.683	23.69
226.918	16.69
227.152	33.69
227.387	42.69
227.621	56.69
227.856	57.69
228.09	60.69
228.324	48.69
228.559	67.69
228.793	55.69
229.027	57.69
229.262	57.69
229.496	94.69
229.73	104.69
229.964	85.69
230.199	80.69
230.433	77.69
230.667	82.69
230.901	75.69
231.136	77.69
231.37	83.69
231.604	90.69
231.838	95.69
232.072	78.69
232.306	82.69
232.541	76.69
232.775	85.69
233.009	83.69
233.243	95.69
233.477	79.69
233.711	86.69
233.945	87.69
234.179	79.69
234.413	93.69
234.647	81.69
234.881	71.69
235.115	81.69
235.349	80.69
235.583	90.69
235.817	64.69
236.051	75.69
236.285	60.69
236.519	84.69
236.753	79.69
236.987	92.69
237.221	91.69
237.455	90.69
237.689	75.69
237.922	84.69
238.156	80.69
238.39	89.69
238.624	77.69
238.858	72.69
239.091	76.69
239.325	77.69
239.559	88.69
239.793	82.69
240.027	80.69
240.26	61.69
240.494	70.69
240.728	88.69
240.961	81.69
241.195	65.69
241.429	75.69
241.662	82.69
241.896	74.69
242.13	71.69
242.363	81.69
242.597	71.69
242.83	71.69
243.064	79.69
243.298	70.69
243.531	91.69
243.765	70.69
243.998	85.69
244.232	78.69
244.465	83.69
244.699	91.69
244.932	82.69
245.166	72.69
245.399	72.69
245.633	74.69
245.866	72.69
246.099	81.69
246.333	75.69
246.566	65.69
246.8	64.69
247.033	75.69
247.266	82.69
247.5	74.69
247.733	81.69
247.966	88.69
248.2	77.69
248.433	77.69
248.666	77.69
248.899	90.69
249.133	84.69
249.366	93.69
249.599	112.69
249.832	76.69
250.066	77.69
250.299	88.69
250.532	75.69
250.765	88.69
250.998	72.69
251.231	76.69
251.465	72.69
251.698	74.69
251.931	84.69
252.164	86.69
252.397	76.69
252.63	83.69
252.863	89.69
253.096	73.69
253.329	82.69
253.562	75.69
253.795	81.69
254.028	69.69
254.261	88.69
254.494	81.69
254.727	87.69
254.96	87.69
255.193	83.69
255.426	73.69
255.659	92.69
255.892	83.69
256.124	82.69
256.357	88.69
256.59	88.69
256.823	78.69
257.056	88.69
257.289	68.69
257.521	81.69
257.754	90.69
257.987	82.69
258.22	68.69
258.452	85.69
258.685	77.69
258.918	79.69
259.151	71.69
259.383	86.69
259.616	92.69
259.849	98.69
260.081	85.69
260.314	85.69
260.547	70.69
260.779	84.69
261.012	88.69
261.244	87.69
261.477	92.69
261.71	105.69
261.942	156.69
262.175	151.69
262.407	112.69
262.64	67.69
262.872	88.69
263.105	88.69
263.337	97.69
263.57	88.69
263.802	82.69
264.035	67.69
264.267	80.69
264.499	74.69
264.732	87.69
264.964	85.69
265.197	94.69
265.429	83.69
265.661	95.69
265.894	75.69
266.126	76.69
266.358	96.69
266.591	74.69
266.823	89.69
267.055	75.69
267.287	69.69
267.52	94.69
267.752	91.69
267.984	83.69
268.216	85.69
268.448	83.69
268.681	101.69
268.913	88.69
269.145	87.69
269.377	85.69
269.609	88.69
269.841	73.69
270.073	76.69
270.306	96.69
270.538	88.69
270.77	71.69
271.002	89.69
271.234	92.69
271.466	83.69
271.698	85.69
271.93	86.69
272.162	68.69
272.394	83.69
272.626	81.69
272.858	75.69
273.09	89.69
273.322	74.69
273.553	63.69
273.785	97.69
274.017	86.69
274.249	87.69
274.481	79.69
274.713	84.69
274.945	102.69
275.176	82.69
275.408	94.69
275.64	96.69
275.872	83.69
276.104	100.69
276.335	102.69
276.567	115.69
276.799	143.69
277.031	108.69
277.262	106.69
277.494	94.69
277.726	90.69
277.957	81.69
278.189	93.69
278.421	80.69
278.652	92.69
278.884	82.69
279.115	76.69
279.347	91.69
279.579	93.69
279.81	102.69
280.042	80.69
280.273	91.69
280.505	88.69
280.736	85.69
280.968	88.69
281.199	92.69
281.431	88.69
281.662	108.69
281.894	90.69
282.125	107.69
282.356	157.69
282.588	205.69
282.819	140.69
283.051	91.69
283.282	95.69
283.513	90.69
283.745	92.69
283.976	91.69
284.207	86.69
284.439	88.69
284.67	86.69
284.901	78.69
285.132	87.69
285.364	85.69
285.595	91.69
285.826	68.69
286.057	85.69
286.288	96.69
286.52	86.69
286.751	95.69
286.982	90.69
287.213	88.69
287.444	83.69
287.675	96.69
287.906	100.69
288.138	100.69
288.369	101.69
288.6	94.69
288.831	87.69
289.062	87.69
289.293	94.69
289.524	93.69
289.755	93.69
289.986	83.69
290.217	92.69
290.448	83.69
290.679	84.69
290.91	92.69
291.141	90.69
291.371	99.69
291.602	92.69
291.833	81.69
292.064	77.69
292.295	87.69
292.526	97.69
292.757	87.69
292.987	88.69
293.218	88.69
293.449	95.69
293.68	82.69
293.91	76.69
294.141	86.69
294.372	88.69
294.603	99.69
294.833	97.69
295.064	95.69
295.295	81.69
295.525	92.69
295.756	116.69
295.987	134.69
296.217	189.69
296.448	187.69
296.679	117.69
296.909	104.69
297.14	83.69
297.37	101.69
297.601	93.69
297.831	81.69
298.062	107.69
298.292	89.69
298.523	90.69
298.753	88.69
298.984	96.69
299.214	89.69
299.445	89.69
299.675	90.69
299.905	113.69
300.136	87.69
300.366	82.69
300.597	90.69
300.827	91.69
301.057	119.69
301.288	115.69
301.518	106.69
301.748	97.69
301.979	89.69
302.209	83.69
302.439	98.69
302.669	103.69
302.9	99.69
303.13	93.69
303.36	117.69
303.59	119.69
303.82	134.69
304.051	100.69
304.281	106.69
304.511	92.69
304.741	83.69
304.971	87.69
305.201	94.69
305.431	93.69
305.661	82.69
305.891	80.69
306.121	99.69
306.352	113.69
306.582	140.69
306.812	103.69
307.042	98.69
307.272	95.69
307.502	95.69
307.731	96.69
307.961	98.69
308.191	81.69
308.421	98.69
308.651	106.69
308.881	105.69
309.111	93.69
309.341	94.69
309.571	108.69
309.8	107.69
310.03	86.69
310.26	101.69
310.49	105.69
310.72	108.69
310.949	125.69
311.179	112.69
311.409	98.69
311.639	89.69
311.868	98.69
312.098	100.69
312.328	116.69
312.557	118.69
312.787	144.69
313.017	115.69
313.246	100.69
313.476	94.69
313.706	90.69
313.935	120.69
314.165	120.69
314.394	111.69
314.624	112.69
314.853	103.69
315.083	96.69
315.312	94.69
315.542	93.69
315.771	99.69
316.001	87.69
316.23	80.69
316.46	104.69
316.689	100.69
316.919	105.69
317.148	128.69
317.377	121.69
317.607	112.69
317.836	92.69
318.065	88.69
318.295	89.69
318.524	83.69
318.753	100.69
318.983	96.69
319.212	114.69
319.441	137.69
319.67	116.69
319.9	105.69
320.129	102.69
320.358	101.69
320.587	109.69
320.816	113.69
321.046	123.69
321.275	107.69
321.504	104.69
321.733	91.69
321.962	103.69
322.191	116.69
322.42	128.69
322.649	141.69
322.878	157.69
323.108	141.69
323.337	164.69
323.566	182.69
323.795	216.69
324.024	303.69
324.253	653.69
324.482	1424.69
324.71	2889.69
324.939	3912.69
325.168	1426.69
325.397	399.69
325.626	198.69
325.855	169.69
326.084	151.69
326.313	168.69
326.542	206.69
326.77	319.69
326.999	695.69
327.228	1482.69
327.457	2743.69
327.686	2198.69
327.914	586.69
328.143	295.69
328.372	206.69
328.6	173.69
328.829	167.69
329.058	177.69
329.287	190.69
329.515	138.69
329.744	104.69
329.972	117.69
330.201	120.69
330.43	160.69
330.658	176.69
330.887	227.69
331.115	177.69
331.344	128.69
331.572	103.69
331.801	131.69
332.03	138.69
332.258	117.69
332.486	119.69
332.715	100.69
332.943	108.69
333.172	88.69
333.4	106.69
333.629	116.69
333.857	129.69
334.085	133.69
334.314	106.69
334.542	122.69
334.771	114.69
334.999	111.69
335.227	111.69
335.455	96.69
335.684	108.69
335.912	99.69
336.14	98.69
336.369	102.69
336.597	118.69
336.825	107.69
337.053	103.69
337.281	92.69
337.51	92.69
337.738	95.69
337.966	114.69
338.194	118.69
338.422	112.69
338.65	96.69
338.878	94.69
339.106	86.69
339.334	85.69
339.562	101.69
339.79	103.69
340.018	98.69
340.246	102.69
340.474	88.69
340.702	108.69
340.93	84.69
341.158	107.69
341.386	112.69
341.614	106.69
341.842	109.69
342.07	100.69
342.298	94.69
342.526	88.69
342.754	100.69
342.981	86.69
343.209	83.69
343.437	107.69
343.665	87.69
343.893	77.69
344.12	97.69
344.348	80.69
344.576	87.69
344.804	94.69
345.031	107.69
345.259	109.69
345.487	109.69
345.714	98.69
345.942	97.69
346.17	99.69
346.397	77.69
346.625	107.69
346.853	95.69
347.08	88.69
347.308	103.69
347.535	105.69
347.763	132.69
347.99	119.69
348.218	124.69
348.445	131.69
348.673	128.69
348.9	97.69
349.128	96.69
349.355	99.69
349.583	108.69
349.81	91.69
350.037	116.69
350.265	104.69
350.492	93.69
350.72	103.69
350.947	121.69
351.174	144.69
351.402	145.69
351.629	117.69
351.856	112.69
352.083	122.69
352.311	134.69
352.538	132.69
352.765	125.69
352.992	133.69
353.22	129.69
353.447	115.69
353.674	111.69
353.901	96.69
354.128	93.69
354.355	84.69
354.583	103.69
354.81	87.69
355.037	94.69
355.264	102.69
355.491	92.69
355.718	90.69
355.945	92.69
356.172	94.69
356.399	105.69
356.626	104.69
356.853	112.69
357.08	99.69
357.307	87.69
357.534	88.69
357.761	96.69
357.988	88.69
358.215	95.69
358.441	96.69
358.668	84.69
358.895	95.69
359.122	104.69
359.349	95.69
359.576	102.69
359.802	113.69
360.029	164.69
360.256	152.69
360.483	118.69
360.709	95.69
360.936	97.69
361.163	107.69
361.39	97.69
361.616	129.69
361.843	106.69
362.07	97.69
362.296	113.69
362.523	113.69
362.749	112.69
362.976	115.69
363.203	116.69
363.429	96.69
363.656	106.69
363.882	90.69
364.109	106.69
364.335	107.69
364.562	102.69
364.788	97.69
365.015	99.69
365.241	115.69
365.468	123.69
365.694	139.69
365.92	129.69
366.147	103.69
366.373	93.69
366.599	84.69
366.826	90.69
367.052	88.69
367.278	92.69
367.505	93.69
367.731	109.69
367.957	103.69
368.184	104.69
368.41	126.69
368.636	142.69
368.862	150.69
369.089	140.69
369.315	102.69
369.541	101.69
369.767	97.69
369.993	104.69
370.219	86.69
370.445	102.69
370.672	84.69
370.898	81.69
371.124	82.69
371.35	83.69
371.576	100.69
371.802	88.69
372.028	86.69
372.254	82.69
372.48	88.69
372.706	91.69
372.932	96.69
373.158	96.69
373.384	95.69
373.61	95.69
373.835	95.69
374.061	100.69
374.287	98.69
374.513	93.69
374.739	74.69
374.965	85.69
375.191	100.69
375.416	89.69
375.642	104.69
375.868	87.69
376.094	113.69
376.319	103.69
376.545	91.69
376.771	92.69
376.997	103.69
377.222	91.69
377.448	104.69
377.674	95.69
377.899	63.69
378.125	89.69
378.35	100.69
378.576	98.69
378.802	92.69
379.027	103.69
379.253	83.69
379.478	95.69
379.704	94.69
379.929	101.69
380.155	104.69
380.38	101.69
380.606	96.69
380.831	103.69
381.057	99.69
381.282	93.69
381.507	97.69
381.733	101.69
381.958	101.69
382.184	103.69
382.409	111.69
382.634	106.69
382.86	93.69
383.085	105.69
383.31	99.69
383.535	108.69
383.761	118.69
383.986	101.69
384.211	97.69
384.436	104.69
384.662	101.69
384.887	107.69
385.112	109.69
385.337	107.69
385.562	111.69
385.787	125.69
386.013	129.69
386.238	132.69
386.463	120.69
386.688	127.69
386.913	131.69
387.138	117.69
387.363	108.69
387.588	112.69
387.813	101.69
388.038	106.69
388.263	121.69
388.488	106.69
388.713	86.69
388.938	97.69
389.163	99.69
389.387	92.69
389.612	81.69
389.837	108.69
390.062	89.69
390.287	98.69
390.512	82.69
390.736	107.69
390.961	96.69
391.186	83.69
391.411	96.69
391.636	86.69
391.86	82.69
392.085	102.69
392.31	82.69
392.534	101.69
392.759	96.69
392.984	101.69
393.208	101.69
393.433	121.69
393.658	96.69
393.882	81.69
394.107	68.69
394.331	84.69
394.556	86.69
394.78	85.69
395.005	90.69
395.229	83.69
395.454	101.69
395.678	88.69
395.903	92.69
396.127	87.69
396.352	94.69
396.576	96.69
396.801	90.69
397.025	109.69
397.249	97.69
397.474	100.69
397.698	86.69
397.922	88.69
398.147	96.69
398.371	89.69
398.595	77.69
398.82	92.69
399.044	99.69
399.268	87.69
399.492	93.69
399.717	100.69
399.941	87.69
400.165	98.69
400.389	97.69
400.613	79.69
400.837	88.69
401.062	88.69
401.286	103.69
401.51	108.69
401.734	96.69
401.958	108.69
402.182	180.69
402.406	286.69
402.63	175.69
402.854	112.69
403.078	91.69
403.302	82.69
403.526	88.69
403.75	106.69
403.974	99.69
404.198	89.69
404.422	100.69
404.645	88.69
404.869	90.69
405.093	115.69
405.317	109.69
405.541	120.69
405.765	133.69
405.988	146.69
406.212	286.69
406.436	416.69
406.66	260.69
406.883	131.69
407.107	119.69
407.331	107.69
407.555	111.69
407.778	99.69
408.002	101.69
408.226	107.69
408.449	92.69
408.673	99.69
408.896	106.69
409.12	99.69
409.344	96.69
409.567	86.69
409.791	101.69
410.014	76.69
410.238	90.69
410.461	95.69
410.685	88.69
410.908	96.69
411.132	126.69
411.355	103.69
411.578	98.69
411.802	89.69
412.025	80.69
412.249	95.69
412.472	94.69
412.695	97.69
412.919	92.69
413.142	85.69
413.365	79.69
413.589	84.69
413.812	80.69
414.035	88.69
414.258	96.69
414.482	95.69
414.705	96.69
414.928	89.69
415.151	104.69
415.374	91.69
415.597	93.69
415.821	100.69
416.044	84.69
416.267	94.69
416.49	93.69
416.713	84.69
416.936	109.69
417.159	87.69
417.382	94.69
417.605	92.69
417.828	102.69
418.051	92.69
418.274	83.69
418.497	93.69
418.72	95.69
418.943	87.69
419.166	97.69
419.389	81.69
419.611	95.69
419.834	85.69
420.057	98.69
420.28	93.69
420.503	78.69
420.726	96.69
420.948	78.69
421.171	100.69
421.394	102.69
421.617	93.69
421.839	85.69
422.062	90.69
422.285	113.69
422.507	119.69
422.73	113.69
422.953	95.69
423.175	99.69
423.398	86.69
423.621	80.69
423.843	82.69
424.066	92.69
424.288	102.69
424.511	88.69
424.733	84.69
424.956	125.69
425.178	110.69
425.401	103.69
425.623	105.69
425.846	101.69
426.068	116.69
426.291	97.69
426.513	106.69
426.735	104.69
426.958	97.69
427.18	107.69
427.402	160.69
427.625	258.69
427.847	200.69
428.069	118.69
428.292	95.69
428.514	98.69
428.736	91.69
428.958	83.69
429.181	93.69
429.403	90.69
429.625	85.69
429.847	104.69
430.069	113.69
430.292	97.69
430.514	81.69
430.736	97.69
430.958	88.69
431.18	87.69
431.402	92.69
431.624	85.69
431.846	92.69
432.068	92.69
432.29	85.69
432.512	89.69
432.734	99.69
432.956	97.69
433.178	113.69
433.4	112.69
433.622	75.69
433.844	91.69
434.066	96.69
434.287	99.69
434.509	102.69
434.731	104.69
434.953	84.69
435.175	88.69
435.397	112.69
435.618	102.69
435.84	112.69
436.062	135.69
436.284	129.69
436.505	114.69
436.727	104.69
436.949	99.69
437.17	90.69
437.392	89.69
437.614	96.69
437.835	145.69
438.057	165.69
438.278	139.69
438.5	120.69
438.721	133.69
438.943	114.69
439.165	100.69
439.386	79.69
439.608	91.69
439.829	130.69
440.05	176.69
440.272	210.69
440.493	111.69
440.715	104.69
440.936	92.69
441.158	89.69
441.379	93.69
441.6	106.69
441.822	87.69
442.043	96.69
442.264	111.69
442.486	115.69
442.707	108.69
442.928	127.69
443.149	191.69
443.371	182.69
443.592	136.69
443.813	112.69
444.034	111.69
444.255	95.69
444.476	82.69
444.698	91.69
444.919	98.69
445.14	136.69
445.361	132.69
445.582	148.69
445.803	197.69
446.024	185.69
446.245	176.69
446.466	139.69
446.687	91.69
446.908	98.69
447.129	111.69
447.35	91.69
447.571	105.69
447.792	112.69
448.013	129.69
448.234	163.69
448.455	106.69
448.675	136.69
448.896	129.69
449.117	103.69
449.338	110.69
449.559	150.69
449.779	164.69
450	116.69
450.221	101.69
450.442	95.69
450.662	93.69
450.883	153.69
451.104	154.69
451.324	115.69
451.545	100.69
451.766	101.69
451.986	86.69
452.207	83.69
452.428	107.69
452.648	111.69
452.869	148.69
453.089	161.69
453.31	166.69
453.53	97.69
453.751	115.69
453.971	131.69
454.192	157.69
454.412	103.69
454.633	81.69
454.853	100.69
455.073	80.69
455.294	87.69
455.514	109.69
455.734	110.69
455.955	89.69
456.175	89.69
456.395	88.69
456.616	92.69
456.836	85.69
457.056	87.69
457.276	88.69
457.497	79.69
457.717	87.69
457.937	81.69
458.157	88.69
458.377	100.69
458.598	137.69
458.818	241.69
459.038	270.69
459.258	164.69
459.478	101.69
459.698	77.69
459.918	89.69
460.138	88.69
460.358	75.69
460.578	92.69
460.798	88.69
461.018	100.69
461.238	87.69
461.458	90.69
461.678	74.69
461.898	84.69
462.118	89.69
462.338	89.69
462.558	93.69
462.777	101.69
462.997	90.69
463.217	81.69
463.437	88.69
463.657	88.69
463.876	90.69
464.096	101.69
464.316	101.69
464.536	111.69
464.755	99.69
464.975	124.69
465.195	268.69
465.414	284.69
465.634	120.69
465.854	81.69
466.073	104.69
466.293	74.69
466.512	93.69
466.732	71.69
466.951	80.69
467.171	93.69
467.391	107.69
467.61	134.69
467.829	122.69
468.049	102.69
468.268	99.69
468.488	83.69
468.707	91.69
468.927	100.69
469.146	86.69
469.365	76.69
469.585	100.69
469.804	127.69
470.023	119.69
470.243	113.69
470.462	117.69
470.681	138.69
470.901	100.69
471.12	76.69
471.339	89.69
471.558	91.69
471.777	98.69
471.997	90.69
472.216	92.69
472.435	112.69
472.654	99.69
472.873	99.69
473.092	82.69
473.311	96.69
473.53	113.69
473.749	87.69
473.968	98.69
474.187	131.69
474.406	99.69
474.625	83.69
474.844	97.69
475.063	79.69
475.282	91.69
475.501	93.69
475.72	98.69
475.939	80.69
476.158	76.69
476.377	87.69
476.596	75.69
476.814	109.69
477.033	102.69
477.252	90.69
477.471	98.69
477.69	97.69
477.908	100.69
478.127	91.69
478.346	92.69
478.564	94.69
478.783	97.69
479.002	103.69
479.22	100.69
479.439	114.69
479.658	128.69
479.876	103.69
480.095	97.69
480.313	98.69
480.532	92.69
480.751	92.69
480.969	99.69
481.188	137.69
481.406	124.69
481.624	103.69
481.843	88.69
482.061	83.69
482.28	88.69
482.498	88.69
482.717	85.69
482.935	86.69
483.153	83.69
483.372	72.69
483.59	79.69
483.808	88.69
484.027	98.69
484.245	100.69
484.463	95.69
484.681	102.69
484.9	98.69
485.118	92.69
485.336	101.69
485.554	118.69
485.772	104.69
485.99	92.69
486.209	107.69
486.427	113.69
486.645	128.69
486.863	128.69
487.081	110.69
487.299	102.69
487.517	97.69
487.735	91.69
487.953	108.69
488.171	103.69
488.389	107.69
488.607	96.69
488.825	81.69
489.043	91.69
489.261	98.69
489.479	99.69
489.696	97.69
489.914	97.69
490.132	90.69
490.35	93.69
490.568	92.69
490.786	91.69
491.003	81.69
491.221	88.69
491.439	88.69
491.657	94.69
491.874	92.69
492.092	82.69
492.31	89.69
492.527	99.69
492.745	82.69
492.963	107.69
493.18	108.69
493.398	100.69
493.615	88.69
493.833	106.69
494.05	92.69
494.268	88.69
494.485	88.69
494.703	87.69
494.92	91.69
495.138	92.69
495.355	77.69
495.573	98.69
495.79	81.69
496.008	93.69
496.225	79.69
496.442	85.69
496.66	81.69
496.877	93.69
497.094	91.69
497.312	96.69
497.529	95.69
497.746	103.69
497.963	94.69
498.181	95.69
498.398	112.69
498.615	113.69
498.832	104.69
499.049	90.69
499.267	91.69
499.484	88.69
499.701	88.69
499.918	102.69
500.135	94.69
500.352	97.69
500.569	104.69
500.786	87.69
501.003	102.69
501.22	84.69
501.437	91.69
501.654	119.69
501.871	145.69
502.088	102.69
502.305	93.69
502.522	93.69
502.739	96.69
502.956	83.69
503.172	104.69
503.389	99.69
503.606	133.69
503.823	104.69
504.04	92.69
504.256	108.69
504.473	114.69
504.69	87.69
504.907	79.69
505.123	99.69
505.34	103.69
505.557	101.69
505.773	80.69
505.99	94.69
506.207	83.69
506.423	99.69
506.64	101.69
506.856	90.69
507.073	89.69
507.289	107.69
507.506	109.69
507.722	145.69
507.939	151.69
508.155	101.69
508.372	100.69
508.588	105.69
508.805	106.69
509.021	97.69
509.238	105.69
509.454	114.69
509.67	123.69
509.887	139.69
510.103	171.69
510.319	325.69
510.536	1347.69
510.752	4852.69
510.968	1295.69
511.184	227.69
511.401	151.69
511.617	119.69
511.833	103.69
512.049	109.69
512.265	96.69
512.481	95.69
512.698	96.69
512.914	92.69
513.13	100.69
513.346	85.69
513.562	98.69
513.778	108.69
513.994	103.69
514.21	127.69
514.426	170.69
514.642	208.69
514.858	175.69
515.074	295.69
515.29	978.69
515.506	3845.69
515.721	1314.69
515.937	278.69
516.153	148.69
516.369	113.69
516.585	98.69
516.801	108.69
517.016	101.69
517.232	105.69
517.448	100.69
517.664	96.69
517.879	103.69
518.095	100.69
518.311	101.69
518.527	112.69
518.742	103.69
518.958	97.69
519.173	101.69
519.389	103.69
519.605	105.69
519.82	106.69
520.036	117.69
520.251	160.69
520.467	159.69
520.682	138.69
520.898	130.69
521.113	150.69
521.329	214.69
521.544	368.69
521.76	1283.69
521.975	6193.69
522.19	3774.69
522.406	692.69
522.621	193.69
522.836	127.69
523.052	114.69
523.267	129.69
523.482	105.69
523.698	135.69
523.913	172.69
524.128	124.69
524.343	108.69
524.559	93.69
524.774	97.69
524.989	104.69
525.204	131.69
525.419	122.69
525.634	108.69
525.849	98.69
526.064	93.69
526.28	89.69
526.495	99.69
526.71	91.69
526.925	90.69
527.14	92.69
527.355	97.69
527.57	96.69
527.785	88.69
527.999	100.69
528.214	77.69
528.429	98.69
528.644	90.69
528.859	93.69
529.074	114.69
529.289	165.69
529.503	347.69
529.718	138.69
529.933	95.69
530.148	102.69
530.363	87.69
530.577	89.69
530.792	94.69
531.007	85.69
531.221	111.69
531.436	87.69
531.651	92.69
531.865	92.69
532.08	92.69
532.295	98.69
532.509	90.69
532.724	90.69
532.938	97.69
533.153	91.69
533.367	90.69
533.582	83.69
533.796	82.69
534.011	107.69
534.225	83.69
534.44	97.69
534.654	100.69
534.868	94.69
535.083	84.69
535.297	102.69
535.511	105.69
535.726	134.69
535.94	121.69
536.154	106.69
536.369	107.69
536.583	83.69
536.797	89.69
537.011	94.69
537.225	91.69
537.44	102.69
537.654	85.69
537.868	90.69
538.082	100.69
538.296	89.69
538.51	113.69
538.724	99.69
538.938	95.69
539.153	100.69
539.367	138.69
539.581	127.69
539.795	98.69
540.009	90.69
540.222	100.69
540.436	101.69
540.65	105.69
540.864	106.69
541.078	100.69
541.292	82.69
541.506	90.69
541.72	96.69
541.934	94.69
542.147	98.69
542.361	82.69
542.575	88.69
542.789	91.69
543.002	89.69
543.216	87.69
543.43	112.69
543.644	96.69
543.857	89.69
544.071	97.69
544.285	100.69
544.498	97.69
544.712	99.69
544.925	89.69
545.139	81.69
545.352	101.69
545.566	89.69
545.779	84.69
545.993	101.69
546.206	90.69
546.42	89.69
546.633	90.69
546.847	98.69
547.06	91.69
547.274	89.69
547.487	86.69
547.7	81.69
547.914	97.69
548.127	85.69
548.34	88.69
548.554	76.69
548.767	82.69
548.98	89.69
549.193	84.69
549.407	93.69
549.62	102.69
549.833	95.69
550.046	90.69
550.259	75.69
550.473	89.69
550.686	97.69
550.899	91.69
551.112	82.69
551.325	100.69
551.538	99.69
551.751	95.69
551.964	90.69
552.177	72.69
552.39	94.69
552.603	99.69
552.816	92.69
553.029	87.69
553.242	97.69
553.455	103.69
553.667	125.69
553.88	128.69
554.093	88.69
554.306	96.69
554.519	98.69
554.732	104.69
554.944	79.69
555.157	82.69
555.37	81.69
555.583	91.69
555.795	75.69
556.008	98.69
556.221	102.69
556.433	90.69
556.646	82.69
556.859	81.69
557.071	101.69
557.284	102.69
557.496	107.69
557.709	103.69
557.921	94.69
558.134	91.69
558.346	94.69
558.559	93.69
558.771	88.69
558.984	91.69
559.196	83.69
559.409	85.69
559.621	76.69
559.833	91.69
560.046	84.69
560.258	88.69
560.47	88.69
560.683	102.69
560.895	103.69
561.107	87.69
561.32	98.69
561.532	77.69
561.744	87.69
561.956	96.69
562.168	100.69
562.381	85.69
562.593	107.69
562.805	97.69
563.017	96.69
563.229	78.69
563.441	75.69
563.653	94.69
563.865	83.69
564.077	89.69
564.289	99.69
564.501	97.69
564.713	96.69
564.925	102.69
565.137	119.69
565.349	102.69
565.561	83.69
565.773	78.69
565.985	83.69
566.197	94.69
566.408	99.69
566.62	83.69
566.832	90.69
567.044	82.69
567.255	89.69
567.467	93.69
567.679	83.69
567.891	87.69
568.102	95.69
568.314	97.69
568.526	90.69
568.737	101.69
568.949	87.69
569.161	92.69
569.372	92.69
569.584	75.69
569.795	102.69
570.007	153.69
570.218	426.69
570.43	202.69
570.641	100.69
570.853	96.69
571.064	92.69
571.276	86.69
571.487	81.69
571.698	98.69
571.91	87.69
572.121	95.69
572.333	96.69
572.544	82.69
572.755	81.69
572.966	93.69
573.178	92.69
573.389	86.69
573.6	87.69
573.811	82.69
574.023	84.69
574.234	88.69
574.445	95.69
574.656	95.69
574.867	88.69
575.078	108.69
575.289	90.69
575.501	91.69
575.712	88.69
575.923	80.69
576.134	93.69
576.345	89.69
576.556	96.69
576.767	86.69
576.978	90.69
577.188	78.69
577.399	100.69
577.61	109.69
577.821	98.69
578.032	151.69
578.243	456.69
578.454	1571.69
578.665	370.69
578.875	119.69
579.086	94.69
579.297	102.69
579.508	99.69
579.718	88.69
579.929	95.69
580.14	91.69
580.35	90.69
580.561	83.69
580.772	78.69
580.982	77.69
581.193	85.69
581.403	83.69
581.614	92.69
581.825	86.69
582.035	97.69
582.246	75.69
582.456	77.69
582.667	88.69
582.877	88.69
583.087	111.69
583.298	97.69
583.508	96.69
583.719	92.69
583.929	90.69
584.139	88.69
584.35	94.69
584.56	89.69
584.77	87.69
584.981	75.69
585.191	91.69
585.401	86.69
585.611	97.69
585.821	100.69
586.032	89.69
586.242	78.69
586.452	94.69
586.662	75.69
586.872	96.69
587.082	81.69
587.292	95.69
587.502	96.69
587.713	82.69
587.923	99.69
588.133	85.69
588.343	91.69
588.553	88.69
588.762	89.69
588.972	107.69
589.182	247.69
589.392	160.69
589.602	115.69
589.812	179.69
590.022	102.69
590.232	83.69
590.441	85.69
590.651	84.69
590.861	89.69
591.071	94.69
591.281	91.69
591.49	93.69
591.7	97.69
591.91	85.69
592.119	85.69
592.329	91.69
592.539	84.69
592.748	84.69
592.958	97.69
593.167	83.69
593.377	84.69
593.587	85.69
593.796	85.69
594.006	85.69
594.215	75.69
594.424	88.69
594.634	101.69
594.843	102.69
595.053	87.69
595.262	93.69
595.472	92.69
595.681	112.69
595.89	90.69
596.1	80.69
596.309	78.69
596.518	83.69
596.727	95.69
596.937	105.69
597.146	86.69
597.355	88.69
597.564	91.69
597.774	90.69
597.983	90.69
598.192	91.69
598.401	80.69
598.61	76.69
598.819	88.69
599.028	90.69
599.237	90.69
599.446	90.69
599.655	98.69
599.864	85.69
600.073	96.69
600.282	97.69
600.491	81.69
600.7	85.69
600.909	93.69
601.118	87.69
601.327	92.69
601.536	92.69
601.745	81.69
601.953	80.69
602.162	100.69
602.371	99.69
602.58	82.69
602.789	79.69
602.997	90.69
603.206	87.69
603.415	98.69
603.623	82.69
603.832	96.69
604.041	90.69
604.249	85.69
604.458	98.69
604.666	82.69
604.875	85.69
605.084	97.69
605.292	94.69
605.501	91.69
605.709	79.69
605.918	91.69
606.126	91.69
606.334	77.69
606.543	87.69
606.751	86.69
606.96	84.69
607.168	91.69
607.376	88.69
607.585	94.69
607.793	82.69
608.001	85.69
608.21	96.69
608.418	91.69
608.626	91.69
608.834	76.69
609.043	81.69
609.251	85.69
609.459	82.69
609.667	88.69
609.875	88.69
610.083	83.69
610.291	92.69
610.499	84.69
610.707	100.69
610.916	90.69
611.124	83.69
611.332	91.69
611.54	84.69
611.748	92.69
611.955	72.69
612.163	90.69
612.371	78.69
612.579	84.69
612.787	96.69
612.995	82.69
613.203	99.69
613.411	91.69
613.618	103.69
613.826	103.69
614.034	89.69
614.242	87.69
614.449	106.69
614.657	89.69
614.865	86.69
615.072	77.69
615.28	93.69
615.488	82.69
615.695	92.69
615.903	98.69
616.111	97.69
616.318	101.69
616.526	91.69
616.733	95.69
616.941	101.69
617.148	65.69
617.356	89.69
617.563	89.69
617.771	107.69
617.978	92.69
618.185	93.69
618.393	100.69
618.6	82.69
618.807	86.69
619.015	79.69
619.222	84.69
619.429	84.69
619.637	86.69
619.844	77.69
620.051	91.69
620.258	75.69
620.466	79.69
620.673	89.69
620.88	93.69
621.087	82.69
621.294	90.69
621.501	88.69
621.708	88.69
621.915	86.69
622.122	98.69
622.329	89.69
622.536	81.69
622.743	93.69
622.95	88.69
623.157	87.69
623.364	96.69
623.571	91.69
623.778	82.69
623.985	88.69
624.192	83.69
624.399	85.69
624.606	85.69
624.812	76.69
625.019	81.69
625.226	86.69
625.433	97.69
625.639	88.69
625.846	88.69
626.053	69.69
626.259	88.69
626.466	81.69
626.673	70.69
626.879	81.69
627.086	103.69
627.293	91.69
627.499	85.69
627.706	80.69
627.912	90.69
628.119	94.69
628.325	88.69
628.532	91.69
628.738	100.69
628.945	88.69
629.151	71.69
629.357	78.69
629.564	87.69
629.77	94.69
629.976	90.69
630.183	83.69
630.389	77.69
630.595	87.69
630.802	89.69
631.008	89.69
631.214	90.69
631.42	90.69
631.627	95.69
631.833	75.69
632.039	80.69
632.245	95.69
632.451	86.69
632.657	83.69
632.863	81.69
633.069	95.69
633.275	88.69
633.481	88.69
633.688	83.69
633.893	82.69
634.099	76.69
634.305	75.69
634.511	90.69
634.717	86.69
634.923	92.69
635.129	86.69
635.335	78.69
635.541	83.69
635.747	80.69
635.952	82.69
636.158	87.69
636.364	91.69
636.57	91.69
636.775	91.69
636.981	86.69
637.187	72.69
637.392	79.69
637.598	83.69
637.804	84.69
638.009	93.69
638.215	101.69
638.421	85.69
638.626	88.69
638.832	89.69
639.037	75.69
639.243	88.69
639.448	75.69
639.654	87.69
639.859	83.69
640.065	65.69
640.27	92.69
640.475	73.69
640.681	83.69
640.886	80.69
641.091	85.69
641.297	88.69
641.502	100.69
641.707	86.69
641.913	82.69
642.118	90.69
642.323	86.69
642.528	95.69
642.733	98.69
642.939	96.69
643.144	74.69
643.349	81.69
643.554	81.69
643.759	81.69
643.964	77.69
644.169	100.69
644.374	92.69
644.579	96.69
644.784	83.69
644.989	80.69
645.194	88.69
645.399	93.69
645.604	77.69
645.809	82.69
646.014	87.69
646.219	89.69
646.423	84.69
646.628	102.69
646.833	81.69
647.038	86.69
647.243	84.69
647.447	79.69
647.652	83.69
647.857	80.69
648.062	95.69
648.266	84.69
648.471	103.69
648.676	87.69
648.88	73.69
649.085	88.69
649.289	97.69
649.494	113.69
649.698	154.69
649.903	120.69
650.107	89.69
650.312	88.69
650.516	84.69
650.721	91.69
650.925	103.69
651.13	85.69
651.334	91.69
651.539	80.69
651.743	79.69
651.947	87.69
652.152	90.69
652.356	70.69
652.56	100.69
652.764	84.69
652.969	90.69
653.173	75.69
653.377	74.69
653.581	95.69
653.785	93.69
653.99	82.69
654.194	86.69
654.398	80.69
654.602	84.69
654.806	96.69
655.01	116.69
655.214	92.69
655.418	90.69
655.622	74.69
655.826	80.69
656.03	92.69
656.234	104.69
656.438	94.69
656.642	103.69
656.846	84.69
657.049	84.69
657.253	88.69
657.457	85.69
657.661	89.69
657.865	74.69
658.068	75.69
658.272	86.69
658.476	73.69
658.68	84.69
658.883	76.69
659.087	92.69
659.291	92.69
659.494	75.69
659.698	87.69
659.901	83.69
660.105	89.69
660.309	86.69
660.512	91.69
660.716	83.69
660.919	77.69
661.123	96.69
661.326	78.69
661.53	87.69
661.733	80.69
661.936	75.69
662.14	77.69
662.343	84.69
662.546	84.69
662.75	77.69
662.953	89.69
663.156	87.69
663.36	86.69
663.563	88.69
663.766	86.69
663.969	78.69
664.173	83.69
664.376	79.69
664.579	88.69
664.782	82.69
664.985	77.69
665.188	76.69
665.391	79.69
665.594	69.69
665.797	89.69
666	82.69
666.203	87.69
666.406	71.69
666.609	81.69
666.812	78.69
667.015	84.69
667.218	91.69
667.421	91.69
667.624	95.69
667.827	74.69
668.03	81.69
668.232	74.69
668.435	85.69
668.638	87.69
668.841	71.69
669.043	90.69
669.246	80.69
669.449	84.69
669.651	89.69
669.854	76.69
670.057	75.69
670.259	88.69
670.462	86.69
670.665	80.69
670.867	90.69
671.07	80.69
671.272	85.69
671.475	79.69
671.677	90.69
671.88	67.69
672.082	79.69
672.284	88.69
672.487	89.69
672.689	80.69
672.892	89.69
