Data from Circ_2022_H10_HRD10591_00093.txt Node
Date: Wed Jan 03 09:53:56 EST 2024
User: Yrep
Spectrometer: HR+D1059
Trigger mode: 1
Integration Time (sec): 1.000000E-1
Scans to average: 1
Electric dark correction enabled: true
Nonlinearity correction enabled: false
Boxcar width: 0
XAxis mode: Wavelengths
Number of Pixels in Spectrum: 2048
>>>>>Begin Spectral Data<<<<<
223.165	-26.12
223.4	-26.12
223.635	-26.12
223.869	-29.12
224.104	-30.12
224.338	-15.12
224.573	-13.12
224.808	-10.12
225.042	-0.12
225.277	-6.12
225.511	0.88
225.746	10.88
225.98	18.88
226.215	10.88
226.449	10.88
226.683	31.88
226.918	23.88
227.152	21.88
227.387	24.88
227.621	42.88
227.856	37.88
228.09	52.88
228.324	50.88
228.559	59.88
228.793	54.88
229.027	54.88
229.262	64.88
229.496	68.88
229.73	87.88
229.964	84.88
230.199	70.88
230.433	78.88
230.667	82.88
230.901	79.88
231.136	78.88
231.37	82.88
231.604	73.88
231.838	69.88
232.072	80.88
232.306	82.88
232.541	72.88
232.775	88.88
233.009	61.88
233.243	52.88
233.477	86.88
233.711	77.88
233.945	65.88
234.179	81.88
234.413	73.88
234.647	75.88
234.881	69.88
235.115	77.88
235.349	75.88
235.583	85.88
235.817	83.88
236.051	73.88
236.285	70.88
236.519	75.88
236.753	77.88
236.987	72.88
237.221	94.88
237.455	92.88
237.689	74.88
237.922	70.88
238.156	83.88
238.39	80.88
238.624	78.88
238.858	93.88
239.091	61.88
239.325	87.88
239.559	88.88
239.793	73.88
240.027	77.88
240.26	80.88
240.494	69.88
240.728	52.88
240.961	72.88
241.195	81.88
241.429	76.88
241.662	88.88
241.896	77.88
242.13	66.88
242.363	70.88
242.597	80.88
242.83	62.88
243.064	78.88
243.298	84.88
243.531	72.88
243.765	69.88
243.998	83.88
244.232	69.88
244.465	89.88
244.699	87.88
244.932	76.88
245.166	90.88
245.399	94.88
245.633	86.88
245.866	82.88
246.099	81.88
246.333	75.88
246.566	77.88
246.8	75.88
247.033	74.88
247.266	72.88
247.5	79.88
247.733	69.88
247.966	73.88
248.2	79.88
248.433	94.88
248.666	80.88
248.899	82.88
249.133	88.88
249.366	104.88
249.599	97.88
249.832	71.88
250.066	88.88
250.299	81.88
250.532	81.88
250.765	86.88
250.998	84.88
251.231	82.88
251.465	79.88
251.698	81.88
251.931	85.88
252.164	71.88
252.397	64.88
252.63	79.88
252.863	74.88
253.096	78.88
253.329	69.88
253.562	75.88
253.795	82.88
254.028	79.88
254.261	79.88
254.494	77.88
254.727	94.88
254.96	84.88
255.193	83.88
255.426	68.88
255.659	75.88
255.892	86.88
256.124	83.88
256.357	78.88
256.59	64.88
256.823	88.88
257.056	79.88
257.289	63.88
257.521	80.88
257.754	77.88
257.987	80.88
258.22	99.88
258.452	84.88
258.685	73.88
258.918	70.88
259.151	76.88
259.383	87.88
259.616	79.88
259.849	69.88
260.081	87.88
260.314	85.88
260.547	78.88
260.779	88.88
261.012	78.88
261.244	92.88
261.477	87.88
261.71	100.88
261.942	133.88
262.175	131.88
262.407	108.88
262.64	97.88
262.872	87.88
263.105	85.88
263.337	89.88
263.57	77.88
263.802	71.88
264.035	82.88
264.267	80.88
264.499	96.88
264.732	87.88
264.964	92.88
265.197	77.88
265.429	83.88
265.661	83.88
265.894	66.88
266.126	78.88
266.358	81.88
266.591	70.88
266.823	68.88
267.055	81.88
267.287	81.88
267.52	96.88
267.752	95.88
267.984	92.88
268.216	83.88
268.448	85.88
268.681	85.88
268.913	80.88
269.145	84.88
269.377	70.88
269.609	74.88
269.841	95.88
270.073	70.88
270.306	71.88
270.538	86.88
270.77	81.88
271.002	88.88
271.234	84.88
271.466	92.88
271.698	101.88
271.93	79.88
272.162	90.88
272.394	82.88
272.626	89.88
272.858	81.88
273.09	70.88
273.322	81.88
273.553	85.88
273.785	75.88
274.017	80.88
274.249	82.88
274.481	80.88
274.713	77.88
274.945	96.88
275.176	79.88
275.408	87.88
275.64	93.88
275.872	88.88
276.104	77.88
276.335	88.88
276.567	104.88
276.799	120.88
277.031	124.88
277.262	105.88
277.494	103.88
277.726	72.88
277.957	82.88
278.189	94.88
278.421	87.88
278.652	83.88
278.884	78.88
279.115	94.88
279.347	72.88
279.579	76.88
279.81	89.88
280.042	96.88
280.273	114.88
280.505	100.88
280.736	86.88
280.968	96.88
281.199	78.88
281.431	87.88
281.662	81.88
281.894	94.88
282.125	110.88
282.356	130.88
282.588	169.88
282.819	136.88
283.051	86.88
283.282	79.88
283.513	78.88
283.745	74.88
283.976	75.88
284.207	81.88
284.439	84.88
284.67	93.88
284.901	93.88
285.132	99.88
285.364	75.88
285.595	89.88
285.826	74.88
286.057	97.88
286.288	87.88
286.52	70.88
286.751	74.88
286.982	75.88
287.213	85.88
287.444	80.88
287.675	88.88
287.906	95.88
288.138	94.88
288.369	101.88
288.6	94.88
288.831	87.88
289.062	87.88
289.293	81.88
289.524	71.88
289.755	86.88
289.986	88.88
290.217	81.88
290.448	81.88
290.679	79.88
290.91	95.88
291.141	90.88
291.371	76.88
291.602	81.88
291.833	95.88
292.064	88.88
292.295	82.88
292.526	89.88
292.757	85.88
292.987	88.88
293.218	74.88
293.449	87.88
293.68	84.88
293.91	77.88
294.141	88.88
294.372	85.88
294.603	87.88
294.833	89.88
295.064	85.88
295.295	85.88
295.525	85.88
295.756	108.88
295.987	136.88
296.217	175.88
296.448	144.88
296.679	88.88
296.909	82.88
297.14	93.88
297.37	82.88
297.601	81.88
297.831	95.88
298.062	93.88
298.292	90.88
298.523	81.88
298.753	85.88
298.984	89.88
299.214	82.88
299.445	86.88
299.675	101.88
299.905	97.88
300.136	81.88
300.366	99.88
300.597	90.88
300.827	96.88
301.057	114.88
301.288	112.88
301.518	95.88
301.748	77.88
301.979	117.88
302.209	106.88
302.439	85.88
302.669	93.88
302.9	93.88
303.13	88.88
303.36	96.88
303.59	101.88
303.82	111.88
304.051	92.88
304.281	89.88
304.511	86.88
304.741	88.88
304.971	94.88
305.201	90.88
305.431	96.88
305.661	99.88
305.891	87.88
306.121	104.88
306.352	120.88
306.582	103.88
306.812	108.88
307.042	85.88
307.272	89.88
307.502	114.88
307.731	104.88
307.961	104.88
308.191	102.88
308.421	93.88
308.651	93.88
308.881	85.88
309.111	94.88
309.341	93.88
309.571	105.88
309.8	97.88
310.03	100.88
310.26	106.88
310.49	106.88
310.72	105.88
310.949	105.88
311.179	101.88
311.409	99.88
311.639	102.88
311.868	94.88
312.098	89.88
312.328	92.88
312.557	113.88
312.787	112.88
313.017	117.88
313.246	109.88
313.476	97.88
313.706	101.88
313.935	93.88
314.165	113.88
314.394	105.88
314.624	106.88
314.853	106.88
315.083	88.88
315.312	104.88
315.542	96.88
315.771	92.88
316.001	92.88
316.23	94.88
316.46	87.88
316.689	86.88
316.919	105.88
317.148	81.88
317.377	106.88
317.607	93.88
317.836	111.88
318.065	91.88
318.295	86.88
318.524	99.88
318.753	90.88
318.983	98.88
319.212	106.88
319.441	111.88
319.67	113.88
319.9	113.88
320.129	85.88
320.358	85.88
320.587	104.88
320.816	101.88
321.046	108.88
321.275	121.88
321.504	85.88
321.733	103.88
321.962	96.88
322.191	105.88
322.42	118.88
322.649	111.88
322.878	129.88
323.108	133.88
323.337	136.88
323.566	151.88
323.795	196.88
324.024	258.88
324.253	526.88
324.482	1138.88
324.71	2340.88
324.939	3174.88
325.168	1124.88
325.397	317.88
325.626	183.88
325.855	145.88
326.084	139.88
326.313	150.88
326.542	174.88
326.77	278.88
326.999	588.88
327.228	1204.88
327.457	2256.88
327.686	1844.88
327.914	517.88
328.143	288.88
328.372	271.88
328.6	198.88
328.829	133.88
329.058	179.88
329.287	181.88
329.515	137.88
329.744	142.88
329.972	169.88
330.201	280.88
330.43	389.88
330.658	263.88
330.887	225.88
331.115	174.88
331.344	116.88
331.572	113.88
331.801	122.88
332.03	122.88
332.258	112.88
332.486	101.88
332.715	85.88
332.943	106.88
333.172	99.88
333.4	108.88
333.629	136.88
333.857	145.88
334.085	175.88
334.314	259.88
334.542	458.88
334.771	432.88
334.999	172.88
335.227	115.88
335.455	90.88
335.684	95.88
335.912	93.88
336.14	89.88
336.369	109.88
336.597	116.88
336.825	100.88
337.053	88.88
337.281	82.88
337.51	94.88
337.738	93.88
337.966	112.88
338.194	95.88
338.422	88.88
338.65	90.88
338.878	92.88
339.106	86.88
339.334	108.88
339.562	87.88
339.79	86.88
340.018	94.88
340.246	75.88
340.474	98.88
340.702	97.88
340.93	91.88
341.158	92.88
341.386	102.88
341.614	109.88
341.842	99.88
342.07	97.88
342.298	85.88
342.526	91.88
342.754	84.88
342.981	81.88
343.209	77.88
343.437	108.88
343.665	82.88
343.893	99.88
344.12	95.88
344.348	80.88
344.576	87.88
344.804	90.88
345.031	99.88
345.259	114.88
345.487	99.88
345.714	95.88
345.942	108.88
346.17	82.88
346.397	88.88
346.625	93.88
346.853	89.88
347.08	100.88
347.308	114.88
347.535	101.88
347.763	101.88
347.99	94.88
348.218	111.88
348.445	109.88
348.673	108.88
348.9	114.88
349.128	95.88
349.355	80.88
349.583	101.88
349.81	105.88
350.037	112.88
350.265	98.88
350.492	102.88
350.72	106.88
350.947	113.88
351.174	114.88
351.402	120.88
351.629	102.88
351.856	89.88
352.083	121.88
352.311	112.88
352.538	120.88
352.765	104.88
352.992	127.88
353.22	131.88
353.447	112.88
353.674	97.88
353.901	97.88
354.128	89.88
354.355	105.88
354.583	81.88
354.81	92.88
355.037	88.88
355.264	93.88
355.491	98.88
355.718	90.88
355.945	98.88
356.172	91.88
356.399	83.88
356.626	81.88
356.853	82.88
357.08	98.88
357.307	102.88
357.534	97.88
357.761	85.88
357.988	84.88
358.215	87.88
358.441	87.88
358.668	80.88
358.895	82.88
359.122	91.88
359.349	74.88
359.576	105.88
359.802	109.88
360.029	124.88
360.256	125.88
360.483	111.88
360.709	76.88
360.936	83.88
361.163	97.88
361.39	103.88
361.616	97.88
361.843	88.88
362.07	100.88
362.296	104.88
362.523	94.88
362.749	98.88
362.976	86.88
363.203	107.88
363.429	103.88
363.656	94.88
363.882	88.88
364.109	86.88
364.335	89.88
364.562	108.88
364.788	94.88
365.015	86.88
365.241	104.88
365.468	123.88
365.694	117.88
365.92	98.88
366.147	89.88
366.373	87.88
366.599	101.88
366.826	85.88
367.052	96.88
367.278	93.88
367.505	82.88
367.731	95.88
367.957	90.88
368.184	107.88
368.41	117.88
368.636	127.88
368.862	136.88
369.089	121.88
369.315	80.88
369.541	97.88
369.767	94.88
369.993	97.88
370.219	104.88
370.445	83.88
370.672	83.88
370.898	89.88
371.124	91.88
371.35	96.88
371.576	103.88
371.802	98.88
372.028	86.88
372.254	77.88
372.48	81.88
372.706	80.88
372.932	87.88
373.158	93.88
373.384	79.88
373.61	78.88
373.835	81.88
374.061	86.88
374.287	87.88
374.513	86.88
374.739	90.88
374.965	97.88
375.191	94.88
375.416	85.88
375.642	94.88
375.868	88.88
376.094	80.88
376.319	67.88
376.545	100.88
376.771	86.88
376.997	95.88
377.222	88.88
377.448	78.88
377.674	89.88
377.899	85.88
378.125	83.88
378.35	84.88
378.576	90.88
378.802	93.88
379.027	79.88
379.253	88.88
379.478	95.88
379.704	80.88
379.929	95.88
380.155	97.88
380.38	93.88
380.606	101.88
380.831	87.88
381.057	104.88
381.282	85.88
381.507	85.88
381.733	100.88
381.958	90.88
382.184	90.88
382.409	93.88
382.634	103.88
382.86	106.88
383.085	99.88
383.31	99.88
383.535	93.88
383.761	89.88
383.986	94.88
384.211	89.88
384.436	87.88
384.662	93.88
384.887	89.88
385.112	89.88
385.337	112.88
385.562	97.88
385.787	86.88
386.013	104.88
386.238	108.88
386.463	103.88
386.688	101.88
386.913	102.88
387.138	86.88
387.363	109.88
387.588	100.88
387.813	101.88
388.038	90.88
388.263	106.88
388.488	82.88
388.713	84.88
388.938	101.88
389.163	91.88
389.387	80.88
389.612	88.88
389.837	79.88
390.062	86.88
390.287	93.88
390.512	93.88
390.736	92.88
390.961	78.88
391.186	84.88
391.411	98.88
391.636	87.88
391.86	77.88
392.085	90.88
392.31	101.88
392.534	87.88
392.759	82.88
392.984	81.88
393.208	89.88
393.433	106.88
393.658	71.88
393.882	84.88
394.107	94.88
394.331	94.88
394.556	81.88
394.78	84.88
395.005	84.88
395.229	83.88
395.454	98.88
395.678	84.88
395.903	89.88
396.127	101.88
396.352	93.88
396.576	91.88
396.801	95.88
397.025	72.88
397.249	81.88
397.474	85.88
397.698	90.88
397.922	88.88
398.147	79.88
398.371	86.88
398.595	93.88
398.82	83.88
399.044	89.88
399.268	90.88
399.492	82.88
399.717	87.88
399.941	81.88
400.165	86.88
400.389	87.88
400.613	99.88
400.837	82.88
401.062	85.88
401.286	102.88
401.51	98.88
401.734	94.88
401.958	108.88
402.182	135.88
402.406	208.88
402.63	149.88
402.854	102.88
403.078	80.88
403.302	87.88
403.526	79.88
403.75	82.88
403.974	100.88
404.198	89.88
404.422	92.88
404.645	88.88
404.869	88.88
405.093	104.88
405.317	113.88
405.541	126.88
405.765	112.88
405.988	148.88
406.212	227.88
406.436	332.88
406.66	211.88
406.883	118.88
407.107	96.88
407.331	107.88
407.555	122.88
407.778	110.88
408.002	101.88
408.226	89.88
408.449	78.88
408.673	80.88
408.896	92.88
409.12	99.88
409.344	78.88
409.567	75.88
409.791	89.88
410.014	102.88
410.238	83.88
410.461	83.88
410.685	78.88
410.908	92.88
411.132	91.88
411.355	94.88
411.578	88.88
411.802	101.88
412.025	84.88
412.249	97.88
412.472	106.88
412.695	112.88
412.919	94.88
413.142	97.88
413.365	85.88
413.589	80.88
413.812	91.88
414.035	92.88
414.258	83.88
414.482	80.88
414.705	84.88
414.928	89.88
415.151	91.88
415.374	101.88
415.597	83.88
415.821	92.88
416.044	75.88
416.267	93.88
416.49	81.88
416.713	78.88
416.936	85.88
417.159	92.88
417.382	90.88
417.605	92.88
417.828	104.88
418.051	77.88
418.274	88.88
418.497	94.88
418.72	99.88
418.943	87.88
419.166	82.88
419.389	91.88
419.611	67.88
419.834	90.88
420.057	87.88
420.28	77.88
420.503	93.88
420.726	83.88
420.948	89.88
421.171	94.88
421.394	104.88
421.617	77.88
421.839	76.88
422.062	96.88
422.285	88.88
422.507	114.88
422.73	118.88
422.953	93.88
423.175	87.88
423.398	91.88
423.621	83.88
423.843	87.88
424.066	84.88
424.288	75.88
424.511	96.88
424.733	104.88
424.956	119.88
425.178	103.88
425.401	103.88
425.623	127.88
425.846	85.88
426.068	91.88
426.291	100.88
426.513	73.88
426.735	82.88
426.958	103.88
427.18	125.88
427.402	176.88
427.625	248.88
427.847	194.88
428.069	145.88
428.292	100.88
428.514	84.88
428.736	77.88
428.958	96.88
429.181	96.88
429.403	83.88
429.625	93.88
429.847	94.88
430.069	117.88
430.292	99.88
430.514	85.88
430.736	70.88
430.958	89.88
431.18	81.88
431.402	82.88
431.624	84.88
431.846	88.88
432.068	81.88
432.29	87.88
432.512	79.88
432.734	90.88
432.956	91.88
433.178	109.88
433.4	92.88
433.622	86.88
433.844	90.88
434.066	85.88
434.287	83.88
434.509	97.88
434.731	86.88
434.953	79.88
435.175	85.88
435.397	100.88
435.618	104.88
435.84	115.88
436.062	161.88
436.284	125.88
436.505	107.88
436.727	101.88
436.949	92.88
437.17	88.88
437.392	77.88
437.614	88.88
437.835	128.88
438.057	159.88
438.278	129.88
438.5	101.88
438.721	145.88
438.943	123.88
439.165	102.88
439.386	93.88
439.608	100.88
439.829	129.88
440.05	143.88
440.272	186.88
440.493	94.88
440.715	79.88
440.936	89.88
441.158	90.88
441.379	92.88
441.6	89.88
441.822	86.88
442.043	97.88
442.264	123.88
442.486	106.88
442.707	111.88
442.928	124.88
443.149	175.88
443.371	177.88
443.592	136.88
443.813	121.88
444.034	108.88
444.255	91.88
444.476	97.88
444.698	81.88
444.919	96.88
445.14	127.88
445.361	127.88
445.582	158.88
445.803	180.88
446.024	172.88
446.245	160.88
446.466	140.88
446.687	93.88
446.908	93.88
447.129	84.88
447.35	98.88
447.571	96.88
447.792	83.88
448.013	103.88
448.234	116.88
448.455	100.88
448.675	135.88
448.896	142.88
449.117	104.88
449.338	118.88
449.559	146.88
449.779	153.88
450	97.88
450.221	87.88
450.442	84.88
450.662	112.88
450.883	123.88
451.104	144.88
451.324	117.88
451.545	88.88
451.766	87.88
451.986	74.88
452.207	88.88
452.428	91.88
452.648	112.88
452.869	129.88
453.089	134.88
453.31	139.88
453.53	97.88
453.751	84.88
453.971	112.88
454.192	142.88
454.412	118.88
454.633	99.88
454.853	68.88
455.073	85.88
455.294	89.88
455.514	116.88
455.734	94.88
455.955	81.88
456.175	92.88
456.395	78.88
456.616	88.88
456.836	92.88
457.056	73.88
457.276	95.88
457.497	87.88
457.717	92.88
457.937	80.88
458.157	88.88
458.377	100.88
458.598	108.88
458.818	208.88
459.038	250.88
459.258	157.88
459.478	97.88
459.698	90.88
459.918	92.88
460.138	83.88
460.358	80.88
460.578	93.88
460.798	98.88
461.018	90.88
461.238	65.88
461.458	91.88
461.678	78.88
461.898	79.88
462.118	85.88
462.338	82.88
462.558	81.88
462.777	83.88
462.997	91.88
463.217	97.88
463.437	94.88
463.657	88.88
463.876	90.88
464.096	87.88
464.316	102.88
464.536	101.88
464.755	109.88
464.975	137.88
465.195	250.88
465.414	238.88
465.634	95.88
465.854	89.88
466.073	82.88
466.293	88.88
466.512	66.88
466.732	78.88
466.951	74.88
467.171	96.88
467.391	100.88
467.61	118.88
467.829	111.88
468.049	174.88
468.268	223.88
468.488	110.88
468.707	95.88
468.927	93.88
469.146	91.88
469.365	89.88
469.585	104.88
469.804	97.88
470.023	102.88
470.243	103.88
470.462	113.88
470.681	136.88
470.901	86.88
471.12	94.88
471.339	90.88
471.558	92.88
471.777	99.88
471.997	122.88
472.216	290.88
472.435	520.88
472.654	188.88
472.873	104.88
473.092	99.88
473.311	88.88
473.53	87.88
473.749	88.88
473.968	109.88
474.187	108.88
474.406	93.88
474.625	77.88
474.844	74.88
475.063	94.88
475.282	92.88
475.501	96.88
475.72	84.88
475.939	81.88
476.158	84.88
476.377	88.88
476.596	84.88
476.814	108.88
477.033	97.88
477.252	97.88
477.471	91.88
477.69	91.88
477.908	88.88
478.127	93.88
478.346	93.88
478.564	97.88
478.783	99.88
479.002	89.88
479.22	106.88
479.439	124.88
479.658	128.88
479.876	103.88
480.095	109.88
480.313	103.88
480.532	114.88
480.751	107.88
480.969	287.88
481.188	944.88
481.406	630.88
481.624	163.88
481.843	101.88
482.061	101.88
482.28	86.88
482.498	90.88
482.717	92.88
482.935	83.88
483.153	89.88
483.372	87.88
483.59	81.88
483.808	83.88
484.027	73.88
484.245	87.88
484.463	101.88
484.681	107.88
484.9	97.88
485.118	94.88
485.336	104.88
485.554	97.88
485.772	96.88
485.99	97.88
486.209	112.88
486.427	92.88
486.645	125.88
486.863	118.88
487.081	108.88
487.299	101.88
487.517	98.88
487.735	94.88
487.953	95.88
488.171	82.88
488.389	101.88
488.607	112.88
488.825	89.88
489.043	91.88
489.261	90.88
489.479	91.88
489.696	84.88
489.914	93.88
490.132	76.88
490.35	94.88
490.568	95.88
490.786	89.88
491.003	96.88
491.221	99.88
491.439	93.88
491.657	99.88
491.874	93.88
492.092	92.88
492.31	95.88
492.527	87.88
492.745	77.88
492.963	80.88
493.18	85.88
493.398	102.88
493.615	87.88
493.833	99.88
494.05	90.88
494.268	90.88
494.485	85.88
494.703	82.88
494.92	66.88
495.138	95.88
495.355	92.88
495.573	98.88
495.79	74.88
496.008	86.88
496.225	94.88
496.442	93.88
496.66	112.88
496.877	86.88
497.094	94.88
497.312	83.88
497.529	100.88
497.746	105.88
497.963	86.88
498.181	97.88
498.398	78.88
498.615	128.88
498.832	119.88
499.049	83.88
499.267	87.88
499.484	84.88
499.701	92.88
499.918	93.88
500.135	89.88
500.352	92.88
500.569	69.88
500.786	89.88
501.003	93.88
501.22	86.88
501.437	85.88
501.654	108.88
501.871	117.88
502.088	89.88
502.305	88.88
502.522	110.88
502.739	93.88
502.956	82.88
503.172	95.88
503.389	103.88
503.606	125.88
503.823	107.88
504.04	91.88
504.256	80.88
504.473	82.88
504.69	85.88
504.907	78.88
505.123	84.88
505.34	90.88
505.557	97.88
505.773	82.88
505.99	80.88
506.207	76.88
506.423	95.88
506.64	69.88
506.856	91.88
507.073	96.88
507.289	92.88
507.506	93.88
507.722	135.88
507.939	137.88
508.155	110.88
508.372	89.88
508.588	89.88
508.805	100.88
509.021	103.88
509.238	114.88
509.454	109.88
509.67	97.88
509.887	126.88
510.103	167.88
510.319	274.88
510.536	1096.88
510.752	3886.88
510.968	1049.88
511.184	196.88
511.401	132.88
511.617	97.88
511.833	100.88
512.049	94.88
512.265	97.88
512.481	102.88
512.698	96.88
512.914	102.88
513.13	97.88
513.346	108.88
513.562	99.88
513.778	121.88
513.994	117.88
514.21	110.88
514.426	159.88
514.642	180.88
514.858	156.88
515.074	241.88
515.29	780.88
515.506	2806.88
515.721	1014.88
515.937	227.88
516.153	136.88
516.369	115.88
516.585	96.88
516.801	111.88
517.016	100.88
517.232	98.88
517.448	99.88
517.664	109.88
517.879	102.88
518.095	110.88
518.311	112.88
518.527	105.88
518.742	112.88
518.958	105.88
519.173	93.88
519.389	95.88
519.605	96.88
519.82	111.88
520.036	112.88
520.251	153.88
520.467	125.88
520.682	120.88
520.898	104.88
521.113	142.88
521.329	190.88
521.544	286.88
521.76	995.88
521.975	4640.88
522.19	2864.88
522.406	560.88
522.621	165.88
522.836	116.88
523.052	112.88
523.267	97.88
523.482	100.88
523.698	98.88
523.913	149.88
524.128	122.88
524.343	90.88
524.559	108.88
524.774	98.88
524.989	103.88
525.204	123.88
525.419	105.88
525.634	98.88
525.849	94.88
526.064	93.88
526.28	81.88
526.495	94.88
526.71	86.88
526.925	87.88
527.14	82.88
527.355	83.88
527.57	81.88
527.785	73.88
527.999	93.88
528.214	91.88
528.429	102.88
528.644	92.88
528.859	98.88
529.074	116.88
529.289	158.88
529.503	284.88
529.718	134.88
529.933	101.88
530.148	103.88
530.363	100.88
530.577	78.88
530.792	89.88
531.007	92.88
531.221	95.88
531.436	100.88
531.651	93.88
531.865	79.88
532.08	76.88
532.295	90.88
532.509	83.88
532.724	92.88
532.938	86.88
533.153	98.88
533.367	79.88
533.582	85.88
533.796	97.88
534.011	88.88
534.225	93.88
534.44	100.88
534.654	95.88
534.868	90.88
535.083	95.88
535.297	92.88
535.511	96.88
535.726	107.88
535.94	102.88
536.154	102.88
536.369	87.88
536.583	105.88
536.797	93.88
537.011	94.88
537.225	78.88
537.44	74.88
537.654	90.88
537.868	86.88
538.082	84.88
538.296	82.88
538.51	85.88
538.724	91.88
538.938	90.88
539.153	100.88
539.367	123.88
539.581	89.88
539.795	89.88
540.009	86.88
540.222	92.88
540.436	77.88
540.65	85.88
540.864	90.88
541.078	94.88
541.292	108.88
541.506	85.88
541.72	88.88
541.934	86.88
542.147	103.88
542.361	89.88
542.575	95.88
542.789	86.88
543.002	87.88
543.216	97.88
543.43	104.88
543.644	95.88
543.857	94.88
544.071	87.88
544.285	97.88
544.498	91.88
544.712	94.88
544.925	88.88
545.139	92.88
545.352	87.88
545.566	80.88
545.779	98.88
545.993	68.88
546.206	83.88
546.42	92.88
546.633	92.88
546.847	100.88
547.06	74.88
547.274	81.88
547.487	84.88
547.7	96.88
547.914	82.88
548.127	100.88
548.34	83.88
548.554	87.88
548.767	91.88
548.98	92.88
549.193	83.88
549.407	73.88
549.62	86.88
549.833	83.88
550.046	91.88
550.259	104.88
550.473	87.88
550.686	94.88
550.899	104.88
551.112	94.88
551.325	103.88
551.538	94.88
551.751	89.88
551.964	89.88
552.177	82.88
552.39	72.88
552.603	78.88
552.816	96.88
553.029	101.88
553.242	85.88
553.455	98.88
553.667	114.88
553.88	93.88
554.093	90.88
554.306	80.88
554.519	76.88
554.732	80.88
554.944	105.88
555.157	88.88
555.37	78.88
555.583	84.88
555.795	105.88
556.008	99.88
556.221	99.88
556.433	101.88
556.646	94.88
556.859	92.88
557.071	80.88
557.284	84.88
557.496	81.88
557.709	85.88
557.921	88.88
558.134	79.88
558.346	73.88
558.559	87.88
558.771	78.88
558.984	78.88
559.196	79.88
559.409	86.88
559.621	93.88
559.833	87.88
560.046	87.88
560.258	97.88
560.47	96.88
560.683	86.88
560.895	90.88
561.107	79.88
561.32	86.88
561.532	86.88
561.744	79.88
561.956	79.88
562.168	84.88
562.381	95.88
562.593	92.88
562.805	93.88
563.017	72.88
563.229	100.88
563.441	80.88
563.653	77.88
563.865	70.88
564.077	87.88
564.289	86.88
564.501	90.88
564.713	103.88
564.925	98.88
565.137	127.88
565.349	89.88
565.561	96.88
565.773	95.88
565.985	86.88
566.197	90.88
566.408	78.88
566.62	80.88
566.832	73.88
567.044	85.88
567.255	72.88
567.467	78.88
567.679	83.88
567.891	96.88
568.102	84.88
568.314	77.88
568.526	83.88
568.737	99.88
568.949	80.88
569.161	78.88
569.372	95.88
569.584	87.88
569.795	93.88
570.007	132.88
570.218	339.88
570.43	166.88
570.641	87.88
570.853	91.88
571.064	88.88
571.276	86.88
571.487	73.88
571.698	76.88
571.91	86.88
572.121	80.88
572.333	77.88
572.544	85.88
572.755	88.88
572.966	90.88
573.178	90.88
573.389	97.88
573.6	84.88
573.811	90.88
574.023	92.88
574.234	85.88
574.445	88.88
574.656	90.88
574.867	74.88
575.078	83.88
575.289	90.88
575.501	73.88
575.712	90.88
575.923	102.88
576.134	96.88
576.345	85.88
576.556	86.88
576.767	105.88
576.978	91.88
577.188	98.88
577.399	98.88
577.61	86.88
577.821	108.88
578.032	130.88
578.243	341.88
578.454	1195.88
578.665	300.88
578.875	113.88
579.086	100.88
579.297	98.88
579.508	74.88
579.718	90.88
579.929	98.88
580.14	71.88
580.35	84.88
580.561	89.88
580.772	99.88
580.982	104.88
581.193	86.88
581.403	89.88
581.614	85.88
581.825	98.88
582.035	80.88
582.246	72.88
582.456	96.88
582.667	93.88
582.877	94.88
583.087	99.88
583.298	83.88
583.508	79.88
583.719	89.88
583.929	94.88
584.139	81.88
584.35	81.88
584.56	81.88
584.77	84.88
584.981	77.88
585.191	96.88
585.401	87.88
585.611	76.88
585.821	78.88
586.032	91.88
586.242	87.88
586.452	80.88
586.662	84.88
586.872	80.88
587.082	85.88
587.292	90.88
587.502	86.88
587.713	88.88
587.923	76.88
588.133	82.88
588.343	76.88
588.553	81.88
588.762	94.88
588.972	85.88
589.182	112.88
589.392	93.88
589.602	88.88
589.812	102.88
590.022	93.88
590.232	66.88
590.441	89.88
590.651	97.88
590.861	91.88
591.071	84.88
591.281	90.88
591.49	74.88
591.7	83.88
591.91	90.88
592.119	94.88
592.329	98.88
592.539	111.88
592.748	83.88
592.958	98.88
593.167	92.88
593.377	80.88
593.587	83.88
593.796	89.88
594.006	84.88
594.215	91.88
594.424	82.88
594.634	86.88
594.843	94.88
595.053	87.88
595.262	85.88
595.472	87.88
595.681	81.88
595.89	76.88
596.1	86.88
596.309	88.88
596.518	86.88
596.727	96.88
596.937	76.88
597.146	73.88
597.355	85.88
597.564	89.88
597.774	94.88
597.983	86.88
598.192	90.88
598.401	71.88
598.61	90.88
598.819	78.88
599.028	87.88
599.237	102.88
599.446	85.88
599.655	86.88
599.864	71.88
600.073	82.88
600.282	86.88
600.491	79.88
600.7	81.88
600.909	92.88
601.118	98.88
601.327	79.88
601.536	98.88
601.745	93.88
601.953	83.88
602.162	94.88
602.371	91.88
602.58	83.88
602.789	98.88
602.997	92.88
603.206	81.88
603.415	88.88
603.623	92.88
603.832	94.88
604.041	74.88
604.249	81.88
604.458	70.88
604.666	77.88
604.875	87.88
605.084	89.88
605.292	88.88
605.501	72.88
605.709	91.88
605.918	89.88
606.126	84.88
606.334	74.88
606.543	85.88
606.751	87.88
606.96	75.88
607.168	88.88
607.376	83.88
607.585	82.88
607.793	80.88
608.001	77.88
608.21	87.88
608.418	82.88
608.626	77.88
608.834	86.88
609.043	86.88
609.251	88.88
609.459	81.88
609.667	84.88
609.875	92.88
610.083	75.88
610.291	85.88
610.499	83.88
610.707	85.88
610.916	88.88
611.124	90.88
611.332	72.88
611.54	75.88
611.748	76.88
611.955	88.88
612.163	75.88
612.371	75.88
612.579	87.88
612.787	85.88
612.995	89.88
613.203	87.88
613.411	78.88
613.618	80.88
613.826	89.88
614.034	94.88
614.242	93.88
614.449	86.88
614.657	88.88
614.865	81.88
615.072	87.88
615.28	85.88
615.488	81.88
615.695	81.88
615.903	91.88
616.111	93.88
616.318	88.88
616.526	87.88
616.733	97.88
616.941	74.88
617.148	94.88
617.356	90.88
617.563	76.88
617.771	83.88
617.978	83.88
618.185	82.88
618.393	86.88
618.6	74.88
618.807	76.88
619.015	82.88
619.222	82.88
619.429	84.88
619.637	94.88
619.844	78.88
620.051	80.88
620.258	77.88
620.466	72.88
620.673	82.88
620.88	88.88
621.087	79.88
621.294	70.88
621.501	81.88
621.708	86.88
621.915	88.88
622.122	88.88
622.329	84.88
622.536	73.88
622.743	74.88
622.95	67.88
623.157	88.88
623.364	76.88
623.571	86.88
623.778	85.88
623.985	85.88
624.192	83.88
624.399	88.88
624.606	77.88
624.812	77.88
625.019	70.88
625.226	69.88
625.433	79.88
625.639	84.88
625.846	83.88
626.053	67.88
626.259	73.88
626.466	86.88
626.673	82.88
626.879	80.88
627.086	104.88
627.293	82.88
627.499	82.88
627.706	82.88
627.912	74.88
628.119	83.88
628.325	75.88
628.532	75.88
628.738	84.88
628.945	69.88
629.151	89.88
629.357	84.88
629.564	80.88
629.77	89.88
629.976	84.88
630.183	80.88
630.389	69.88
630.595	82.88
630.802	71.88
631.008	77.88
631.214	72.88
631.42	80.88
631.627	86.88
631.833	88.88
632.039	80.88
632.245	81.88
632.451	86.88
632.657	82.88
632.863	78.88
633.069	77.88
633.275	88.88
633.481	86.88
633.688	73.88
633.893	88.88
634.099	79.88
634.305	84.88
634.511	68.88
634.717	85.88
634.923	75.88
635.129	80.88
635.335	81.88
635.541	85.88
635.747	68.88
635.952	86.88
636.158	96.88
636.364	121.88
636.57	125.88
636.775	91.88
636.981	76.88
637.187	85.88
637.392	70.88
637.598	86.88
637.804	77.88
638.009	81.88
638.215	82.88
638.421	81.88
638.626	86.88
638.832	94.88
639.037	95.88
639.243	85.88
639.448	84.88
639.654	75.88
639.859	90.88
640.065	82.88
640.27	86.88
640.475	83.88
640.681	87.88
640.886	69.88
641.091	77.88
641.297	76.88
641.502	95.88
641.707	80.88
641.913	84.88
642.118	72.88
642.323	70.88
642.528	81.88
642.733	87.88
642.939	77.88
643.144	82.88
643.349	73.88
643.554	82.88
643.759	92.88
643.964	78.88
644.169	87.88
644.374	78.88
644.579	68.88
644.784	69.88
644.989	88.88
645.194	77.88
645.399	64.88
645.604	80.88
645.809	82.88
646.014	76.88
646.219	78.88
646.423	69.88
646.628	74.88
646.833	83.88
647.038	70.88
647.243	87.88
647.447	78.88
647.652	80.88
647.857	93.88
648.062	78.88
648.266	86.88
648.471	85.88
648.676	101.88
648.88	92.88
649.085	96.88
649.289	98.88
649.494	110.88
649.698	138.88
649.903	93.88
650.107	88.88
650.312	88.88
650.516	74.88
650.721	74.88
650.925	80.88
651.13	79.88
651.334	67.88
651.539	73.88
651.743	74.88
651.947	86.88
652.152	90.88
652.356	74.88
652.56	80.88
652.764	83.88
652.969	73.88
653.173	82.88
653.377	74.88
653.581	80.88
653.785	70.88
653.99	83.88
654.194	77.88
654.398	80.88
654.602	85.88
654.806	69.88
655.01	109.88
655.214	82.88
655.418	75.88
655.622	81.88
655.826	78.88
656.03	94.88
656.234	89.88
656.438	93.88
656.642	90.88
656.846	87.88
657.049	78.88
657.253	87.88
657.457	69.88
657.661	77.88
657.865	72.88
658.068	60.88
658.272	84.88
658.476	65.88
658.68	89.88
658.883	84.88
659.087	76.88
659.291	86.88
659.494	100.88
659.698	77.88
659.901	81.88
660.105	87.88
660.309	81.88
660.512	87.88
660.716	89.88
660.919	84.88
661.123	78.88
661.326	86.88
661.53	77.88
661.733	72.88
661.936	75.88
662.14	82.88
662.343	78.88
662.546	86.88
662.75	92.88
662.953	81.88
663.156	72.88
663.36	87.88
663.563	75.88
663.766	57.88
663.969	77.88
664.173	80.88
664.376	73.88
664.579	79.88
664.782	80.88
664.985	96.88
665.188	77.88
665.391	82.88
665.594	90.88
665.797	84.88
666	80.88
666.203	69.88
666.406	74.88
666.609	81.88
666.812	88.88
667.015	74.88
667.218	86.88
667.421	84.88
667.624	84.88
667.827	68.88
668.03	82.88
668.232	99.88
668.435	73.88
668.638	74.88
668.841	87.88
669.043	81.88
669.246	75.88
669.449	66.88
669.651	64.88
669.854	72.88
670.057	71.88
670.259	80.88
670.462	70.88
670.665	82.88
670.867	71.88
671.07	68.88
671.272	71.88
671.475	81.88
671.677	77.88
671.88	87.88
672.082	70.88
672.284	79.88
672.487	82.88
672.689	102.88
672.892	69.88
