Data from Circ_2022_H10_HRD10591_00018.txt Node
Date: Wed Jan 03 09:53:41 EST 2024
User: Yrep
Spectrometer: HR+D1059
Trigger mode: 1
Integration Time (sec): 1.000000E-1
Scans to average: 1
Electric dark correction enabled: true
Nonlinearity correction enabled: false
Boxcar width: 0
XAxis mode: Wavelengths
Number of Pixels in Spectrum: 2048
>>>>>Begin Spectral Data<<<<<
223.165	-5.19
223.4	-5.19
223.635	-5.19
223.869	-8.19
224.104	-21.19
224.338	-13.19
224.573	-12.19
224.808	-13.19
225.042	-17.19
225.277	-14.19
225.511	-2.19
225.746	4.81
225.98	9.81
226.215	0.81
226.449	24.81
226.683	9.81
226.918	19.81
227.152	36.81
227.387	37.81
227.621	40.81
227.856	48.81
228.09	53.81
228.324	41.81
228.559	56.81
228.793	46.81
229.027	56.81
229.262	69.81
229.496	86.81
229.73	96.81
229.964	101.81
230.199	72.81
230.433	76.81
230.667	63.81
230.901	78.81
231.136	68.81
231.37	66.81
231.604	82.81
231.838	78.81
232.072	75.81
232.306	80.81
232.541	77.81
232.775	74.81
233.009	85.81
233.243	81.81
233.477	83.81
233.711	70.81
233.945	77.81
234.179	70.81
234.413	86.81
234.647	69.81
234.881	65.81
235.115	94.81
235.349	77.81
235.583	77.81
235.817	88.81
236.051	76.81
236.285	63.81
236.519	71.81
236.753	74.81
236.987	79.81
237.221	98.81
237.455	90.81
237.689	82.81
237.922	75.81
238.156	65.81
238.39	63.81
238.624	80.81
238.858	82.81
239.091	77.81
239.325	79.81
239.559	95.81
239.793	81.81
240.027	74.81
240.26	75.81
240.494	67.81
240.728	63.81
240.961	75.81
241.195	73.81
241.429	83.81
241.662	89.81
241.896	73.81
242.13	77.81
242.363	69.81
242.597	67.81
242.83	72.81
243.064	63.81
243.298	85.81
243.531	77.81
243.765	71.81
243.998	84.81
244.232	71.81
244.465	82.81
244.699	80.81
244.932	79.81
245.166	81.81
245.399	78.81
245.633	78.81
245.866	86.81
246.099	79.81
246.333	78.81
246.566	78.81
246.8	77.81
247.033	72.81
247.266	82.81
247.5	74.81
247.733	60.81
247.966	74.81
248.2	71.81
248.433	75.81
248.666	90.81
248.899	89.81
249.133	102.81
249.366	97.81
249.599	115.81
249.832	91.81
250.066	78.81
250.299	64.81
250.532	80.81
250.765	82.81
250.998	89.81
251.231	73.81
251.465	84.81
251.698	81.81
251.931	71.81
252.164	71.81
252.397	86.81
252.63	69.81
252.863	70.81
253.096	79.81
253.329	92.81
253.562	79.81
253.795	76.81
254.028	78.81
254.261	80.81
254.494	71.81
254.727	88.81
254.96	77.81
255.193	79.81
255.426	78.81
255.659	71.81
255.892	81.81
256.124	77.81
256.357	82.81
256.59	75.81
256.823	66.81
257.056	80.81
257.289	74.81
257.521	81.81
257.754	75.81
257.987	77.81
258.22	77.81
258.452	67.81
258.685	87.81
258.918	87.81
259.151	65.81
259.383	71.81
259.616	87.81
259.849	85.81
260.081	64.81
260.314	80.81
260.547	79.81
260.779	88.81
261.012	79.81
261.244	88.81
261.477	95.81
261.71	103.81
261.942	141.81
262.175	149.81
262.407	92.81
262.64	86.81
262.872	74.81
263.105	81.81
263.337	115.81
263.57	71.81
263.802	78.81
264.035	64.81
264.267	88.81
264.499	89.81
264.732	78.81
264.964	89.81
265.197	90.81
265.429	72.81
265.661	78.81
265.894	61.81
266.126	73.81
266.358	73.81
266.591	92.81
266.823	82.81
267.055	62.81
267.287	80.81
267.52	79.81
267.752	75.81
267.984	90.81
268.216	74.81
268.448	74.81
268.681	77.81
268.913	77.81
269.145	96.81
269.377	86.81
269.609	97.81
269.841	83.81
270.073	91.81
270.306	80.81
270.538	81.81
270.77	85.81
271.002	76.81
271.234	91.81
271.466	102.81
271.698	85.81
271.93	72.81
272.162	81.81
272.394	73.81
272.626	96.81
272.858	79.81
273.09	87.81
273.322	94.81
273.553	76.81
273.785	72.81
274.017	81.81
274.249	74.81
274.481	90.81
274.713	88.81
274.945	90.81
275.176	79.81
275.408	76.81
275.64	86.81
275.872	88.81
276.104	100.81
276.335	85.81
276.567	114.81
276.799	151.81
277.031	118.81
277.262	89.81
277.494	87.81
277.726	77.81
277.957	68.81
278.189	91.81
278.421	90.81
278.652	96.81
278.884	84.81
279.115	89.81
279.347	86.81
279.579	87.81
279.81	86.81
280.042	93.81
280.273	82.81
280.505	96.81
280.736	74.81
280.968	87.81
281.199	83.81
281.431	99.81
281.662	100.81
281.894	91.81
282.125	100.81
282.356	145.81
282.588	196.81
282.819	151.81
283.051	97.81
283.282	95.81
283.513	82.81
283.745	94.81
283.976	81.81
284.207	93.81
284.439	72.81
284.67	87.81
284.901	81.81
285.132	89.81
285.364	84.81
285.595	75.81
285.826	69.81
286.057	91.81
286.288	93.81
286.52	99.81
286.751	96.81
286.982	88.81
287.213	77.81
287.444	89.81
287.675	87.81
287.906	82.81
288.138	85.81
288.369	103.81
288.6	89.81
288.831	86.81
289.062	87.81
289.293	89.81
289.524	100.81
289.755	82.81
289.986	77.81
290.217	79.81
290.448	86.81
290.679	69.81
290.91	70.81
291.141	87.81
291.371	97.81
291.602	78.81
291.833	77.81
292.064	85.81
292.295	91.81
292.526	94.81
292.757	82.81
292.987	90.81
293.218	96.81
293.449	81.81
293.68	83.81
293.91	98.81
294.141	93.81
294.372	84.81
294.603	88.81
294.833	88.81
295.064	83.81
295.295	83.81
295.525	107.81
295.756	101.81
295.987	149.81
296.217	190.81
296.448	168.81
296.679	100.81
296.909	89.81
297.14	78.81
297.37	100.81
297.601	85.81
297.831	79.81
298.062	86.81
298.292	91.81
298.523	95.81
298.753	87.81
298.984	90.81
299.214	89.81
299.445	82.81
299.675	93.81
299.905	89.81
300.136	82.81
300.366	78.81
300.597	100.81
300.827	99.81
301.057	111.81
301.288	102.81
301.518	96.81
301.748	113.81
301.979	106.81
302.209	93.81
302.439	97.81
302.669	85.81
302.9	86.81
303.13	103.81
303.36	102.81
303.59	104.81
303.82	118.81
304.051	101.81
304.281	82.81
304.511	94.81
304.741	101.81
304.971	83.81
305.201	89.81
305.431	100.81
305.661	93.81
305.891	87.81
306.121	96.81
306.352	119.81
306.582	113.81
306.812	97.81
307.042	88.81
307.272	103.81
307.502	96.81
307.731	93.81
307.961	100.81
308.191	90.81
308.421	86.81
308.651	95.81
308.881	97.81
309.111	101.81
309.341	78.81
309.571	110.81
309.8	92.81
310.03	102.81
310.26	96.81
310.49	106.81
310.72	103.81
310.949	111.81
311.179	106.81
311.409	97.81
311.639	92.81
311.868	108.81
312.098	102.81
312.328	105.81
312.557	104.81
312.787	136.81
313.017	127.81
313.246	93.81
313.476	102.81
313.706	84.81
313.935	93.81
314.165	111.81
314.394	127.81
314.624	96.81
314.853	99.81
315.083	94.81
315.312	88.81
315.542	98.81
315.771	96.81
316.001	86.81
316.23	95.81
316.46	81.81
316.689	94.81
316.919	106.81
317.148	103.81
317.377	112.81
317.607	90.81
317.836	102.81
318.065	101.81
318.295	92.81
318.524	101.81
318.753	93.81
318.983	89.81
319.212	106.81
319.441	112.81
319.67	114.81
319.9	102.81
320.129	101.81
320.358	96.81
320.587	87.81
320.816	122.81
321.046	109.81
321.275	117.81
321.504	96.81
321.733	94.81
321.962	119.81
322.191	120.81
322.42	111.81
322.649	119.81
322.878	135.81
323.108	142.81
323.337	158.81
323.566	161.81
323.795	214.81
324.024	296.81
324.253	625.81
324.482	1393.81
324.71	2913.81
324.939	3943.81
325.168	1402.81
325.397	371.81
325.626	207.81
325.855	171.81
326.084	139.81
326.313	148.81
326.542	194.81
326.77	331.81
326.999	690.81
327.228	1458.81
327.457	2774.81
327.686	2218.81
327.914	577.81
328.143	291.81
328.372	218.81
328.6	183.81
328.829	163.81
329.058	182.81
329.287	199.81
329.515	145.81
329.744	114.81
329.972	122.81
330.201	121.81
330.43	165.81
330.658	182.81
330.887	219.81
331.115	170.81
331.344	109.81
331.572	125.81
331.801	129.81
332.03	129.81
332.258	115.81
332.486	103.81
332.715	89.81
332.943	101.81
333.172	99.81
333.4	112.81
333.629	126.81
333.857	133.81
334.085	129.81
334.314	117.81
334.542	121.81
334.771	127.81
334.999	112.81
335.227	94.81
335.455	94.81
335.684	93.81
335.912	94.81
336.14	104.81
336.369	108.81
336.597	121.81
336.825	118.81
337.053	103.81
337.281	92.81
337.51	89.81
337.738	103.81
337.966	86.81
338.194	110.81
338.422	109.81
338.65	102.81
338.878	100.81
339.106	81.81
339.334	92.81
339.562	85.81
339.79	85.81
340.018	85.81
340.246	91.81
340.474	109.81
340.702	101.81
340.93	84.81
341.158	90.81
341.386	103.81
341.614	105.81
341.842	105.81
342.07	105.81
342.298	95.81
342.526	91.81
342.754	98.81
342.981	89.81
343.209	90.81
343.437	111.81
343.665	95.81
343.893	97.81
344.12	88.81
344.348	94.81
344.576	88.81
344.804	83.81
345.031	104.81
345.259	107.81
345.487	125.81
345.714	98.81
345.942	97.81
346.17	91.81
346.397	105.81
346.625	95.81
346.853	99.81
347.08	93.81
347.308	116.81
347.535	125.81
347.763	113.81
347.99	109.81
348.218	120.81
348.445	121.81
348.673	107.81
348.9	90.81
349.128	91.81
349.355	99.81
349.583	97.81
349.81	95.81
350.037	103.81
350.265	113.81
350.492	89.81
350.72	91.81
350.947	118.81
351.174	136.81
351.402	138.81
351.629	114.81
351.856	120.81
352.083	124.81
352.311	116.81
352.538	138.81
352.765	124.81
352.992	129.81
353.22	127.81
353.447	114.81
353.674	110.81
353.901	107.81
354.128	99.81
354.355	94.81
354.583	94.81
354.81	97.81
355.037	107.81
355.264	105.81
355.491	101.81
355.718	86.81
355.945	99.81
356.172	104.81
356.399	76.81
356.626	79.81
356.853	97.81
357.08	95.81
357.307	100.81
357.534	94.81
357.761	99.81
357.988	97.81
358.215	94.81
358.441	87.81
358.668	85.81
358.895	94.81
359.122	83.81
359.349	102.81
359.576	109.81
359.802	122.81
360.029	138.81
360.256	145.81
360.483	120.81
360.709	104.81
360.936	90.81
361.163	109.81
361.39	103.81
361.616	111.81
361.843	96.81
362.07	118.81
362.296	99.81
362.523	103.81
362.749	99.81
362.976	106.81
363.203	93.81
363.429	97.81
363.656	100.81
363.882	90.81
364.109	92.81
364.335	86.81
364.562	103.81
364.788	96.81
365.015	99.81
365.241	120.81
365.468	130.81
365.694	129.81
365.92	112.81
366.147	101.81
366.373	104.81
366.599	91.81
366.826	98.81
367.052	88.81
367.278	87.81
367.505	97.81
367.731	99.81
367.957	97.81
368.184	106.81
368.41	125.81
368.636	135.81
368.862	168.81
369.089	129.81
369.315	99.81
369.541	100.81
369.767	94.81
369.993	102.81
370.219	91.81
370.445	96.81
370.672	85.81
370.898	83.81
371.124	77.81
371.35	91.81
371.576	94.81
371.802	73.81
372.028	109.81
372.254	90.81
372.48	78.81
372.706	86.81
372.932	89.81
373.158	85.81
373.384	93.81
373.61	86.81
373.835	87.81
374.061	91.81
374.287	89.81
374.513	84.81
374.739	93.81
374.965	85.81
375.191	98.81
375.416	88.81
375.642	81.81
375.868	89.81
376.094	99.81
376.319	79.81
376.545	90.81
376.771	94.81
376.997	99.81
377.222	81.81
377.448	97.81
377.674	86.81
377.899	97.81
378.125	95.81
378.35	112.81
378.576	88.81
378.802	88.81
379.027	90.81
379.253	87.81
379.478	81.81
379.704	91.81
379.929	88.81
380.155	88.81
380.38	89.81
380.606	100.81
380.831	92.81
381.057	105.81
381.282	98.81
381.507	103.81
381.733	117.81
381.958	103.81
382.184	94.81
382.409	108.81
382.634	115.81
382.86	112.81
383.085	102.81
383.31	101.81
383.535	101.81
383.761	95.81
383.986	108.81
384.211	101.81
384.436	104.81
384.662	114.81
384.887	101.81
385.112	102.81
385.337	101.81
385.562	117.81
385.787	130.81
386.013	139.81
386.238	127.81
386.463	110.81
386.688	102.81
386.913	102.81
387.138	100.81
387.363	105.81
387.588	81.81
387.813	106.81
388.038	101.81
388.263	125.81
388.488	100.81
388.713	88.81
388.938	73.81
389.163	95.81
389.387	89.81
389.612	86.81
389.837	99.81
390.062	81.81
390.287	85.81
390.512	85.81
390.736	86.81
390.961	113.81
391.186	86.81
391.411	86.81
391.636	96.81
391.86	74.81
392.085	86.81
392.31	83.81
392.534	97.81
392.759	78.81
392.984	83.81
393.208	80.81
393.433	94.81
393.658	85.81
393.882	85.81
394.107	80.81
394.331	86.81
394.556	85.81
394.78	68.81
395.005	86.81
395.229	96.81
395.454	75.81
395.678	86.81
395.903	76.81
396.127	95.81
396.352	95.81
396.576	81.81
396.801	94.81
397.025	113.81
397.249	96.81
397.474	90.81
397.698	87.81
397.922	89.81
398.147	92.81
398.371	73.81
398.595	79.81
398.82	90.81
399.044	85.81
399.268	91.81
399.492	91.81
399.717	89.81
399.941	86.81
400.165	87.81
400.389	90.81
400.613	96.81
400.837	81.81
401.062	79.81
401.286	92.81
401.51	97.81
401.734	103.81
401.958	108.81
402.182	165.81
402.406	248.81
402.63	174.81
402.854	107.81
403.078	95.81
403.302	87.81
403.526	91.81
403.75	94.81
403.974	91.81
404.198	94.81
404.422	102.81
404.645	83.81
404.869	103.81
405.093	109.81
405.317	105.81
405.541	125.81
405.765	109.81
405.988	173.81
406.212	270.81
406.436	406.81
406.66	245.81
406.883	121.81
407.107	104.81
407.331	115.81
407.555	108.81
407.778	111.81
408.002	85.81
408.226	92.81
408.449	92.81
408.673	82.81
408.896	103.81
409.12	111.81
409.344	103.81
409.567	80.81
409.791	79.81
410.014	93.81
410.238	96.81
410.461	83.81
410.685	97.81
410.908	103.81
411.132	107.81
411.355	102.81
411.578	96.81
411.802	89.81
412.025	101.81
412.249	77.81
412.472	94.81
412.695	97.81
412.919	89.81
413.142	94.81
413.365	87.81
413.589	95.81
413.812	88.81
414.035	87.81
414.258	92.81
414.482	89.81
414.705	86.81
414.928	88.81
415.151	90.81
415.374	97.81
415.597	85.81
415.821	75.81
416.044	84.81
416.267	84.81
416.49	84.81
416.713	92.81
416.936	91.81
417.159	90.81
417.382	83.81
417.605	89.81
417.828	96.81
418.051	100.81
418.274	100.81
418.497	89.81
418.72	89.81
418.943	84.81
419.166	83.81
419.389	96.81
419.611	94.81
419.834	106.81
420.057	83.81
420.28	89.81
420.503	87.81
420.726	75.81
420.948	86.81
421.171	88.81
421.394	97.81
421.617	98.81
421.839	98.81
422.062	89.81
422.285	101.81
422.507	98.81
422.73	114.81
422.953	103.81
423.175	102.81
423.398	91.81
423.621	99.81
423.843	96.81
424.066	82.81
424.288	104.81
424.511	98.81
424.733	87.81
424.956	119.81
425.178	99.81
425.401	110.81
425.623	101.81
425.846	103.81
426.068	102.81
426.291	99.81
426.513	84.81
426.735	100.81
426.958	105.81
427.18	121.81
427.402	187.81
427.625	262.81
427.847	176.81
428.069	133.81
428.292	102.81
428.514	100.81
428.736	90.81
428.958	96.81
429.181	87.81
429.403	96.81
429.625	103.81
429.847	98.81
430.069	116.81
430.292	106.81
430.514	79.81
430.736	93.81
430.958	93.81
431.18	96.81
431.402	83.81
431.624	100.81
431.846	78.81
432.068	86.81
432.29	80.81
432.512	91.81
432.734	92.81
432.956	90.81
433.178	107.81
433.4	123.81
433.622	83.81
433.844	87.81
434.066	103.81
434.287	86.81
434.509	79.81
434.731	93.81
434.953	101.81
435.175	80.81
435.397	95.81
435.618	85.81
435.84	112.81
436.062	152.81
436.284	128.81
436.505	118.81
436.727	102.81
436.949	97.81
437.17	87.81
437.392	97.81
437.614	105.81
437.835	129.81
438.057	148.81
438.278	141.81
438.5	114.81
438.721	134.81
438.943	94.81
439.165	78.81
439.386	102.81
439.608	109.81
439.829	115.81
440.05	170.81
440.272	224.81
440.493	120.81
440.715	97.81
440.936	104.81
441.158	94.81
441.379	97.81
441.6	101.81
441.822	107.81
442.043	109.81
442.264	124.81
442.486	113.81
442.707	138.81
442.928	129.81
443.149	191.81
443.371	182.81
443.592	142.81
443.813	121.81
444.034	128.81
444.255	82.81
444.476	100.81
444.698	93.81
444.919	96.81
445.14	153.81
445.361	139.81
445.582	143.81
445.803	200.81
446.024	193.81
446.245	185.81
446.466	134.81
446.687	95.81
446.908	104.81
447.129	87.81
447.35	94.81
447.571	88.81
447.792	98.81
448.013	103.81
448.234	125.81
448.455	116.81
448.675	122.81
448.896	161.81
449.117	121.81
449.338	118.81
449.559	160.81
449.779	171.81
450	93.81
450.221	83.81
450.442	82.81
450.662	118.81
450.883	145.81
451.104	153.81
451.324	112.81
451.545	87.81
451.766	88.81
451.986	96.81
452.207	87.81
452.428	103.81
452.648	119.81
452.869	125.81
453.089	159.81
453.31	165.81
453.53	114.81
453.751	122.81
453.971	130.81
454.192	145.81
454.412	100.81
454.633	105.81
454.853	83.81
455.073	99.81
455.294	88.81
455.514	116.81
455.734	86.81
455.955	67.81
456.175	87.81
456.395	89.81
456.616	86.81
456.836	96.81
457.056	74.81
457.276	78.81
457.497	74.81
457.717	70.81
457.937	91.81
458.157	96.81
458.377	102.81
458.598	137.81
458.818	245.81
459.038	260.81
459.258	176.81
459.478	104.81
459.698	90.81
459.918	92.81
460.138	89.81
460.358	85.81
460.578	91.81
460.798	109.81
461.018	99.81
461.238	89.81
461.458	83.81
461.678	58.81
461.898	84.81
462.118	86.81
462.338	82.81
462.558	88.81
462.777	88.81
462.997	87.81
463.217	92.81
463.437	83.81
463.657	78.81
463.876	106.81
464.096	100.81
464.316	88.81
464.536	89.81
464.755	110.81
464.975	137.81
465.195	282.81
465.414	297.81
465.634	120.81
465.854	81.81
466.073	86.81
466.293	85.81
466.512	87.81
466.732	90.81
466.951	79.81
467.171	83.81
467.391	102.81
467.61	115.81
467.829	102.81
468.049	106.81
468.268	112.81
468.488	85.81
468.707	89.81
468.927	83.81
469.146	86.81
469.365	89.81
469.585	92.81
469.804	113.81
470.023	109.81
470.243	103.81
470.462	121.81
470.681	153.81
470.901	109.81
471.12	103.81
471.339	94.81
471.558	84.81
471.777	85.81
471.997	88.81
472.216	95.81
472.435	133.81
472.654	88.81
472.873	92.81
473.092	86.81
473.311	89.81
473.53	91.81
473.749	87.81
473.968	106.81
474.187	133.81
474.406	104.81
474.625	90.81
474.844	93.81
475.063	83.81
475.282	88.81
475.501	84.81
475.72	88.81
475.939	89.81
476.158	78.81
476.377	83.81
476.596	81.81
476.814	101.81
477.033	97.81
477.252	88.81
477.471	89.81
477.69	96.81
477.908	87.81
478.127	94.81
478.346	87.81
478.564	99.81
478.783	112.81
479.002	85.81
479.22	96.81
479.439	117.81
479.658	136.81
479.876	102.81
480.095	102.81
480.313	99.81
480.532	93.81
480.751	89.81
480.969	105.81
481.188	163.81
481.406	135.81
481.624	103.81
481.843	92.81
482.061	88.81
482.28	96.81
482.498	83.81
482.717	87.81
482.935	89.81
483.153	83.81
483.372	88.81
483.59	96.81
483.808	88.81
484.027	94.81
484.245	95.81
484.463	91.81
484.681	91.81
484.9	91.81
485.118	97.81
485.336	89.81
485.554	92.81
485.772	91.81
485.99	106.81
486.209	109.81
486.427	103.81
486.645	119.81
486.863	146.81
487.081	112.81
487.299	111.81
487.517	92.81
487.735	92.81
487.953	86.81
488.171	89.81
488.389	85.81
488.607	100.81
488.825	90.81
489.043	91.81
489.261	79.81
489.479	90.81
489.696	74.81
489.914	83.81
490.132	87.81
490.35	80.81
490.568	79.81
490.786	95.81
491.003	99.81
491.221	94.81
491.439	86.81
491.657	81.81
491.874	93.81
492.092	98.81
492.31	81.81
492.527	88.81
492.745	96.81
492.963	89.81
493.18	92.81
493.398	100.81
493.615	112.81
493.833	104.81
494.05	101.81
494.268	85.81
494.485	90.81
494.703	91.81
494.92	100.81
495.138	104.81
495.355	95.81
495.573	104.81
495.79	96.81
496.008	90.81
496.225	87.81
496.442	91.81
496.66	92.81
496.877	82.81
497.094	96.81
497.312	78.81
497.529	76.81
497.746	87.81
497.963	89.81
498.181	82.81
498.398	88.81
498.615	126.81
498.832	117.81
499.049	101.81
499.267	91.81
499.484	87.81
499.701	90.81
499.918	86.81
500.135	83.81
500.352	98.81
500.569	91.81
500.786	93.81
501.003	87.81
501.22	73.81
501.437	91.81
501.654	95.81
501.871	134.81
502.088	93.81
502.305	88.81
502.522	96.81
502.739	98.81
502.956	84.81
503.172	95.81
503.389	101.81
503.606	129.81
503.823	109.81
504.04	95.81
504.256	106.81
504.473	94.81
504.69	96.81
504.907	103.81
505.123	98.81
505.34	77.81
505.557	81.81
505.773	100.81
505.99	78.81
506.207	100.81
506.423	78.81
506.64	94.81
506.856	102.81
507.073	105.81
507.289	86.81
507.506	113.81
507.722	150.81
507.939	151.81
508.155	96.81
508.372	97.81
508.588	98.81
508.805	104.81
509.021	109.81
509.238	90.81
509.454	109.81
509.67	102.81
509.887	115.81
510.103	162.81
510.319	302.81
510.536	1225.81
510.752	4488.81
510.968	1215.81
511.184	227.81
511.401	146.81
511.617	96.81
511.833	104.81
512.049	88.81
512.265	100.81
512.481	117.81
512.698	84.81
512.914	102.81
513.13	103.81
513.346	103.81
513.562	103.81
513.778	102.81
513.994	97.81
514.21	102.81
514.426	157.81
514.642	210.81
514.858	182.81
515.074	278.81
515.29	893.81
515.506	3474.81
515.721	1243.81
515.937	249.81
516.153	143.81
516.369	115.81
516.585	103.81
516.801	90.81
517.016	103.81
517.232	104.81
517.448	105.81
517.664	106.81
517.879	105.81
518.095	89.81
518.311	98.81
518.527	103.81
518.742	101.81
518.958	102.81
519.173	101.81
519.389	88.81
519.605	104.81
519.82	97.81
520.036	124.81
520.251	158.81
520.467	151.81
520.682	129.81
520.898	142.81
521.113	152.81
521.329	214.81
521.544	363.81
521.76	1174.81
521.975	5573.81
522.19	3486.81
522.406	635.81
522.621	192.81
522.836	133.81
523.052	121.81
523.267	112.81
523.482	106.81
523.698	141.81
523.913	162.81
524.128	143.81
524.343	96.81
524.559	91.81
524.774	85.81
524.989	112.81
525.204	145.81
525.419	102.81
525.634	88.81
525.849	95.81
526.064	88.81
526.28	89.81
526.495	98.81
526.71	108.81
526.925	96.81
527.14	92.81
527.355	73.81
527.57	94.81
527.785	83.81
527.999	89.81
528.214	101.81
528.429	89.81
528.644	103.81
528.859	90.81
529.074	98.81
529.289	164.81
529.503	309.81
529.718	135.81
529.933	94.81
530.148	87.81
530.363	103.81
530.577	93.81
530.792	94.81
531.007	85.81
531.221	89.81
531.436	78.81
531.651	94.81
531.865	77.81
532.08	83.81
532.295	95.81
532.509	105.81
532.724	100.81
532.938	94.81
533.153	91.81
533.367	83.81
533.582	86.81
533.796	104.81
534.011	73.81
534.225	84.81
534.44	90.81
534.654	92.81
534.868	87.81
535.083	84.81
535.297	90.81
535.511	118.81
535.726	115.81
535.94	99.81
536.154	109.81
536.369	99.81
536.583	91.81
536.797	81.81
537.011	81.81
537.225	86.81
537.44	96.81
537.654	98.81
537.868	93.81
538.082	102.81
538.296	94.81
538.51	86.81
538.724	87.81
538.938	94.81
539.153	116.81
539.367	131.81
539.581	103.81
539.795	81.81
540.009	98.81
540.222	84.81
540.436	93.81
540.65	83.81
540.864	93.81
541.078	109.81
541.292	83.81
541.506	92.81
541.72	92.81
541.934	81.81
542.147	100.81
542.361	78.81
542.575	90.81
542.789	87.81
543.002	81.81
543.216	97.81
543.43	100.81
543.644	77.81
543.857	80.81
544.071	86.81
544.285	97.81
544.498	84.81
544.712	91.81
544.925	96.81
545.139	80.81
545.352	91.81
545.566	84.81
545.779	83.81
545.993	74.81
546.206	93.81
546.42	87.81
546.633	96.81
546.847	97.81
547.06	87.81
547.274	78.81
547.487	86.81
547.7	94.81
547.914	93.81
548.127	83.81
548.34	90.81
548.554	107.81
548.767	79.81
548.98	69.81
549.193	72.81
549.407	96.81
549.62	85.81
549.833	86.81
550.046	92.81
550.259	102.81
550.473	78.81
550.686	89.81
550.899	116.81
551.112	93.81
551.325	88.81
551.538	86.81
551.751	100.81
551.964	97.81
552.177	88.81
552.39	93.81
552.603	98.81
552.816	94.81
553.029	89.81
553.242	80.81
553.455	103.81
553.667	107.81
553.88	123.81
554.093	113.81
554.306	108.81
554.519	95.81
554.732	95.81
554.944	97.81
555.157	81.81
555.37	76.81
555.583	94.81
555.795	99.81
556.008	83.81
556.221	88.81
556.433	81.81
556.646	107.81
556.859	112.81
557.071	86.81
557.284	93.81
557.496	95.81
557.709	86.81
557.921	98.81
558.134	91.81
558.346	90.81
558.559	90.81
558.771	79.81
558.984	79.81
559.196	99.81
559.409	90.81
559.621	80.81
559.833	78.81
560.046	112.81
560.258	93.81
560.47	87.81
560.683	79.81
560.895	82.81
561.107	87.81
561.32	82.81
561.532	69.81
561.744	94.81
561.956	91.81
562.168	95.81
562.381	98.81
562.593	91.81
562.805	88.81
563.017	83.81
563.229	85.81
563.441	83.81
563.653	90.81
563.865	83.81
564.077	83.81
564.289	90.81
564.501	89.81
564.713	84.81
564.925	93.81
565.137	128.81
565.349	97.81
565.561	83.81
565.773	99.81
565.985	85.81
566.197	96.81
566.408	94.81
566.62	89.81
566.832	82.81
567.044	98.81
567.255	84.81
567.467	95.81
567.679	99.81
567.891	90.81
568.102	84.81
568.314	89.81
568.526	81.81
568.737	86.81
568.949	91.81
569.161	85.81
569.372	99.81
569.584	91.81
569.795	99.81
570.007	137.81
570.218	387.81
570.43	191.81
570.641	98.81
570.853	82.81
571.064	75.81
571.276	84.81
571.487	84.81
571.698	89.81
571.91	79.81
572.121	97.81
572.333	81.81
572.544	86.81
572.755	95.81
572.966	95.81
573.178	91.81
573.389	87.81
573.6	84.81
573.811	87.81
574.023	81.81
574.234	88.81
574.445	93.81
574.656	82.81
574.867	77.81
575.078	86.81
575.289	87.81
575.501	84.81
575.712	77.81
575.923	89.81
576.134	81.81
576.345	80.81
576.556	88.81
576.767	83.81
576.978	100.81
577.188	104.81
577.399	86.81
577.61	92.81
577.821	109.81
578.032	144.81
578.243	406.81
578.454	1446.81
578.665	336.81
578.875	135.81
579.086	86.81
579.297	89.81
579.508	84.81
579.718	76.81
579.929	85.81
580.14	101.81
580.35	87.81
580.561	87.81
580.772	101.81
580.982	89.81
581.193	65.81
581.403	93.81
581.614	65.81
581.825	82.81
582.035	86.81
582.246	85.81
582.456	88.81
582.667	83.81
582.877	89.81
583.087	88.81
583.298	89.81
583.508	75.81
583.719	94.81
583.929	86.81
584.139	86.81
584.35	94.81
584.56	76.81
584.77	78.81
584.981	93.81
585.191	93.81
585.401	95.81
585.611	100.81
585.821	78.81
586.032	85.81
586.242	83.81
586.452	110.81
586.662	84.81
586.872	89.81
587.082	82.81
587.292	94.81
587.502	81.81
587.713	77.81
587.923	96.81
588.133	99.81
588.343	90.81
588.553	86.81
588.762	82.81
588.972	116.81
589.182	197.81
589.392	147.81
589.602	103.81
589.812	145.81
590.022	96.81
590.232	87.81
590.441	80.81
590.651	76.81
590.861	86.81
591.071	85.81
591.281	70.81
591.49	85.81
591.7	88.81
591.91	99.81
592.119	87.81
592.329	102.81
592.539	112.81
592.748	100.81
592.958	85.81
593.167	72.81
593.377	96.81
593.587	87.81
593.796	74.81
594.006	91.81
594.215	90.81
594.424	77.81
594.634	72.81
594.843	82.81
595.053	71.81
595.262	82.81
595.472	87.81
595.681	80.81
595.89	84.81
596.1	85.81
596.309	85.81
596.518	91.81
596.727	80.81
596.937	89.81
597.146	65.81
597.355	72.81
597.564	79.81
597.774	91.81
597.983	86.81
598.192	83.81
598.401	79.81
598.61	84.81
598.819	93.81
599.028	91.81
599.237	72.81
599.446	88.81
599.655	89.81
599.864	98.81
600.073	87.81
600.282	81.81
600.491	72.81
600.7	75.81
600.909	98.81
601.118	94.81
601.327	93.81
601.536	87.81
601.745	76.81
601.953	72.81
602.162	80.81
602.371	90.81
602.58	85.81
602.789	95.81
602.997	92.81
603.206	90.81
603.415	87.81
603.623	87.81
603.832	80.81
604.041	82.81
604.249	101.81
604.458	84.81
604.666	82.81
604.875	91.81
605.084	88.81
605.292	69.81
605.501	86.81
605.709	65.81
605.918	77.81
606.126	84.81
606.334	89.81
606.543	87.81
606.751	89.81
606.96	84.81
607.168	81.81
607.376	86.81
607.585	102.81
607.793	97.81
608.001	78.81
608.21	81.81
608.418	80.81
608.626	93.81
608.834	87.81
609.043	95.81
609.251	93.81
609.459	80.81
609.667	72.81
609.875	78.81
610.083	84.81
610.291	86.81
610.499	80.81
610.707	96.81
610.916	79.81
611.124	91.81
611.332	80.81
611.54	53.81
611.748	88.81
611.955	86.81
612.163	78.81
612.371	89.81
612.579	86.81
612.787	80.81
612.995	85.81
613.203	72.81
613.411	83.81
613.618	94.81
613.826	88.81
614.034	80.81
614.242	85.81
614.449	88.81
614.657	84.81
614.865	88.81
615.072	75.81
615.28	80.81
615.488	74.81
615.695	90.81
615.903	94.81
616.111	89.81
616.318	96.81
616.526	97.81
616.733	90.81
616.941	81.81
617.148	86.81
617.356	86.81
617.563	83.81
617.771	97.81
617.978	82.81
618.185	90.81
618.393	76.81
618.6	82.81
618.807	82.81
619.015	99.81
619.222	79.81
619.429	84.81
619.637	96.81
619.844	90.81
620.051	90.81
620.258	80.81
620.466	73.81
620.673	89.81
620.88	87.81
621.087	94.81
621.294	102.81
621.501	85.81
621.708	102.81
621.915	78.81
622.122	89.81
622.329	89.81
622.536	106.81
622.743	83.81
622.95	78.81
623.157	85.81
623.364	81.81
623.571	80.81
623.778	70.81
623.985	70.81
624.192	88.81
624.399	74.81
624.606	83.81
624.812	83.81
625.019	78.81
625.226	97.81
625.433	92.81
625.639	80.81
625.846	83.81
626.053	78.81
626.259	66.81
626.466	72.81
626.673	88.81
626.879	102.81
627.086	99.81
627.293	81.81
627.499	92.81
627.706	85.81
627.912	77.81
628.119	91.81
628.325	91.81
628.532	81.81
628.738	86.81
628.945	85.81
629.151	88.81
629.357	83.81
629.564	79.81
629.77	84.81
629.976	82.81
630.183	81.81
630.389	94.81
630.595	82.81
630.802	88.81
631.008	85.81
631.214	75.81
631.42	76.81
631.627	82.81
631.833	90.81
632.039	65.81
632.245	89.81
632.451	64.81
632.657	77.81
632.863	80.81
633.069	84.81
633.275	86.81
633.481	80.81
633.688	74.81
633.893	79.81
634.099	90.81
634.305	80.81
634.511	74.81
634.717	88.81
634.923	74.81
635.129	67.81
635.335	82.81
635.541	85.81
635.747	74.81
635.952	94.81
636.158	69.81
636.364	86.81
636.57	87.81
636.775	83.81
636.981	86.81
637.187	79.81
637.392	77.81
637.598	80.81
637.804	74.81
638.009	77.81
638.215	86.81
638.421	80.81
638.626	88.81
638.832	78.81
639.037	78.81
639.243	87.81
639.448	82.81
639.654	69.81
639.859	69.81
640.065	62.81
640.27	95.81
640.475	81.81
640.681	90.81
640.886	69.81
641.091	79.81
641.297	75.81
641.502	84.81
641.707	91.81
641.913	65.81
642.118	95.81
642.323	84.81
642.528	74.81
642.733	77.81
642.939	86.81
643.144	81.81
643.349	86.81
643.554	89.81
643.759	61.81
643.964	78.81
644.169	87.81
644.374	103.81
644.579	85.81
644.784	82.81
644.989	93.81
645.194	74.81
645.399	96.81
645.604	83.81
645.809	74.81
646.014	78.81
646.219	73.81
646.423	88.81
646.628	86.81
646.833	99.81
647.038	85.81
647.243	77.81
647.447	82.81
647.652	85.81
647.857	87.81
648.062	81.81
648.266	90.81
648.471	82.81
648.676	80.81
648.88	94.81
649.085	89.81
649.289	91.81
649.494	115.81
649.698	158.81
649.903	110.81
650.107	72.81
650.312	83.81
650.516	62.81
650.721	83.81
650.925	86.81
651.13	79.81
651.334	75.81
651.539	80.81
651.743	86.81
651.947	72.81
652.152	74.81
652.356	88.81
652.56	80.81
652.764	84.81
652.969	86.81
653.173	73.81
653.377	77.81
653.581	81.81
653.785	89.81
653.99	77.81
654.194	77.81
654.398	66.81
654.602	83.81
654.806	96.81
655.01	110.81
655.214	87.81
655.418	88.81
655.622	75.81
655.826	71.81
656.03	91.81
656.234	90.81
656.438	94.81
656.642	86.81
656.846	94.81
657.049	82.81
657.253	91.81
657.457	81.81
657.661	81.81
657.865	80.81
658.068	88.81
658.272	69.81
658.476	88.81
658.68	76.81
658.883	83.81
659.087	74.81
659.291	81.81
659.494	94.81
659.698	81.81
659.901	63.81
660.105	86.81
660.309	77.81
660.512	86.81
660.716	81.81
660.919	74.81
661.123	83.81
661.326	77.81
661.53	74.81
661.733	72.81
661.936	75.81
662.14	81.81
662.343	83.81
662.546	76.81
662.75	86.81
662.953	83.81
663.156	87.81
663.36	90.81
663.563	73.81
663.766	86.81
663.969	79.81
664.173	65.81
664.376	82.81
664.579	74.81
664.782	76.81
664.985	83.81
665.188	77.81
665.391	74.81
665.594	78.81
665.797	79.81
666	78.81
666.203	66.81
666.406	75.81
666.609	84.81
666.812	89.81
667.015	72.81
667.218	74.81
667.421	75.81
667.624	75.81
667.827	75.81
668.03	79.81
668.232	75.81
668.435	82.81
668.638	75.81
668.841	80.81
669.043	65.81
669.246	81.81
669.449	69.81
669.651	89.81
669.854	70.81
670.057	89.81
670.259	64.81
670.462	90.81
670.665	80.81
670.867	74.81
671.07	90.81
671.272	86.81
671.475	79.81
671.677	96.81
671.88	70.81
672.082	71.81
672.284	85.81
672.487	79.81
672.689	83.81
672.892	80.81
