Data from Circ_2022_H10_HRD10591_00049.txt Node
Date: Wed Jan 03 09:53:47 EST 2024
User: Yrep
Spectrometer: HR+D1059
Trigger mode: 1
Integration Time (sec): 1.000000E-1
Scans to average: 1
Electric dark correction enabled: true
Nonlinearity correction enabled: false
Boxcar width: 0
XAxis mode: Wavelengths
Number of Pixels in Spectrum: 2048
>>>>>Begin Spectral Data<<<<<
223.165	-33.38
223.4	-33.38
223.635	-33.38
223.869	-30.38
224.104	-26.38
224.338	-12.38
224.573	-2.38
224.808	-6.38
225.042	-17.38
225.277	-6.38
225.511	5.62
225.746	5.62
225.98	-1.38
226.215	0.62
226.449	24.62
226.683	24.62
226.918	40.62
227.152	34.62
227.387	29.62
227.621	33.62
227.856	40.62
228.09	39.62
228.324	70.62
228.559	56.62
228.793	50.62
229.027	61.62
229.262	60.62
229.496	78.62
229.73	95.62
229.964	73.62
230.199	77.62
230.433	84.62
230.667	77.62
230.901	84.62
231.136	76.62
231.37	80.62
231.604	73.62
231.838	72.62
232.072	84.62
232.306	78.62
232.541	92.62
232.775	72.62
233.009	72.62
233.243	82.62
233.477	98.62
233.711	85.62
233.945	79.62
234.179	74.62
234.413	71.62
234.647	70.62
234.881	75.62
235.115	82.62
235.349	71.62
235.583	75.62
235.817	87.62
236.051	89.62
236.285	79.62
236.519	71.62
236.753	87.62
236.987	94.62
237.221	97.62
237.455	78.62
237.689	74.62
237.922	67.62
238.156	79.62
238.39	81.62
238.624	85.62
238.858	85.62
239.091	86.62
239.325	81.62
239.559	69.62
239.793	74.62
240.027	59.62
240.26	74.62
240.494	80.62
240.728	68.62
240.961	85.62
241.195	82.62
241.429	74.62
241.662	69.62
241.896	73.62
242.13	73.62
242.363	74.62
242.597	62.62
242.83	76.62
243.064	70.62
243.298	76.62
243.531	67.62
243.765	68.62
243.998	73.62
244.232	76.62
244.465	78.62
244.699	77.62
244.932	71.62
245.166	89.62
245.399	81.62
245.633	78.62
245.866	82.62
246.099	73.62
246.333	80.62
246.566	76.62
246.8	68.62
247.033	97.62
247.266	78.62
247.5	84.62
247.733	79.62
247.966	78.62
248.2	79.62
248.433	86.62
248.666	81.62
248.899	90.62
249.133	91.62
249.366	104.62
249.599	101.62
249.832	92.62
250.066	85.62
250.299	78.62
250.532	64.62
250.765	80.62
250.998	80.62
251.231	79.62
251.465	76.62
251.698	80.62
251.931	82.62
252.164	81.62
252.397	62.62
252.63	90.62
252.863	84.62
253.096	82.62
253.329	70.62
253.562	75.62
253.795	84.62
254.028	85.62
254.261	82.62
254.494	86.62
254.727	86.62
254.96	81.62
255.193	85.62
255.426	84.62
255.659	79.62
255.892	84.62
256.124	83.62
256.357	80.62
256.59	85.62
256.823	68.62
257.056	80.62
257.289	78.62
257.521	82.62
257.754	81.62
257.987	73.62
258.22	76.62
258.452	68.62
258.685	79.62
258.918	78.62
259.151	86.62
259.383	98.62
259.616	79.62
259.849	65.62
260.081	67.62
260.314	76.62
260.547	88.62
260.779	80.62
261.012	81.62
261.244	86.62
261.477	102.62
261.71	96.62
261.942	133.62
262.175	143.62
262.407	95.62
262.64	94.62
262.872	91.62
263.105	81.62
263.337	91.62
263.57	81.62
263.802	84.62
264.035	61.62
264.267	70.62
264.499	74.62
264.732	75.62
264.964	79.62
265.197	76.62
265.429	78.62
265.661	93.62
265.894	71.62
266.126	89.62
266.358	77.62
266.591	83.62
266.823	81.62
267.055	77.62
267.287	85.62
267.52	82.62
267.752	74.62
267.984	88.62
268.216	84.62
268.448	91.62
268.681	98.62
268.913	77.62
269.145	88.62
269.377	86.62
269.609	97.62
269.841	78.62
270.073	86.62
270.306	84.62
270.538	80.62
270.77	63.62
271.002	72.62
271.234	78.62
271.466	90.62
271.698	77.62
271.93	74.62
272.162	77.62
272.394	81.62
272.626	92.62
272.858	85.62
273.09	92.62
273.322	95.62
273.553	71.62
273.785	79.62
274.017	81.62
274.249	81.62
274.481	92.62
274.713	81.62
274.945	100.62
275.176	87.62
275.408	90.62
275.64	86.62
275.872	88.62
276.104	89.62
276.335	94.62
276.567	96.62
276.799	130.62
277.031	102.62
277.262	113.62
277.494	92.62
277.726	85.62
277.957	73.62
278.189	84.62
278.421	84.62
278.652	92.62
278.884	90.62
279.115	91.62
279.347	84.62
279.579	70.62
279.81	79.62
280.042	86.62
280.273	108.62
280.505	98.62
280.736	89.62
280.968	100.62
281.199	79.62
281.431	84.62
281.662	94.62
281.894	84.62
282.125	102.62
282.356	146.62
282.588	168.62
282.819	126.62
283.051	98.62
283.282	103.62
283.513	95.62
283.745	89.62
283.976	89.62
284.207	86.62
284.439	92.62
284.67	82.62
284.901	85.62
285.132	88.62
285.364	89.62
285.595	84.62
285.826	84.62
286.057	69.62
286.288	82.62
286.52	82.62
286.751	85.62
286.982	79.62
287.213	95.62
287.444	100.62
287.675	91.62
287.906	85.62
288.138	93.62
288.369	95.62
288.6	87.62
288.831	93.62
289.062	84.62
289.293	79.62
289.524	93.62
289.755	70.62
289.986	84.62
290.217	67.62
290.448	87.62
290.679	81.62
290.91	78.62
291.141	87.62
291.371	87.62
291.602	81.62
291.833	85.62
292.064	88.62
292.295	89.62
292.526	98.62
292.757	100.62
292.987	83.62
293.218	85.62
293.449	87.62
293.68	83.62
293.91	74.62
294.141	87.62
294.372	88.62
294.603	94.62
294.833	93.62
295.064	95.62
295.295	90.62
295.525	92.62
295.756	94.62
295.987	134.62
296.217	155.62
296.448	149.62
296.679	104.62
296.909	92.62
297.14	90.62
297.37	101.62
297.601	89.62
297.831	78.62
298.062	85.62
298.292	78.62
298.523	95.62
298.753	90.62
298.984	98.62
299.214	98.62
299.445	78.62
299.675	93.62
299.905	108.62
300.136	86.62
300.366	90.62
300.597	87.62
300.827	92.62
301.057	90.62
301.288	105.62
301.518	96.62
301.748	87.62
301.979	101.62
302.209	95.62
302.439	89.62
302.669	79.62
302.9	79.62
303.13	87.62
303.36	96.62
303.59	99.62
303.82	114.62
304.051	94.62
304.281	74.62
304.511	105.62
304.741	85.62
304.971	106.62
305.201	87.62
305.431	77.62
305.661	80.62
305.891	78.62
306.121	86.62
306.352	123.62
306.582	114.62
306.812	109.62
307.042	98.62
307.272	85.62
307.502	99.62
307.731	95.62
307.961	85.62
308.191	84.62
308.421	95.62
308.651	104.62
308.881	93.62
309.111	95.62
309.341	105.62
309.571	104.62
309.8	103.62
310.03	106.62
310.26	101.62
310.49	93.62
310.72	104.62
310.949	111.62
311.179	116.62
311.409	104.62
311.639	95.62
311.868	92.62
312.098	113.62
312.328	99.62
312.557	102.62
312.787	104.62
313.017	102.62
313.246	98.62
313.476	86.62
313.706	98.62
313.935	102.62
314.165	113.62
314.394	115.62
314.624	98.62
314.853	113.62
315.083	90.62
315.312	84.62
315.542	94.62
315.771	92.62
316.001	84.62
316.23	86.62
316.46	113.62
316.689	80.62
316.919	98.62
317.148	97.62
317.377	79.62
317.607	87.62
317.836	89.62
318.065	92.62
318.295	98.62
318.524	96.62
318.753	97.62
318.983	89.62
319.212	104.62
319.441	111.62
319.67	113.62
319.9	86.62
320.129	89.62
320.358	108.62
320.587	97.62
320.816	92.62
321.046	94.62
321.275	108.62
321.504	86.62
321.733	109.62
321.962	115.62
322.191	113.62
322.42	105.62
322.649	119.62
322.878	117.62
323.108	126.62
323.337	136.62
323.566	155.62
323.795	172.62
324.024	244.62
324.253	456.62
324.482	1009.62
324.71	2098.62
324.939	2840.62
325.168	1039.62
325.397	306.62
325.626	172.62
325.855	141.62
326.084	137.62
326.313	145.62
326.542	154.62
326.77	269.62
326.999	553.62
327.228	1082.62
327.457	2007.62
327.686	1673.62
327.914	455.62
328.143	260.62
328.372	214.62
328.6	166.62
328.829	126.62
329.058	163.62
329.287	161.62
329.515	119.62
329.744	103.62
329.972	135.62
330.201	165.62
330.43	230.62
330.658	192.62
330.887	196.62
331.115	168.62
331.344	123.62
331.572	112.62
331.801	112.62
332.03	111.62
332.258	105.62
332.486	106.62
332.715	103.62
332.943	100.62
333.172	102.62
333.4	104.62
333.629	111.62
333.857	145.62
334.085	136.62
334.314	172.62
334.542	249.62
334.771	240.62
334.999	135.62
335.227	105.62
335.455	110.62
335.684	98.62
335.912	92.62
336.14	105.62
336.369	97.62
336.597	108.62
336.825	101.62
337.053	80.62
337.281	96.62
337.51	97.62
337.738	79.62
337.966	91.62
338.194	109.62
338.422	102.62
338.65	100.62
338.878	87.62
339.106	81.62
339.334	96.62
339.562	83.62
339.79	97.62
340.018	108.62
340.246	100.62
340.474	91.62
340.702	91.62
340.93	86.62
341.158	100.62
341.386	93.62
341.614	99.62
341.842	100.62
342.07	104.62
342.298	104.62
342.526	86.62
342.754	89.62
342.981	93.62
343.209	90.62
343.437	95.62
343.665	80.62
343.893	99.62
344.12	92.62
344.348	95.62
344.576	80.62
344.804	73.62
345.031	103.62
345.259	101.62
345.487	110.62
345.714	86.62
345.942	90.62
346.17	102.62
346.397	93.62
346.625	97.62
346.853	95.62
347.08	94.62
347.308	101.62
347.535	97.62
347.763	101.62
347.99	104.62
348.218	115.62
348.445	88.62
348.673	114.62
348.9	94.62
349.128	99.62
349.355	97.62
349.583	89.62
349.81	85.62
350.037	81.62
350.265	101.62
350.492	99.62
350.72	94.62
350.947	122.62
351.174	112.62
351.402	118.62
351.629	92.62
351.856	109.62
352.083	104.62
352.311	123.62
352.538	114.62
352.765	100.62
352.992	139.62
353.22	116.62
353.447	97.62
353.674	101.62
353.901	99.62
354.128	89.62
354.355	94.62
354.583	92.62
354.81	84.62
355.037	88.62
355.264	92.62
355.491	96.62
355.718	110.62
355.945	96.62
356.172	99.62
356.399	93.62
356.626	94.62
356.853	101.62
357.08	88.62
357.307	93.62
357.534	90.62
357.761	97.62
357.988	100.62
358.215	88.62
358.441	97.62
358.668	98.62
358.895	94.62
359.122	100.62
359.349	95.62
359.576	102.62
359.802	114.62
360.029	137.62
360.256	126.62
360.483	100.62
360.709	78.62
360.936	87.62
361.163	107.62
361.39	106.62
361.616	94.62
361.843	102.62
362.07	96.62
362.296	97.62
362.523	96.62
362.749	83.62
362.976	99.62
363.203	98.62
363.429	102.62
363.656	101.62
363.882	95.62
364.109	94.62
364.335	99.62
364.562	90.62
364.788	98.62
365.015	87.62
365.241	109.62
365.468	134.62
365.694	94.62
365.92	93.62
366.147	85.62
366.373	92.62
366.599	93.62
366.826	81.62
367.052	89.62
367.278	91.62
367.505	90.62
367.731	94.62
367.957	88.62
368.184	95.62
368.41	109.62
368.636	120.62
368.862	124.62
369.089	118.62
369.315	117.62
369.541	82.62
369.767	80.62
369.993	85.62
370.219	85.62
370.445	89.62
370.672	93.62
370.898	75.62
371.124	89.62
371.35	89.62
371.576	79.62
371.802	82.62
372.028	87.62
372.254	87.62
372.48	79.62
372.706	88.62
372.932	91.62
373.158	86.62
373.384	86.62
373.61	100.62
373.835	96.62
374.061	87.62
374.287	98.62
374.513	82.62
374.739	100.62
374.965	109.62
375.191	93.62
375.416	78.62
375.642	87.62
375.868	94.62
376.094	87.62
376.319	88.62
376.545	82.62
376.771	81.62
376.997	83.62
377.222	86.62
377.448	91.62
377.674	84.62
377.899	87.62
378.125	89.62
378.35	90.62
378.576	102.62
378.802	92.62
379.027	82.62
379.253	97.62
379.478	92.62
379.704	74.62
379.929	96.62
380.155	94.62
380.38	119.62
380.606	94.62
380.831	95.62
381.057	100.62
381.282	95.62
381.507	101.62
381.733	99.62
381.958	91.62
382.184	100.62
382.409	99.62
382.634	81.62
382.86	98.62
383.085	98.62
383.31	114.62
383.535	101.62
383.761	84.62
383.986	99.62
384.211	91.62
384.436	96.62
384.662	112.62
384.887	99.62
385.112	98.62
385.337	94.62
385.562	94.62
385.787	111.62
386.013	110.62
386.238	124.62
386.463	94.62
386.688	106.62
386.913	110.62
387.138	104.62
387.363	97.62
387.588	99.62
387.813	102.62
388.038	92.62
388.263	106.62
388.488	111.62
388.713	102.62
388.938	96.62
389.163	84.62
389.387	101.62
389.612	94.62
389.837	97.62
390.062	97.62
390.287	86.62
390.512	80.62
390.736	82.62
390.961	89.62
391.186	88.62
391.411	109.62
391.636	100.62
391.86	91.62
392.085	104.62
392.31	95.62
392.534	84.62
392.759	91.62
392.984	81.62
393.208	82.62
393.433	77.62
393.658	95.62
393.882	97.62
394.107	93.62
394.331	81.62
394.556	90.62
394.78	85.62
395.005	93.62
395.229	84.62
395.454	89.62
395.678	82.62
395.903	96.62
396.127	87.62
396.352	94.62
396.576	78.62
396.801	89.62
397.025	81.62
397.249	73.62
397.474	93.62
397.698	84.62
397.922	81.62
398.147	96.62
398.371	94.62
398.595	85.62
398.82	84.62
399.044	82.62
399.268	90.62
399.492	82.62
399.717	86.62
399.941	100.62
400.165	94.62
400.389	95.62
400.613	103.62
400.837	93.62
401.062	92.62
401.286	99.62
401.51	98.62
401.734	98.62
401.958	110.62
402.182	136.62
402.406	195.62
402.63	156.62
402.854	111.62
403.078	85.62
403.302	74.62
403.526	84.62
403.75	92.62
403.974	90.62
404.198	86.62
404.422	92.62
404.645	94.62
404.869	96.62
405.093	95.62
405.317	120.62
405.541	103.62
405.765	109.62
405.988	122.62
406.212	197.62
406.436	290.62
406.66	206.62
406.883	105.62
407.107	106.62
407.331	107.62
407.555	102.62
407.778	97.62
408.002	93.62
408.226	99.62
408.449	77.62
408.673	96.62
408.896	95.62
409.12	113.62
409.344	81.62
409.567	99.62
409.791	86.62
410.014	91.62
410.238	90.62
410.461	87.62
410.685	91.62
410.908	106.62
411.132	99.62
411.355	101.62
411.578	81.62
411.802	94.62
412.025	96.62
412.249	79.62
412.472	104.62
412.695	100.62
412.919	99.62
413.142	77.62
413.365	91.62
413.589	88.62
413.812	85.62
414.035	79.62
414.258	78.62
414.482	94.62
414.705	91.62
414.928	90.62
415.151	89.62
415.374	93.62
415.597	95.62
415.821	90.62
416.044	78.62
416.267	69.62
416.49	96.62
416.713	93.62
416.936	94.62
417.159	79.62
417.382	85.62
417.605	95.62
417.828	89.62
418.051	95.62
418.274	105.62
418.497	91.62
418.72	93.62
418.943	78.62
419.166	83.62
419.389	78.62
419.611	89.62
419.834	91.62
420.057	87.62
420.28	85.62
420.503	80.62
420.726	86.62
420.948	81.62
421.171	96.62
421.394	79.62
421.617	77.62
421.839	84.62
422.062	75.62
422.285	82.62
422.507	90.62
422.73	100.62
422.953	81.62
423.175	90.62
423.398	86.62
423.621	86.62
423.843	85.62
424.066	93.62
424.288	74.62
424.511	105.62
424.733	97.62
424.956	133.62
425.178	103.62
425.401	93.62
425.623	98.62
425.846	101.62
426.068	98.62
426.291	88.62
426.513	88.62
426.735	81.62
426.958	94.62
427.18	124.62
427.402	164.62
427.625	236.62
427.847	176.62
428.069	133.62
428.292	98.62
428.514	86.62
428.736	83.62
428.958	81.62
429.181	71.62
429.403	85.62
429.625	84.62
429.847	91.62
430.069	112.62
430.292	95.62
430.514	96.62
430.736	91.62
430.958	96.62
431.18	82.62
431.402	82.62
431.624	99.62
431.846	79.62
432.068	95.62
432.29	79.62
432.512	88.62
432.734	77.62
432.956	97.62
433.178	98.62
433.4	93.62
433.622	83.62
433.844	78.62
434.066	104.62
434.287	86.62
434.509	87.62
434.731	79.62
434.953	87.62
435.175	90.62
435.397	72.62
435.618	93.62
435.84	108.62
436.062	144.62
436.284	123.62
436.505	109.62
436.727	126.62
436.949	104.62
437.17	79.62
437.392	87.62
437.614	97.62
437.835	127.62
438.057	140.62
438.278	128.62
438.5	118.62
438.721	143.62
438.943	97.62
439.165	88.62
439.386	79.62
439.608	81.62
439.829	109.62
440.05	152.62
440.272	164.62
440.493	112.62
440.715	85.62
440.936	94.62
441.158	88.62
441.379	80.62
441.6	102.62
441.822	97.62
442.043	121.62
442.264	123.62
442.486	112.62
442.707	98.62
442.928	110.62
443.149	180.62
443.371	174.62
443.592	126.62
443.813	146.62
444.034	135.62
444.255	98.62
444.476	81.62
444.698	87.62
444.919	75.62
445.14	149.62
445.361	151.62
445.582	152.62
445.803	175.62
446.024	170.62
446.245	151.62
446.466	117.62
446.687	95.62
446.908	87.62
447.129	83.62
447.35	85.62
447.571	99.62
447.792	88.62
448.013	102.62
448.234	112.62
448.455	108.62
448.675	142.62
448.896	144.62
449.117	118.62
449.338	112.62
449.559	150.62
449.779	149.62
450	85.62
450.221	86.62
450.442	84.62
450.662	94.62
450.883	125.62
451.104	125.62
451.324	109.62
451.545	78.62
451.766	94.62
451.986	93.62
452.207	87.62
452.428	87.62
452.648	97.62
452.869	132.62
453.089	128.62
453.31	137.62
453.53	98.62
453.751	92.62
453.971	111.62
454.192	126.62
454.412	93.62
454.633	94.62
454.853	86.62
455.073	90.62
455.294	85.62
455.514	109.62
455.734	104.62
455.955	81.62
456.175	67.62
456.395	111.62
456.616	75.62
456.836	70.62
457.056	80.62
457.276	80.62
457.497	88.62
457.717	83.62
457.937	85.62
458.157	87.62
458.377	97.62
458.598	129.62
458.818	192.62
459.038	208.62
459.258	138.62
459.478	111.62
459.698	84.62
459.918	85.62
460.138	89.62
460.358	74.62
460.578	86.62
460.798	89.62
461.018	92.62
461.238	93.62
461.458	81.62
461.678	69.62
461.898	91.62
462.118	88.62
462.338	88.62
462.558	86.62
462.777	80.62
462.997	86.62
463.217	74.62
463.437	83.62
463.657	81.62
463.876	88.62
464.096	84.62
464.316	99.62
464.536	95.62
464.755	101.62
464.975	125.62
465.195	225.62
465.414	227.62
465.634	114.62
465.854	106.62
466.073	91.62
466.293	83.62
466.512	88.62
466.732	86.62
466.951	94.62
467.171	92.62
467.391	100.62
467.61	123.62
467.829	108.62
468.049	125.62
468.268	148.62
468.488	85.62
468.707	81.62
468.927	83.62
469.146	78.62
469.365	87.62
469.585	83.62
469.804	106.62
470.023	97.62
470.243	87.62
470.462	113.62
470.681	120.62
470.901	99.62
471.12	97.62
471.339	78.62
471.558	86.62
471.777	86.62
471.997	115.62
472.216	156.62
472.435	258.62
472.654	127.62
472.873	82.62
473.092	74.62
473.311	84.62
473.53	77.62
473.749	90.62
473.968	105.62
474.187	120.62
474.406	116.62
474.625	87.62
474.844	81.62
475.063	81.62
475.282	72.62
475.501	74.62
475.72	94.62
475.939	95.62
476.158	83.62
476.377	105.62
476.596	109.62
476.814	95.62
477.033	114.62
477.252	91.62
477.471	85.62
477.69	98.62
477.908	82.62
478.127	68.62
478.346	83.62
478.564	94.62
478.783	108.62
479.002	84.62
479.22	93.62
479.439	104.62
479.658	113.62
479.876	108.62
480.095	92.62
480.313	89.62
480.532	104.62
480.751	112.62
480.969	154.62
481.188	429.62
481.406	297.62
481.624	99.62
481.843	80.62
482.061	85.62
482.28	74.62
482.498	91.62
482.717	79.62
482.935	93.62
483.153	86.62
483.372	93.62
483.59	97.62
483.808	73.62
484.027	85.62
484.245	98.62
484.463	98.62
484.681	90.62
484.9	84.62
485.118	97.62
485.336	99.62
485.554	83.62
485.772	103.62
485.99	103.62
486.209	84.62
486.427	102.62
486.645	127.62
486.863	128.62
487.081	108.62
487.299	91.62
487.517	93.62
487.735	95.62
487.953	90.62
488.171	85.62
488.389	101.62
488.607	93.62
488.825	93.62
489.043	76.62
489.261	95.62
489.479	83.62
489.696	74.62
489.914	88.62
490.132	79.62
490.35	71.62
490.568	93.62
490.786	90.62
491.003	94.62
491.221	98.62
491.439	75.62
491.657	94.62
491.874	91.62
492.092	92.62
492.31	96.62
492.527	94.62
492.745	83.62
492.963	79.62
493.18	92.62
493.398	83.62
493.615	90.62
493.833	92.62
494.05	92.62
494.268	78.62
494.485	94.62
494.703	85.62
494.92	85.62
495.138	89.62
495.355	92.62
495.573	96.62
495.79	83.62
496.008	85.62
496.225	86.62
496.442	81.62
496.66	84.62
496.877	79.62
497.094	75.62
497.312	87.62
497.529	76.62
497.746	84.62
497.963	93.62
498.181	103.62
498.398	88.62
498.615	105.62
498.832	100.62
499.049	82.62
499.267	98.62
499.484	82.62
499.701	99.62
499.918	103.62
500.135	98.62
500.352	93.62
500.569	111.62
500.786	85.62
501.003	93.62
501.22	89.62
501.437	88.62
501.654	101.62
501.871	113.62
502.088	96.62
502.305	82.62
502.522	99.62
502.739	99.62
502.956	92.62
503.172	103.62
503.389	99.62
503.606	124.62
503.823	97.62
504.04	97.62
504.256	89.62
504.473	85.62
504.69	93.62
504.907	78.62
505.123	81.62
505.34	90.62
505.557	89.62
505.773	87.62
505.99	76.62
506.207	94.62
506.423	95.62
506.64	84.62
506.856	98.62
507.073	91.62
507.289	97.62
507.506	110.62
507.722	125.62
507.939	126.62
508.155	100.62
508.372	91.62
508.588	86.62
508.805	100.62
509.021	97.62
509.238	96.62
509.454	110.62
509.67	112.62
509.887	110.62
510.103	148.62
510.319	248.62
510.536	904.62
510.752	3248.62
510.968	942.62
511.184	180.62
511.401	120.62
511.617	104.62
511.833	93.62
512.049	99.62
512.265	90.62
512.481	100.62
512.698	103.62
512.914	84.62
513.13	99.62
513.346	108.62
513.562	92.62
513.778	89.62
513.994	98.62
514.21	120.62
514.426	141.62
514.642	175.62
514.858	158.62
515.074	220.62
515.29	662.62
515.506	2413.62
515.721	907.62
515.937	207.62
516.153	119.62
516.369	95.62
516.585	102.62
516.801	126.62
517.016	86.62
517.232	90.62
517.448	100.62
517.664	87.62
517.879	107.62
518.095	81.62
518.311	97.62
518.527	90.62
518.742	96.62
518.958	88.62
519.173	89.62
519.389	95.62
519.605	94.62
519.82	110.62
520.036	122.62
520.251	142.62
520.467	131.62
520.682	108.62
520.898	118.62
521.113	134.62
521.329	167.62
521.544	260.62
521.76	831.62
521.975	3871.62
522.19	2428.62
522.406	489.62
522.621	172.62
522.836	113.62
523.052	97.62
523.267	109.62
523.482	98.62
523.698	108.62
523.913	138.62
524.128	130.62
524.343	88.62
524.559	97.62
524.774	92.62
524.989	83.62
525.204	116.62
525.419	113.62
525.634	96.62
525.849	100.62
526.064	77.62
526.28	84.62
526.495	83.62
526.71	100.62
526.925	84.62
527.14	84.62
527.355	82.62
527.57	77.62
527.785	87.62
527.999	89.62
528.214	92.62
528.429	90.62
528.644	111.62
528.859	99.62
529.074	97.62
529.289	156.62
529.503	272.62
529.718	113.62
529.933	82.62
530.148	81.62
530.363	88.62
530.577	74.62
530.792	82.62
531.007	91.62
531.221	93.62
531.436	91.62
531.651	91.62
531.865	103.62
532.08	84.62
532.295	92.62
532.509	105.62
532.724	88.62
532.938	101.62
533.153	79.62
533.367	99.62
533.582	102.62
533.796	92.62
534.011	93.62
534.225	88.62
534.44	78.62
534.654	85.62
534.868	90.62
535.083	80.62
535.297	105.62
535.511	113.62
535.726	116.62
535.94	103.62
536.154	89.62
536.369	106.62
536.583	79.62
536.797	93.62
537.011	72.62
537.225	85.62
537.44	89.62
537.654	94.62
537.868	87.62
538.082	95.62
538.296	79.62
538.51	93.62
538.724	87.62
538.938	84.62
539.153	87.62
539.367	117.62
539.581	91.62
539.795	102.62
540.009	97.62
540.222	87.62
540.436	96.62
540.65	94.62
540.864	84.62
541.078	106.62
541.292	90.62
541.506	82.62
541.72	91.62
541.934	77.62
542.147	98.62
542.361	89.62
542.575	97.62
542.789	87.62
543.002	84.62
543.216	97.62
543.43	106.62
543.644	98.62
543.857	81.62
544.071	98.62
544.285	74.62
544.498	95.62
544.712	91.62
544.925	79.62
545.139	93.62
545.352	80.62
545.566	91.62
545.779	95.62
545.993	72.62
546.206	74.62
546.42	87.62
546.633	96.62
546.847	110.62
547.06	88.62
547.274	99.62
547.487	88.62
547.7	88.62
547.914	85.62
548.127	89.62
548.34	81.62
548.554	95.62
548.767	88.62
548.98	92.62
549.193	98.62
549.407	81.62
549.62	91.62
549.833	93.62
550.046	85.62
550.259	93.62
550.473	88.62
550.686	100.62
550.899	85.62
551.112	87.62
551.325	97.62
551.538	85.62
551.751	91.62
551.964	85.62
552.177	81.62
552.39	89.62
552.603	81.62
552.816	86.62
553.029	84.62
553.242	92.62
553.455	110.62
553.667	119.62
553.88	114.62
554.093	86.62
554.306	92.62
554.519	90.62
554.732	94.62
554.944	88.62
555.157	81.62
555.37	79.62
555.583	92.62
555.795	105.62
556.008	99.62
556.221	82.62
556.433	84.62
556.646	87.62
556.859	97.62
557.071	97.62
557.284	84.62
557.496	96.62
557.709	84.62
557.921	95.62
558.134	93.62
558.346	95.62
558.559	92.62
558.771	85.62
558.984	88.62
559.196	81.62
559.409	84.62
559.621	73.62
559.833	71.62
560.046	92.62
560.258	103.62
560.47	84.62
560.683	81.62
560.895	92.62
561.107	91.62
561.32	84.62
561.532	95.62
561.744	81.62
561.956	79.62
562.168	102.62
562.381	99.62
562.593	108.62
562.805	103.62
563.017	94.62
563.229	85.62
563.441	93.62
563.653	79.62
563.865	84.62
564.077	103.62
564.289	96.62
564.501	84.62
564.713	95.62
564.925	92.62
565.137	114.62
565.349	79.62
565.561	99.62
565.773	86.62
565.985	77.62
566.197	96.62
566.408	78.62
566.62	80.62
566.832	85.62
567.044	98.62
567.255	92.62
567.467	81.62
567.679	101.62
567.891	86.62
568.102	85.62
568.314	80.62
568.526	84.62
568.737	92.62
568.949	88.62
569.161	92.62
569.372	91.62
569.584	88.62
569.795	97.62
570.007	128.62
570.218	280.62
570.43	149.62
570.641	93.62
570.853	95.62
571.064	81.62
571.276	92.62
571.487	91.62
571.698	72.62
571.91	80.62
572.121	110.62
572.333	84.62
572.544	94.62
572.755	86.62
572.966	98.62
573.178	99.62
573.389	99.62
573.6	104.62
573.811	93.62
574.023	82.62
574.234	86.62
574.445	101.62
574.656	87.62
574.867	104.62
575.078	80.62
575.289	88.62
575.501	86.62
575.712	90.62
575.923	95.62
576.134	77.62
576.345	92.62
576.556	86.62
576.767	90.62
576.978	82.62
577.188	97.62
577.399	97.62
577.61	87.62
577.821	89.62
578.032	125.62
578.243	308.62
578.454	1040.62
578.665	267.62
578.875	108.62
579.086	83.62
579.297	91.62
579.508	78.62
579.718	102.62
579.929	98.62
580.14	90.62
580.35	86.62
580.561	88.62
580.772	100.62
580.982	88.62
581.193	93.62
581.403	73.62
581.614	86.62
581.825	92.62
582.035	79.62
582.246	71.62
582.456	88.62
582.667	86.62
582.877	77.62
583.087	93.62
583.298	84.62
583.508	82.62
583.719	89.62
583.929	91.62
584.139	74.62
584.35	89.62
584.56	80.62
584.77	84.62
584.981	87.62
585.191	98.62
585.401	84.62
585.611	80.62
585.821	87.62
586.032	94.62
586.242	89.62
586.452	76.62
586.662	70.62
586.872	82.62
587.082	67.62
587.292	88.62
587.502	86.62
587.713	86.62
587.923	89.62
588.133	84.62
588.343	93.62
588.553	91.62
588.762	88.62
588.972	102.62
589.182	111.62
589.392	96.62
589.602	93.62
589.812	94.62
590.022	81.62
590.232	86.62
590.441	90.62
590.651	81.62
590.861	86.62
591.071	100.62
591.281	107.62
591.49	90.62
591.7	78.62
591.91	97.62
592.119	94.62
592.329	78.62
592.539	97.62
592.748	89.62
592.958	86.62
593.167	91.62
593.377	83.62
593.587	97.62
593.796	88.62
594.006	77.62
594.215	98.62
594.424	90.62
594.634	86.62
594.843	93.62
595.053	95.62
595.262	89.62
595.472	89.62
595.681	95.62
595.89	81.62
596.1	82.62
596.309	79.62
596.518	94.62
596.727	85.62
596.937	97.62
597.146	88.62
597.355	95.62
597.564	83.62
597.774	97.62
597.983	91.62
598.192	88.62
598.401	87.62
598.61	88.62
598.819	87.62
599.028	86.62
599.237	88.62
599.446	78.62
599.655	84.62
599.864	88.62
600.073	79.62
600.282	99.62
600.491	89.62
600.7	88.62
600.909	86.62
601.118	98.62
601.327	85.62
601.536	94.62
601.745	87.62
601.953	89.62
602.162	83.62
602.371	91.62
602.58	66.62
602.789	90.62
602.997	96.62
603.206	104.62
603.415	96.62
603.623	94.62
603.832	90.62
604.041	83.62
604.249	85.62
604.458	88.62
604.666	90.62
604.875	73.62
605.084	92.62
605.292	97.62
605.501	82.62
605.709	87.62
605.918	89.62
606.126	89.62
606.334	88.62
606.543	78.62
606.751	81.62
606.96	66.62
607.168	96.62
607.376	84.62
607.585	91.62
607.793	73.62
608.001	86.62
608.21	94.62
608.418	92.62
608.626	96.62
608.834	85.62
609.043	92.62
609.251	83.62
609.459	96.62
609.667	91.62
609.875	84.62
610.083	92.62
610.291	88.62
610.499	84.62
610.707	95.62
610.916	86.62
611.124	92.62
611.332	85.62
611.54	81.62
611.748	69.62
611.955	86.62
612.163	84.62
612.371	77.62
612.579	86.62
612.787	94.62
612.995	82.62
613.203	100.62
613.411	83.62
613.618	80.62
613.826	91.62
614.034	81.62
614.242	87.62
614.449	85.62
614.657	96.62
614.865	72.62
615.072	96.62
615.28	74.62
615.488	78.62
615.695	98.62
615.903	102.62
616.111	98.62
616.318	84.62
616.526	95.62
616.733	89.62
616.941	83.62
617.148	90.62
617.356	82.62
617.563	89.62
617.771	88.62
617.978	71.62
618.185	80.62
618.393	86.62
618.6	79.62
618.807	83.62
619.015	98.62
619.222	84.62
619.429	81.62
619.637	80.62
619.844	94.62
620.051	85.62
620.258	72.62
620.466	95.62
620.673	80.62
620.88	85.62
621.087	71.62
621.294	76.62
621.501	93.62
621.708	82.62
621.915	79.62
622.122	84.62
622.329	83.62
622.536	87.62
622.743	73.62
622.95	87.62
623.157	85.62
623.364	87.62
623.571	97.62
623.778	95.62
623.985	90.62
624.192	87.62
624.399	86.62
624.606	94.62
624.812	82.62
625.019	79.62
625.226	73.62
625.433	81.62
625.639	81.62
625.846	88.62
626.053	79.62
626.259	89.62
626.466	73.62
626.673	87.62
626.879	87.62
627.086	93.62
627.293	86.62
627.499	78.62
627.706	72.62
627.912	75.62
628.119	66.62
628.325	81.62
628.532	86.62
628.738	90.62
628.945	83.62
629.151	87.62
629.357	77.62
629.564	86.62
629.77	86.62
629.976	81.62
630.183	81.62
630.389	89.62
630.595	86.62
630.802	79.62
631.008	74.62
631.214	67.62
631.42	89.62
631.627	76.62
631.833	79.62
632.039	81.62
632.245	79.62
632.451	86.62
632.657	78.62
632.863	69.62
633.069	87.62
633.275	74.62
633.481	80.62
633.688	72.62
633.893	78.62
634.099	79.62
634.305	87.62
634.511	83.62
634.717	89.62
634.923	94.62
635.129	78.62
635.335	82.62
635.541	96.62
635.747	74.62
635.952	98.62
636.158	89.62
636.364	92.62
636.57	87.62
636.775	76.62
636.981	76.62
637.187	80.62
637.392	81.62
637.598	93.62
637.804	84.62
638.009	84.62
638.215	82.62
638.421	93.62
638.626	92.62
638.832	75.62
639.037	86.62
639.243	81.62
639.448	92.62
639.654	96.62
639.859	71.62
640.065	91.62
640.27	88.62
640.475	90.62
640.681	85.62
640.886	73.62
641.091	82.62
641.297	94.62
641.502	94.62
641.707	87.62
641.913	74.62
642.118	76.62
642.323	93.62
642.528	92.62
642.733	86.62
642.939	88.62
643.144	93.62
643.349	100.62
643.554	79.62
643.759	87.62
643.964	77.62
644.169	94.62
644.374	87.62
644.579	89.62
644.784	81.62
644.989	86.62
645.194	68.62
645.399	69.62
645.604	75.62
645.809	77.62
646.014	80.62
646.219	78.62
646.423	84.62
646.628	84.62
646.833	97.62
647.038	88.62
647.243	81.62
647.447	84.62
647.652	95.62
647.857	93.62
648.062	95.62
648.266	82.62
648.471	88.62
648.676	89.62
648.88	81.62
649.085	89.62
649.289	96.62
649.494	104.62
649.698	149.62
649.903	99.62
650.107	82.62
650.312	82.62
650.516	78.62
650.721	73.62
650.925	81.62
651.13	81.62
651.334	77.62
651.539	79.62
651.743	100.62
651.947	72.62
652.152	85.62
652.356	79.62
652.56	94.62
652.764	72.62
652.969	72.62
653.173	72.62
653.377	85.62
653.581	77.62
653.785	85.62
653.99	80.62
654.194	77.62
654.398	66.62
654.602	87.62
654.806	87.62
655.01	121.62
655.214	95.62
655.418	74.62
655.622	77.62
655.826	90.62
656.03	80.62
656.234	77.62
656.438	86.62
656.642	80.62
656.846	93.62
657.049	91.62
657.253	95.62
657.457	75.62
657.661	87.62
657.865	82.62
658.068	66.62
658.272	77.62
658.476	80.62
658.68	79.62
658.883	87.62
659.087	85.62
659.291	79.62
659.494	81.62
659.698	77.62
659.901	85.62
660.105	72.62
660.309	77.62
660.512	87.62
660.716	87.62
660.919	74.62
661.123	82.62
661.326	96.62
661.53	87.62
661.733	72.62
661.936	78.62
662.14	79.62
662.343	91.62
662.546	79.62
662.75	93.62
662.953	78.62
663.156	79.62
663.36	86.62
663.563	71.62
663.766	94.62
663.969	79.62
664.173	80.62
664.376	95.62
664.579	85.62
664.782	74.62
664.985	78.62
665.188	80.62
665.391	80.62
665.594	74.62
665.797	85.62
666	74.62
666.203	76.62
666.406	85.62
666.609	65.62
666.812	76.62
667.015	82.62
667.218	83.62
667.421	81.62
667.624	84.62
667.827	74.62
668.03	80.62
668.232	87.62
668.435	73.62
668.638	74.62
668.841	71.62
669.043	89.62
669.246	82.62
669.449	81.62
669.651	82.62
669.854	78.62
670.057	97.62
670.259	71.62
670.462	84.62
670.665	89.62
670.867	78.62
671.07	82.62
671.272	78.62
671.475	79.62
671.677	79.62
671.88	74.62
672.082	87.62
672.284	78.62
672.487	90.62
672.689	77.62
672.892	78.62
