Data from 15780_2_HRD10591_00049.txt Node
Date: Mon Jan 19 14:19:28 EST 2026
User: Yrep
Spectrometer: HR+D1059
Trigger mode: 1
Integration Time (sec): 1.000000E-1
Scans to average: 1
Electric dark correction enabled: true
Nonlinearity correction enabled: false
Boxcar width: 0
XAxis mode: Wavelengths
Number of Pixels in Spectrum: 2048
>>>>>Begin Spectral Data<<<<<
223.165	-24.56
223.4	-24.56
223.635	-24.56
223.869	-22.56
224.104	-31.56
224.338	-9.56
224.573	-14.56
224.808	-7.56
225.042	-9.56
225.277	3.44
225.511	-16.56
225.746	8.44
225.98	6.44
226.215	11.44
226.449	16.44
226.683	25.44
226.918	31.44
227.152	33.44
227.387	37.44
227.621	42.44
227.856	33.44
228.09	39.44
228.324	36.44
228.559	57.44
228.793	41.44
229.027	62.44
229.262	52.44
229.496	59.44
229.73	64.44
229.964	78.44
230.199	68.44
230.433	64.44
230.667	79.44
230.901	86.44
231.136	73.44
231.37	70.44
231.604	88.44
231.838	88.44
232.072	68.44
232.306	75.44
232.541	71.44
232.775	74.44
233.009	79.44
233.243	90.44
233.477	72.44
233.711	81.44
233.945	67.44
234.179	80.44
234.413	70.44
234.647	82.44
234.881	86.44
235.115	71.44
235.349	64.44
235.583	71.44
235.817	85.44
236.051	60.44
236.285	74.44
236.519	78.44
236.753	79.44
236.987	70.44
237.221	74.44
237.455	73.44
237.689	67.44
237.922	68.44
238.156	79.44
238.39	64.44
238.624	66.44
238.858	77.44
239.091	81.44
239.325	68.44
239.559	68.44
239.793	69.44
240.027	57.44
240.26	59.44
240.494	65.44
240.728	70.44
240.961	68.44
241.195	73.44
241.429	72.44
241.662	72.44
241.896	89.44
242.13	85.44
242.363	71.44
242.597	86.44
242.83	81.44
243.064	78.44
243.298	71.44
243.531	80.44
243.765	72.44
243.998	72.44
244.232	70.44
244.465	77.44
244.699	83.44
244.932	84.44
245.166	72.44
245.399	74.44
245.633	87.44
245.866	66.44
246.099	69.44
246.333	76.44
246.566	56.44
246.8	71.44
247.033	74.44
247.266	66.44
247.5	63.44
247.733	69.44
247.966	85.44
248.2	88.44
248.433	72.44
248.666	69.44
248.899	74.44
249.133	62.44
249.366	72.44
249.599	78.44
249.832	73.44
250.066	82.44
250.299	82.44
250.532	84.44
250.765	57.44
250.998	72.44
251.231	69.44
251.465	76.44
251.698	75.44
251.931	74.44
252.164	61.44
252.397	82.44
252.63	79.44
252.863	77.44
253.096	69.44
253.329	68.44
253.562	73.44
253.795	72.44
254.028	89.44
254.261	79.44
254.494	82.44
254.727	70.44
254.96	77.44
255.193	72.44
255.426	66.44
255.659	82.44
255.892	77.44
256.124	83.44
256.357	84.44
256.59	85.44
256.823	75.44
257.056	91.44
257.289	90.44
257.521	76.44
257.754	79.44
257.987	85.44
258.22	74.44
258.452	80.44
258.685	73.44
258.918	72.44
259.151	88.44
259.383	82.44
259.616	56.44
259.849	81.44
260.081	77.44
260.314	67.44
260.547	72.44
260.779	85.44
261.012	84.44
261.244	87.44
261.477	87.44
261.71	59.44
261.942	79.44
262.175	66.44
262.407	86.44
262.64	73.44
262.872	84.44
263.105	70.44
263.337	82.44
263.57	89.44
263.802	75.44
264.035	80.44
264.267	71.44
264.499	84.44
264.732	81.44
264.964	88.44
265.197	88.44
265.429	91.44
265.661	74.44
265.894	86.44
266.126	87.44
266.358	79.44
266.591	85.44
266.823	76.44
267.055	88.44
267.287	71.44
267.52	78.44
267.752	84.44
267.984	65.44
268.216	84.44
268.448	78.44
268.681	84.44
268.913	89.44
269.145	86.44
269.377	86.44
269.609	78.44
269.841	69.44
270.073	64.44
270.306	66.44
270.538	78.44
270.77	71.44
271.002	78.44
271.234	68.44
271.466	82.44
271.698	91.44
271.93	85.44
272.162	86.44
272.394	90.44
272.626	80.44
272.858	75.44
273.09	92.44
273.322	77.44
273.553	92.44
273.785	100.44
274.017	96.44
274.249	80.44
274.481	82.44
274.713	80.44
274.945	75.44
275.176	77.44
275.408	84.44
275.64	86.44
275.872	81.44
276.104	80.44
276.335	58.44
276.567	78.44
276.799	70.44
277.031	78.44
277.262	77.44
277.494	85.44
277.726	87.44
277.957	93.44
278.189	87.44
278.421	68.44
278.652	85.44
278.884	67.44
279.115	96.44
279.347	90.44
279.579	90.44
279.81	78.44
280.042	76.44
280.273	90.44
280.505	82.44
280.736	78.44
280.968	84.44
281.199	92.44
281.431	81.44
281.662	84.44
281.894	80.44
282.125	72.44
282.356	76.44
282.588	85.44
282.819	93.44
283.051	79.44
283.282	87.44
283.513	89.44
283.745	82.44
283.976	87.44
284.207	97.44
284.439	94.44
284.67	79.44
284.901	75.44
285.132	77.44
285.364	89.44
285.595	80.44
285.826	86.44
286.057	90.44
286.288	89.44
286.52	74.44
286.751	86.44
286.982	82.44
287.213	79.44
287.444	73.44
287.675	81.44
287.906	75.44
288.138	77.44
288.369	96.44
288.6	82.44
288.831	97.44
289.062	86.44
289.293	60.44
289.524	80.44
289.755	87.44
289.986	81.44
290.217	83.44
290.448	67.44
290.679	81.44
290.91	73.44
291.141	89.44
291.371	94.44
291.602	91.44
291.833	93.44
292.064	74.44
292.295	81.44
292.526	81.44
292.757	87.44
292.987	90.44
293.218	79.44
293.449	61.44
293.68	85.44
293.91	71.44
294.141	80.44
294.372	74.44
294.603	88.44
294.833	69.44
295.064	86.44
295.295	76.44
295.525	86.44
295.756	80.44
295.987	78.44
296.217	94.44
296.448	81.44
296.679	76.44
296.909	91.44
297.14	75.44
297.37	65.44
297.601	82.44
297.831	80.44
298.062	78.44
298.292	93.44
298.523	87.44
298.753	84.44
298.984	88.44
299.214	90.44
299.445	90.44
299.675	79.44
299.905	79.44
300.136	90.44
300.366	77.44
300.597	88.44
300.827	102.44
301.057	94.44
301.288	71.44
301.518	70.44
301.748	99.44
301.979	108.44
302.209	86.44
302.439	88.44
302.669	79.44
302.9	66.44
303.13	83.44
303.36	92.44
303.59	73.44
303.82	78.44
304.051	74.44
304.281	76.44
304.511	79.44
304.741	89.44
304.971	82.44
305.201	85.44
305.431	86.44
305.661	92.44
305.891	86.44
306.121	76.44
306.352	70.44
306.582	86.44
306.812	86.44
307.042	81.44
307.272	93.44
307.502	87.44
307.731	80.44
307.961	86.44
308.191	88.44
308.421	96.44
308.651	97.44
308.881	100.44
309.111	107.44
309.341	108.44
309.571	101.44
309.8	92.44
310.03	84.44
310.26	83.44
310.49	85.44
310.72	80.44
310.949	77.44
311.179	81.44
311.409	82.44
311.639	80.44
311.868	89.44
312.098	85.44
312.328	98.44
312.557	79.44
312.787	73.44
313.017	76.44
313.246	80.44
313.476	71.44
313.706	77.44
313.935	78.44
314.165	84.44
314.394	88.44
314.624	82.44
314.853	85.44
315.083	109.44
315.312	93.44
315.542	95.44
315.771	100.44
316.001	117.44
316.23	112.44
316.46	79.44
316.689	85.44
316.919	76.44
317.148	85.44
317.377	101.44
317.607	93.44
317.836	117.44
318.065	137.44
318.295	103.44
318.524	88.44
318.753	90.44
318.983	80.44
319.212	87.44
319.441	96.44
319.67	86.44
319.9	87.44
320.129	82.44
320.358	78.44
320.587	90.44
320.816	92.44
321.046	90.44
321.275	82.44
321.504	91.44
321.733	84.44
321.962	84.44
322.191	86.44
322.42	87.44
322.649	97.44
322.878	101.44
323.108	91.44
323.337	89.44
323.566	92.44
323.795	97.44
324.024	96.44
324.253	92.44
324.482	78.44
324.71	88.44
324.939	92.44
325.168	87.44
325.397	73.44
325.626	81.44
325.855	89.44
326.084	81.44
326.313	71.44
326.542	74.44
326.77	79.44
326.999	80.44
327.228	80.44
327.457	81.44
327.686	93.44
327.914	86.44
328.143	79.44
328.372	81.44
328.6	72.44
328.829	79.44
329.058	86.44
329.287	83.44
329.515	80.44
329.744	98.44
329.972	80.44
330.201	98.44
330.43	79.44
330.658	88.44
330.887	83.44
331.115	84.44
331.344	65.44
331.572	70.44
331.801	89.44
332.03	85.44
332.258	82.44
332.486	87.44
332.715	85.44
332.943	81.44
333.172	81.44
333.4	88.44
333.629	93.44
333.857	92.44
334.085	103.44
334.314	98.44
334.542	101.44
334.771	106.44
334.999	115.44
335.227	80.44
335.455	102.44
335.684	99.44
335.912	93.44
336.14	99.44
336.369	94.44
336.597	96.44
336.825	93.44
337.053	86.44
337.281	118.44
337.51	91.44
337.738	94.44
337.966	93.44
338.194	77.44
338.422	79.44
338.65	97.44
338.878	87.44
339.106	89.44
339.334	80.44
339.562	78.44
339.79	66.44
340.018	89.44
340.246	87.44
340.474	87.44
340.702	89.44
340.93	91.44
341.158	70.44
341.386	83.44
341.614	87.44
341.842	77.44
342.07	94.44
342.298	72.44
342.526	86.44
342.754	83.44
342.981	88.44
343.209	87.44
343.437	90.44
343.665	82.44
343.893	104.44
344.12	107.44
344.348	93.44
344.576	91.44
344.804	72.44
345.031	89.44
345.259	65.44
345.487	88.44
345.714	77.44
345.942	77.44
346.17	86.44
346.397	95.44
346.625	88.44
346.853	73.44
347.08	78.44
347.308	98.44
347.535	95.44
347.763	74.44
347.99	71.44
348.218	84.44
348.445	77.44
348.673	88.44
348.9	84.44
349.128	75.44
349.355	78.44
349.583	75.44
349.81	72.44
350.037	80.44
350.265	86.44
350.492	83.44
350.72	84.44
350.947	81.44
351.174	68.44
351.402	84.44
351.629	97.44
351.856	91.44
352.083	72.44
352.311	92.44
352.538	77.44
352.765	95.44
352.992	81.44
353.22	78.44
353.447	69.44
353.674	84.44
353.901	81.44
354.128	89.44
354.355	83.44
354.583	82.44
354.81	86.44
355.037	85.44
355.264	85.44
355.491	81.44
355.718	81.44
355.945	79.44
356.172	80.44
356.399	87.44
356.626	77.44
356.853	96.44
357.08	96.44
357.307	91.44
357.534	89.44
357.761	87.44
357.988	101.44
358.215	110.44
358.441	100.44
358.668	89.44
358.895	93.44
359.122	98.44
359.349	77.44
359.576	85.44
359.802	88.44
360.029	79.44
360.256	81.44
360.483	82.44
360.709	77.44
360.936	100.44
361.163	92.44
361.39	72.44
361.616	85.44
361.843	96.44
362.07	106.44
362.296	110.44
362.523	99.44
362.749	120.44
362.976	109.44
363.203	122.44
363.429	106.44
363.656	107.44
363.882	103.44
364.109	112.44
364.335	129.44
364.562	145.44
364.788	99.44
365.015	99.44
365.241	101.44
365.468	101.44
365.694	86.44
365.92	85.44
366.147	91.44
366.373	78.44
366.599	77.44
366.826	88.44
367.052	74.44
367.278	76.44
367.505	81.44
367.731	85.44
367.957	84.44
368.184	88.44
368.41	88.44
368.636	89.44
368.862	92.44
369.089	86.44
369.315	86.44
369.541	72.44
369.767	76.44
369.993	93.44
370.219	93.44
370.445	96.44
370.672	113.44
370.898	95.44
371.124	99.44
371.35	78.44
371.576	93.44
371.802	93.44
372.028	120.44
372.254	97.44
372.48	82.44
372.706	90.44
372.932	101.44
373.158	114.44
373.384	122.44
373.61	126.44
373.835	146.44
374.061	109.44
374.287	97.44
374.513	102.44
374.739	94.44
374.965	112.44
375.191	104.44
375.416	90.44
375.642	100.44
375.868	114.44
376.094	113.44
376.319	91.44
376.545	93.44
376.771	110.44
376.997	96.44
377.222	91.44
377.448	80.44
377.674	95.44
377.899	93.44
378.125	94.44
378.35	84.44
378.576	81.44
378.802	86.44
379.027	80.44
379.253	89.44
379.478	83.44
379.704	70.44
379.929	92.44
380.155	77.44
380.38	79.44
380.606	93.44
380.831	85.44
381.057	93.44
381.282	99.44
381.507	98.44
381.733	88.44
381.958	110.44
382.184	110.44
382.409	96.44
382.634	110.44
382.86	106.44
383.085	93.44
383.31	93.44
383.535	110.44
383.761	112.44
383.986	113.44
384.211	106.44
384.436	88.44
384.662	95.44
384.887	93.44
385.112	101.44
385.337	83.44
385.562	95.44
385.787	88.44
386.013	136.44
386.238	109.44
386.463	92.44
386.688	98.44
386.913	95.44
387.138	85.44
387.363	99.44
387.588	94.44
387.813	112.44
388.038	113.44
388.263	114.44
388.488	109.44
388.713	105.44
388.938	101.44
389.163	82.44
389.387	84.44
389.612	90.44
389.837	90.44
390.062	75.44
390.287	82.44
390.512	110.44
390.736	81.44
390.961	79.44
391.186	102.44
391.411	84.44
391.636	92.44
391.86	92.44
392.085	113.44
392.31	98.44
392.534	106.44
392.759	148.44
392.984	248.44
393.208	521.44
393.433	792.44
393.658	580.44
393.882	220.44
394.107	129.44
394.331	150.44
394.556	159.44
394.78	137.44
395.005	116.44
395.229	92.44
395.454	113.44
395.678	127.44
395.903	151.44
396.127	201.44
396.352	238.44
396.576	302.44
396.801	505.44
397.025	616.44
397.249	286.44
397.474	140.44
397.698	112.44
397.922	93.44
398.147	84.44
398.371	95.44
398.595	88.44
398.82	92.44
399.044	89.44
399.268	83.44
399.492	88.44
399.717	77.44
399.941	87.44
400.165	95.44
400.389	90.44
400.613	85.44
400.837	79.44
401.062	86.44
401.286	69.44
401.51	81.44
401.734	81.44
401.958	72.44
402.182	84.44
402.406	79.44
402.63	83.44
402.854	87.44
403.078	76.44
403.302	61.44
403.526	81.44
403.75	83.44
403.974	90.44
404.198	103.44
404.422	127.44
404.645	158.44
404.869	138.44
405.093	93.44
405.317	88.44
405.541	71.44
405.765	74.44
405.988	93.44
406.212	94.44
406.436	96.44
406.66	85.44
406.883	82.44
407.107	90.44
407.331	87.44
407.555	113.44
407.778	136.44
408.002	147.44
408.226	96.44
408.449	86.44
408.673	86.44
408.896	77.44
409.12	85.44
409.344	93.44
409.567	108.44
409.791	95.44
410.014	103.44
410.238	95.44
410.461	93.44
410.685	80.44
410.908	77.44
411.132	64.44
411.355	83.44
411.578	81.44
411.802	89.44
412.025	90.44
412.249	73.44
412.472	84.44
412.695	85.44
412.919	86.44
413.142	92.44
413.365	80.44
413.589	89.44
413.812	72.44
414.035	85.44
414.258	74.44
414.482	80.44
414.705	80.44
414.928	85.44
415.151	78.44
415.374	89.44
415.597	84.44
415.821	96.44
416.044	67.44
416.267	66.44
416.49	84.44
416.713	87.44
416.936	80.44
417.159	70.44
417.382	68.44
417.605	90.44
417.828	76.44
418.051	84.44
418.274	76.44
418.497	81.44
418.72	86.44
418.943	91.44
419.166	83.44
419.389	80.44
419.611	87.44
419.834	73.44
420.057	84.44
420.28	82.44
420.503	97.44
420.726	90.44
420.948	90.44
421.171	101.44
421.394	117.44
421.617	146.44
421.839	140.44
422.062	140.44
422.285	183.44
422.507	351.44
422.73	599.44
422.953	506.44
423.175	238.44
423.398	122.44
423.621	105.44
423.843	96.44
424.066	98.44
424.288	84.44
424.511	80.44
424.733	89.44
424.956	80.44
425.178	86.44
425.401	81.44
425.623	91.44
425.846	87.44
426.068	103.44
426.291	91.44
426.513	87.44
426.735	86.44
426.958	80.44
427.18	92.44
427.402	99.44
427.625	96.44
427.847	81.44
428.069	110.44
428.292	145.44
428.514	176.44
428.736	112.44
428.958	149.44
429.181	159.44
429.403	112.44
429.625	110.44
429.847	145.44
430.069	228.44
430.292	248.44
430.514	225.44
430.736	170.44
430.958	181.44
431.18	103.44
431.402	96.44
431.624	113.44
431.846	128.44
432.068	168.44
432.29	114.44
432.512	88.44
432.734	90.44
432.956	85.44
433.178	82.44
433.4	79.44
433.622	86.44
433.844	78.44
434.066	68.44
434.287	81.44
434.509	75.44
434.731	72.44
434.953	92.44
435.175	72.44
435.397	80.44
435.618	97.44
435.84	87.44
436.062	86.44
436.284	89.44
436.505	86.44
436.727	81.44
436.949	88.44
437.17	78.44
437.392	86.44
437.614	75.44
437.835	95.44
438.057	75.44
438.278	100.44
438.5	93.44
438.721	94.44
438.943	84.44
439.165	65.44
439.386	78.44
439.608	80.44
439.829	88.44
440.05	84.44
440.272	72.44
440.493	94.44
440.715	85.44
440.936	82.44
441.158	85.44
441.379	64.44
441.6	87.44
441.822	98.44
442.043	81.44
442.264	103.44
442.486	134.44
442.707	208.44
442.928	139.44
443.149	130.44
443.371	207.44
443.592	334.44
443.813	270.44
444.034	115.44
444.255	93.44
444.476	102.44
444.698	92.44
444.919	99.44
445.14	188.44
445.361	261.44
445.582	395.44
445.803	348.44
446.024	135.44
446.245	92.44
446.466	87.44
446.687	76.44
446.908	93.44
447.129	78.44
447.35	89.44
447.571	94.44
447.792	94.44
448.013	69.44
448.234	74.44
448.455	80.44
448.675	76.44
448.896	79.44
449.117	105.44
449.338	78.44
449.559	94.44
449.779	86.44
450	85.44
450.221	71.44
450.442	86.44
450.662	85.44
450.883	85.44
451.104	91.44
451.324	84.44
451.545	82.44
451.766	87.44
451.986	74.44
452.207	89.44
452.428	94.44
452.648	80.44
452.869	90.44
453.089	101.44
453.31	99.44
453.53	114.44
453.751	108.44
453.971	82.44
454.192	77.44
454.412	86.44
454.633	70.44
454.853	74.44
455.073	84.44
455.294	95.44
455.514	95.44
455.734	87.44
455.955	87.44
456.175	96.44
456.395	105.44
456.616	88.44
456.836	90.44
457.056	80.44
457.276	88.44
457.497	73.44
457.717	102.44
457.937	111.44
458.157	122.44
458.377	129.44
458.598	116.44
458.818	125.44
459.038	87.44
459.258	82.44
459.478	86.44
459.698	96.44
459.918	82.44
460.138	74.44
460.358	95.44
460.578	104.44
460.798	134.44
461.018	122.44
461.238	95.44
461.458	99.44
461.678	78.44
461.898	90.44
462.118	80.44
462.338	69.44
462.558	70.44
462.777	83.44
462.997	80.44
463.217	65.44
463.437	74.44
463.657	79.44
463.876	74.44
464.096	84.44
464.316	78.44
464.536	94.44
464.755	82.44
464.975	73.44
465.195	80.44
465.414	77.44
465.634	84.44
465.854	86.44
466.073	87.44
466.293	81.44
466.512	72.44
466.732	78.44
466.951	85.44
467.171	96.44
467.391	86.44
467.61	72.44
467.829	64.44
468.049	104.44
468.268	86.44
468.488	97.44
468.707	72.44
468.927	97.44
469.146	73.44
469.365	76.44
469.585	77.44
469.804	85.44
470.023	73.44
470.243	77.44
470.462	84.44
470.681	90.44
470.901	85.44
471.12	81.44
471.339	81.44
471.558	72.44
471.777	81.44
471.997	78.44
472.216	90.44
472.435	79.44
472.654	73.44
472.873	87.44
473.092	74.44
473.311	89.44
473.53	94.44
473.749	83.44
473.968	84.44
474.187	85.44
474.406	69.44
474.625	76.44
474.844	86.44
475.063	77.44
475.282	89.44
475.501	69.44
475.72	87.44
475.939	65.44
476.158	82.44
476.377	78.44
476.596	88.44
476.814	75.44
477.033	76.44
477.252	87.44
477.471	82.44
477.69	87.44
477.908	92.44
478.127	64.44
478.346	88.44
478.564	101.44
478.783	71.44
479.002	76.44
479.22	68.44
479.439	80.44
479.658	89.44
479.876	90.44
480.095	80.44
480.313	80.44
480.532	84.44
480.751	82.44
480.969	79.44
481.188	87.44
481.406	77.44
481.624	94.44
481.843	85.44
482.061	85.44
482.28	78.44
482.498	83.44
482.717	79.44
482.935	92.44
483.153	83.44
483.372	83.44
483.59	75.44
483.808	82.44
484.027	89.44
484.245	85.44
484.463	72.44
484.681	90.44
484.9	83.44
485.118	82.44
485.336	94.44
485.554	86.44
485.772	88.44
485.99	77.44
486.209	87.44
486.427	82.44
486.645	83.44
486.863	86.44
487.081	86.44
487.299	87.44
487.517	94.44
487.735	118.44
487.953	168.44
488.171	169.44
488.389	94.44
488.607	79.44
488.825	79.44
489.043	93.44
489.261	115.44
489.479	88.44
489.696	94.44
489.914	80.44
490.132	86.44
490.35	75.44
490.568	77.44
490.786	90.44
491.003	95.44
491.221	82.44
491.439	91.44
491.657	89.44
491.874	92.44
492.092	82.44
492.31	99.44
492.527	71.44
492.745	80.44
492.963	92.44
493.18	82.44
493.398	88.44
493.615	97.44
493.833	92.44
494.05	88.44
494.268	80.44
494.485	95.44
494.703	95.44
494.92	85.44
495.138	69.44
495.355	82.44
495.573	91.44
495.79	108.44
496.008	100.44
496.225	88.44
496.442	74.44
496.66	82.44
496.877	78.44
497.094	103.44
497.312	90.44
497.529	81.44
497.746	89.44
497.963	86.44
498.181	110.44
498.398	120.44
498.615	90.44
498.832	85.44
499.049	93.44
499.267	132.44
499.484	98.44
499.701	94.44
499.918	113.44
500.135	110.44
500.352	93.44
500.569	92.44
500.786	90.44
501.003	114.44
501.22	104.44
501.437	87.44
501.654	102.44
501.871	84.44
502.088	86.44
502.305	88.44
502.522	91.44
502.739	85.44
502.956	84.44
503.172	94.44
503.389	74.44
503.606	79.44
503.823	113.44
504.04	114.44
504.256	136.44
504.473	135.44
504.69	95.44
504.907	90.44
505.123	75.44
505.34	100.44
505.557	97.44
505.773	104.44
505.99	64.44
506.207	84.44
506.423	74.44
506.64	88.44
506.856	80.44
507.073	64.44
507.289	97.44
507.506	87.44
507.722	80.44
507.939	87.44
508.155	89.44
508.372	90.44
508.588	86.44
508.805	81.44
509.021	80.44
509.238	86.44
509.454	70.44
509.67	75.44
509.887	79.44
510.103	94.44
510.319	74.44
510.536	96.44
510.752	85.44
510.968	81.44
511.184	88.44
511.401	100.44
511.617	90.44
511.833	87.44
512.049	88.44
512.265	72.44
512.481	82.44
512.698	85.44
512.914	85.44
513.13	81.44
513.346	66.44
513.562	81.44
513.778	87.44
513.994	88.44
514.21	85.44
514.426	104.44
514.642	103.44
514.858	100.44
515.074	85.44
515.29	78.44
515.506	81.44
515.721	80.44
515.937	78.44
516.153	80.44
516.369	71.44
516.585	85.44
516.801	89.44
517.016	79.44
517.232	88.44
517.448	108.44
517.664	87.44
517.879	82.44
518.095	78.44
518.311	87.44
518.527	110.44
518.742	94.44
518.958	138.44
519.173	170.44
519.389	113.44
519.605	80.44
519.82	98.44
520.036	82.44
520.251	81.44
520.467	78.44
520.682	86.44
520.898	96.44
521.113	108.44
521.329	88.44
521.544	89.44
521.76	82.44
521.975	93.44
522.19	74.44
522.406	84.44
522.621	84.44
522.836	95.44
523.052	99.44
523.267	90.44
523.482	78.44
523.698	85.44
523.913	88.44
524.128	82.44
524.343	92.44
524.559	93.44
524.774	90.44
524.989	85.44
525.204	88.44
525.419	93.44
525.634	88.44
525.849	104.44
526.064	124.44
526.28	214.44
526.495	341.44
526.71	393.44
526.925	275.44
527.14	358.44
527.355	304.44
527.57	122.44
527.785	100.44
527.999	97.44
528.214	86.44
528.429	93.44
528.644	96.44
528.859	69.44
529.074	82.44
529.289	80.44
529.503	88.44
529.718	95.44
529.933	70.44
530.148	96.44
530.363	87.44
530.577	79.44
530.792	83.44
531.007	97.44
531.221	73.44
531.436	78.44
531.651	83.44
531.865	86.44
532.08	85.44
532.295	89.44
532.509	74.44
532.724	102.44
532.938	103.44
533.153	84.44
533.367	89.44
533.582	92.44
533.796	90.44
534.011	92.44
534.225	94.44
534.44	103.44
534.654	101.44
534.868	114.44
535.083	189.44
535.297	153.44
535.511	113.44
535.726	105.44
535.94	97.44
536.154	94.44
536.369	95.44
536.583	87.44
536.797	98.44
537.011	89.44
537.225	94.44
537.44	98.44
537.654	73.44
537.868	97.44
538.082	79.44
538.296	87.44
538.51	95.44
538.724	91.44
538.938	97.44
539.153	98.44
539.367	88.44
539.581	87.44
539.795	84.44
540.009	90.44
540.222	98.44
540.436	89.44
540.65	91.44
540.864	100.44
541.078	97.44
541.292	71.44
541.506	89.44
541.72	108.44
541.934	70.44
542.147	85.44
542.361	84.44
542.575	86.44
542.789	93.44
543.002	95.44
543.216	97.44
543.43	87.44
543.644	81.44
543.857	92.44
544.071	80.44
544.285	84.44
544.498	92.44
544.712	88.44
544.925	93.44
545.139	100.44
545.352	89.44
545.566	97.44
545.779	89.44
545.993	85.44
546.206	89.44
546.42	75.44
546.633	86.44
546.847	106.44
547.06	99.44
547.274	102.44
547.487	117.44
547.7	105.44
547.914	114.44
548.127	121.44
548.34	142.44
548.554	133.44
548.767	118.44
548.98	141.44
549.193	142.44
549.407	126.44
549.62	129.44
549.833	137.44
550.046	135.44
550.259	139.44
550.473	145.44
550.686	147.44
550.899	162.44
551.112	180.44
551.325	178.44
551.538	180.44
551.751	186.44
551.964	158.44
552.177	145.44
552.39	180.44
552.603	158.44
552.816	144.44
553.029	140.44
553.242	142.44
553.455	148.44
553.667	165.44
553.88	153.44
554.093	157.44
554.306	168.44
554.519	146.44
554.732	162.44
554.944	164.44
555.157	158.44
555.37	149.44
555.583	143.44
555.795	148.44
556.008	127.44
556.221	134.44
556.433	133.44
556.646	131.44
556.859	114.44
557.071	110.44
557.284	105.44
557.496	113.44
557.709	122.44
557.921	117.44
558.134	112.44
558.346	189.44
558.559	186.44
558.771	159.44
558.984	383.44
559.196	486.44
559.409	254.44
559.621	361.44
559.833	258.44
560.046	330.44
560.258	258.44
560.47	229.44
560.683	136.44
560.895	108.44
561.107	86.44
561.32	96.44
561.532	100.44
561.744	81.44
561.956	94.44
562.168	94.44
562.381	99.44
562.593	85.44
562.805	80.44
563.017	82.44
563.229	93.44
563.441	94.44
563.653	78.44
563.865	82.44
564.077	86.44
564.289	79.44
564.501	83.44
564.713	103.44
564.925	89.44
565.137	85.44
565.349	88.44
565.561	88.44
565.773	93.44
565.985	102.44
566.197	77.44
566.408	98.44
566.62	78.44
566.832	85.44
567.044	86.44
567.255	88.44
567.467	90.44
567.679	87.44
567.891	74.44
568.102	94.44
568.314	92.44
568.526	102.44
568.737	104.44
568.949	95.44
569.161	96.44
569.372	96.44
569.584	93.44
569.795	88.44
570.007	92.44
570.218	85.44
570.43	80.44
570.641	76.44
570.853	72.44
571.064	86.44
571.276	78.44
571.487	89.44
571.698	94.44
571.91	87.44
572.121	85.44
572.333	80.44
572.544	88.44
572.755	87.44
572.966	83.44
573.178	94.44
573.389	74.44
573.6	80.44
573.811	85.44
574.023	91.44
574.234	100.44
574.445	96.44
574.656	80.44
574.867	84.44
575.078	95.44
575.289	88.44
575.501	92.44
575.712	79.44
575.923	80.44
576.134	78.44
576.345	93.44
576.556	89.44
576.767	80.44
576.978	78.44
577.188	86.44
577.399	78.44
577.61	90.44
577.821	93.44
578.032	82.44
578.243	81.44
578.454	97.44
578.665	91.44
578.875	94.44
579.086	89.44
579.297	87.44
579.508	89.44
579.718	117.44
579.929	86.44
580.14	92.44
580.35	91.44
580.561	82.44
580.772	88.44
580.982	85.44
581.193	72.44
581.403	76.44
581.614	86.44
581.825	85.44
582.035	74.44
582.246	75.44
582.456	82.44
582.667	80.44
582.877	101.44
583.087	85.44
583.298	92.44
583.508	90.44
583.719	83.44
583.929	104.44
584.139	84.44
584.35	86.44
584.56	87.44
584.77	86.44
584.981	86.44
585.191	90.44
585.401	97.44
585.611	102.44
585.821	170.44
586.032	279.44
586.242	130.44
586.452	105.44
586.662	85.44
586.872	105.44
587.082	106.44
587.292	84.44
587.502	108.44
587.713	94.44
587.923	104.44
588.133	85.44
588.343	114.44
588.553	110.44
588.762	143.44
588.972	262.44
589.182	690.44
589.392	464.44
589.602	308.44
589.812	578.44
590.022	296.44
590.232	129.44
590.441	93.44
590.651	104.44
590.861	95.44
591.071	86.44
591.281	93.44
591.49	92.44
591.7	94.44
591.91	87.44
592.119	102.44
592.329	96.44
592.539	88.44
592.748	103.44
592.958	95.44
593.167	90.44
593.377	110.44
593.587	108.44
593.796	108.44
594.006	103.44
594.215	98.44
594.424	100.44
594.634	97.44
594.843	88.44
595.053	103.44
595.262	104.44
595.472	99.44
595.681	99.44
595.89	110.44
596.1	108.44
596.309	105.44
596.518	110.44
596.727	126.44
596.937	102.44
597.146	122.44
597.355	124.44
597.564	127.44
597.774	108.44
597.983	119.44
598.192	116.44
598.401	128.44
598.61	134.44
598.819	127.44
599.028	122.44
599.237	127.44
599.446	130.44
599.655	124.44
599.864	120.44
600.073	128.44
600.282	131.44
600.491	134.44
600.7	131.44
600.909	129.44
601.118	114.44
601.327	125.44
601.536	130.44
601.745	118.44
601.953	125.44
602.162	121.44
602.371	131.44
602.58	119.44
602.789	130.44
602.997	124.44
603.206	124.44
603.415	129.44
603.623	114.44
603.832	120.44
604.041	126.44
604.249	119.44
604.458	119.44
604.666	125.44
604.875	127.44
605.084	140.44
605.292	142.44
605.501	124.44
605.709	133.44
605.918	147.44
606.126	147.44
606.334	145.44
606.543	154.44
606.751	152.44
606.96	142.44
607.168	129.44
607.376	125.44
607.585	136.44
607.793	148.44
608.001	143.44
608.21	125.44
608.418	139.44
608.626	146.44
608.834	148.44
609.043	137.44
609.251	144.44
609.459	124.44
609.667	139.44
609.875	155.44
610.083	161.44
610.291	169.44
610.499	269.44
610.707	192.44
610.916	145.44
611.124	144.44
611.332	134.44
611.54	146.44
611.748	157.44
611.955	167.44
612.163	182.44
612.371	378.44
612.579	320.44
612.787	174.44
612.995	165.44
613.203	150.44
613.411	161.44
613.618	159.44
613.826	148.44
614.034	159.44
614.242	151.44
614.449	153.44
614.657	147.44
614.865	149.44
615.072	152.44
615.28	144.44
615.488	149.44
615.695	166.44
615.903	169.44
616.111	185.44
616.318	382.44
616.526	460.44
616.733	253.44
616.941	210.44
617.148	266.44
617.356	211.44
617.563	170.44
617.771	146.44
617.978	138.44
618.185	146.44
618.393	142.44
618.6	142.44
618.807	147.44
619.015	135.44
619.222	131.44
619.429	152.44
619.637	141.44
619.844	136.44
620.051	131.44
620.258	138.44
620.466	113.44
620.673	135.44
620.88	144.44
621.087	133.44
621.294	134.44
621.501	141.44
621.708	138.44
621.915	137.44
622.122	136.44
622.329	133.44
622.536	141.44
622.743	163.44
622.95	143.44
623.157	156.44
623.364	148.44
623.571	149.44
623.778	150.44
623.985	146.44
624.192	148.44
624.399	139.44
624.606	147.44
624.812	148.44
625.019	157.44
625.226	151.44
625.433	142.44
625.639	152.44
625.846	148.44
626.053	121.44
626.259	122.44
626.466	136.44
626.673	116.44
626.879	103.44
627.086	118.44
627.293	128.44
627.499	118.44
627.706	119.44
627.912	125.44
628.119	100.44
628.325	96.44
628.532	108.44
628.738	97.44
628.945	100.44
629.151	100.44
629.357	90.44
629.564	92.44
629.77	84.44
629.976	93.44
630.183	75.44
630.389	77.44
630.595	89.44
630.802	89.44
631.008	85.44
631.214	96.44
631.42	90.44
631.627	89.44
631.833	85.44
632.039	81.44
632.245	102.44
632.451	92.44
632.657	85.44
632.863	86.44
633.069	95.44
633.275	93.44
633.481	96.44
633.688	73.44
633.893	77.44
634.099	101.44
634.305	81.44
634.511	94.44
634.717	101.44
634.923	88.44
635.129	90.44
635.335	93.44
635.541	97.44
635.747	95.44
635.952	92.44
636.158	86.44
636.364	94.44
636.57	91.44
636.775	85.44
636.981	86.44
637.187	92.44
637.392	92.44
637.598	81.44
637.804	89.44
638.009	94.44
638.215	74.44
638.421	81.44
638.626	75.44
638.832	100.44
639.037	82.44
639.243	77.44
639.448	79.44
639.654	92.44
639.859	86.44
640.065	102.44
640.27	94.44
640.475	92.44
640.681	88.44
640.886	93.44
641.091	96.44
641.297	80.44
641.502	80.44
641.707	87.44
641.913	103.44
642.118	81.44
642.323	83.44
642.528	86.44
642.733	93.44
642.939	80.44
643.144	81.44
643.349	71.44
643.554	92.44
643.759	89.44
643.964	158.44
644.169	226.44
644.374	118.44
644.579	101.44
644.784	92.44
644.989	92.44
645.194	114.44
645.399	93.44
645.604	85.44
645.809	92.44
646.014	92.44
646.219	96.44
646.423	178.44
646.628	150.44
646.833	96.44
647.038	89.44
647.243	100.44
647.447	92.44
647.652	86.44
647.857	72.44
648.062	88.44
648.266	90.44
648.471	68.44
648.676	93.44
648.88	73.44
649.085	89.44
649.289	86.44
649.494	134.44
649.698	128.44
649.903	89.44
650.107	95.44
650.312	105.44
650.516	78.44
650.721	82.44
650.925	79.44
651.13	75.44
651.334	94.44
651.539	79.44
651.743	80.44
651.947	81.44
652.152	84.44
652.356	80.44
652.56	89.44
652.764	85.44
652.969	87.44
653.173	85.44
653.377	81.44
653.581	89.44
653.785	69.44
653.99	68.44
654.194	82.44
654.398	76.44
654.602	86.44
654.806	81.44
655.01	91.44
655.214	80.44
655.418	85.44
655.622	66.44
655.826	78.44
656.03	89.44
656.234	73.44
656.438	74.44
656.642	70.44
656.846	74.44
657.049	79.44
657.253	88.44
657.457	82.44
657.661	85.44
657.865	72.44
658.068	76.44
658.272	75.44
658.476	82.44
658.68	73.44
658.883	69.44
659.087	71.44
659.291	89.44
659.494	74.44
659.698	80.44
659.901	72.44
660.105	74.44
660.309	86.44
660.512	62.44
660.716	74.44
660.919	81.44
661.123	72.44
661.326	73.44
661.53	81.44
661.733	81.44
661.936	69.44
662.14	78.44
662.343	85.44
662.546	87.44
662.75	78.44
662.953	83.44
663.156	85.44
663.36	78.44
663.563	84.44
663.766	71.44
663.969	78.44
664.173	73.44
664.376	75.44
664.579	67.44
664.782	88.44
664.985	85.44
665.188	81.44
665.391	85.44
665.594	65.44
665.797	84.44
666	66.44
666.203	75.44
666.406	96.44
666.609	70.44
666.812	79.44
667.015	74.44
667.218	87.44
667.421	82.44
667.624	70.44
667.827	67.44
668.03	61.44
668.232	81.44
668.435	81.44
668.638	80.44
668.841	74.44
669.043	73.44
669.246	84.44
669.449	72.44
669.651	87.44
669.854	92.44
670.057	94.44
670.259	82.44
670.462	87.44
670.665	60.44
670.867	77.44
671.07	81.44
671.272	84.44
671.475	92.44
671.677	77.44
671.88	78.44
672.082	74.44
672.284	89.44
672.487	84.44
672.689	83.44
672.892	73.44
