Data from 15780_2_HRD10591_00026.txt Node
Date: Mon Jan 19 14:19:16 EST 2026
User: Yrep
Spectrometer: HR+D1059
Trigger mode: 1
Integration Time (sec): 1.000000E-1
Scans to average: 1
Electric dark correction enabled: true
Nonlinearity correction enabled: false
Boxcar width: 0
XAxis mode: Wavelengths
Number of Pixels in Spectrum: 2048
>>>>>Begin Spectral Data<<<<<
223.165	-28.31
223.4	-28.31
223.635	-28.31
223.869	-7.31
224.104	-19.31
224.338	-22.31
224.573	-11.31
224.808	-30.31
225.042	-3.31
225.277	-1.31
225.511	5.69
225.746	-7.31
225.98	11.69
226.215	16.69
226.449	10.69
226.683	24.69
226.918	30.69
227.152	30.69
227.387	37.69
227.621	38.69
227.856	34.69
228.09	56.69
228.324	50.69
228.559	70.69
228.793	49.69
229.027	66.69
229.262	53.69
229.496	58.69
229.73	61.69
229.964	58.69
230.199	76.69
230.433	72.69
230.667	79.69
230.901	76.69
231.136	88.69
231.37	76.69
231.604	79.69
231.838	68.69
232.072	78.69
232.306	93.69
232.541	73.69
232.775	70.69
233.009	89.69
233.243	92.69
233.477	87.69
233.711	75.69
233.945	80.69
234.179	70.69
234.413	66.69
234.647	86.69
234.881	78.69
235.115	86.69
235.349	84.69
235.583	88.69
235.817	83.69
236.051	78.69
236.285	85.69
236.519	78.69
236.753	76.69
236.987	69.69
237.221	84.69
237.455	85.69
237.689	66.69
237.922	82.69
238.156	75.69
238.39	65.69
238.624	87.69
238.858	84.69
239.091	86.69
239.325	80.69
239.559	75.69
239.793	80.69
240.027	97.69
240.26	78.69
240.494	68.69
240.728	74.69
240.961	85.69
241.195	72.69
241.429	78.69
241.662	85.69
241.896	66.69
242.13	70.69
242.363	86.69
242.597	80.69
242.83	77.69
243.064	79.69
243.298	68.69
243.531	73.69
243.765	65.69
243.998	76.69
244.232	77.69
244.465	77.69
244.699	68.69
244.932	68.69
245.166	80.69
245.399	79.69
245.633	77.69
245.866	76.69
246.099	74.69
246.333	69.69
246.566	75.69
246.8	69.69
247.033	73.69
247.266	82.69
247.5	70.69
247.733	86.69
247.966	84.69
248.2	76.69
248.433	67.69
248.666	75.69
248.899	81.69
249.133	81.69
249.366	86.69
249.599	88.69
249.832	70.69
250.066	83.69
250.299	85.69
250.532	76.69
250.765	72.69
250.998	76.69
251.231	65.69
251.465	79.69
251.698	88.69
251.931	94.69
252.164	65.69
252.397	80.69
252.63	80.69
252.863	72.69
253.096	82.69
253.329	74.69
253.562	84.69
253.795	84.69
254.028	93.69
254.261	81.69
254.494	87.69
254.727	71.69
254.96	84.69
255.193	71.69
255.426	77.69
255.659	78.69
255.892	74.69
256.124	71.69
256.357	81.69
256.59	76.69
256.823	75.69
257.056	91.69
257.289	92.69
257.521	83.69
257.754	79.69
257.987	68.69
258.22	79.69
258.452	84.69
258.685	86.69
258.918	87.69
259.151	74.69
259.383	72.69
259.616	70.69
259.849	76.69
260.081	85.69
260.314	78.69
260.547	68.69
260.779	76.69
261.012	86.69
261.244	84.69
261.477	89.69
261.71	73.69
261.942	73.69
262.175	77.69
262.407	91.69
262.64	72.69
262.872	73.69
263.105	76.69
263.337	85.69
263.57	91.69
263.802	83.69
264.035	78.69
264.267	87.69
264.499	92.69
264.732	70.69
264.964	75.69
265.197	80.69
265.429	81.69
265.661	89.69
265.894	85.69
266.126	88.69
266.358	86.69
266.591	93.69
266.823	67.69
267.055	86.69
267.287	75.69
267.52	82.69
267.752	90.69
267.984	72.69
268.216	88.69
268.448	77.69
268.681	76.69
268.913	97.69
269.145	71.69
269.377	80.69
269.609	80.69
269.841	83.69
270.073	83.69
270.306	87.69
270.538	96.69
270.77	99.69
271.002	76.69
271.234	84.69
271.466	76.69
271.698	97.69
271.93	83.69
272.162	83.69
272.394	72.69
272.626	90.69
272.858	89.69
273.09	92.69
273.322	75.69
273.553	91.69
273.785	88.69
274.017	75.69
274.249	78.69
274.481	81.69
274.713	92.69
274.945	80.69
275.176	81.69
275.408	86.69
275.64	83.69
275.872	87.69
276.104	84.69
276.335	86.69
276.567	89.69
276.799	73.69
277.031	80.69
277.262	73.69
277.494	88.69
277.726	80.69
277.957	84.69
278.189	93.69
278.421	76.69
278.652	92.69
278.884	96.69
279.115	90.69
279.347	76.69
279.579	84.69
279.81	92.69
280.042	78.69
280.273	84.69
280.505	100.69
280.736	83.69
280.968	78.69
281.199	89.69
281.431	66.69
281.662	77.69
281.894	100.69
282.125	94.69
282.356	77.69
282.588	88.69
282.819	75.69
283.051	84.69
283.282	77.69
283.513	90.69
283.745	80.69
283.976	81.69
284.207	98.69
284.439	88.69
284.67	90.69
284.901	74.69
285.132	79.69
285.364	96.69
285.595	72.69
285.826	82.69
286.057	80.69
286.288	83.69
286.52	77.69
286.751	88.69
286.982	99.69
287.213	88.69
287.444	91.69
287.675	86.69
287.906	84.69
288.138	84.69
288.369	94.69
288.6	87.69
288.831	96.69
289.062	84.69
289.293	80.69
289.524	82.69
289.755	90.69
289.986	95.69
290.217	82.69
290.448	95.69
290.679	94.69
290.91	89.69
291.141	80.69
291.371	88.69
291.602	87.69
291.833	76.69
292.064	84.69
292.295	94.69
292.526	84.69
292.757	74.69
292.987	82.69
293.218	84.69
293.449	87.69
293.68	85.69
293.91	82.69
294.141	94.69
294.372	77.69
294.603	75.69
294.833	84.69
295.064	99.69
295.295	82.69
295.525	84.69
295.756	82.69
295.987	83.69
296.217	72.69
296.448	94.69
296.679	90.69
296.909	92.69
297.14	85.69
297.37	81.69
297.601	99.69
297.831	77.69
298.062	93.69
298.292	80.69
298.523	87.69
298.753	77.69
298.984	79.69
299.214	84.69
299.445	96.69
299.675	100.69
299.905	91.69
300.136	78.69
300.366	82.69
300.597	88.69
300.827	92.69
301.057	76.69
301.288	75.69
301.518	89.69
301.748	83.69
301.979	100.69
302.209	90.69
302.439	87.69
302.669	96.69
302.9	81.69
303.13	84.69
303.36	78.69
303.59	76.69
303.82	73.69
304.051	82.69
304.281	82.69
304.511	88.69
304.741	88.69
304.971	95.69
305.201	90.69
305.431	100.69
305.661	82.69
305.891	81.69
306.121	93.69
306.352	75.69
306.582	84.69
306.812	80.69
307.042	76.69
307.272	92.69
307.502	76.69
307.731	91.69
307.961	77.69
308.191	86.69
308.421	79.69
308.651	82.69
308.881	94.69
309.111	91.69
309.341	96.69
309.571	80.69
309.8	92.69
310.03	77.69
310.26	92.69
310.49	89.69
310.72	84.69
310.949	86.69
311.179	83.69
311.409	84.69
311.639	94.69
311.868	79.69
312.098	81.69
312.328	88.69
312.557	85.69
312.787	78.69
313.017	88.69
313.246	97.69
313.476	83.69
313.706	75.69
313.935	89.69
314.165	88.69
314.394	84.69
314.624	70.69
314.853	88.69
315.083	86.69
315.312	75.69
315.542	77.69
315.771	89.69
316.001	72.69
316.23	79.69
316.46	90.69
316.689	97.69
316.919	83.69
317.148	80.69
317.377	100.69
317.607	89.69
317.836	94.69
318.065	84.69
318.295	92.69
318.524	75.69
318.753	84.69
318.983	93.69
319.212	79.69
319.441	78.69
319.67	86.69
319.9	77.69
320.129	71.69
320.358	95.69
320.587	77.69
320.816	76.69
321.046	90.69
321.275	86.69
321.504	112.69
321.733	81.69
321.962	82.69
322.191	93.69
322.42	91.69
322.649	103.69
322.878	98.69
323.108	93.69
323.337	84.69
323.566	83.69
323.795	100.69
324.024	83.69
324.253	91.69
324.482	82.69
324.71	92.69
324.939	72.69
325.168	79.69
325.397	81.69
325.626	90.69
325.855	77.69
326.084	83.69
326.313	91.69
326.542	78.69
326.77	80.69
326.999	84.69
327.228	76.69
327.457	77.69
327.686	76.69
327.914	83.69
328.143	93.69
328.372	92.69
328.6	85.69
328.829	92.69
329.058	84.69
329.287	77.69
329.515	87.69
329.744	84.69
329.972	76.69
330.201	87.69
330.43	82.69
330.658	74.69
330.887	90.69
331.115	99.69
331.344	95.69
331.572	90.69
331.801	94.69
332.03	89.69
332.258	81.69
332.486	84.69
332.715	69.69
332.943	70.69
333.172	85.69
333.4	90.69
333.629	80.69
333.857	80.69
334.085	85.69
334.314	92.69
334.542	94.69
334.771	81.69
334.999	89.69
335.227	85.69
335.455	89.69
335.684	98.69
335.912	97.69
336.14	106.69
336.369	99.69
336.597	89.69
336.825	78.69
337.053	82.69
337.281	77.69
337.51	90.69
337.738	86.69
337.966	95.69
338.194	87.69
338.422	83.69
338.65	82.69
338.878	84.69
339.106	93.69
339.334	107.69
339.562	80.69
339.79	87.69
340.018	84.69
340.246	89.69
340.474	82.69
340.702	89.69
340.93	90.69
341.158	88.69
341.386	92.69
341.614	101.69
341.842	96.69
342.07	104.69
342.298	88.69
342.526	82.69
342.754	74.69
342.981	92.69
343.209	84.69
343.437	91.69
343.665	78.69
343.893	92.69
344.12	96.69
344.348	106.69
344.576	86.69
344.804	92.69
345.031	89.69
345.259	93.69
345.487	100.69
345.714	86.69
345.942	83.69
346.17	72.69
346.397	91.69
346.625	88.69
346.853	81.69
347.08	88.69
347.308	84.69
347.535	88.69
347.763	93.69
347.99	83.69
348.218	81.69
348.445	85.69
348.673	74.69
348.9	83.69
349.128	81.69
349.355	89.69
349.583	77.69
349.81	83.69
350.037	92.69
350.265	90.69
350.492	75.69
350.72	91.69
350.947	84.69
351.174	74.69
351.402	86.69
351.629	86.69
351.856	93.69
352.083	87.69
352.311	84.69
352.538	94.69
352.765	97.69
352.992	92.69
353.22	86.69
353.447	74.69
353.674	77.69
353.901	93.69
354.128	72.69
354.355	92.69
354.583	75.69
354.81	78.69
355.037	74.69
355.264	78.69
355.491	97.69
355.718	86.69
355.945	78.69
356.172	89.69
356.399	74.69
356.626	100.69
356.853	96.69
357.08	90.69
357.307	92.69
357.534	80.69
357.761	106.69
357.988	93.69
358.215	84.69
358.441	106.69
358.668	99.69
358.895	80.69
359.122	82.69
359.349	82.69
359.576	73.69
359.802	84.69
360.029	90.69
360.256	85.69
360.483	96.69
360.709	76.69
360.936	91.69
361.163	80.69
361.39	88.69
361.616	82.69
361.843	83.69
362.07	98.69
362.296	84.69
362.523	91.69
362.749	96.69
362.976	99.69
363.203	114.69
363.429	89.69
363.656	87.69
363.882	84.69
364.109	97.69
364.335	95.69
364.562	100.69
364.788	92.69
365.015	98.69
365.241	98.69
365.468	93.69
365.694	74.69
365.92	92.69
366.147	83.69
366.373	80.69
366.599	80.69
366.826	94.69
367.052	85.69
367.278	98.69
367.505	95.69
367.731	98.69
367.957	87.69
368.184	76.69
368.41	80.69
368.636	91.69
368.862	85.69
369.089	84.69
369.315	79.69
369.541	94.69
369.767	92.69
369.993	82.69
370.219	84.69
370.445	96.69
370.672	97.69
370.898	79.69
371.124	95.69
371.35	90.69
371.576	92.69
371.802	88.69
372.028	94.69
372.254	92.69
372.48	85.69
372.706	92.69
372.932	84.69
373.158	81.69
373.384	91.69
373.61	103.69
373.835	86.69
374.061	84.69
374.287	90.69
374.513	91.69
374.739	89.69
374.965	86.69
375.191	91.69
375.416	100.69
375.642	81.69
375.868	76.69
376.094	91.69
376.319	73.69
376.545	107.69
376.771	78.69
376.997	85.69
377.222	90.69
377.448	95.69
377.674	73.69
377.899	97.69
378.125	81.69
378.35	79.69
378.576	98.69
378.802	90.69
379.027	92.69
379.253	80.69
379.478	93.69
379.704	85.69
379.929	75.69
380.155	81.69
380.38	91.69
380.606	92.69
380.831	91.69
381.057	79.69
381.282	62.69
381.507	86.69
381.733	81.69
381.958	84.69
382.184	89.69
382.409	88.69
382.634	83.69
382.86	93.69
383.085	93.69
383.31	91.69
383.535	103.69
383.761	86.69
383.986	90.69
384.211	84.69
384.436	78.69
384.662	89.69
384.887	98.69
385.112	76.69
385.337	81.69
385.562	81.69
385.787	79.69
386.013	91.69
386.238	86.69
386.463	78.69
386.688	93.69
386.913	81.69
387.138	87.69
387.363	74.69
387.588	82.69
387.813	81.69
388.038	78.69
388.263	86.69
388.488	82.69
388.713	74.69
388.938	79.69
389.163	74.69
389.387	68.69
389.612	90.69
389.837	85.69
390.062	85.69
390.287	76.69
390.512	76.69
390.736	98.69
390.961	77.69
391.186	88.69
391.411	84.69
391.636	90.69
391.86	93.69
392.085	85.69
392.31	76.69
392.534	91.69
392.759	98.69
392.984	105.69
393.208	165.69
393.433	218.69
393.658	177.69
393.882	109.69
394.107	101.69
394.331	104.69
394.556	101.69
394.78	92.69
395.005	86.69
395.229	88.69
395.454	86.69
395.678	84.69
395.903	102.69
396.127	92.69
396.352	120.69
396.576	133.69
396.801	180.69
397.025	186.69
397.249	118.69
397.474	94.69
397.698	83.69
397.922	80.69
398.147	92.69
398.371	92.69
398.595	86.69
398.82	88.69
399.044	77.69
399.268	80.69
399.492	78.69
399.717	78.69
399.941	77.69
400.165	91.69
400.389	69.69
400.613	69.69
400.837	76.69
401.062	84.69
401.286	82.69
401.51	77.69
401.734	83.69
401.958	70.69
402.182	70.69
402.406	66.69
402.63	84.69
402.854	92.69
403.078	88.69
403.302	99.69
403.526	90.69
403.75	83.69
403.974	92.69
404.198	81.69
404.422	90.69
404.645	87.69
404.869	93.69
405.093	81.69
405.317	72.69
405.541	104.69
405.765	87.69
405.988	74.69
406.212	89.69
406.436	86.69
406.66	84.69
406.883	80.69
407.107	83.69
407.331	93.69
407.555	88.69
407.778	86.69
408.002	90.69
408.226	79.69
408.449	77.69
408.673	84.69
408.896	75.69
409.12	85.69
409.344	84.69
409.567	91.69
409.791	81.69
410.014	82.69
410.238	79.69
410.461	82.69
410.685	74.69
410.908	92.69
411.132	80.69
411.355	78.69
411.578	90.69
411.802	81.69
412.025	88.69
412.249	101.69
412.472	76.69
412.695	66.69
412.919	79.69
413.142	72.69
413.365	92.69
413.589	84.69
413.812	86.69
414.035	91.69
414.258	77.69
414.482	79.69
414.705	88.69
414.928	98.69
415.151	80.69
415.374	84.69
415.597	80.69
415.821	87.69
416.044	82.69
416.267	72.69
416.49	76.69
416.713	77.69
416.936	77.69
417.159	67.69
417.382	98.69
417.605	88.69
417.828	98.69
418.051	97.69
418.274	86.69
418.497	100.69
418.72	82.69
418.943	84.69
419.166	64.69
419.389	82.69
419.611	94.69
419.834	81.69
420.057	79.69
420.28	80.69
420.503	82.69
420.726	79.69
420.948	89.69
421.171	88.69
421.394	90.69
421.617	98.69
421.839	85.69
422.062	91.69
422.285	114.69
422.507	170.69
422.73	236.69
422.953	222.69
423.175	129.69
423.398	92.69
423.621	86.69
423.843	82.69
424.066	90.69
424.288	93.69
424.511	72.69
424.733	76.69
424.956	89.69
425.178	85.69
425.401	90.69
425.623	89.69
425.846	74.69
426.068	90.69
426.291	97.69
426.513	74.69
426.735	71.69
426.958	90.69
427.18	93.69
427.402	85.69
427.625	84.69
427.847	87.69
428.069	96.69
428.292	112.69
428.514	90.69
428.736	103.69
428.958	95.69
429.181	98.69
429.403	86.69
429.625	77.69
429.847	97.69
430.069	117.69
430.292	116.69
430.514	133.69
430.736	102.69
430.958	101.69
431.18	89.69
431.402	81.69
431.624	88.69
431.846	112.69
432.068	99.69
432.29	90.69
432.512	88.69
432.734	84.69
432.956	76.69
433.178	80.69
433.4	75.69
433.622	79.69
433.844	69.69
434.066	84.69
434.287	79.69
434.509	85.69
434.731	82.69
434.953	73.69
435.175	74.69
435.397	94.69
435.618	79.69
435.84	76.69
436.062	86.69
436.284	80.69
436.505	76.69
436.727	79.69
436.949	84.69
437.17	82.69
437.392	83.69
437.614	84.69
437.835	79.69
438.057	92.69
438.278	78.69
438.5	84.69
438.721	72.69
438.943	80.69
439.165	88.69
439.386	84.69
439.608	87.69
439.829	74.69
440.05	72.69
440.272	76.69
440.493	96.69
440.715	73.69
440.936	82.69
441.158	79.69
441.379	94.69
441.6	74.69
441.822	74.69
442.043	71.69
442.264	88.69
442.486	95.69
442.707	106.69
442.928	99.69
443.149	88.69
443.371	99.69
443.592	144.69
443.813	108.69
444.034	84.69
444.255	86.69
444.476	84.69
444.698	85.69
444.919	81.69
445.14	193.69
445.361	146.69
445.582	152.69
445.803	133.69
446.024	92.69
446.245	89.69
446.466	89.69
446.687	80.69
446.908	78.69
447.129	86.69
447.35	94.69
447.571	89.69
447.792	83.69
448.013	95.69
448.234	76.69
448.455	89.69
448.675	99.69
448.896	74.69
449.117	80.69
449.338	74.69
449.559	87.69
449.779	84.69
450	86.69
450.221	84.69
450.442	77.69
450.662	91.69
450.883	88.69
451.104	70.69
451.324	84.69
451.545	83.69
451.766	77.69
451.986	84.69
452.207	82.69
452.428	104.69
452.648	88.69
452.869	93.69
453.089	86.69
453.31	73.69
453.53	89.69
453.751	72.69
453.971	75.69
454.192	86.69
454.412	85.69
454.633	78.69
454.853	78.69
455.073	78.69
455.294	82.69
455.514	83.69
455.734	90.69
455.955	75.69
456.175	84.69
456.395	71.69
456.616	81.69
456.836	67.69
457.056	82.69
457.276	82.69
457.497	71.69
457.717	71.69
457.937	91.69
458.157	100.69
458.377	82.69
458.598	83.69
458.818	91.69
459.038	82.69
459.258	85.69
459.478	88.69
459.698	85.69
459.918	97.69
460.138	89.69
460.358	86.69
460.578	104.69
460.798	108.69
461.018	93.69
461.238	90.69
461.458	96.69
461.678	81.69
461.898	72.69
462.118	78.69
462.338	92.69
462.558	80.69
462.777	86.69
462.997	86.69
463.217	74.69
463.437	84.69
463.657	106.69
463.876	80.69
464.096	89.69
464.316	90.69
464.536	89.69
464.755	87.69
464.975	82.69
465.195	77.69
465.414	81.69
465.634	87.69
465.854	70.69
466.073	92.69
466.293	92.69
466.512	91.69
466.732	83.69
466.951	82.69
467.171	84.69
467.391	99.69
467.61	75.69
467.829	84.69
468.049	72.69
468.268	86.69
468.488	94.69
468.707	86.69
468.927	100.69
469.146	88.69
469.365	91.69
469.585	85.69
469.804	89.69
470.023	92.69
470.243	70.69
470.462	83.69
470.681	92.69
470.901	88.69
471.12	81.69
471.339	82.69
471.558	95.69
471.777	69.69
471.997	76.69
472.216	80.69
472.435	97.69
472.654	94.69
472.873	93.69
473.092	88.69
473.311	90.69
473.53	86.69
473.749	86.69
473.968	74.69
474.187	96.69
474.406	73.69
474.625	68.69
474.844	71.69
475.063	81.69
475.282	88.69
475.501	90.69
475.72	80.69
475.939	83.69
476.158	77.69
476.377	82.69
476.596	72.69
476.814	93.69
477.033	76.69
477.252	92.69
477.471	72.69
477.69	76.69
477.908	87.69
478.127	92.69
478.346	83.69
478.564	84.69
478.783	95.69
479.002	88.69
479.22	86.69
479.439	87.69
479.658	90.69
479.876	89.69
480.095	68.69
480.313	84.69
480.532	89.69
480.751	92.69
480.969	75.69
481.188	90.69
481.406	97.69
481.624	88.69
481.843	84.69
482.061	78.69
482.28	82.69
482.498	88.69
482.717	85.69
482.935	82.69
483.153	93.69
483.372	84.69
483.59	72.69
483.808	75.69
484.027	81.69
484.245	80.69
484.463	84.69
484.681	99.69
484.9	76.69
485.118	88.69
485.336	84.69
485.554	76.69
485.772	92.69
485.99	85.69
486.209	82.69
486.427	77.69
486.645	91.69
486.863	86.69
487.081	93.69
487.299	80.69
487.517	89.69
487.735	90.69
487.953	101.69
488.171	86.69
488.389	91.69
488.607	93.69
488.825	81.69
489.043	69.69
489.261	82.69
489.479	85.69
489.696	84.69
489.914	80.69
490.132	74.69
490.35	88.69
490.568	86.69
490.786	84.69
491.003	94.69
491.221	80.69
491.439	66.69
491.657	75.69
491.874	90.69
492.092	94.69
492.31	77.69
492.527	78.69
492.745	85.69
492.963	81.69
493.18	96.69
493.398	85.69
493.615	92.69
493.833	72.69
494.05	81.69
494.268	84.69
494.485	82.69
494.703	92.69
494.92	71.69
495.138	76.69
495.355	78.69
495.573	77.69
495.79	91.69
496.008	90.69
496.225	89.69
496.442	86.69
496.66	86.69
496.877	84.69
497.094	79.69
497.312	73.69
497.529	90.69
497.746	83.69
497.963	76.69
498.181	88.69
498.398	90.69
498.615	84.69
498.832	88.69
499.049	90.69
499.267	83.69
499.484	82.69
499.701	91.69
499.918	86.69
500.135	81.69
500.352	88.69
500.569	85.69
500.786	84.69
501.003	83.69
501.22	94.69
501.437	96.69
501.654	90.69
501.871	86.69
502.088	90.69
502.305	78.69
502.522	67.69
502.739	90.69
502.956	92.69
503.172	87.69
503.389	88.69
503.606	93.69
503.823	78.69
504.04	84.69
504.256	100.69
504.473	103.69
504.69	95.69
504.907	84.69
505.123	93.69
505.34	92.69
505.557	75.69
505.773	100.69
505.99	82.69
506.207	105.69
506.423	83.69
506.64	92.69
506.856	79.69
507.073	89.69
507.289	87.69
507.506	77.69
507.722	80.69
507.939	88.69
508.155	97.69
508.372	93.69
508.588	86.69
508.805	93.69
509.021	97.69
509.238	79.69
509.454	85.69
509.67	91.69
509.887	66.69
510.103	82.69
510.319	98.69
510.536	96.69
510.752	88.69
510.968	85.69
511.184	78.69
511.401	75.69
511.617	71.69
511.833	68.69
512.049	100.69
512.265	95.69
512.481	90.69
512.698	80.69
512.914	85.69
513.13	96.69
513.346	76.69
513.562	83.69
513.778	85.69
513.994	84.69
514.21	82.69
514.426	79.69
514.642	100.69
514.858	96.69
515.074	72.69
515.29	89.69
515.506	66.69
515.721	90.69
515.937	96.69
516.153	76.69
516.369	73.69
516.585	85.69
516.801	87.69
517.016	84.69
517.232	84.69
517.448	82.69
517.664	87.69
517.879	67.69
518.095	86.69
518.311	90.69
518.527	94.69
518.742	97.69
518.958	112.69
519.173	103.69
519.389	98.69
519.605	82.69
519.82	90.69
520.036	72.69
520.251	89.69
520.467	88.69
520.682	100.69
520.898	84.69
521.113	92.69
521.329	79.69
521.544	84.69
521.76	95.69
521.975	84.69
522.19	90.69
522.406	89.69
522.621	75.69
522.836	90.69
523.052	90.69
523.267	72.69
523.482	69.69
523.698	83.69
523.913	82.69
524.128	73.69
524.343	80.69
524.559	81.69
524.774	85.69
524.989	96.69
525.204	100.69
525.419	102.69
525.634	94.69
525.849	85.69
526.064	86.69
526.28	104.69
526.495	136.69
526.71	142.69
526.925	124.69
527.14	139.69
527.355	125.69
527.57	78.69
527.785	85.69
527.999	98.69
528.214	77.69
528.429	80.69
528.644	75.69
528.859	90.69
529.074	96.69
529.289	85.69
529.503	76.69
529.718	86.69
529.933	86.69
530.148	89.69
530.363	84.69
530.577	85.69
530.792	83.69
531.007	84.69
531.221	93.69
531.436	93.69
531.651	92.69
531.865	93.69
532.08	89.69
532.295	77.69
532.509	71.69
532.724	80.69
532.938	76.69
533.153	102.69
533.367	99.69
533.582	104.69
533.796	89.69
534.011	79.69
534.225	77.69
534.44	84.69
534.654	92.69
534.868	96.69
535.083	111.69
535.297	103.69
535.511	79.69
535.726	83.69
535.94	95.69
536.154	86.69
536.369	86.69
536.583	88.69
536.797	91.69
537.011	89.69
537.225	93.69
537.44	91.69
537.654	96.69
537.868	91.69
538.082	96.69
538.296	93.69
538.51	86.69
538.724	84.69
538.938	86.69
539.153	86.69
539.367	85.69
539.581	98.69
539.795	72.69
540.009	88.69
540.222	95.69
540.436	98.69
540.65	98.69
540.864	89.69
541.078	84.69
541.292	78.69
541.506	103.69
541.72	103.69
541.934	85.69
542.147	81.69
542.361	91.69
542.575	98.69
542.789	74.69
543.002	89.69
543.216	86.69
543.43	90.69
543.644	93.69
543.857	82.69
544.071	90.69
544.285	74.69
544.498	92.69
544.712	86.69
544.925	86.69
545.139	87.69
545.352	80.69
545.566	94.69
545.779	88.69
545.993	100.69
546.206	112.69
546.42	86.69
546.633	90.69
546.847	90.69
547.06	103.69
547.274	105.69
547.487	108.69
547.7	100.69
547.914	107.69
548.127	107.69
548.34	119.69
548.554	107.69
548.767	106.69
548.98	109.69
549.193	124.69
549.407	107.69
549.62	124.69
549.833	116.69
550.046	120.69
550.259	125.69
550.473	118.69
550.686	122.69
550.899	134.69
551.112	134.69
551.325	145.69
551.538	126.69
551.751	140.69
551.964	116.69
552.177	120.69
552.39	129.69
552.603	126.69
552.816	125.69
553.029	121.69
553.242	133.69
553.455	134.69
553.667	117.69
553.88	133.69
554.093	122.69
554.306	132.69
554.519	136.69
554.732	126.69
554.944	112.69
555.157	118.69
555.37	117.69
555.583	133.69
555.795	126.69
556.008	115.69
556.221	109.69
556.433	101.69
556.646	91.69
556.859	98.69
557.071	98.69
557.284	115.69
557.496	92.69
557.709	98.69
557.921	95.69
558.134	101.69
558.346	122.69
558.559	109.69
558.771	110.69
558.984	172.69
559.196	160.69
559.409	117.69
559.621	156.69
559.833	123.69
560.046	145.69
560.258	128.69
560.47	107.69
560.683	94.69
560.895	87.69
561.107	108.69
561.32	92.69
561.532	92.69
561.744	101.69
561.956	93.69
562.168	94.69
562.381	92.69
562.593	88.69
562.805	103.69
563.017	101.69
563.229	106.69
563.441	109.69
563.653	86.69
563.865	91.69
564.077	89.69
564.289	67.69
564.501	88.69
564.713	88.69
564.925	84.69
565.137	89.69
565.349	94.69
565.561	92.69
565.773	92.69
565.985	88.69
566.197	79.69
566.408	82.69
566.62	84.69
566.832	92.69
567.044	102.69
567.255	92.69
567.467	93.69
567.679	84.69
567.891	94.69
568.102	89.69
568.314	92.69
568.526	77.69
568.737	94.69
568.949	90.69
569.161	72.69
569.372	90.69
569.584	89.69
569.795	106.69
570.007	89.69
570.218	96.69
570.43	90.69
570.641	105.69
570.853	105.69
571.064	80.69
571.276	85.69
571.487	76.69
571.698	80.69
571.91	93.69
572.121	93.69
572.333	99.69
572.544	101.69
572.755	76.69
572.966	84.69
573.178	80.69
573.389	107.69
573.6	88.69
573.811	84.69
574.023	92.69
574.234	99.69
574.445	94.69
574.656	97.69
574.867	88.69
575.078	95.69
575.289	87.69
575.501	85.69
575.712	96.69
575.923	87.69
576.134	93.69
576.345	93.69
576.556	84.69
576.767	87.69
576.978	88.69
577.188	99.69
577.399	87.69
577.61	83.69
577.821	86.69
578.032	92.69
578.243	74.69
578.454	101.69
578.665	81.69
578.875	93.69
579.086	91.69
579.297	90.69
579.508	84.69
579.718	91.69
579.929	84.69
580.14	94.69
580.35	89.69
580.561	94.69
580.772	96.69
580.982	87.69
581.193	82.69
581.403	75.69
581.614	95.69
581.825	98.69
582.035	96.69
582.246	79.69
582.456	90.69
582.667	76.69
582.877	82.69
583.087	85.69
583.298	95.69
583.508	102.69
583.719	90.69
583.929	90.69
584.139	89.69
584.35	87.69
584.56	110.69
584.77	92.69
584.981	95.69
585.191	77.69
585.401	97.69
585.611	76.69
585.821	107.69
586.032	126.69
586.242	101.69
586.452	90.69
586.662	83.69
586.872	93.69
587.082	85.69
587.292	96.69
587.502	106.69
587.713	105.69
587.923	87.69
588.133	82.69
588.343	101.69
588.553	112.69
588.762	124.69
588.972	181.69
589.182	432.69
589.392	284.69
589.602	184.69
589.812	371.69
590.022	200.69
590.232	109.69
590.441	92.69
590.651	87.69
590.861	97.69
591.071	87.69
591.281	102.69
591.49	89.69
591.7	97.69
591.91	96.69
592.119	91.69
592.329	92.69
592.539	104.69
592.748	90.69
592.958	92.69
593.167	83.69
593.377	105.69
593.587	101.69
593.796	89.69
594.006	88.69
594.215	92.69
594.424	101.69
594.634	90.69
594.843	98.69
595.053	79.69
595.262	107.69
595.472	107.69
595.681	96.69
595.89	100.69
596.1	109.69
596.309	86.69
596.518	99.69
596.727	129.69
596.937	110.69
597.146	100.69
597.355	109.69
597.564	99.69
597.774	125.69
597.983	101.69
598.192	103.69
598.401	102.69
598.61	124.69
598.819	116.69
599.028	110.69
599.237	106.69
599.446	106.69
599.655	108.69
599.864	113.69
600.073	105.69
600.282	104.69
600.491	122.69
600.7	110.69
600.909	109.69
601.118	107.69
601.327	85.69
601.536	108.69
601.745	89.69
601.953	101.69
602.162	116.69
602.371	105.69
602.58	100.69
602.789	131.69
602.997	105.69
603.206	103.69
603.415	110.69
603.623	98.69
603.832	96.69
604.041	114.69
604.249	104.69
604.458	116.69
604.666	112.69
604.875	110.69
605.084	119.69
605.292	133.69
605.501	121.69
605.709	122.69
605.918	105.69
606.126	119.69
606.334	122.69
606.543	124.69
606.751	121.69
606.96	136.69
607.168	112.69
607.376	114.69
607.585	123.69
607.793	122.69
608.001	118.69
608.21	116.69
608.418	111.69
608.626	113.69
608.834	127.69
609.043	116.69
609.251	137.69
609.459	127.69
609.667	117.69
609.875	122.69
610.083	118.69
610.291	121.69
610.499	150.69
610.707	126.69
610.916	110.69
611.124	114.69
611.332	119.69
611.54	130.69
611.748	123.69
611.955	125.69
612.163	133.69
612.371	187.69
612.579	168.69
612.787	136.69
612.995	145.69
613.203	126.69
613.411	121.69
613.618	132.69
613.826	126.69
614.034	139.69
614.242	111.69
614.449	130.69
614.657	137.69
614.865	121.69
615.072	127.69
615.28	130.69
615.488	122.69
615.695	132.69
615.903	128.69
616.111	134.69
616.318	192.69
616.526	201.69
616.733	141.69
616.941	144.69
617.148	142.69
617.356	116.69
617.563	120.69
617.771	105.69
617.978	102.69
618.185	118.69
618.393	118.69
618.6	124.69
618.807	118.69
619.015	112.69
619.222	107.69
619.429	121.69
619.637	118.69
619.844	103.69
620.051	102.69
620.258	100.69
620.466	117.69
620.673	115.69
620.88	131.69
621.087	106.69
621.294	120.69
621.501	113.69
621.708	118.69
621.915	112.69
622.122	126.69
622.329	115.69
622.536	117.69
622.743	116.69
622.95	103.69
623.157	118.69
623.364	98.69
623.571	109.69
623.778	112.69
623.985	115.69
624.192	109.69
624.399	126.69
624.606	115.69
624.812	107.69
625.019	112.69
625.226	110.69
625.433	116.69
625.639	107.69
625.846	128.69
626.053	104.69
626.259	107.69
626.466	118.69
626.673	116.69
626.879	103.69
627.086	116.69
627.293	103.69
627.499	94.69
627.706	102.69
627.912	106.69
628.119	100.69
628.325	91.69
628.532	79.69
628.738	95.69
628.945	103.69
629.151	77.69
629.357	105.69
629.564	86.69
629.77	96.69
629.976	100.69
630.183	91.69
630.389	84.69
630.595	85.69
630.802	94.69
631.008	82.69
631.214	100.69
631.42	109.69
631.627	88.69
631.833	93.69
632.039	93.69
632.245	87.69
632.451	100.69
632.657	86.69
632.863	78.69
633.069	86.69
633.275	83.69
633.481	89.69
633.688	89.69
633.893	94.69
634.099	84.69
634.305	91.69
634.511	90.69
634.717	90.69
634.923	87.69
635.129	100.69
635.335	95.69
635.541	95.69
635.747	90.69
635.952	93.69
636.158	94.69
636.364	102.69
636.57	93.69
636.775	85.69
636.981	88.69
637.187	82.69
637.392	84.69
637.598	85.69
637.804	92.69
638.009	91.69
638.215	93.69
638.421	80.69
638.626	91.69
638.832	93.69
639.037	84.69
639.243	97.69
639.448	95.69
639.654	91.69
639.859	88.69
640.065	85.69
640.27	89.69
640.475	86.69
640.681	102.69
640.886	100.69
641.091	85.69
641.297	84.69
641.502	74.69
641.707	89.69
641.913	88.69
642.118	83.69
642.323	84.69
642.528	88.69
642.733	92.69
642.939	106.69
643.144	92.69
643.349	90.69
643.554	91.69
643.759	101.69
643.964	105.69
644.169	140.69
644.374	101.69
644.579	89.69
644.784	112.69
644.989	82.69
645.194	93.69
645.399	99.69
645.604	92.69
645.809	100.69
646.014	96.69
646.219	70.69
646.423	112.69
646.628	96.69
646.833	95.69
647.038	85.69
647.243	97.69
647.447	91.69
647.652	85.69
647.857	87.69
648.062	91.69
648.266	87.69
648.471	98.69
648.676	109.69
648.88	86.69
649.085	86.69
649.289	84.69
649.494	101.69
649.698	108.69
649.903	79.69
650.107	93.69
650.312	97.69
650.516	82.69
650.721	76.69
650.925	85.69
651.13	84.69
651.334	85.69
651.539	92.69
651.743	85.69
651.947	93.69
652.152	90.69
652.356	79.69
652.56	89.69
652.764	81.69
652.969	77.69
653.173	102.69
653.377	90.69
653.581	78.69
653.785	82.69
653.99	87.69
654.194	95.69
654.398	101.69
654.602	92.69
654.806	79.69
655.01	78.69
655.214	77.69
655.418	66.69
655.622	88.69
655.826	96.69
656.03	83.69
656.234	85.69
656.438	80.69
656.642	93.69
656.846	81.69
657.049	68.69
657.253	89.69
657.457	70.69
657.661	87.69
657.865	80.69
658.068	91.69
658.272	76.69
658.476	86.69
658.68	75.69
658.883	74.69
659.087	90.69
659.291	90.69
659.494	85.69
659.698	89.69
659.901	92.69
660.105	81.69
660.309	76.69
660.512	84.69
660.716	90.69
660.919	84.69
661.123	88.69
661.326	85.69
661.53	89.69
661.733	96.69
661.936	72.69
662.14	73.69
662.343	78.69
662.546	99.69
662.75	86.69
662.953	92.69
663.156	90.69
663.36	83.69
663.563	101.69
663.766	86.69
663.969	85.69
664.173	88.69
664.376	79.69
664.579	79.69
664.782	75.69
664.985	86.69
665.188	92.69
665.391	84.69
665.594	83.69
665.797	88.69
666	90.69
666.203	89.69
666.406	77.69
666.609	84.69
666.812	84.69
667.015	81.69
667.218	96.69
667.421	90.69
667.624	81.69
667.827	91.69
668.03	87.69
668.232	82.69
668.435	75.69
668.638	74.69
668.841	78.69
669.043	90.69
669.246	92.69
669.449	93.69
669.651	79.69
669.854	93.69
670.057	79.69
670.259	90.69
670.462	73.69
670.665	82.69
670.867	75.69
671.07	74.69
671.272	93.69
671.475	101.69
671.677	84.69
671.88	93.69
672.082	76.69
672.284	69.69
672.487	90.69
672.689	75.69
672.892	71.69
