Data from Circ_2008_H10_HRD10591_00052.txt Node
Date: Wed Jan 03 10:17:06 EST 2024
User: Yrep
Spectrometer: HR+D1059
Trigger mode: 1
Integration Time (sec): 1.000000E-1
Scans to average: 1
Electric dark correction enabled: true
Nonlinearity correction enabled: false
Boxcar width: 0
XAxis mode: Wavelengths
Number of Pixels in Spectrum: 2048
>>>>>Begin Spectral Data<<<<<
223.165	-20.06
223.4	-20.06
223.635	-20.06
223.869	-14.06
224.104	-13.06
224.338	-20.06
224.573	-10.06
224.808	1.94
225.042	-14.06
225.277	-25.06
225.511	17.94
225.746	-7.06
225.98	3.94
226.215	1.94
226.449	0.94
226.683	33.94
226.918	39.94
227.152	22.94
227.387	28.94
227.621	43.94
227.856	41.94
228.09	49.94
228.324	49.94
228.559	58.94
228.793	60.94
229.027	57.94
229.262	55.94
229.496	62.94
229.73	71.94
229.964	72.94
230.199	67.94
230.433	70.94
230.667	86.94
230.901	77.94
231.136	69.94
231.37	82.94
231.604	89.94
231.838	80.94
232.072	68.94
232.306	73.94
232.541	73.94
232.775	72.94
233.009	78.94
233.243	75.94
233.477	64.94
233.711	77.94
233.945	71.94
234.179	81.94
234.413	82.94
234.647	68.94
234.881	62.94
235.115	70.94
235.349	89.94
235.583	87.94
235.817	77.94
236.051	80.94
236.285	78.94
236.519	61.94
236.753	76.94
236.987	78.94
237.221	88.94
237.455	72.94
237.689	70.94
237.922	70.94
238.156	69.94
238.39	87.94
238.624	73.94
238.858	94.94
239.091	88.94
239.325	67.94
239.559	69.94
239.793	80.94
240.027	68.94
240.26	80.94
240.494	80.94
240.728	63.94
240.961	80.94
241.195	76.94
241.429	78.94
241.662	81.94
241.896	77.94
242.13	72.94
242.363	71.94
242.597	82.94
242.83	66.94
243.064	74.94
243.298	76.94
243.531	79.94
243.765	78.94
243.998	81.94
244.232	82.94
244.465	83.94
244.699	82.94
244.932	84.94
245.166	83.94
245.399	80.94
245.633	85.94
245.866	61.94
246.099	79.94
246.333	79.94
246.566	55.94
246.8	68.94
247.033	88.94
247.266	73.94
247.5	68.94
247.733	90.94
247.966	67.94
248.2	81.94
248.433	67.94
248.666	71.94
248.899	90.94
249.133	71.94
249.366	80.94
249.599	92.94
249.832	84.94
250.066	78.94
250.299	73.94
250.532	85.94
250.765	70.94
250.998	82.94
251.231	79.94
251.465	84.94
251.698	79.94
251.931	88.94
252.164	72.94
252.397	71.94
252.63	76.94
252.863	89.94
253.096	70.94
253.329	75.94
253.562	78.94
253.795	90.94
254.028	80.94
254.261	71.94
254.494	88.94
254.727	84.94
254.96	70.94
255.193	56.94
255.426	79.94
255.659	68.94
255.892	89.94
256.124	78.94
256.357	62.94
256.59	74.94
256.823	69.94
257.056	77.94
257.289	73.94
257.521	93.94
257.754	78.94
257.987	79.94
258.22	92.94
258.452	73.94
258.685	89.94
258.918	90.94
259.151	73.94
259.383	67.94
259.616	75.94
259.849	85.94
260.081	86.94
260.314	75.94
260.547	70.94
260.779	88.94
261.012	74.94
261.244	78.94
261.477	81.94
261.71	86.94
261.942	107.94
262.175	111.94
262.407	68.94
262.64	80.94
262.872	83.94
263.105	75.94
263.337	91.94
263.57	81.94
263.802	76.94
264.035	87.94
264.267	81.94
264.499	66.94
264.732	80.94
264.964	83.94
265.197	68.94
265.429	90.94
265.661	81.94
265.894	74.94
266.126	89.94
266.358	76.94
266.591	66.94
266.823	95.94
267.055	91.94
267.287	73.94
267.52	83.94
267.752	79.94
267.984	75.94
268.216	83.94
268.448	82.94
268.681	79.94
268.913	86.94
269.145	96.94
269.377	81.94
269.609	93.94
269.841	78.94
270.073	82.94
270.306	86.94
270.538	86.94
270.77	79.94
271.002	89.94
271.234	78.94
271.466	90.94
271.698	90.94
271.93	68.94
272.162	87.94
272.394	92.94
272.626	78.94
272.858	69.94
273.09	78.94
273.322	94.94
273.553	88.94
273.785	84.94
274.017	86.94
274.249	86.94
274.481	87.94
274.713	92.94
274.945	75.94
275.176	70.94
275.408	84.94
275.64	85.94
275.872	81.94
276.104	98.94
276.335	87.94
276.567	70.94
276.799	103.94
277.031	113.94
277.262	86.94
277.494	97.94
277.726	79.94
277.957	85.94
278.189	90.94
278.421	90.94
278.652	98.94
278.884	82.94
279.115	94.94
279.347	71.94
279.579	78.94
279.81	76.94
280.042	85.94
280.273	87.94
280.505	73.94
280.736	78.94
280.968	86.94
281.199	84.94
281.431	88.94
281.662	83.94
281.894	98.94
282.125	90.94
282.356	121.94
282.588	138.94
282.819	111.94
283.051	93.94
283.282	90.94
283.513	74.94
283.745	82.94
283.976	89.94
284.207	100.94
284.439	88.94
284.67	92.94
284.901	86.94
285.132	84.94
285.364	95.94
285.595	79.94
285.826	88.94
286.057	93.94
286.288	89.94
286.52	83.94
286.751	72.94
286.982	78.94
287.213	82.94
287.444	85.94
287.675	73.94
287.906	87.94
288.138	82.94
288.369	78.94
288.6	89.94
288.831	100.94
289.062	90.94
289.293	78.94
289.524	81.94
289.755	82.94
289.986	87.94
290.217	86.94
290.448	93.94
290.679	94.94
290.91	91.94
291.141	94.94
291.371	75.94
291.602	82.94
291.833	94.94
292.064	73.94
292.295	89.94
292.526	85.94
292.757	77.94
292.987	86.94
293.218	95.94
293.449	88.94
293.68	78.94
293.91	77.94
294.141	88.94
294.372	85.94
294.603	92.94
294.833	89.94
295.064	85.94
295.295	92.94
295.525	93.94
295.756	91.94
295.987	121.94
296.217	145.94
296.448	110.94
296.679	112.94
296.909	81.94
297.14	80.94
297.37	76.94
297.601	91.94
297.831	87.94
298.062	100.94
298.292	94.94
298.523	95.94
298.753	80.94
298.984	79.94
299.214	88.94
299.445	94.94
299.675	92.94
299.905	95.94
300.136	89.94
300.366	88.94
300.597	89.94
300.827	89.94
301.057	96.94
301.288	101.94
301.518	101.94
301.748	89.94
301.979	90.94
302.209	98.94
302.439	82.94
302.669	84.94
302.9	84.94
303.13	79.94
303.36	80.94
303.59	85.94
303.82	102.94
304.051	90.94
304.281	82.94
304.511	85.94
304.741	85.94
304.971	82.94
305.201	89.94
305.431	100.94
305.661	95.94
305.891	86.94
306.121	81.94
306.352	88.94
306.582	94.94
306.812	89.94
307.042	95.94
307.272	80.94
307.502	88.94
307.731	76.94
307.961	90.94
308.191	81.94
308.421	98.94
308.651	89.94
308.881	92.94
309.111	91.94
309.341	85.94
309.571	84.94
309.8	95.94
310.03	81.94
310.26	89.94
310.49	100.94
310.72	97.94
310.949	97.94
311.179	82.94
311.409	85.94
311.639	101.94
311.868	82.94
312.098	73.94
312.328	96.94
312.557	92.94
312.787	107.94
313.017	97.94
313.246	95.94
313.476	83.94
313.706	91.94
313.935	94.94
314.165	97.94
314.394	84.94
314.624	83.94
314.853	86.94
315.083	98.94
315.312	92.94
315.542	81.94
315.771	89.94
316.001	85.94
316.23	88.94
316.46	88.94
316.689	85.94
316.919	76.94
317.148	96.94
317.377	100.94
317.607	72.94
317.836	81.94
318.065	98.94
318.295	90.94
318.524	77.94
318.753	101.94
318.983	87.94
319.212	97.94
319.441	100.94
319.67	96.94
319.9	92.94
320.129	94.94
320.358	99.94
320.587	103.94
320.816	89.94
321.046	94.94
321.275	111.94
321.504	85.94
321.733	100.94
321.962	89.94
322.191	93.94
322.42	100.94
322.649	119.94
322.878	104.94
323.108	110.94
323.337	97.94
323.566	125.94
323.795	146.94
324.024	168.94
324.253	325.94
324.482	653.94
324.71	1274.94
324.939	1758.94
325.168	664.94
325.397	210.94
325.626	145.94
325.855	109.94
326.084	105.94
326.313	122.94
326.542	121.94
326.77	209.94
326.999	368.94
327.228	744.94
327.457	1303.94
327.686	1057.94
327.914	298.94
328.143	181.94
328.372	136.94
328.6	125.94
328.829	131.94
329.058	117.94
329.287	118.94
329.515	102.94
329.744	92.94
329.972	94.94
330.201	113.94
330.43	147.94
330.658	132.94
330.887	150.94
331.115	127.94
331.344	103.94
331.572	81.94
331.801	96.94
332.03	98.94
332.258	76.94
332.486	77.94
332.715	97.94
332.943	94.94
333.172	92.94
333.4	94.94
333.629	88.94
333.857	107.94
334.085	111.94
334.314	132.94
334.542	180.94
334.771	183.94
334.999	111.94
335.227	96.94
335.455	100.94
335.684	122.94
335.912	96.94
336.14	88.94
336.369	94.94
336.597	96.94
336.825	99.94
337.053	86.94
337.281	85.94
337.51	89.94
337.738	85.94
337.966	87.94
338.194	75.94
338.422	87.94
338.65	83.94
338.878	82.94
339.106	98.94
339.334	86.94
339.562	82.94
339.79	67.94
340.018	91.94
340.246	98.94
340.474	92.94
340.702	101.94
340.93	95.94
341.158	92.94
341.386	96.94
341.614	101.94
341.842	89.94
342.07	93.94
342.298	86.94
342.526	92.94
342.754	87.94
342.981	85.94
343.209	90.94
343.437	101.94
343.665	82.94
343.893	96.94
344.12	84.94
344.348	71.94
344.576	88.94
344.804	94.94
345.031	99.94
345.259	104.94
345.487	97.94
345.714	90.94
345.942	89.94
346.17	93.94
346.397	87.94
346.625	91.94
346.853	80.94
347.08	89.94
347.308	97.94
347.535	96.94
347.763	100.94
347.99	107.94
348.218	108.94
348.445	87.94
348.673	81.94
348.9	91.94
349.128	99.94
349.355	85.94
349.583	84.94
349.81	88.94
350.037	89.94
350.265	87.94
350.492	89.94
350.72	98.94
350.947	98.94
351.174	114.94
351.402	103.94
351.629	100.94
351.856	106.94
352.083	95.94
352.311	98.94
352.538	99.94
352.765	103.94
352.992	117.94
353.22	106.94
353.447	101.94
353.674	109.94
353.901	89.94
354.128	86.94
354.355	103.94
354.583	96.94
354.81	90.94
355.037	111.94
355.264	101.94
355.491	96.94
355.718	92.94
355.945	93.94
356.172	85.94
356.399	82.94
356.626	91.94
356.853	82.94
357.08	91.94
357.307	86.94
357.534	108.94
357.761	84.94
357.988	99.94
358.215	98.94
358.441	97.94
358.668	82.94
358.895	88.94
359.122	81.94
359.349	86.94
359.576	77.94
359.802	93.94
360.029	94.94
360.256	103.94
360.483	94.94
360.709	90.94
360.936	67.94
361.163	76.94
361.39	93.94
361.616	90.94
361.843	81.94
362.07	104.94
362.296	91.94
362.523	80.94
362.749	98.94
362.976	90.94
363.203	80.94
363.429	86.94
363.656	86.94
363.882	90.94
364.109	82.94
364.335	86.94
364.562	104.94
364.788	87.94
365.015	87.94
365.241	80.94
365.468	107.94
365.694	94.94
365.92	89.94
366.147	80.94
366.373	86.94
366.599	80.94
366.826	81.94
367.052	80.94
367.278	85.94
367.505	86.94
367.731	82.94
367.957	95.94
368.184	80.94
368.41	101.94
368.636	95.94
368.862	120.94
369.089	97.94
369.315	76.94
369.541	91.94
369.767	76.94
369.993	92.94
370.219	87.94
370.445	66.94
370.672	81.94
370.898	89.94
371.124	79.94
371.35	94.94
371.576	95.94
371.802	71.94
372.028	81.94
372.254	93.94
372.48	77.94
372.706	90.94
372.932	87.94
373.158	74.94
373.384	74.94
373.61	91.94
373.835	92.94
374.061	78.94
374.287	91.94
374.513	89.94
374.739	96.94
374.965	90.94
375.191	82.94
375.416	77.94
375.642	77.94
375.868	87.94
376.094	80.94
376.319	95.94
376.545	102.94
376.771	89.94
376.997	93.94
377.222	84.94
377.448	94.94
377.674	94.94
377.899	100.94
378.125	95.94
378.35	95.94
378.576	98.94
378.802	88.94
379.027	89.94
379.253	87.94
379.478	72.94
379.704	92.94
379.929	104.94
380.155	82.94
380.38	89.94
380.606	84.94
380.831	90.94
381.057	96.94
381.282	94.94
381.507	101.94
381.733	92.94
381.958	83.94
382.184	97.94
382.409	103.94
382.634	96.94
382.86	99.94
383.085	102.94
383.31	105.94
383.535	84.94
383.761	100.94
383.986	93.94
384.211	99.94
384.436	81.94
384.662	95.94
384.887	95.94
385.112	90.94
385.337	109.94
385.562	116.94
385.787	105.94
386.013	97.94
386.238	119.94
386.463	101.94
386.688	103.94
386.913	95.94
387.138	93.94
387.363	90.94
387.588	94.94
387.813	94.94
388.038	102.94
388.263	118.94
388.488	111.94
388.713	88.94
388.938	95.94
389.163	87.94
389.387	92.94
389.612	89.94
389.837	96.94
390.062	112.94
390.287	99.94
390.512	92.94
390.736	92.94
390.961	91.94
391.186	82.94
391.411	84.94
391.636	89.94
391.86	77.94
392.085	87.94
392.31	84.94
392.534	94.94
392.759	81.94
392.984	76.94
393.208	84.94
393.433	85.94
393.658	86.94
393.882	86.94
394.107	66.94
394.331	66.94
394.556	70.94
394.78	89.94
395.005	86.94
395.229	82.94
395.454	74.94
395.678	86.94
395.903	82.94
396.127	95.94
396.352	92.94
396.576	90.94
396.801	80.94
397.025	98.94
397.249	89.94
397.474	91.94
397.698	83.94
397.922	88.94
398.147	88.94
398.371	72.94
398.595	89.94
398.82	94.94
399.044	82.94
399.268	78.94
399.492	88.94
399.717	80.94
399.941	88.94
400.165	74.94
400.389	77.94
400.613	79.94
400.837	74.94
401.062	84.94
401.286	89.94
401.51	93.94
401.734	95.94
401.958	94.94
402.182	116.94
402.406	139.94
402.63	109.94
402.854	94.94
403.078	83.94
403.302	81.94
403.526	104.94
403.75	84.94
403.974	95.94
404.198	93.94
404.422	86.94
404.645	97.94
404.869	82.94
405.093	87.94
405.317	95.94
405.541	96.94
405.765	91.94
405.988	115.94
406.212	186.94
406.436	217.94
406.66	143.94
406.883	98.94
407.107	102.94
407.331	86.94
407.555	92.94
407.778	86.94
408.002	75.94
408.226	93.94
408.449	82.94
408.673	81.94
408.896	92.94
409.12	86.94
409.344	78.94
409.567	82.94
409.791	89.94
410.014	97.94
410.238	98.94
410.461	96.94
410.685	91.94
410.908	91.94
411.132	88.94
411.355	95.94
411.578	83.94
411.802	88.94
412.025	87.94
412.249	93.94
412.472	85.94
412.695	97.94
412.919	86.94
413.142	83.94
413.365	82.94
413.589	91.94
413.812	87.94
414.035	76.94
414.258	101.94
414.482	78.94
414.705	86.94
414.928	90.94
415.151	112.94
415.374	80.94
415.597	79.94
415.821	90.94
416.044	81.94
416.267	93.94
416.49	102.94
416.713	92.94
416.936	98.94
417.159	81.94
417.382	75.94
417.605	86.94
417.828	79.94
418.051	73.94
418.274	96.94
418.497	92.94
418.72	88.94
418.943	93.94
419.166	72.94
419.389	80.94
419.611	66.94
419.834	81.94
420.057	82.94
420.28	88.94
420.503	81.94
420.726	77.94
420.948	85.94
421.171	94.94
421.394	90.94
421.617	94.94
421.839	82.94
422.062	90.94
422.285	84.94
422.507	93.94
422.73	103.94
422.953	76.94
423.175	94.94
423.398	82.94
423.621	87.94
423.843	96.94
424.066	88.94
424.288	81.94
424.511	85.94
424.733	87.94
424.956	97.94
425.178	85.94
425.401	85.94
425.623	84.94
425.846	105.94
426.068	96.94
426.291	96.94
426.513	80.94
426.735	92.94
426.958	86.94
427.18	93.94
427.402	112.94
427.625	143.94
427.847	132.94
428.069	129.94
428.292	104.94
428.514	82.94
428.736	98.94
428.958	83.94
429.181	93.94
429.403	78.94
429.625	90.94
429.847	93.94
430.069	101.94
430.292	91.94
430.514	70.94
430.736	76.94
430.958	87.94
431.18	85.94
431.402	93.94
431.624	72.94
431.846	85.94
432.068	98.94
432.29	97.94
432.512	95.94
432.734	93.94
432.956	93.94
433.178	86.94
433.4	101.94
433.622	88.94
433.844	91.94
434.066	88.94
434.287	91.94
434.509	86.94
434.731	77.94
434.953	83.94
435.175	89.94
435.397	88.94
435.618	87.94
435.84	93.94
436.062	105.94
436.284	109.94
436.505	100.94
436.727	97.94
436.949	74.94
437.17	86.94
437.392	94.94
437.614	82.94
437.835	101.94
438.057	117.94
438.278	108.94
438.5	98.94
438.721	95.94
438.943	95.94
439.165	85.94
439.386	92.94
439.608	104.94
439.829	97.94
440.05	107.94
440.272	132.94
440.493	88.94
440.715	82.94
440.936	81.94
441.158	88.94
441.379	72.94
441.6	82.94
441.822	85.94
442.043	95.94
442.264	86.94
442.486	90.94
442.707	85.94
442.928	99.94
443.149	119.94
443.371	111.94
443.592	91.94
443.813	102.94
444.034	98.94
444.255	81.94
444.476	87.94
444.698	103.94
444.919	91.94
445.14	123.94
445.361	125.94
445.582	112.94
445.803	107.94
446.024	106.94
446.245	113.94
446.466	108.94
446.687	78.94
446.908	94.94
447.129	93.94
447.35	87.94
447.571	92.94
447.792	85.94
448.013	92.94
448.234	120.94
448.455	98.94
448.675	108.94
448.896	100.94
449.117	110.94
449.338	103.94
449.559	107.94
449.779	117.94
450	80.94
450.221	82.94
450.442	86.94
450.662	97.94
450.883	89.94
451.104	116.94
451.324	102.94
451.545	89.94
451.766	91.94
451.986	90.94
452.207	85.94
452.428	95.94
452.648	93.94
452.869	92.94
453.089	108.94
453.31	115.94
453.53	92.94
453.751	99.94
453.971	84.94
454.192	120.94
454.412	97.94
454.633	82.94
454.853	83.94
455.073	89.94
455.294	101.94
455.514	86.94
455.734	86.94
455.955	92.94
456.175	93.94
456.395	87.94
456.616	87.94
456.836	90.94
457.056	89.94
457.276	94.94
457.497	83.94
457.717	72.94
457.937	84.94
458.157	76.94
458.377	94.94
458.598	96.94
458.818	115.94
459.038	129.94
459.258	102.94
459.478	90.94
459.698	78.94
459.918	98.94
460.138	92.94
460.358	78.94
460.578	87.94
460.798	89.94
461.018	79.94
461.238	98.94
461.458	73.94
461.678	84.94
461.898	89.94
462.118	71.94
462.338	85.94
462.558	79.94
462.777	80.94
462.997	86.94
463.217	83.94
463.437	68.94
463.657	93.94
463.876	86.94
464.096	91.94
464.316	79.94
464.536	87.94
464.755	90.94
464.975	95.94
465.195	149.94
465.414	150.94
465.634	95.94
465.854	79.94
466.073	90.94
466.293	79.94
466.512	71.94
466.732	87.94
466.951	81.94
467.171	87.94
467.391	88.94
467.61	96.94
467.829	103.94
468.049	98.94
468.268	106.94
468.488	91.94
468.707	82.94
468.927	84.94
469.146	97.94
469.365	86.94
469.585	84.94
469.804	95.94
470.023	96.94
470.243	98.94
470.462	87.94
470.681	101.94
470.901	81.94
471.12	94.94
471.339	84.94
471.558	104.94
471.777	91.94
471.997	85.94
472.216	150.94
472.435	212.94
472.654	114.94
472.873	82.94
473.092	66.94
473.311	87.94
473.53	84.94
473.749	90.94
473.968	93.94
474.187	95.94
474.406	85.94
474.625	83.94
474.844	101.94
475.063	72.94
475.282	93.94
475.501	82.94
475.72	90.94
475.939	65.94
476.158	81.94
476.377	82.94
476.596	85.94
476.814	92.94
477.033	101.94
477.252	91.94
477.471	93.94
477.69	83.94
477.908	92.94
478.127	70.94
478.346	101.94
478.564	79.94
478.783	84.94
479.002	104.94
479.22	88.94
479.439	107.94
479.658	105.94
479.876	95.94
480.095	96.94
480.313	92.94
480.532	92.94
480.751	87.94
480.969	155.94
481.188	302.94
481.406	224.94
481.624	98.94
481.843	87.94
482.061	98.94
482.28	75.94
482.498	82.94
482.717	83.94
482.935	84.94
483.153	98.94
483.372	88.94
483.59	88.94
483.808	89.94
484.027	83.94
484.245	87.94
484.463	85.94
484.681	92.94
484.9	96.94
485.118	81.94
485.336	88.94
485.554	97.94
485.772	98.94
485.99	111.94
486.209	105.94
486.427	103.94
486.645	97.94
486.863	107.94
487.081	97.94
487.299	99.94
487.517	98.94
487.735	68.94
487.953	90.94
488.171	93.94
488.389	96.94
488.607	91.94
488.825	100.94
489.043	93.94
489.261	93.94
489.479	82.94
489.696	85.94
489.914	75.94
490.132	91.94
490.35	91.94
490.568	82.94
490.786	97.94
491.003	83.94
491.221	93.94
491.439	78.94
491.657	92.94
491.874	101.94
492.092	89.94
492.31	80.94
492.527	86.94
492.745	97.94
492.963	99.94
493.18	89.94
493.398	94.94
493.615	83.94
493.833	73.94
494.05	81.94
494.268	92.94
494.485	84.94
494.703	88.94
494.92	85.94
495.138	95.94
495.355	93.94
495.573	77.94
495.79	89.94
496.008	85.94
496.225	79.94
496.442	79.94
496.66	77.94
496.877	80.94
497.094	96.94
497.312	85.94
497.529	85.94
497.746	81.94
497.963	82.94
498.181	87.94
498.398	100.94
498.615	100.94
498.832	102.94
499.049	81.94
499.267	86.94
499.484	93.94
499.701	97.94
499.918	106.94
500.135	103.94
500.352	87.94
500.569	86.94
500.786	85.94
501.003	88.94
501.22	94.94
501.437	89.94
501.654	83.94
501.871	105.94
502.088	91.94
502.305	107.94
502.522	97.94
502.739	86.94
502.956	93.94
503.172	88.94
503.389	98.94
503.606	92.94
503.823	102.94
504.04	79.94
504.256	91.94
504.473	82.94
504.69	94.94
504.907	86.94
505.123	68.94
505.34	91.94
505.557	96.94
505.773	84.94
505.99	78.94
506.207	92.94
506.423	84.94
506.64	81.94
506.856	81.94
507.073	73.94
507.289	82.94
507.506	92.94
507.722	92.94
507.939	99.94
508.155	97.94
508.372	94.94
508.588	90.94
508.805	89.94
509.021	95.94
509.238	92.94
509.454	95.94
509.67	94.94
509.887	125.94
510.103	118.94
510.319	201.94
510.536	764.94
510.752	2468.94
510.968	706.94
511.184	163.94
511.401	109.94
511.617	104.94
511.833	92.94
512.049	88.94
512.265	93.94
512.481	96.94
512.698	116.94
512.914	88.94
513.13	95.94
513.346	93.94
513.562	91.94
513.778	96.94
513.994	89.94
514.21	95.94
514.426	108.94
514.642	131.94
514.858	129.94
515.074	151.94
515.29	450.94
515.506	1499.94
515.721	529.94
515.937	159.94
516.153	91.94
516.369	104.94
516.585	102.94
516.801	66.94
517.016	94.94
517.232	91.94
517.448	83.94
517.664	80.94
517.879	90.94
518.095	83.94
518.311	94.94
518.527	81.94
518.742	91.94
518.958	101.94
519.173	101.94
519.389	106.94
519.605	89.94
519.82	106.94
520.036	93.94
520.251	100.94
520.467	106.94
520.682	120.94
520.898	121.94
521.113	112.94
521.329	120.94
521.544	222.94
521.76	520.94
521.975	2400.94
522.19	1464.94
522.406	304.94
522.621	108.94
522.836	102.94
523.052	103.94
523.267	90.94
523.482	78.94
523.698	95.94
523.913	116.94
524.128	102.94
524.343	99.94
524.559	92.94
524.774	93.94
524.989	90.94
525.204	89.94
525.419	103.94
525.634	101.94
525.849	88.94
526.064	86.94
526.28	86.94
526.495	89.94
526.71	101.94
526.925	97.94
527.14	80.94
527.355	78.94
527.57	82.94
527.785	81.94
527.999	86.94
528.214	106.94
528.429	91.94
528.644	88.94
528.859	99.94
529.074	79.94
529.289	106.94
529.503	187.94
529.718	104.94
529.933	79.94
530.148	82.94
530.363	89.94
530.577	84.94
530.792	93.94
531.007	79.94
531.221	101.94
531.436	85.94
531.651	90.94
531.865	94.94
532.08	82.94
532.295	91.94
532.509	93.94
532.724	85.94
532.938	77.94
533.153	80.94
533.367	94.94
533.582	90.94
533.796	106.94
534.011	95.94
534.225	90.94
534.44	94.94
534.654	89.94
534.868	93.94
535.083	112.94
535.297	99.94
535.511	95.94
535.726	114.94
535.94	96.94
536.154	98.94
536.369	74.94
536.583	76.94
536.797	79.94
537.011	87.94
537.225	79.94
537.44	92.94
537.654	86.94
537.868	95.94
538.082	95.94
538.296	97.94
538.51	77.94
538.724	75.94
538.938	90.94
539.153	93.94
539.367	98.94
539.581	86.94
539.795	97.94
540.009	91.94
540.222	80.94
540.436	79.94
540.65	83.94
540.864	87.94
541.078	78.94
541.292	97.94
541.506	80.94
541.72	77.94
541.934	78.94
542.147	90.94
542.361	91.94
542.575	87.94
542.789	94.94
543.002	80.94
543.216	99.94
543.43	88.94
543.644	94.94
543.857	87.94
544.071	70.94
544.285	80.94
544.498	85.94
544.712	70.94
544.925	86.94
545.139	84.94
545.352	85.94
545.566	106.94
545.779	83.94
545.993	79.94
546.206	83.94
546.42	89.94
546.633	88.94
546.847	87.94
547.06	91.94
547.274	100.94
547.487	71.94
547.7	81.94
547.914	76.94
548.127	84.94
548.34	80.94
548.554	86.94
548.767	81.94
548.98	76.94
549.193	95.94
549.407	95.94
549.62	94.94
549.833	85.94
550.046	84.94
550.259	78.94
550.473	86.94
550.686	82.94
550.899	95.94
551.112	81.94
551.325	61.94
551.538	82.94
551.751	103.94
551.964	89.94
552.177	82.94
552.39	93.94
552.603	94.94
552.816	88.94
553.029	102.94
553.242	91.94
553.455	97.94
553.667	94.94
553.88	95.94
554.093	84.94
554.306	86.94
554.519	93.94
554.732	84.94
554.944	88.94
555.157	97.94
555.37	87.94
555.583	82.94
555.795	87.94
556.008	81.94
556.221	101.94
556.433	86.94
556.646	69.94
556.859	91.94
557.071	100.94
557.284	82.94
557.496	89.94
557.709	87.94
557.921	89.94
558.134	78.94
558.346	79.94
558.559	72.94
558.771	81.94
558.984	90.94
559.196	85.94
559.409	70.94
559.621	80.94
559.833	86.94
560.046	85.94
560.258	76.94
560.47	85.94
560.683	77.94
560.895	89.94
561.107	86.94
561.32	92.94
561.532	94.94
561.744	93.94
561.956	97.94
562.168	87.94
562.381	82.94
562.593	97.94
562.805	86.94
563.017	80.94
563.229	94.94
563.441	85.94
563.653	88.94
563.865	79.94
564.077	81.94
564.289	77.94
564.501	93.94
564.713	79.94
564.925	93.94
565.137	112.94
565.349	81.94
565.561	74.94
565.773	90.94
565.985	80.94
566.197	78.94
566.408	86.94
566.62	90.94
566.832	76.94
567.044	82.94
567.255	79.94
567.467	76.94
567.679	83.94
567.891	90.94
568.102	75.94
568.314	84.94
568.526	76.94
568.737	87.94
568.949	82.94
569.161	84.94
569.372	78.94
569.584	81.94
569.795	81.94
570.007	112.94
570.218	231.94
570.43	121.94
570.641	85.94
570.853	76.94
571.064	81.94
571.276	90.94
571.487	77.94
571.698	71.94
571.91	87.94
572.121	84.94
572.333	80.94
572.544	78.94
572.755	88.94
572.966	81.94
573.178	85.94
573.389	90.94
573.6	81.94
573.811	70.94
574.023	91.94
574.234	85.94
574.445	82.94
574.656	73.94
574.867	89.94
575.078	79.94
575.289	72.94
575.501	79.94
575.712	93.94
575.923	81.94
576.134	90.94
576.345	96.94
576.556	78.94
576.767	94.94
576.978	91.94
577.188	93.94
577.399	82.94
577.61	93.94
577.821	97.94
578.032	117.94
578.243	283.94
578.454	800.94
578.665	204.94
578.875	94.94
579.086	81.94
579.297	101.94
579.508	95.94
579.718	97.94
579.929	86.94
580.14	79.94
580.35	84.94
580.561	81.94
580.772	76.94
580.982	81.94
581.193	77.94
581.403	77.94
581.614	89.94
581.825	82.94
582.035	81.94
582.246	80.94
582.456	74.94
582.667	93.94
582.877	81.94
583.087	74.94
583.298	85.94
583.508	78.94
583.719	83.94
583.929	94.94
584.139	85.94
584.35	88.94
584.56	84.94
584.77	91.94
584.981	83.94
585.191	81.94
585.401	79.94
585.611	95.94
585.821	90.94
586.032	80.94
586.242	93.94
586.452	87.94
586.662	88.94
586.872	83.94
587.082	89.94
587.292	83.94
587.502	82.94
587.713	88.94
587.923	77.94
588.133	93.94
588.343	91.94
588.553	81.94
588.762	85.94
588.972	89.94
589.182	111.94
589.392	97.94
589.602	85.94
589.812	104.94
590.022	84.94
590.232	73.94
590.441	82.94
590.651	75.94
590.861	83.94
591.071	67.94
591.281	91.94
591.49	81.94
591.7	81.94
591.91	90.94
592.119	97.94
592.329	76.94
592.539	85.94
592.748	92.94
592.958	70.94
593.167	74.94
593.377	85.94
593.587	95.94
593.796	79.94
594.006	86.94
594.215	82.94
594.424	80.94
594.634	88.94
594.843	90.94
595.053	92.94
595.262	75.94
595.472	77.94
595.681	77.94
595.89	80.94
596.1	88.94
596.309	84.94
596.518	83.94
596.727	85.94
596.937	87.94
597.146	101.94
597.355	88.94
597.564	86.94
597.774	84.94
597.983	83.94
598.192	88.94
598.401	83.94
598.61	67.94
598.819	88.94
599.028	81.94
599.237	67.94
599.446	78.94
599.655	90.94
599.864	80.94
600.073	80.94
600.282	82.94
600.491	72.94
600.7	75.94
600.909	63.94
601.118	89.94
601.327	92.94
601.536	77.94
601.745	82.94
601.953	76.94
602.162	82.94
602.371	82.94
602.58	86.94
602.789	86.94
602.997	64.94
603.206	81.94
603.415	92.94
603.623	99.94
603.832	108.94
604.041	72.94
604.249	78.94
604.458	89.94
604.666	83.94
604.875	78.94
605.084	98.94
605.292	77.94
605.501	86.94
605.709	68.94
605.918	80.94
606.126	74.94
606.334	91.94
606.543	82.94
606.751	80.94
606.96	76.94
607.168	87.94
607.376	80.94
607.585	79.94
607.793	69.94
608.001	71.94
608.21	95.94
608.418	76.94
608.626	102.94
608.834	79.94
609.043	90.94
609.251	83.94
609.459	85.94
609.667	78.94
609.875	85.94
610.083	84.94
610.291	68.94
610.499	86.94
610.707	89.94
610.916	87.94
611.124	81.94
611.332	80.94
611.54	75.94
611.748	93.94
611.955	83.94
612.163	64.94
612.371	91.94
612.579	86.94
612.787	82.94
612.995	86.94
613.203	79.94
613.411	97.94
613.618	81.94
613.826	93.94
614.034	81.94
614.242	74.94
614.449	74.94
614.657	64.94
614.865	75.94
615.072	68.94
615.28	88.94
615.488	92.94
615.695	83.94
615.903	89.94
616.111	96.94
616.318	95.94
616.526	92.94
616.733	97.94
616.941	87.94
617.148	90.94
617.356	98.94
617.563	87.94
617.771	79.94
617.978	77.94
618.185	69.94
618.393	69.94
618.6	93.94
618.807	79.94
619.015	85.94
619.222	83.94
619.429	86.94
619.637	87.94
619.844	89.94
620.051	80.94
620.258	96.94
620.466	86.94
620.673	87.94
620.88	81.94
621.087	82.94
621.294	90.94
621.501	84.94
621.708	88.94
621.915	79.94
622.122	94.94
622.329	68.94
622.536	84.94
622.743	83.94
622.95	90.94
623.157	86.94
623.364	74.94
623.571	85.94
623.778	98.94
623.985	77.94
624.192	88.94
624.399	92.94
624.606	75.94
624.812	75.94
625.019	85.94
625.226	82.94
625.433	87.94
625.639	76.94
625.846	81.94
626.053	79.94
626.259	85.94
626.466	79.94
626.673	79.94
626.879	85.94
627.086	76.94
627.293	99.94
627.499	91.94
627.706	76.94
627.912	78.94
628.119	78.94
628.325	93.94
628.532	83.94
628.738	86.94
628.945	94.94
629.151	78.94
629.357	92.94
629.564	84.94
629.77	74.94
629.976	70.94
630.183	81.94
630.389	74.94
630.595	76.94
630.802	79.94
631.008	80.94
631.214	80.94
631.42	80.94
631.627	73.94
631.833	86.94
632.039	84.94
632.245	81.94
632.451	81.94
632.657	81.94
632.863	83.94
633.069	89.94
633.275	78.94
633.481	88.94
633.688	84.94
633.893	86.94
634.099	82.94
634.305	78.94
634.511	79.94
634.717	79.94
634.923	73.94
635.129	86.94
635.335	79.94
635.541	81.94
635.747	71.94
635.952	70.94
636.158	80.94
636.364	88.94
636.57	94.94
636.775	81.94
636.981	87.94
637.187	95.94
637.392	79.94
637.598	90.94
637.804	68.94
638.009	73.94
638.215	72.94
638.421	71.94
638.626	82.94
638.832	89.94
639.037	92.94
639.243	97.94
639.448	89.94
639.654	86.94
639.859	78.94
640.065	90.94
640.27	92.94
640.475	82.94
640.681	77.94
640.886	82.94
641.091	78.94
641.297	76.94
641.502	80.94
641.707	87.94
641.913	85.94
642.118	81.94
642.323	74.94
642.528	88.94
642.733	83.94
642.939	91.94
643.144	85.94
643.349	91.94
643.554	86.94
643.759	81.94
643.964	90.94
644.169	70.94
644.374	87.94
644.579	82.94
644.784	84.94
644.989	86.94
645.194	77.94
645.399	77.94
645.604	73.94
645.809	84.94
646.014	90.94
646.219	74.94
646.423	96.94
646.628	80.94
646.833	94.94
647.038	88.94
647.243	98.94
647.447	76.94
647.652	82.94
647.857	81.94
648.062	79.94
648.266	81.94
648.471	91.94
648.676	77.94
648.88	82.94
649.085	87.94
649.289	100.94
649.494	84.94
649.698	113.94
649.903	101.94
650.107	80.94
650.312	82.94
650.516	85.94
650.721	75.94
650.925	75.94
651.13	68.94
651.334	59.94
651.539	67.94
651.743	101.94
651.947	69.94
652.152	81.94
652.356	88.94
652.56	90.94
652.764	84.94
652.969	83.94
653.173	88.94
653.377	93.94
653.581	77.94
653.785	87.94
653.99	88.94
654.194	78.94
654.398	79.94
654.602	85.94
654.806	84.94
655.01	89.94
655.214	78.94
655.418	86.94
655.622	81.94
655.826	74.94
656.03	89.94
656.234	81.94
656.438	85.94
656.642	100.94
656.846	95.94
657.049	84.94
657.253	82.94
657.457	81.94
657.661	61.94
657.865	78.94
658.068	80.94
658.272	83.94
658.476	92.94
658.68	82.94
658.883	88.94
659.087	85.94
659.291	74.94
659.494	87.94
659.698	74.94
659.901	89.94
660.105	67.94
660.309	95.94
660.512	80.94
660.716	71.94
660.919	89.94
661.123	72.94
661.326	78.94
661.53	74.94
661.733	76.94
661.936	84.94
662.14	76.94
662.343	67.94
662.546	63.94
662.75	80.94
662.953	79.94
663.156	82.94
663.36	82.94
663.563	78.94
663.766	85.94
663.969	84.94
664.173	70.94
664.376	84.94
664.579	81.94
664.782	79.94
664.985	100.94
665.188	78.94
665.391	72.94
665.594	88.94
665.797	80.94
666	77.94
666.203	77.94
666.406	77.94
666.609	64.94
666.812	83.94
667.015	71.94
667.218	81.94
667.421	76.94
667.624	68.94
667.827	84.94
668.03	80.94
668.232	79.94
668.435	74.94
668.638	85.94
668.841	88.94
669.043	77.94
669.246	92.94
669.449	74.94
669.651	88.94
669.854	69.94
670.057	79.94
670.259	75.94
670.462	73.94
670.665	80.94
670.867	76.94
671.07	63.94
671.272	71.94
671.475	88.94
671.677	85.94
671.88	73.94
672.082	84.94
672.284	73.94
672.487	75.94
672.689	73.94
672.892	79.94
