Data from Circ_2008_H10_HRD10591_00053.txt Node
Date: Wed Jan 03 10:17:06 EST 2024
User: Yrep
Spectrometer: HR+D1059
Trigger mode: 1
Integration Time (sec): 1.000000E-1
Scans to average: 1
Electric dark correction enabled: true
Nonlinearity correction enabled: false
Boxcar width: 0
XAxis mode: Wavelengths
Number of Pixels in Spectrum: 2048
>>>>>Begin Spectral Data<<<<<
223.165	-22.69
223.4	-22.69
223.635	-22.69
223.869	-16.69
224.104	-11.69
224.338	-10.69
224.573	-16.69
224.808	-16.69
225.042	4.31
225.277	-12.69
225.511	2.31
225.746	17.31
225.98	-9.69
226.215	7.31
226.449	19.31
226.683	21.31
226.918	17.31
227.152	28.31
227.387	34.31
227.621	31.31
227.856	51.31
228.09	47.31
228.324	44.31
228.559	59.31
228.793	59.31
229.027	64.31
229.262	55.31
229.496	75.31
229.73	84.31
229.964	80.31
230.199	72.31
230.433	88.31
230.667	72.31
230.901	82.31
231.136	72.31
231.37	70.31
231.604	72.31
231.838	87.31
232.072	74.31
232.306	77.31
232.541	76.31
232.775	86.31
233.009	80.31
233.243	87.31
233.477	86.31
233.711	86.31
233.945	74.31
234.179	79.31
234.413	80.31
234.647	76.31
234.881	76.31
235.115	75.31
235.349	71.31
235.583	71.31
235.817	77.31
236.051	84.31
236.285	73.31
236.519	81.31
236.753	77.31
236.987	83.31
237.221	77.31
237.455	80.31
237.689	78.31
237.922	79.31
238.156	69.31
238.39	72.31
238.624	70.31
238.858	86.31
239.091	82.31
239.325	74.31
239.559	80.31
239.793	82.31
240.027	77.31
240.26	79.31
240.494	83.31
240.728	72.31
240.961	76.31
241.195	75.31
241.429	80.31
241.662	73.31
241.896	72.31
242.13	89.31
242.363	64.31
242.597	83.31
242.83	81.31
243.064	85.31
243.298	60.31
243.531	69.31
243.765	92.31
243.998	76.31
244.232	87.31
244.465	89.31
244.699	75.31
244.932	69.31
245.166	75.31
245.399	88.31
245.633	85.31
245.866	82.31
246.099	88.31
246.333	76.31
246.566	81.31
246.8	76.31
247.033	73.31
247.266	75.31
247.5	79.31
247.733	66.31
247.966	75.31
248.2	75.31
248.433	82.31
248.666	77.31
248.899	72.31
249.133	92.31
249.366	95.31
249.599	90.31
249.832	82.31
250.066	82.31
250.299	96.31
250.532	89.31
250.765	74.31
250.998	66.31
251.231	74.31
251.465	78.31
251.698	90.31
251.931	68.31
252.164	81.31
252.397	77.31
252.63	82.31
252.863	85.31
253.096	86.31
253.329	87.31
253.562	66.31
253.795	77.31
254.028	82.31
254.261	76.31
254.494	79.31
254.727	77.31
254.96	95.31
255.193	83.31
255.426	77.31
255.659	86.31
255.892	80.31
256.124	72.31
256.357	84.31
256.59	80.31
256.823	76.31
257.056	83.31
257.289	97.31
257.521	87.31
257.754	61.31
257.987	83.31
258.22	64.31
258.452	89.31
258.685	81.31
258.918	75.31
259.151	85.31
259.383	80.31
259.616	89.31
259.849	81.31
260.081	91.31
260.314	75.31
260.547	76.31
260.779	83.31
261.012	89.31
261.244	79.31
261.477	80.31
261.71	93.31
261.942	112.31
262.175	107.31
262.407	89.31
262.64	79.31
262.872	91.31
263.105	78.31
263.337	80.31
263.57	79.31
263.802	70.31
264.035	78.31
264.267	74.31
264.499	91.31
264.732	82.31
264.964	93.31
265.197	97.31
265.429	89.31
265.661	90.31
265.894	78.31
266.126	78.31
266.358	86.31
266.591	101.31
266.823	86.31
267.055	79.31
267.287	87.31
267.52	78.31
267.752	79.31
267.984	90.31
268.216	77.31
268.448	75.31
268.681	85.31
268.913	90.31
269.145	80.31
269.377	87.31
269.609	90.31
269.841	88.31
270.073	88.31
270.306	81.31
270.538	74.31
270.77	83.31
271.002	82.31
271.234	89.31
271.466	85.31
271.698	67.31
271.93	81.31
272.162	92.31
272.394	81.31
272.626	94.31
272.858	88.31
273.09	83.31
273.322	86.31
273.553	93.31
273.785	89.31
274.017	68.31
274.249	73.31
274.481	77.31
274.713	83.31
274.945	89.31
275.176	89.31
275.408	96.31
275.64	88.31
275.872	89.31
276.104	82.31
276.335	82.31
276.567	93.31
276.799	114.31
277.031	92.31
277.262	92.31
277.494	95.31
277.726	81.31
277.957	79.31
278.189	81.31
278.421	89.31
278.652	80.31
278.884	101.31
279.115	73.31
279.347	88.31
279.579	94.31
279.81	64.31
280.042	87.31
280.273	94.31
280.505	92.31
280.736	89.31
280.968	90.31
281.199	95.31
281.431	91.31
281.662	87.31
281.894	81.31
282.125	84.31
282.356	101.31
282.588	142.31
282.819	93.31
283.051	86.31
283.282	85.31
283.513	78.31
283.745	88.31
283.976	79.31
284.207	89.31
284.439	95.31
284.67	77.31
284.901	92.31
285.132	88.31
285.364	78.31
285.595	103.31
285.826	87.31
286.057	97.31
286.288	96.31
286.52	90.31
286.751	82.31
286.982	98.31
287.213	83.31
287.444	81.31
287.675	84.31
287.906	89.31
288.138	77.31
288.369	91.31
288.6	83.31
288.831	89.31
289.062	85.31
289.293	97.31
289.524	75.31
289.755	76.31
289.986	80.31
290.217	86.31
290.448	84.31
290.679	86.31
290.91	91.31
291.141	92.31
291.371	98.31
291.602	88.31
291.833	91.31
292.064	90.31
292.295	87.31
292.526	81.31
292.757	81.31
292.987	90.31
293.218	85.31
293.449	89.31
293.68	86.31
293.91	92.31
294.141	93.31
294.372	86.31
294.603	80.31
294.833	87.31
295.064	89.31
295.295	83.31
295.525	101.31
295.756	106.31
295.987	105.31
296.217	132.31
296.448	113.31
296.679	84.31
296.909	93.31
297.14	90.31
297.37	93.31
297.601	90.31
297.831	83.31
298.062	86.31
298.292	96.31
298.523	90.31
298.753	101.31
298.984	69.31
299.214	81.31
299.445	99.31
299.675	87.31
299.905	97.31
300.136	82.31
300.366	93.31
300.597	85.31
300.827	93.31
301.057	88.31
301.288	94.31
301.518	89.31
301.748	87.31
301.979	93.31
302.209	95.31
302.439	81.31
302.669	75.31
302.9	89.31
303.13	89.31
303.36	92.31
303.59	94.31
303.82	105.31
304.051	88.31
304.281	80.31
304.511	76.31
304.741	81.31
304.971	91.31
305.201	100.31
305.431	89.31
305.661	89.31
305.891	86.31
306.121	91.31
306.352	103.31
306.582	98.31
306.812	97.31
307.042	89.31
307.272	90.31
307.502	85.31
307.731	92.31
307.961	79.31
308.191	87.31
308.421	87.31
308.651	96.31
308.881	96.31
309.111	86.31
309.341	90.31
309.571	87.31
309.8	97.31
310.03	85.31
310.26	101.31
310.49	99.31
310.72	99.31
310.949	104.31
311.179	95.31
311.409	88.31
311.639	74.31
311.868	89.31
312.098	91.31
312.328	80.31
312.557	92.31
312.787	107.31
313.017	97.31
313.246	95.31
313.476	92.31
313.706	90.31
313.935	93.31
314.165	89.31
314.394	105.31
314.624	82.31
314.853	80.31
315.083	82.31
315.312	89.31
315.542	90.31
315.771	89.31
316.001	93.31
316.23	75.31
316.46	91.31
316.689	80.31
316.919	92.31
317.148	90.31
317.377	95.31
317.607	92.31
317.836	83.31
318.065	85.31
318.295	96.31
318.524	86.31
318.753	96.31
318.983	98.31
319.212	89.31
319.441	100.31
319.67	82.31
319.9	94.31
320.129	82.31
320.358	88.31
320.587	91.31
320.816	94.31
321.046	98.31
321.275	86.31
321.504	83.31
321.733	89.31
321.962	93.31
322.191	98.31
322.42	105.31
322.649	122.31
322.878	101.31
323.108	108.31
323.337	112.31
323.566	121.31
323.795	126.31
324.024	193.31
324.253	323.31
324.482	671.31
324.71	1324.31
324.939	1706.31
325.168	663.31
325.397	227.31
325.626	144.31
325.855	122.31
326.084	110.31
326.313	105.31
326.542	126.31
326.77	189.31
326.999	361.31
327.228	722.31
327.457	1295.31
327.686	1049.31
327.914	321.31
328.143	179.31
328.372	153.31
328.6	130.31
328.829	127.31
329.058	136.31
329.287	117.31
329.515	103.31
329.744	111.31
329.972	118.31
330.201	136.31
330.43	151.31
330.658	137.31
330.887	137.31
331.115	115.31
331.344	80.31
331.572	91.31
331.801	104.31
332.03	101.31
332.258	97.31
332.486	88.31
332.715	109.31
332.943	94.31
333.172	89.31
333.4	90.31
333.629	99.31
333.857	114.31
334.085	120.31
334.314	128.31
334.542	171.31
334.771	160.31
334.999	108.31
335.227	89.31
335.455	86.31
335.684	87.31
335.912	92.31
336.14	87.31
336.369	105.31
336.597	102.31
336.825	92.31
337.053	82.31
337.281	89.31
337.51	93.31
337.738	98.31
337.966	95.31
338.194	99.31
338.422	99.31
338.65	87.31
338.878	95.31
339.106	92.31
339.334	114.31
339.562	98.31
339.79	99.31
340.018	87.31
340.246	83.31
340.474	75.31
340.702	101.31
340.93	88.31
341.158	66.31
341.386	96.31
341.614	86.31
341.842	81.31
342.07	98.31
342.298	80.31
342.526	85.31
342.754	93.31
342.981	72.31
343.209	79.31
343.437	106.31
343.665	80.31
343.893	81.31
344.12	83.31
344.348	85.31
344.576	92.31
344.804	95.31
345.031	87.31
345.259	85.31
345.487	96.31
345.714	98.31
345.942	105.31
346.17	75.31
346.397	86.31
346.625	81.31
346.853	90.31
347.08	102.31
347.308	95.31
347.535	98.31
347.763	86.31
347.99	85.31
348.218	85.31
348.445	93.31
348.673	106.31
348.9	81.31
349.128	91.31
349.355	96.31
349.583	86.31
349.81	80.31
350.037	97.31
350.265	93.31
350.492	107.31
350.72	102.31
350.947	94.31
351.174	103.31
351.402	104.31
351.629	98.31
351.856	88.31
352.083	87.31
352.311	102.31
352.538	110.31
352.765	103.31
352.992	106.31
353.22	103.31
353.447	105.31
353.674	91.31
353.901	101.31
354.128	99.31
354.355	100.31
354.583	102.31
354.81	89.31
355.037	94.31
355.264	76.31
355.491	97.31
355.718	95.31
355.945	99.31
356.172	86.31
356.399	92.31
356.626	88.31
356.853	85.31
357.08	89.31
357.307	97.31
357.534	88.31
357.761	89.31
357.988	95.31
358.215	94.31
358.441	93.31
358.668	83.31
358.895	85.31
359.122	102.31
359.349	97.31
359.576	97.31
359.802	95.31
360.029	107.31
360.256	111.31
360.483	102.31
360.709	86.31
360.936	95.31
361.163	91.31
361.39	102.31
361.616	89.31
361.843	73.31
362.07	90.31
362.296	89.31
362.523	90.31
362.749	98.31
362.976	95.31
363.203	87.31
363.429	101.31
363.656	90.31
363.882	85.31
364.109	80.31
364.335	98.31
364.562	102.31
364.788	87.31
365.015	90.31
365.241	105.31
365.468	106.31
365.694	104.31
365.92	95.31
366.147	93.31
366.373	80.31
366.599	98.31
366.826	88.31
367.052	105.31
367.278	82.31
367.505	95.31
367.731	80.31
367.957	89.31
368.184	96.31
368.41	97.31
368.636	99.31
368.862	118.31
369.089	93.31
369.315	93.31
369.541	80.31
369.767	85.31
369.993	103.31
370.219	94.31
370.445	81.31
370.672	88.31
370.898	86.31
371.124	104.31
371.35	85.31
371.576	82.31
371.802	83.31
372.028	89.31
372.254	82.31
372.48	70.31
372.706	88.31
372.932	86.31
373.158	98.31
373.384	94.31
373.61	88.31
373.835	110.31
374.061	77.31
374.287	79.31
374.513	82.31
374.739	93.31
374.965	73.31
375.191	86.31
375.416	83.31
375.642	85.31
375.868	80.31
376.094	92.31
376.319	83.31
376.545	91.31
376.771	76.31
376.997	85.31
377.222	93.31
377.448	79.31
377.674	99.31
377.899	94.31
378.125	81.31
378.35	79.31
378.576	90.31
378.802	87.31
379.027	94.31
379.253	86.31
379.478	93.31
379.704	97.31
379.929	81.31
380.155	87.31
380.38	75.31
380.606	81.31
380.831	77.31
381.057	93.31
381.282	86.31
381.507	80.31
381.733	86.31
381.958	93.31
382.184	95.31
382.409	110.31
382.634	103.31
382.86	94.31
383.085	106.31
383.31	96.31
383.535	87.31
383.761	96.31
383.986	99.31
384.211	81.31
384.436	109.31
384.662	103.31
384.887	96.31
385.112	82.31
385.337	107.31
385.562	94.31
385.787	114.31
386.013	102.31
386.238	105.31
386.463	97.31
386.688	101.31
386.913	96.31
387.138	103.31
387.363	108.31
387.588	108.31
387.813	105.31
388.038	106.31
388.263	94.31
388.488	98.31
388.713	94.31
388.938	86.31
389.163	88.31
389.387	76.31
389.612	82.31
389.837	88.31
390.062	85.31
390.287	86.31
390.512	98.31
390.736	97.31
390.961	81.31
391.186	99.31
391.411	95.31
391.636	88.31
391.86	91.31
392.085	81.31
392.31	90.31
392.534	78.31
392.759	91.31
392.984	73.31
393.208	103.31
393.433	91.31
393.658	80.31
393.882	85.31
394.107	88.31
394.331	81.31
394.556	94.31
394.78	97.31
395.005	86.31
395.229	89.31
395.454	88.31
395.678	93.31
395.903	90.31
396.127	80.31
396.352	77.31
396.576	81.31
396.801	89.31
397.025	78.31
397.249	88.31
397.474	83.31
397.698	86.31
397.922	79.31
398.147	86.31
398.371	100.31
398.595	89.31
398.82	74.31
399.044	87.31
399.268	91.31
399.492	79.31
399.717	92.31
399.941	80.31
400.165	91.31
400.389	90.31
400.613	83.31
400.837	82.31
401.062	78.31
401.286	88.31
401.51	75.31
401.734	100.31
401.958	101.31
402.182	137.31
402.406	150.31
402.63	128.31
402.854	82.31
403.078	90.31
403.302	90.31
403.526	69.31
403.75	81.31
403.974	94.31
404.198	85.31
404.422	90.31
404.645	92.31
404.869	81.31
405.093	91.31
405.317	97.31
405.541	93.31
405.765	100.31
405.988	114.31
406.212	152.31
406.436	203.31
406.66	137.31
406.883	98.31
407.107	80.31
407.331	81.31
407.555	93.31
407.778	82.31
408.002	96.31
408.226	76.31
408.449	94.31
408.673	96.31
408.896	102.31
409.12	83.31
409.344	85.31
409.567	73.31
409.791	62.31
410.014	82.31
410.238	84.31
410.461	93.31
410.685	97.31
410.908	92.31
411.132	106.31
411.355	117.31
411.578	97.31
411.802	74.31
412.025	98.31
412.249	100.31
412.472	89.31
412.695	88.31
412.919	102.31
413.142	89.31
413.365	74.31
413.589	87.31
413.812	91.31
414.035	82.31
414.258	89.31
414.482	88.31
414.705	93.31
414.928	93.31
415.151	91.31
415.374	81.31
415.597	89.31
415.821	90.31
416.044	91.31
416.267	94.31
416.49	78.31
416.713	85.31
416.936	93.31
417.159	75.31
417.382	77.31
417.605	87.31
417.828	91.31
418.051	82.31
418.274	97.31
418.497	70.31
418.72	79.31
418.943	101.31
419.166	85.31
419.389	92.31
419.611	82.31
419.834	88.31
420.057	97.31
420.28	96.31
420.503	82.31
420.726	88.31
420.948	101.31
421.171	85.31
421.394	73.31
421.617	91.31
421.839	101.31
422.062	94.31
422.285	96.31
422.507	86.31
422.73	104.31
422.953	87.31
423.175	87.31
423.398	97.31
423.621	88.31
423.843	75.31
424.066	87.31
424.288	102.31
424.511	72.31
424.733	89.31
424.956	106.31
425.178	90.31
425.401	112.31
425.623	84.31
425.846	86.31
426.068	89.31
426.291	77.31
426.513	62.31
426.735	94.31
426.958	78.31
427.18	108.31
427.402	125.31
427.625	152.31
427.847	133.31
428.069	96.31
428.292	78.31
428.514	88.31
428.736	83.31
428.958	77.31
429.181	87.31
429.403	81.31
429.625	86.31
429.847	82.31
430.069	94.31
430.292	87.31
430.514	89.31
430.736	81.31
430.958	83.31
431.18	92.31
431.402	99.31
431.624	72.31
431.846	91.31
432.068	85.31
432.29	93.31
432.512	83.31
432.734	92.31
432.956	104.31
433.178	94.31
433.4	101.31
433.622	101.31
433.844	79.31
434.066	88.31
434.287	104.31
434.509	89.31
434.731	96.31
434.953	86.31
435.175	90.31
435.397	79.31
435.618	94.31
435.84	88.31
436.062	111.31
436.284	94.31
436.505	103.31
436.727	83.31
436.949	86.31
437.17	88.31
437.392	79.31
437.614	89.31
437.835	95.31
438.057	114.31
438.278	92.31
438.5	109.31
438.721	123.31
438.943	87.31
439.165	82.31
439.386	73.31
439.608	80.31
439.829	88.31
440.05	110.31
440.272	115.31
440.493	90.31
440.715	90.31
440.936	93.31
441.158	85.31
441.379	97.31
441.6	85.31
441.822	83.31
442.043	95.31
442.264	94.31
442.486	85.31
442.707	85.31
442.928	95.31
443.149	115.31
443.371	111.31
443.592	92.31
443.813	105.31
444.034	101.31
444.255	92.31
444.476	87.31
444.698	81.31
444.919	80.31
445.14	121.31
445.361	112.31
445.582	107.31
445.803	126.31
446.024	119.31
446.245	121.31
446.466	103.31
446.687	87.31
446.908	93.31
447.129	93.31
447.35	77.31
447.571	84.31
447.792	94.31
448.013	90.31
448.234	94.31
448.455	89.31
448.675	96.31
448.896	103.31
449.117	82.31
449.338	95.31
449.559	122.31
449.779	108.31
450	84.31
450.221	86.31
450.442	89.31
450.662	103.31
450.883	108.31
451.104	115.31
451.324	83.31
451.545	79.31
451.766	89.31
451.986	65.31
452.207	80.31
452.428	89.31
452.648	96.31
452.869	103.31
453.089	104.31
453.31	114.31
453.53	101.31
453.751	88.31
453.971	108.31
454.192	113.31
454.412	86.31
454.633	85.31
454.853	90.31
455.073	83.31
455.294	89.31
455.514	91.31
455.734	98.31
455.955	83.31
456.175	89.31
456.395	77.31
456.616	88.31
456.836	71.31
457.056	68.31
457.276	89.31
457.497	77.31
457.717	86.31
457.937	76.31
458.157	66.31
458.377	98.31
458.598	96.31
458.818	145.31
459.038	147.31
459.258	116.31
459.478	93.31
459.698	91.31
459.918	77.31
460.138	83.31
460.358	89.31
460.578	76.31
460.798	81.31
461.018	88.31
461.238	82.31
461.458	98.31
461.678	87.31
461.898	86.31
462.118	78.31
462.338	78.31
462.558	95.31
462.777	84.31
462.997	92.31
463.217	74.31
463.437	101.31
463.657	88.31
463.876	77.31
464.096	88.31
464.316	97.31
464.536	103.31
464.755	89.31
464.975	112.31
465.195	143.31
465.414	141.31
465.634	82.31
465.854	72.31
466.073	78.31
466.293	87.31
466.512	91.31
466.732	78.31
466.951	87.31
467.171	87.31
467.391	97.31
467.61	98.31
467.829	98.31
468.049	102.31
468.268	114.31
468.488	93.31
468.707	87.31
468.927	89.31
469.146	85.31
469.365	90.31
469.585	83.31
469.804	91.31
470.023	87.31
470.243	93.31
470.462	95.31
470.681	110.31
470.901	92.31
471.12	86.31
471.339	85.31
471.558	88.31
471.777	95.31
471.997	103.31
472.216	145.31
472.435	191.31
472.654	96.31
472.873	82.31
473.092	85.31
473.311	79.31
473.53	82.31
473.749	92.31
473.968	92.31
474.187	78.31
474.406	96.31
474.625	89.31
474.844	92.31
475.063	88.31
475.282	73.31
475.501	85.31
475.72	106.31
475.939	90.31
476.158	77.31
476.377	82.31
476.596	80.31
476.814	78.31
477.033	88.31
477.252	85.31
477.471	81.31
477.69	78.31
477.908	87.31
478.127	107.31
478.346	90.31
478.564	90.31
478.783	100.31
479.002	87.31
479.22	99.31
479.439	92.31
479.658	94.31
479.876	100.31
480.095	95.31
480.313	96.31
480.532	94.31
480.751	89.31
480.969	137.31
481.188	315.31
481.406	217.31
481.624	98.31
481.843	100.31
482.061	82.31
482.28	87.31
482.498	103.31
482.717	91.31
482.935	91.31
483.153	81.31
483.372	87.31
483.59	99.31
483.808	92.31
484.027	87.31
484.245	75.31
484.463	85.31
484.681	89.31
484.9	98.31
485.118	86.31
485.336	98.31
485.554	96.31
485.772	108.31
485.99	95.31
486.209	94.31
486.427	108.31
486.645	109.31
486.863	108.31
487.081	97.31
487.299	91.31
487.517	92.31
487.735	87.31
487.953	85.31
488.171	91.31
488.389	101.31
488.607	94.31
488.825	84.31
489.043	86.31
489.261	96.31
489.479	74.31
489.696	77.31
489.914	89.31
490.132	90.31
490.35	98.31
490.568	100.31
490.786	91.31
491.003	77.31
491.221	98.31
491.439	87.31
491.657	94.31
491.874	91.31
492.092	79.31
492.31	89.31
492.527	99.31
492.745	77.31
492.963	92.31
493.18	103.31
493.398	90.31
493.615	95.31
493.833	91.31
494.05	89.31
494.268	87.31
494.485	90.31
494.703	83.31
494.92	90.31
495.138	96.31
495.355	85.31
495.573	90.31
495.79	101.31
496.008	96.31
496.225	83.31
496.442	80.31
496.66	82.31
496.877	101.31
497.094	94.31
497.312	90.31
497.529	95.31
497.746	98.31
497.963	106.31
498.181	99.31
498.398	101.31
498.615	98.31
498.832	93.31
499.049	83.31
499.267	89.31
499.484	96.31
499.701	91.31
499.918	105.31
500.135	70.31
500.352	83.31
500.569	100.31
500.786	94.31
501.003	90.31
501.22	75.31
501.437	89.31
501.654	90.31
501.871	117.31
502.088	89.31
502.305	82.31
502.522	88.31
502.739	89.31
502.956	88.31
503.172	95.31
503.389	89.31
503.606	81.31
503.823	90.31
504.04	98.31
504.256	94.31
504.473	105.31
504.69	79.31
504.907	88.31
505.123	80.31
505.34	83.31
505.557	99.31
505.773	80.31
505.99	93.31
506.207	67.31
506.423	91.31
506.64	87.31
506.856	88.31
507.073	87.31
507.289	100.31
507.506	87.31
507.722	103.31
507.939	107.31
508.155	93.31
508.372	85.31
508.588	93.31
508.805	103.31
509.021	98.31
509.238	94.31
509.454	101.31
509.67	89.31
509.887	106.31
510.103	113.31
510.319	197.31
510.536	724.31
510.752	2357.31
510.968	691.31
511.184	153.31
511.401	105.31
511.617	91.31
511.833	99.31
512.049	103.31
512.265	85.31
512.481	84.31
512.698	99.31
512.914	86.31
513.13	96.31
513.346	93.31
513.562	89.31
513.778	101.31
513.994	85.31
514.21	96.31
514.426	124.31
514.642	143.31
514.858	137.31
515.074	145.31
515.29	404.31
515.506	1392.31
515.721	522.31
515.937	148.31
516.153	115.31
516.369	99.31
516.585	99.31
516.801	98.31
517.016	86.31
517.232	87.31
517.448	85.31
517.664	93.31
517.879	95.31
518.095	104.31
518.311	93.31
518.527	89.31
518.742	99.31
518.958	92.31
519.173	91.31
519.389	94.31
519.605	87.31
519.82	82.31
520.036	94.31
520.251	104.31
520.467	107.31
520.682	99.31
520.898	105.31
521.113	102.31
521.329	133.31
521.544	188.31
521.76	517.31
521.975	2252.31
522.19	1417.31
522.406	300.31
522.621	133.31
522.836	98.31
523.052	99.31
523.267	83.31
523.482	87.31
523.698	97.31
523.913	118.31
524.128	88.31
524.343	85.31
524.559	100.31
524.774	81.31
524.989	92.31
525.204	83.31
525.419	104.31
525.634	84.31
525.849	90.31
526.064	88.31
526.28	81.31
526.495	90.31
526.71	87.31
526.925	90.31
527.14	91.31
527.355	97.31
527.57	75.31
527.785	82.31
527.999	86.31
528.214	97.31
528.429	90.31
528.644	93.31
528.859	81.31
529.074	103.31
529.289	115.31
529.503	157.31
529.718	96.31
529.933	104.31
530.148	100.31
530.363	98.31
530.577	103.31
530.792	94.31
531.007	75.31
531.221	101.31
531.436	77.31
531.651	98.31
531.865	86.31
532.08	72.31
532.295	92.31
532.509	92.31
532.724	85.31
532.938	94.31
533.153	101.31
533.367	78.31
533.582	78.31
533.796	87.31
534.011	110.31
534.225	94.31
534.44	91.31
534.654	89.31
534.868	86.31
535.083	109.31
535.297	79.31
535.511	107.31
535.726	111.31
535.94	86.31
536.154	91.31
536.369	94.31
536.583	84.31
536.797	90.31
537.011	86.31
537.225	94.31
537.44	96.31
537.654	93.31
537.868	95.31
538.082	86.31
538.296	83.31
538.51	74.31
538.724	98.31
538.938	93.31
539.153	102.31
539.367	110.31
539.581	99.31
539.795	86.31
540.009	90.31
540.222	82.31
540.436	99.31
540.65	102.31
540.864	86.31
541.078	98.31
541.292	98.31
541.506	82.31
541.72	89.31
541.934	92.31
542.147	96.31
542.361	90.31
542.575	86.31
542.789	82.31
543.002	77.31
543.216	86.31
543.43	96.31
543.644	83.31
543.857	97.31
544.071	83.31
544.285	91.31
544.498	71.31
544.712	86.31
544.925	91.31
545.139	75.31
545.352	91.31
545.566	88.31
545.779	91.31
545.993	90.31
546.206	104.31
546.42	90.31
546.633	87.31
546.847	92.31
547.06	101.31
547.274	88.31
547.487	82.31
547.7	86.31
547.914	72.31
548.127	92.31
548.34	84.31
548.554	84.31
548.767	89.31
548.98	86.31
549.193	99.31
549.407	99.31
549.62	93.31
549.833	87.31
550.046	98.31
550.259	91.31
550.473	88.31
550.686	101.31
550.899	94.31
551.112	96.31
551.325	86.31
551.538	79.31
551.751	94.31
551.964	71.31
552.177	87.31
552.39	82.31
552.603	83.31
552.816	81.31
553.029	90.31
553.242	96.31
553.455	96.31
553.667	90.31
553.88	99.31
554.093	96.31
554.306	91.31
554.519	98.31
554.732	104.31
554.944	95.31
555.157	89.31
555.37	105.31
555.583	87.31
555.795	87.31
556.008	82.31
556.221	90.31
556.433	74.31
556.646	85.31
556.859	96.31
557.071	83.31
557.284	88.31
557.496	96.31
557.709	82.31
557.921	90.31
558.134	104.31
558.346	92.31
558.559	87.31
558.771	93.31
558.984	83.31
559.196	79.31
559.409	87.31
559.621	81.31
559.833	84.31
560.046	98.31
560.258	103.31
560.47	101.31
560.683	101.31
560.895	81.31
561.107	98.31
561.32	90.31
561.532	65.31
561.744	77.31
561.956	93.31
562.168	104.31
562.381	85.31
562.593	104.31
562.805	93.31
563.017	88.31
563.229	90.31
563.441	81.31
563.653	88.31
563.865	99.31
564.077	80.31
564.289	85.31
564.501	97.31
564.713	96.31
564.925	91.31
565.137	94.31
565.349	85.31
565.561	92.31
565.773	81.31
565.985	98.31
566.197	97.31
566.408	96.31
566.62	89.31
566.832	84.31
567.044	91.31
567.255	83.31
567.467	89.31
567.679	89.31
567.891	86.31
568.102	75.31
568.314	91.31
568.526	86.31
568.737	86.31
568.949	87.31
569.161	78.31
569.372	87.31
569.584	93.31
569.795	93.31
570.007	112.31
570.218	248.31
570.43	146.31
570.641	83.31
570.853	88.31
571.064	78.31
571.276	92.31
571.487	91.31
571.698	82.31
571.91	77.31
572.121	100.31
572.333	91.31
572.544	78.31
572.755	85.31
572.966	89.31
573.178	92.31
573.389	81.31
573.6	80.31
573.811	85.31
574.023	91.31
574.234	97.31
574.445	85.31
574.656	94.31
574.867	96.31
575.078	96.31
575.289	77.31
575.501	103.31
575.712	93.31
575.923	91.31
576.134	90.31
576.345	85.31
576.556	86.31
576.767	85.31
576.978	95.31
577.188	104.31
577.399	81.31
577.61	103.31
577.821	102.31
578.032	108.31
578.243	269.31
578.454	781.31
578.665	223.31
578.875	100.31
579.086	84.31
579.297	97.31
579.508	85.31
579.718	81.31
579.929	91.31
580.14	81.31
580.35	86.31
580.561	87.31
580.772	86.31
580.982	89.31
581.193	78.31
581.403	78.31
581.614	85.31
581.825	78.31
582.035	74.31
582.246	91.31
582.456	72.31
582.667	70.31
582.877	89.31
583.087	99.31
583.298	87.31
583.508	85.31
583.719	93.31
583.929	73.31
584.139	86.31
584.35	74.31
584.56	97.31
584.77	87.31
584.981	93.31
585.191	97.31
585.401	82.31
585.611	79.31
585.821	93.31
586.032	93.31
586.242	80.31
586.452	96.31
586.662	86.31
586.872	84.31
587.082	91.31
587.292	86.31
587.502	90.31
587.713	78.31
587.923	89.31
588.133	78.31
588.343	89.31
588.553	90.31
588.762	85.31
588.972	86.31
589.182	109.31
589.392	118.31
589.602	89.31
589.812	112.31
590.022	98.31
590.232	86.31
590.441	89.31
590.651	80.31
590.861	87.31
591.071	71.31
591.281	79.31
591.49	86.31
591.7	101.31
591.91	89.31
592.119	90.31
592.329	88.31
592.539	91.31
592.748	91.31
592.958	78.31
593.167	63.31
593.377	76.31
593.587	97.31
593.796	76.31
594.006	98.31
594.215	78.31
594.424	96.31
594.634	78.31
594.843	88.31
595.053	82.31
595.262	91.31
595.472	83.31
595.681	85.31
595.89	102.31
596.1	87.31
596.309	88.31
596.518	74.31
596.727	95.31
596.937	85.31
597.146	85.31
597.355	85.31
597.564	86.31
597.774	75.31
597.983	81.31
598.192	70.31
598.401	81.31
598.61	86.31
598.819	72.31
599.028	87.31
599.237	85.31
599.446	81.31
599.655	70.31
599.864	86.31
600.073	78.31
600.282	90.31
600.491	88.31
600.7	93.31
600.909	83.31
601.118	77.31
601.327	95.31
601.536	75.31
601.745	73.31
601.953	88.31
602.162	70.31
602.371	73.31
602.58	79.31
602.789	77.31
602.997	89.31
603.206	89.31
603.415	79.31
603.623	81.31
603.832	94.31
604.041	93.31
604.249	87.31
604.458	79.31
604.666	91.31
604.875	70.31
605.084	83.31
605.292	78.31
605.501	74.31
605.709	91.31
605.918	83.31
606.126	86.31
606.334	83.31
606.543	84.31
606.751	101.31
606.96	75.31
607.168	73.31
607.376	83.31
607.585	85.31
607.793	85.31
608.001	86.31
608.21	83.31
608.418	92.31
608.626	79.31
608.834	87.31
609.043	80.31
609.251	85.31
609.459	89.31
609.667	82.31
609.875	98.31
610.083	88.31
610.291	75.31
610.499	77.31
610.707	85.31
610.916	75.31
611.124	82.31
611.332	84.31
611.54	97.31
611.748	83.31
611.955	82.31
612.163	86.31
612.371	98.31
612.579	96.31
612.787	90.31
612.995	70.31
613.203	91.31
613.411	87.31
613.618	74.31
613.826	96.31
614.034	77.31
614.242	88.31
614.449	79.31
614.657	83.31
614.865	78.31
615.072	92.31
615.28	89.31
615.488	80.31
615.695	95.31
615.903	87.31
616.111	96.31
616.318	91.31
616.526	85.31
616.733	103.31
616.941	105.31
617.148	97.31
617.356	105.31
617.563	87.31
617.771	86.31
617.978	99.31
618.185	87.31
618.393	106.31
618.6	90.31
618.807	90.31
619.015	96.31
619.222	67.31
619.429	77.31
619.637	93.31
619.844	86.31
620.051	88.31
620.258	86.31
620.466	86.31
620.673	71.31
620.88	93.31
621.087	87.31
621.294	88.31
621.501	73.31
621.708	87.31
621.915	90.31
622.122	75.31
622.329	97.31
622.536	87.31
622.743	81.31
622.95	85.31
623.157	75.31
623.364	92.31
623.571	90.31
623.778	86.31
623.985	71.31
624.192	87.31
624.399	86.31
624.606	90.31
624.812	90.31
625.019	78.31
625.226	97.31
625.433	80.31
625.639	96.31
625.846	86.31
626.053	91.31
626.259	81.31
626.466	93.31
626.673	90.31
626.879	77.31
627.086	83.31
627.293	102.31
627.499	89.31
627.706	81.31
627.912	82.31
628.119	73.31
628.325	91.31
628.532	89.31
628.738	67.31
628.945	83.31
629.151	76.31
629.357	73.31
629.564	88.31
629.77	83.31
629.976	81.31
630.183	65.31
630.389	96.31
630.595	85.31
630.802	69.31
631.008	83.31
631.214	88.31
631.42	88.31
631.627	91.31
631.833	77.31
632.039	72.31
632.245	87.31
632.451	85.31
632.657	77.31
632.863	87.31
633.069	87.31
633.275	79.31
633.481	93.31
633.688	75.31
633.893	89.31
634.099	78.31
634.305	89.31
634.511	98.31
634.717	82.31
634.923	83.31
635.129	82.31
635.335	90.31
635.541	84.31
635.747	87.31
635.952	88.31
636.158	74.31
636.364	93.31
636.57	91.31
636.775	90.31
636.981	80.31
637.187	70.31
637.392	80.31
637.598	73.31
637.804	72.31
638.009	89.31
638.215	86.31
638.421	76.31
638.626	91.31
638.832	82.31
639.037	98.31
639.243	75.31
639.448	80.31
639.654	90.31
639.859	78.31
640.065	86.31
640.27	69.31
640.475	82.31
640.681	85.31
640.886	57.31
641.091	65.31
641.297	71.31
641.502	82.31
641.707	86.31
641.913	98.31
642.118	92.31
642.323	70.31
642.528	75.31
642.733	85.31
642.939	84.31
643.144	90.31
643.349	83.31
643.554	69.31
643.759	82.31
643.964	83.31
644.169	79.31
644.374	77.31
644.579	80.31
644.784	81.31
644.989	92.31
645.194	83.31
645.399	89.31
645.604	82.31
645.809	78.31
646.014	75.31
646.219	70.31
646.423	86.31
646.628	86.31
646.833	92.31
647.038	87.31
647.243	84.31
647.447	82.31
647.652	90.31
647.857	81.31
648.062	81.31
648.266	93.31
648.471	97.31
648.676	93.31
648.88	86.31
649.085	92.31
649.289	80.31
649.494	90.31
649.698	106.31
649.903	91.31
650.107	83.31
650.312	83.31
650.516	78.31
650.721	96.31
650.925	87.31
651.13	93.31
651.334	96.31
651.539	85.31
651.743	95.31
651.947	72.31
652.152	87.31
652.356	77.31
652.56	86.31
652.764	87.31
652.969	81.31
653.173	81.31
653.377	87.31
653.581	81.31
653.785	80.31
653.99	92.31
654.194	79.31
654.398	77.31
654.602	86.31
654.806	94.31
655.01	96.31
655.214	87.31
655.418	80.31
655.622	93.31
655.826	75.31
656.03	89.31
656.234	91.31
656.438	93.31
656.642	74.31
656.846	88.31
657.049	81.31
657.253	84.31
657.457	75.31
657.661	90.31
657.865	90.31
658.068	93.31
658.272	79.31
658.476	76.31
658.68	89.31
658.883	77.31
659.087	73.31
659.291	69.31
659.494	76.31
659.698	83.31
659.901	74.31
660.105	82.31
660.309	73.31
660.512	85.31
660.716	90.31
660.919	81.31
661.123	83.31
661.326	69.31
661.53	83.31
661.733	86.31
661.936	77.31
662.14	86.31
662.343	79.31
662.546	67.31
662.75	75.31
662.953	95.31
663.156	93.31
663.36	85.31
663.563	75.31
663.766	71.31
663.969	74.31
664.173	83.31
664.376	91.31
664.579	76.31
664.782	73.31
664.985	89.31
665.188	90.31
665.391	71.31
665.594	78.31
665.797	71.31
666	70.31
666.203	93.31
666.406	83.31
666.609	87.31
666.812	87.31
667.015	93.31
667.218	69.31
667.421	91.31
667.624	74.31
667.827	86.31
668.03	73.31
668.232	75.31
668.435	81.31
668.638	85.31
668.841	75.31
669.043	76.31
669.246	86.31
669.449	87.31
669.651	86.31
669.854	83.31
670.057	81.31
670.259	85.31
670.462	77.31
670.665	92.31
670.867	80.31
671.07	85.31
671.272	90.31
671.475	88.31
671.677	71.31
671.88	75.31
672.082	82.31
672.284	83.31
672.487	76.31
672.689	93.31
672.892	81.31
