Data from Circ_2008_H10_HRD10591_00088.txt Node
Date: Wed Jan 03 10:17:13 EST 2024
User: Yrep
Spectrometer: HR+D1059
Trigger mode: 1
Integration Time (sec): 1.000000E-1
Scans to average: 1
Electric dark correction enabled: true
Nonlinearity correction enabled: false
Boxcar width: 0
XAxis mode: Wavelengths
Number of Pixels in Spectrum: 2048
>>>>>Begin Spectral Data<<<<<
223.165	-27.81
223.4	-27.81
223.635	-27.81
223.869	-35.81
224.104	-22.81
224.338	-6.81
224.573	-19.81
224.808	-6.81
225.042	10.19
225.277	-5.81
225.511	7.19
225.746	5.19
225.98	0.19
226.215	15.19
226.449	18.19
226.683	28.19
226.918	21.19
227.152	20.19
227.387	34.19
227.621	44.19
227.856	56.19
228.09	54.19
228.324	47.19
228.559	63.19
228.793	65.19
229.027	60.19
229.262	70.19
229.496	74.19
229.73	87.19
229.964	77.19
230.199	75.19
230.433	60.19
230.667	79.19
230.901	76.19
231.136	70.19
231.37	85.19
231.604	79.19
231.838	77.19
232.072	66.19
232.306	74.19
232.541	83.19
232.775	75.19
233.009	81.19
233.243	84.19
233.477	73.19
233.711	83.19
233.945	83.19
234.179	91.19
234.413	74.19
234.647	78.19
234.881	73.19
235.115	80.19
235.349	66.19
235.583	81.19
235.817	69.19
236.051	75.19
236.285	75.19
236.519	70.19
236.753	72.19
236.987	85.19
237.221	84.19
237.455	76.19
237.689	76.19
237.922	79.19
238.156	86.19
238.39	83.19
238.624	76.19
238.858	82.19
239.091	78.19
239.325	76.19
239.559	73.19
239.793	83.19
240.027	85.19
240.26	79.19
240.494	82.19
240.728	80.19
240.961	82.19
241.195	84.19
241.429	83.19
241.662	80.19
241.896	72.19
242.13	93.19
242.363	74.19
242.597	74.19
242.83	82.19
243.064	84.19
243.298	79.19
243.531	78.19
243.765	79.19
243.998	88.19
244.232	90.19
244.465	90.19
244.699	93.19
244.932	82.19
245.166	76.19
245.399	67.19
245.633	89.19
245.866	75.19
246.099	83.19
246.333	80.19
246.566	75.19
246.8	66.19
247.033	88.19
247.266	83.19
247.5	80.19
247.733	80.19
247.966	73.19
248.2	74.19
248.433	82.19
248.666	75.19
248.899	82.19
249.133	77.19
249.366	98.19
249.599	94.19
249.832	82.19
250.066	83.19
250.299	87.19
250.532	87.19
250.765	91.19
250.998	77.19
251.231	79.19
251.465	92.19
251.698	67.19
251.931	92.19
252.164	86.19
252.397	77.19
252.63	78.19
252.863	79.19
253.096	83.19
253.329	83.19
253.562	66.19
253.795	74.19
254.028	81.19
254.261	77.19
254.494	84.19
254.727	59.19
254.96	81.19
255.193	75.19
255.426	87.19
255.659	84.19
255.892	81.19
256.124	86.19
256.357	78.19
256.59	85.19
256.823	75.19
257.056	79.19
257.289	87.19
257.521	106.19
257.754	75.19
257.987	82.19
258.22	83.19
258.452	99.19
258.685	84.19
258.918	91.19
259.151	79.19
259.383	83.19
259.616	84.19
259.849	83.19
260.081	73.19
260.314	81.19
260.547	84.19
260.779	81.19
261.012	95.19
261.244	84.19
261.477	101.19
261.71	97.19
261.942	125.19
262.175	116.19
262.407	88.19
262.64	87.19
262.872	91.19
263.105	94.19
263.337	83.19
263.57	84.19
263.802	80.19
264.035	81.19
264.267	72.19
264.499	85.19
264.732	91.19
264.964	83.19
265.197	64.19
265.429	86.19
265.661	89.19
265.894	84.19
266.126	97.19
266.358	93.19
266.591	89.19
266.823	87.19
267.055	83.19
267.287	90.19
267.52	64.19
267.752	90.19
267.984	94.19
268.216	72.19
268.448	94.19
268.681	89.19
268.913	82.19
269.145	80.19
269.377	95.19
269.609	102.19
269.841	90.19
270.073	74.19
270.306	94.19
270.538	93.19
270.77	88.19
271.002	71.19
271.234	79.19
271.466	88.19
271.698	81.19
271.93	89.19
272.162	91.19
272.394	76.19
272.626	80.19
272.858	84.19
273.09	80.19
273.322	91.19
273.553	87.19
273.785	75.19
274.017	82.19
274.249	84.19
274.481	91.19
274.713	88.19
274.945	99.19
275.176	86.19
275.408	93.19
275.64	89.19
275.872	89.19
276.104	83.19
276.335	86.19
276.567	93.19
276.799	123.19
277.031	107.19
277.262	99.19
277.494	95.19
277.726	82.19
277.957	79.19
278.189	77.19
278.421	89.19
278.652	90.19
278.884	81.19
279.115	74.19
279.347	87.19
279.579	83.19
279.81	94.19
280.042	118.19
280.273	101.19
280.505	94.19
280.736	88.19
280.968	93.19
281.199	92.19
281.431	88.19
281.662	94.19
281.894	72.19
282.125	83.19
282.356	125.19
282.588	136.19
282.819	121.19
283.051	79.19
283.282	77.19
283.513	82.19
283.745	89.19
283.976	72.19
284.207	83.19
284.439	80.19
284.67	89.19
284.901	82.19
285.132	82.19
285.364	85.19
285.595	88.19
285.826	89.19
286.057	90.19
286.288	84.19
286.52	74.19
286.751	71.19
286.982	89.19
287.213	86.19
287.444	88.19
287.675	80.19
287.906	78.19
288.138	87.19
288.369	98.19
288.6	90.19
288.831	82.19
289.062	84.19
289.293	83.19
289.524	91.19
289.755	84.19
289.986	79.19
290.217	83.19
290.448	100.19
290.679	79.19
290.91	81.19
291.141	85.19
291.371	82.19
291.602	93.19
291.833	97.19
292.064	81.19
292.295	85.19
292.526	92.19
292.757	78.19
292.987	83.19
293.218	90.19
293.449	86.19
293.68	91.19
293.91	87.19
294.141	90.19
294.372	95.19
294.603	87.19
294.833	88.19
295.064	94.19
295.295	87.19
295.525	91.19
295.756	96.19
295.987	114.19
296.217	152.19
296.448	133.19
296.679	93.19
296.909	77.19
297.14	76.19
297.37	96.19
297.601	106.19
297.831	75.19
298.062	82.19
298.292	85.19
298.523	102.19
298.753	80.19
298.984	75.19
299.214	83.19
299.445	85.19
299.675	91.19
299.905	97.19
300.136	106.19
300.366	95.19
300.597	100.19
300.827	92.19
301.057	97.19
301.288	114.19
301.518	90.19
301.748	90.19
301.979	99.19
302.209	96.19
302.439	85.19
302.669	81.19
302.9	90.19
303.13	90.19
303.36	105.19
303.59	93.19
303.82	103.19
304.051	80.19
304.281	98.19
304.511	82.19
304.741	85.19
304.971	88.19
305.201	99.19
305.431	81.19
305.661	92.19
305.891	99.19
306.121	106.19
306.352	111.19
306.582	106.19
306.812	100.19
307.042	95.19
307.272	99.19
307.502	107.19
307.731	90.19
307.961	91.19
308.191	86.19
308.421	99.19
308.651	87.19
308.881	100.19
309.111	83.19
309.341	94.19
309.571	95.19
309.8	100.19
310.03	104.19
310.26	102.19
310.49	95.19
310.72	94.19
310.949	90.19
311.179	98.19
311.409	103.19
311.639	88.19
311.868	93.19
312.098	92.19
312.328	110.19
312.557	96.19
312.787	110.19
313.017	91.19
313.246	91.19
313.476	95.19
313.706	93.19
313.935	108.19
314.165	102.19
314.394	92.19
314.624	106.19
314.853	106.19
315.083	87.19
315.312	88.19
315.542	86.19
315.771	89.19
316.001	99.19
316.23	82.19
316.46	74.19
316.689	87.19
316.919	80.19
317.148	90.19
317.377	91.19
317.607	75.19
317.836	91.19
318.065	98.19
318.295	88.19
318.524	97.19
318.753	100.19
318.983	97.19
319.212	95.19
319.441	119.19
319.67	112.19
319.9	92.19
320.129	91.19
320.358	83.19
320.587	87.19
320.816	93.19
321.046	105.19
321.275	93.19
321.504	95.19
321.733	95.19
321.962	93.19
322.191	101.19
322.42	107.19
322.649	103.19
322.878	111.19
323.108	126.19
323.337	109.19
323.566	128.19
323.795	162.19
324.024	198.19
324.253	404.19
324.482	828.19
324.71	1721.19
324.939	2255.19
325.168	843.19
325.397	240.19
325.626	152.19
325.855	127.19
326.084	137.19
326.313	121.19
326.542	142.19
326.77	226.19
326.999	456.19
327.228	938.19
327.457	1656.19
327.686	1332.19
327.914	391.19
328.143	239.19
328.372	195.19
328.6	154.19
328.829	127.19
329.058	142.19
329.287	131.19
329.515	127.19
329.744	126.19
329.972	145.19
330.201	217.19
330.43	262.19
330.658	193.19
330.887	154.19
331.115	124.19
331.344	93.19
331.572	106.19
331.801	104.19
332.03	105.19
332.258	90.19
332.486	91.19
332.715	80.19
332.943	98.19
333.172	110.19
333.4	99.19
333.629	111.19
333.857	127.19
334.085	144.19
334.314	205.19
334.542	306.19
334.771	277.19
334.999	124.19
335.227	93.19
335.455	101.19
335.684	97.19
335.912	100.19
336.14	86.19
336.369	92.19
336.597	90.19
336.825	103.19
337.053	106.19
337.281	81.19
337.51	93.19
337.738	103.19
337.966	95.19
338.194	88.19
338.422	92.19
338.65	99.19
338.878	104.19
339.106	90.19
339.334	90.19
339.562	90.19
339.79	96.19
340.018	94.19
340.246	79.19
340.474	102.19
340.702	106.19
340.93	84.19
341.158	103.19
341.386	75.19
341.614	90.19
341.842	90.19
342.07	83.19
342.298	91.19
342.526	76.19
342.754	90.19
342.981	99.19
343.209	83.19
343.437	108.19
343.665	92.19
343.893	90.19
344.12	102.19
344.348	71.19
344.576	65.19
344.804	86.19
345.031	99.19
345.259	107.19
345.487	105.19
345.714	93.19
345.942	106.19
346.17	99.19
346.397	89.19
346.625	100.19
346.853	95.19
347.08	93.19
347.308	80.19
347.535	86.19
347.763	108.19
347.99	107.19
348.218	115.19
348.445	117.19
348.673	91.19
348.9	96.19
349.128	78.19
349.355	82.19
349.583	101.19
349.81	90.19
350.037	100.19
350.265	103.19
350.492	110.19
350.72	94.19
350.947	104.19
351.174	120.19
351.402	95.19
351.629	87.19
351.856	105.19
352.083	102.19
352.311	104.19
352.538	118.19
352.765	109.19
352.992	122.19
353.22	110.19
353.447	114.19
353.674	95.19
353.901	99.19
354.128	76.19
354.355	96.19
354.583	105.19
354.81	94.19
355.037	108.19
355.264	90.19
355.491	82.19
355.718	90.19
355.945	94.19
356.172	90.19
356.399	102.19
356.626	93.19
356.853	90.19
357.08	96.19
357.307	89.19
357.534	98.19
357.761	101.19
357.988	87.19
358.215	127.19
358.441	87.19
358.668	77.19
358.895	89.19
359.122	91.19
359.349	102.19
359.576	83.19
359.802	92.19
360.029	98.19
360.256	101.19
360.483	96.19
360.709	85.19
360.936	86.19
361.163	98.19
361.39	93.19
361.616	78.19
361.843	84.19
362.07	97.19
362.296	106.19
362.523	92.19
362.749	90.19
362.976	86.19
363.203	112.19
363.429	90.19
363.656	84.19
363.882	70.19
364.109	94.19
364.335	79.19
364.562	85.19
364.788	92.19
365.015	108.19
365.241	107.19
365.468	113.19
365.694	102.19
365.92	97.19
366.147	95.19
366.373	91.19
366.599	100.19
366.826	87.19
367.052	101.19
367.278	81.19
367.505	91.19
367.731	109.19
367.957	78.19
368.184	100.19
368.41	96.19
368.636	116.19
368.862	125.19
369.089	101.19
369.315	93.19
369.541	86.19
369.767	88.19
369.993	92.19
370.219	90.19
370.445	87.19
370.672	101.19
370.898	89.19
371.124	96.19
371.35	91.19
371.576	83.19
371.802	93.19
372.028	82.19
372.254	99.19
372.48	103.19
372.706	82.19
372.932	72.19
373.158	95.19
373.384	88.19
373.61	78.19
373.835	93.19
374.061	92.19
374.287	82.19
374.513	96.19
374.739	91.19
374.965	102.19
375.191	90.19
375.416	90.19
375.642	79.19
375.868	83.19
376.094	104.19
376.319	90.19
376.545	99.19
376.771	99.19
376.997	94.19
377.222	96.19
377.448	95.19
377.674	81.19
377.899	92.19
378.125	81.19
378.35	89.19
378.576	91.19
378.802	86.19
379.027	87.19
379.253	90.19
379.478	87.19
379.704	92.19
379.929	81.19
380.155	96.19
380.38	83.19
380.606	93.19
380.831	100.19
381.057	85.19
381.282	98.19
381.507	98.19
381.733	95.19
381.958	95.19
382.184	99.19
382.409	99.19
382.634	106.19
382.86	93.19
383.085	89.19
383.31	102.19
383.535	98.19
383.761	96.19
383.986	86.19
384.211	97.19
384.436	79.19
384.662	94.19
384.887	94.19
385.112	88.19
385.337	89.19
385.562	104.19
385.787	102.19
386.013	101.19
386.238	107.19
386.463	99.19
386.688	108.19
386.913	113.19
387.138	96.19
387.363	96.19
387.588	97.19
387.813	101.19
388.038	96.19
388.263	113.19
388.488	99.19
388.713	92.19
388.938	104.19
389.163	91.19
389.387	98.19
389.612	113.19
389.837	96.19
390.062	89.19
390.287	87.19
390.512	85.19
390.736	79.19
390.961	81.19
391.186	99.19
391.411	78.19
391.636	97.19
391.86	87.19
392.085	78.19
392.31	84.19
392.534	77.19
392.759	99.19
392.984	85.19
393.208	78.19
393.433	87.19
393.658	99.19
393.882	84.19
394.107	76.19
394.331	86.19
394.556	100.19
394.78	96.19
395.005	90.19
395.229	88.19
395.454	81.19
395.678	79.19
395.903	106.19
396.127	102.19
396.352	96.19
396.576	85.19
396.801	79.19
397.025	82.19
397.249	92.19
397.474	89.19
397.698	89.19
397.922	84.19
398.147	80.19
398.371	64.19
398.595	78.19
398.82	79.19
399.044	83.19
399.268	77.19
399.492	76.19
399.717	79.19
399.941	75.19
400.165	92.19
400.389	87.19
400.613	86.19
400.837	91.19
401.062	87.19
401.286	74.19
401.51	76.19
401.734	79.19
401.958	112.19
402.182	141.19
402.406	176.19
402.63	126.19
402.854	82.19
403.078	92.19
403.302	88.19
403.526	94.19
403.75	88.19
403.974	84.19
404.198	84.19
404.422	90.19
404.645	89.19
404.869	94.19
405.093	84.19
405.317	107.19
405.541	84.19
405.765	103.19
405.988	118.19
406.212	192.19
406.436	264.19
406.66	144.19
406.883	83.19
407.107	88.19
407.331	98.19
407.555	104.19
407.778	106.19
408.002	91.19
408.226	73.19
408.449	81.19
408.673	87.19
408.896	82.19
409.12	105.19
409.344	97.19
409.567	88.19
409.791	94.19
410.014	97.19
410.238	82.19
410.461	100.19
410.685	89.19
410.908	90.19
411.132	80.19
411.355	91.19
411.578	94.19
411.802	85.19
412.025	94.19
412.249	73.19
412.472	95.19
412.695	92.19
412.919	96.19
413.142	99.19
413.365	79.19
413.589	82.19
413.812	84.19
414.035	93.19
414.258	83.19
414.482	78.19
414.705	83.19
414.928	86.19
415.151	89.19
415.374	97.19
415.597	92.19
415.821	93.19
416.044	90.19
416.267	83.19
416.49	87.19
416.713	95.19
416.936	88.19
417.159	77.19
417.382	84.19
417.605	88.19
417.828	103.19
418.051	94.19
418.274	80.19
418.497	94.19
418.72	98.19
418.943	88.19
419.166	102.19
419.389	83.19
419.611	76.19
419.834	91.19
420.057	103.19
420.28	90.19
420.503	91.19
420.726	90.19
420.948	91.19
421.171	95.19
421.394	95.19
421.617	91.19
421.839	86.19
422.062	90.19
422.285	97.19
422.507	102.19
422.73	117.19
422.953	87.19
423.175	81.19
423.398	93.19
423.621	93.19
423.843	85.19
424.066	78.19
424.288	103.19
424.511	88.19
424.733	89.19
424.956	111.19
425.178	111.19
425.401	99.19
425.623	98.19
425.846	90.19
426.068	90.19
426.291	95.19
426.513	93.19
426.735	80.19
426.958	97.19
427.18	104.19
427.402	154.19
427.625	169.19
427.847	143.19
428.069	115.19
428.292	90.19
428.514	83.19
428.736	92.19
428.958	81.19
429.181	76.19
429.403	81.19
429.625	95.19
429.847	78.19
430.069	87.19
430.292	90.19
430.514	91.19
430.736	82.19
430.958	96.19
431.18	80.19
431.402	74.19
431.624	79.19
431.846	82.19
432.068	98.19
432.29	89.19
432.512	93.19
432.734	84.19
432.956	89.19
433.178	86.19
433.4	86.19
433.622	102.19
433.844	82.19
434.066	92.19
434.287	98.19
434.509	91.19
434.731	75.19
434.953	76.19
435.175	84.19
435.397	88.19
435.618	88.19
435.84	96.19
436.062	108.19
436.284	110.19
436.505	93.19
436.727	89.19
436.949	89.19
437.17	90.19
437.392	92.19
437.614	89.19
437.835	100.19
438.057	125.19
438.278	91.19
438.5	100.19
438.721	105.19
438.943	104.19
439.165	82.19
439.386	94.19
439.608	95.19
439.829	105.19
440.05	124.19
440.272	155.19
440.493	117.19
440.715	88.19
440.936	72.19
441.158	70.19
441.379	103.19
441.6	104.19
441.822	95.19
442.043	81.19
442.264	91.19
442.486	108.19
442.707	97.19
442.928	98.19
443.149	143.19
443.371	148.19
443.592	103.19
443.813	115.19
444.034	100.19
444.255	81.19
444.476	85.19
444.698	92.19
444.919	74.19
445.14	118.19
445.361	111.19
445.582	128.19
445.803	153.19
446.024	150.19
446.245	120.19
446.466	108.19
446.687	72.19
446.908	89.19
447.129	90.19
447.35	96.19
447.571	92.19
447.792	83.19
448.013	108.19
448.234	123.19
448.455	98.19
448.675	108.19
448.896	112.19
449.117	99.19
449.338	109.19
449.559	119.19
449.779	137.19
450	103.19
450.221	103.19
450.442	98.19
450.662	90.19
450.883	120.19
451.104	107.19
451.324	98.19
451.545	80.19
451.766	89.19
451.986	99.19
452.207	89.19
452.428	94.19
452.648	97.19
452.869	107.19
453.089	120.19
453.31	120.19
453.53	99.19
453.751	82.19
453.971	108.19
454.192	112.19
454.412	107.19
454.633	83.19
454.853	79.19
455.073	79.19
455.294	85.19
455.514	95.19
455.734	80.19
455.955	85.19
456.175	84.19
456.395	73.19
456.616	83.19
456.836	90.19
457.056	81.19
457.276	74.19
457.497	95.19
457.717	87.19
457.937	90.19
458.157	95.19
458.377	92.19
458.598	105.19
458.818	155.19
459.038	187.19
459.258	119.19
459.478	92.19
459.698	87.19
459.918	79.19
460.138	83.19
460.358	74.19
460.578	86.19
460.798	83.19
461.018	94.19
461.238	93.19
461.458	83.19
461.678	78.19
461.898	89.19
462.118	89.19
462.338	92.19
462.558	80.19
462.777	87.19
462.997	75.19
463.217	83.19
463.437	83.19
463.657	84.19
463.876	81.19
464.096	83.19
464.316	83.19
464.536	82.19
464.755	94.19
464.975	108.19
465.195	196.19
465.414	194.19
465.634	107.19
465.854	83.19
466.073	105.19
466.293	89.19
466.512	90.19
466.732	89.19
466.951	103.19
467.171	83.19
467.391	98.19
467.61	111.19
467.829	110.19
468.049	136.19
468.268	168.19
468.488	98.19
468.707	78.19
468.927	90.19
469.146	76.19
469.365	79.19
469.585	85.19
469.804	110.19
470.023	109.19
470.243	100.19
470.462	108.19
470.681	111.19
470.901	89.19
471.12	83.19
471.339	89.19
471.558	102.19
471.777	96.19
471.997	118.19
472.216	246.19
472.435	408.19
472.654	157.19
472.873	105.19
473.092	93.19
473.311	86.19
473.53	89.19
473.749	87.19
473.968	94.19
474.187	115.19
474.406	100.19
474.625	85.19
474.844	89.19
475.063	71.19
475.282	87.19
475.501	85.19
475.72	82.19
475.939	75.19
476.158	103.19
476.377	102.19
476.596	74.19
476.814	89.19
477.033	99.19
477.252	83.19
477.471	94.19
477.69	88.19
477.908	92.19
478.127	90.19
478.346	86.19
478.564	92.19
478.783	101.19
479.002	95.19
479.22	95.19
479.439	97.19
479.658	108.19
479.876	102.19
480.095	98.19
480.313	110.19
480.532	99.19
480.751	110.19
480.969	222.19
481.188	653.19
481.406	431.19
481.624	131.19
481.843	81.19
482.061	94.19
482.28	94.19
482.498	83.19
482.717	79.19
482.935	86.19
483.153	104.19
483.372	81.19
483.59	85.19
483.808	108.19
484.027	91.19
484.245	82.19
484.463	102.19
484.681	84.19
484.9	89.19
485.118	84.19
485.336	89.19
485.554	90.19
485.772	103.19
485.99	96.19
486.209	105.19
486.427	90.19
486.645	96.19
486.863	118.19
487.081	90.19
487.299	92.19
487.517	97.19
487.735	97.19
487.953	95.19
488.171	78.19
488.389	93.19
488.607	92.19
488.825	95.19
489.043	80.19
489.261	88.19
489.479	92.19
489.696	104.19
489.914	88.19
490.132	97.19
490.35	96.19
490.568	82.19
490.786	92.19
491.003	97.19
491.221	90.19
491.439	84.19
491.657	102.19
491.874	108.19
492.092	85.19
492.31	79.19
492.527	73.19
492.745	97.19
492.963	82.19
493.18	92.19
493.398	92.19
493.615	100.19
493.833	91.19
494.05	92.19
494.268	95.19
494.485	105.19
494.703	89.19
494.92	76.19
495.138	84.19
495.355	106.19
495.573	97.19
495.79	90.19
496.008	93.19
496.225	99.19
496.442	84.19
496.66	92.19
496.877	104.19
497.094	91.19
497.312	102.19
497.529	89.19
497.746	90.19
497.963	84.19
498.181	77.19
498.398	106.19
498.615	119.19
498.832	102.19
499.049	97.19
499.267	107.19
499.484	83.19
499.701	87.19
499.918	89.19
500.135	85.19
500.352	95.19
500.569	85.19
500.786	90.19
501.003	96.19
501.22	79.19
501.437	90.19
501.654	104.19
501.871	113.19
502.088	83.19
502.305	90.19
502.522	75.19
502.739	96.19
502.956	98.19
503.172	94.19
503.389	82.19
503.606	99.19
503.823	101.19
504.04	87.19
504.256	98.19
504.473	96.19
504.69	88.19
504.907	94.19
505.123	75.19
505.34	76.19
505.557	92.19
505.773	95.19
505.99	89.19
506.207	79.19
506.423	84.19
506.64	91.19
506.856	95.19
507.073	91.19
507.289	91.19
507.506	91.19
507.722	112.19
507.939	95.19
508.155	88.19
508.372	89.19
508.588	91.19
508.805	98.19
509.021	100.19
509.238	96.19
509.454	88.19
509.67	96.19
509.887	100.19
510.103	143.19
510.319	231.19
510.536	845.19
510.752	2862.19
510.968	786.19
511.184	177.19
511.401	125.19
511.617	88.19
511.833	86.19
512.049	82.19
512.265	99.19
512.481	95.19
512.698	96.19
512.914	98.19
513.13	104.19
513.346	83.19
513.562	96.19
513.778	88.19
513.994	99.19
514.21	115.19
514.426	113.19
514.642	138.19
514.858	131.19
515.074	184.19
515.29	552.19
515.506	1894.19
515.721	673.19
515.937	165.19
516.153	123.19
516.369	114.19
516.585	90.19
516.801	95.19
517.016	81.19
517.232	89.19
517.448	90.19
517.664	100.19
517.879	102.19
518.095	99.19
518.311	95.19
518.527	95.19
518.742	84.19
518.958	94.19
519.173	118.19
519.389	99.19
519.605	95.19
519.82	99.19
520.036	98.19
520.251	114.19
520.467	116.19
520.682	100.19
520.898	110.19
521.113	115.19
521.329	145.19
521.544	242.19
521.76	700.19
521.975	3129.19
522.19	1971.19
522.406	401.19
522.621	141.19
522.836	111.19
523.052	85.19
523.267	98.19
523.482	104.19
523.698	84.19
523.913	120.19
524.128	117.19
524.343	102.19
524.559	94.19
524.774	90.19
524.989	95.19
525.204	117.19
525.419	101.19
525.634	82.19
525.849	92.19
526.064	91.19
526.28	94.19
526.495	77.19
526.71	89.19
526.925	90.19
527.14	98.19
527.355	84.19
527.57	92.19
527.785	70.19
527.999	87.19
528.214	97.19
528.429	90.19
528.644	95.19
528.859	100.19
529.074	107.19
529.289	136.19
529.503	200.19
529.718	110.19
529.933	89.19
530.148	94.19
530.363	94.19
530.577	86.19
530.792	99.19
531.007	105.19
531.221	97.19
531.436	75.19
531.651	92.19
531.865	95.19
532.08	81.19
532.295	87.19
532.509	96.19
532.724	92.19
532.938	77.19
533.153	99.19
533.367	95.19
533.582	104.19
533.796	88.19
534.011	90.19
534.225	104.19
534.44	81.19
534.654	92.19
534.868	99.19
535.083	81.19
535.297	76.19
535.511	87.19
535.726	102.19
535.94	89.19
536.154	91.19
536.369	99.19
536.583	75.19
536.797	79.19
537.011	93.19
537.225	88.19
537.44	96.19
537.654	82.19
537.868	102.19
538.082	98.19
538.296	110.19
538.51	88.19
538.724	90.19
538.938	77.19
539.153	96.19
539.367	102.19
539.581	93.19
539.795	84.19
540.009	107.19
540.222	79.19
540.436	98.19
540.65	89.19
540.864	90.19
541.078	98.19
541.292	98.19
541.506	102.19
541.72	86.19
541.934	94.19
542.147	90.19
542.361	77.19
542.575	84.19
542.789	89.19
543.002	91.19
543.216	82.19
543.43	90.19
543.644	97.19
543.857	95.19
544.071	90.19
544.285	95.19
544.498	101.19
544.712	93.19
544.925	95.19
545.139	96.19
545.352	79.19
545.566	91.19
545.779	94.19
545.993	92.19
546.206	77.19
546.42	94.19
546.633	91.19
546.847	99.19
547.06	91.19
547.274	89.19
547.487	95.19
547.7	94.19
547.914	76.19
548.127	88.19
548.34	77.19
548.554	83.19
548.767	82.19
548.98	77.19
549.193	83.19
549.407	84.19
549.62	100.19
549.833	82.19
550.046	97.19
550.259	81.19
550.473	85.19
550.686	84.19
550.899	91.19
551.112	96.19
551.325	85.19
551.538	94.19
551.751	84.19
551.964	87.19
552.177	87.19
552.39	83.19
552.603	95.19
552.816	92.19
553.029	93.19
553.242	96.19
553.455	85.19
553.667	104.19
553.88	103.19
554.093	82.19
554.306	88.19
554.519	104.19
554.732	112.19
554.944	76.19
555.157	89.19
555.37	75.19
555.583	90.19
555.795	96.19
556.008	88.19
556.221	96.19
556.433	89.19
556.646	89.19
556.859	84.19
557.071	83.19
557.284	94.19
557.496	97.19
557.709	79.19
557.921	97.19
558.134	92.19
558.346	106.19
558.559	101.19
558.771	87.19
558.984	104.19
559.196	86.19
559.409	74.19
559.621	89.19
559.833	88.19
560.046	103.19
560.258	87.19
560.47	99.19
560.683	95.19
560.895	86.19
561.107	79.19
561.32	88.19
561.532	93.19
561.744	92.19
561.956	96.19
562.168	103.19
562.381	96.19
562.593	92.19
562.805	99.19
563.017	94.19
563.229	75.19
563.441	93.19
563.653	86.19
563.865	109.19
564.077	88.19
564.289	93.19
564.501	91.19
564.713	88.19
564.925	92.19
565.137	115.19
565.349	99.19
565.561	80.19
565.773	88.19
565.985	80.19
566.197	84.19
566.408	103.19
566.62	90.19
566.832	91.19
567.044	90.19
567.255	80.19
567.467	97.19
567.679	74.19
567.891	82.19
568.102	82.19
568.314	71.19
568.526	82.19
568.737	85.19
568.949	92.19
569.161	87.19
569.372	84.19
569.584	103.19
569.795	94.19
570.007	124.19
570.218	284.19
570.43	154.19
570.641	95.19
570.853	97.19
571.064	72.19
571.276	84.19
571.487	76.19
571.698	73.19
571.91	76.19
572.121	75.19
572.333	88.19
572.544	92.19
572.755	91.19
572.966	92.19
573.178	79.19
573.389	93.19
573.6	66.19
573.811	95.19
574.023	92.19
574.234	85.19
574.445	91.19
574.656	96.19
574.867	86.19
575.078	80.19
575.289	78.19
575.501	86.19
575.712	75.19
575.923	88.19
576.134	98.19
576.345	93.19
576.556	91.19
576.767	101.19
576.978	102.19
577.188	92.19
577.399	90.19
577.61	93.19
577.821	98.19
578.032	114.19
578.243	314.19
578.454	902.19
578.665	244.19
578.875	99.19
579.086	83.19
579.297	83.19
579.508	97.19
579.718	95.19
579.929	83.19
580.14	90.19
580.35	92.19
580.561	76.19
580.772	85.19
580.982	93.19
581.193	76.19
581.403	73.19
581.614	91.19
581.825	88.19
582.035	85.19
582.246	83.19
582.456	81.19
582.667	81.19
582.877	82.19
583.087	69.19
583.298	75.19
583.508	77.19
583.719	89.19
583.929	75.19
584.139	78.19
584.35	86.19
584.56	86.19
584.77	81.19
584.981	84.19
585.191	92.19
585.401	79.19
585.611	97.19
585.821	104.19
586.032	90.19
586.242	91.19
586.452	74.19
586.662	99.19
586.872	95.19
587.082	93.19
587.292	98.19
587.502	70.19
587.713	81.19
587.923	84.19
588.133	90.19
588.343	87.19
588.553	90.19
588.762	106.19
588.972	98.19
589.182	127.19
589.392	102.19
589.602	87.19
589.812	120.19
590.022	109.19
590.232	91.19
590.441	74.19
590.651	101.19
590.861	94.19
591.071	94.19
591.281	83.19
591.49	81.19
591.7	62.19
591.91	97.19
592.119	80.19
592.329	108.19
592.539	105.19
592.748	86.19
592.958	92.19
593.167	94.19
593.377	71.19
593.587	93.19
593.796	83.19
594.006	75.19
594.215	76.19
594.424	79.19
594.634	76.19
594.843	68.19
595.053	85.19
595.262	83.19
595.472	89.19
595.681	90.19
595.89	94.19
596.1	79.19
596.309	92.19
596.518	82.19
596.727	85.19
596.937	90.19
597.146	86.19
597.355	94.19
597.564	94.19
597.774	72.19
597.983	83.19
598.192	90.19
598.401	83.19
598.61	94.19
598.819	89.19
599.028	95.19
599.237	89.19
599.446	94.19
599.655	106.19
599.864	79.19
600.073	82.19
600.282	85.19
600.491	96.19
600.7	101.19
600.909	72.19
601.118	84.19
601.327	101.19
601.536	93.19
601.745	97.19
601.953	84.19
602.162	92.19
602.371	94.19
602.58	98.19
602.789	94.19
602.997	96.19
603.206	89.19
603.415	84.19
603.623	81.19
603.832	91.19
604.041	80.19
604.249	90.19
604.458	72.19
604.666	96.19
604.875	98.19
605.084	87.19
605.292	80.19
605.501	95.19
605.709	91.19
605.918	89.19
606.126	87.19
606.334	86.19
606.543	87.19
606.751	89.19
606.96	78.19
607.168	90.19
607.376	75.19
607.585	77.19
607.793	85.19
608.001	82.19
608.21	80.19
608.418	96.19
608.626	87.19
608.834	83.19
609.043	90.19
609.251	84.19
609.459	91.19
609.667	86.19
609.875	81.19
610.083	91.19
610.291	81.19
610.499	104.19
610.707	86.19
610.916	91.19
611.124	99.19
611.332	78.19
611.54	97.19
611.748	78.19
611.955	97.19
612.163	98.19
612.371	79.19
612.579	92.19
612.787	84.19
612.995	78.19
613.203	79.19
613.411	79.19
613.618	82.19
613.826	84.19
614.034	86.19
614.242	78.19
614.449	75.19
614.657	67.19
614.865	74.19
615.072	97.19
615.28	99.19
615.488	82.19
615.695	87.19
615.903	84.19
616.111	91.19
616.318	98.19
616.526	101.19
616.733	80.19
616.941	95.19
617.148	88.19
617.356	80.19
617.563	90.19
617.771	76.19
617.978	96.19
618.185	77.19
618.393	87.19
618.6	93.19
618.807	83.19
619.015	76.19
619.222	70.19
619.429	62.19
619.637	92.19
619.844	88.19
620.051	78.19
620.258	82.19
620.466	79.19
620.673	83.19
620.88	93.19
621.087	94.19
621.294	74.19
621.501	92.19
621.708	93.19
621.915	87.19
622.122	89.19
622.329	78.19
622.536	90.19
622.743	86.19
622.95	87.19
623.157	90.19
623.364	90.19
623.571	84.19
623.778	84.19
623.985	80.19
624.192	83.19
624.399	97.19
624.606	80.19
624.812	80.19
625.019	85.19
625.226	95.19
625.433	87.19
625.639	73.19
625.846	81.19
626.053	82.19
626.259	71.19
626.466	80.19
626.673	80.19
626.879	84.19
627.086	93.19
627.293	71.19
627.499	91.19
627.706	94.19
627.912	74.19
628.119	70.19
628.325	94.19
628.532	91.19
628.738	82.19
628.945	82.19
629.151	79.19
629.357	76.19
629.564	101.19
629.77	92.19
629.976	79.19
630.183	86.19
630.389	92.19
630.595	79.19
630.802	74.19
631.008	80.19
631.214	93.19
631.42	91.19
631.627	102.19
631.833	71.19
632.039	84.19
632.245	94.19
632.451	92.19
632.657	85.19
632.863	100.19
633.069	80.19
633.275	88.19
633.481	64.19
633.688	81.19
633.893	68.19
634.099	76.19
634.305	80.19
634.511	84.19
634.717	82.19
634.923	80.19
635.129	81.19
635.335	83.19
635.541	75.19
635.747	82.19
635.952	100.19
636.158	93.19
636.364	118.19
636.57	112.19
636.775	74.19
636.981	82.19
637.187	83.19
637.392	77.19
637.598	81.19
637.804	99.19
638.009	80.19
638.215	81.19
638.421	85.19
638.626	87.19
638.832	79.19
639.037	97.19
639.243	97.19
639.448	91.19
639.654	95.19
639.859	94.19
640.065	72.19
640.27	99.19
640.475	81.19
640.681	75.19
640.886	87.19
641.091	99.19
641.297	89.19
641.502	78.19
641.707	87.19
641.913	76.19
642.118	97.19
642.323	73.19
642.528	95.19
642.733	95.19
642.939	82.19
643.144	79.19
643.349	87.19
643.554	109.19
643.759	67.19
643.964	84.19
644.169	86.19
644.374	88.19
644.579	102.19
644.784	93.19
644.989	77.19
645.194	88.19
645.399	92.19
645.604	87.19
645.809	80.19
646.014	74.19
646.219	77.19
646.423	78.19
646.628	81.19
646.833	81.19
647.038	91.19
647.243	76.19
647.447	78.19
647.652	79.19
647.857	86.19
648.062	82.19
648.266	85.19
648.471	93.19
648.676	89.19
648.88	75.19
649.085	89.19
649.289	72.19
649.494	94.19
649.698	129.19
649.903	108.19
650.107	96.19
650.312	83.19
650.516	79.19
650.721	96.19
650.925	83.19
651.13	79.19
651.334	81.19
651.539	83.19
651.743	78.19
651.947	87.19
652.152	65.19
652.356	84.19
652.56	83.19
652.764	78.19
652.969	100.19
653.173	86.19
653.377	82.19
653.581	83.19
653.785	86.19
653.99	90.19
654.194	82.19
654.398	81.19
654.602	65.19
654.806	76.19
655.01	97.19
655.214	83.19
655.418	91.19
655.622	86.19
655.826	78.19
656.03	91.19
656.234	77.19
656.438	88.19
656.642	89.19
656.846	96.19
657.049	84.19
657.253	92.19
657.457	75.19
657.661	67.19
657.865	89.19
658.068	85.19
658.272	87.19
658.476	77.19
658.68	90.19
658.883	66.19
659.087	73.19
659.291	87.19
659.494	75.19
659.698	88.19
659.901	92.19
660.105	84.19
660.309	79.19
660.512	88.19
660.716	76.19
660.919	78.19
661.123	80.19
661.326	78.19
661.53	92.19
661.733	81.19
661.936	87.19
662.14	75.19
662.343	93.19
662.546	82.19
662.75	84.19
662.953	82.19
663.156	76.19
663.36	87.19
663.563	92.19
663.766	80.19
663.969	83.19
664.173	95.19
664.376	97.19
664.579	65.19
664.782	86.19
664.985	80.19
665.188	64.19
665.391	91.19
665.594	97.19
665.797	88.19
666	74.19
666.203	75.19
666.406	88.19
666.609	77.19
666.812	75.19
667.015	76.19
667.218	77.19
667.421	87.19
667.624	80.19
667.827	96.19
668.03	86.19
668.232	80.19
668.435	79.19
668.638	74.19
668.841	74.19
669.043	82.19
669.246	73.19
669.449	87.19
669.651	76.19
669.854	86.19
670.057	96.19
670.259	77.19
670.462	75.19
670.665	78.19
670.867	85.19
671.07	81.19
671.272	87.19
671.475	89.19
671.677	81.19
671.88	74.19
672.082	79.19
672.284	93.19
672.487	66.19
672.689	75.19
672.892	88.19
