Data from Circ_2008_H10_HRD10591_00074.txt Node
Date: Wed Jan 03 10:17:11 EST 2024
User: Yrep
Spectrometer: HR+D1059
Trigger mode: 1
Integration Time (sec): 1.000000E-1
Scans to average: 1
Electric dark correction enabled: true
Nonlinearity correction enabled: false
Boxcar width: 0
XAxis mode: Wavelengths
Number of Pixels in Spectrum: 2048
>>>>>Begin Spectral Data<<<<<
223.165	-22.31
223.4	-22.31
223.635	-22.31
223.869	-21.31
224.104	-21.31
224.338	-14.31
224.573	-6.31
224.808	-8.31
225.042	-5.31
225.277	-4.31
225.511	3.69
225.746	5.69
225.98	-6.31
226.215	16.69
226.449	16.69
226.683	16.69
226.918	19.69
227.152	30.69
227.387	55.69
227.621	36.69
227.856	42.69
228.09	53.69
228.324	49.69
228.559	47.69
228.793	63.69
229.027	70.69
229.262	70.69
229.496	65.69
229.73	71.69
229.964	74.69
230.199	80.69
230.433	82.69
230.667	88.69
230.901	82.69
231.136	78.69
231.37	71.69
231.604	64.69
231.838	73.69
232.072	71.69
232.306	75.69
232.541	84.69
232.775	74.69
233.009	84.69
233.243	81.69
233.477	70.69
233.711	76.69
233.945	82.69
234.179	80.69
234.413	82.69
234.647	83.69
234.881	85.69
235.115	80.69
235.349	73.69
235.583	86.69
235.817	79.69
236.051	89.69
236.285	75.69
236.519	70.69
236.753	71.69
236.987	83.69
237.221	77.69
237.455	85.69
237.689	88.69
237.922	79.69
238.156	85.69
238.39	82.69
238.624	68.69
238.858	67.69
239.091	83.69
239.325	75.69
239.559	92.69
239.793	75.69
240.027	65.69
240.26	67.69
240.494	58.69
240.728	70.69
240.961	90.69
241.195	85.69
241.429	77.69
241.662	70.69
241.896	82.69
242.13	77.69
242.363	76.69
242.597	75.69
242.83	73.69
243.064	77.69
243.298	88.69
243.531	74.69
243.765	59.69
243.998	79.69
244.232	90.69
244.465	87.69
244.699	86.69
244.932	86.69
245.166	76.69
245.399	72.69
245.633	76.69
245.866	86.69
246.099	76.69
246.333	83.69
246.566	73.69
246.8	91.69
247.033	82.69
247.266	79.69
247.5	78.69
247.733	90.69
247.966	67.69
248.2	73.69
248.433	75.69
248.666	81.69
248.899	93.69
249.133	76.69
249.366	94.69
249.599	97.69
249.832	89.69
250.066	65.69
250.299	61.69
250.532	76.69
250.765	94.69
250.998	73.69
251.231	79.69
251.465	81.69
251.698	74.69
251.931	84.69
252.164	71.69
252.397	81.69
252.63	82.69
252.863	86.69
253.096	74.69
253.329	81.69
253.562	79.69
253.795	90.69
254.028	82.69
254.261	79.69
254.494	102.69
254.727	79.69
254.96	70.69
255.193	87.69
255.426	80.69
255.659	74.69
255.892	76.69
256.124	83.69
256.357	76.69
256.59	80.69
256.823	84.69
257.056	81.69
257.289	82.69
257.521	83.69
257.754	81.69
257.987	66.69
258.22	79.69
258.452	72.69
258.685	86.69
258.918	95.69
259.151	100.69
259.383	85.69
259.616	75.69
259.849	85.69
260.081	96.69
260.314	83.69
260.547	93.69
260.779	81.69
261.012	94.69
261.244	81.69
261.477	80.69
261.71	105.69
261.942	117.69
262.175	122.69
262.407	91.69
262.64	76.69
262.872	83.69
263.105	77.69
263.337	90.69
263.57	92.69
263.802	90.69
264.035	79.69
264.267	88.69
264.499	101.69
264.732	81.69
264.964	92.69
265.197	88.69
265.429	83.69
265.661	76.69
265.894	81.69
266.126	87.69
266.358	90.69
266.591	80.69
266.823	94.69
267.055	74.69
267.287	70.69
267.52	68.69
267.752	77.69
267.984	94.69
268.216	89.69
268.448	83.69
268.681	64.69
268.913	83.69
269.145	75.69
269.377	87.69
269.609	77.69
269.841	74.69
270.073	69.69
270.306	80.69
270.538	81.69
270.77	74.69
271.002	83.69
271.234	92.69
271.466	82.69
271.698	83.69
271.93	88.69
272.162	97.69
272.394	82.69
272.626	82.69
272.858	88.69
273.09	93.69
273.322	92.69
273.553	81.69
273.785	86.69
274.017	87.69
274.249	83.69
274.481	83.69
274.713	88.69
274.945	91.69
275.176	91.69
275.408	88.69
275.64	76.69
275.872	63.69
276.104	82.69
276.335	86.69
276.567	104.69
276.799	93.69
277.031	108.69
277.262	108.69
277.494	95.69
277.726	99.69
277.957	81.69
278.189	83.69
278.421	65.69
278.652	74.69
278.884	91.69
279.115	73.69
279.347	82.69
279.579	83.69
279.81	89.69
280.042	69.69
280.273	102.69
280.505	95.69
280.736	89.69
280.968	80.69
281.199	86.69
281.431	80.69
281.662	77.69
281.894	81.69
282.125	96.69
282.356	104.69
282.588	129.69
282.819	111.69
283.051	100.69
283.282	84.69
283.513	85.69
283.745	90.69
283.976	76.69
284.207	81.69
284.439	95.69
284.67	89.69
284.901	89.69
285.132	88.69
285.364	87.69
285.595	88.69
285.826	93.69
286.057	80.69
286.288	83.69
286.52	96.69
286.751	74.69
286.982	76.69
287.213	90.69
287.444	92.69
287.675	84.69
287.906	101.69
288.138	93.69
288.369	94.69
288.6	88.69
288.831	87.69
289.062	101.69
289.293	82.69
289.524	89.69
289.755	75.69
289.986	78.69
290.217	85.69
290.448	78.69
290.679	77.69
290.91	74.69
291.141	76.69
291.371	81.69
291.602	101.69
291.833	73.69
292.064	92.69
292.295	71.69
292.526	101.69
292.757	82.69
292.987	74.69
293.218	92.69
293.449	82.69
293.68	104.69
293.91	88.69
294.141	81.69
294.372	91.69
294.603	78.69
294.833	87.69
295.064	87.69
295.295	101.69
295.525	96.69
295.756	99.69
295.987	115.69
296.217	160.69
296.448	135.69
296.679	94.69
296.909	85.69
297.14	95.69
297.37	89.69
297.601	89.69
297.831	89.69
298.062	86.69
298.292	85.69
298.523	69.69
298.753	89.69
298.984	89.69
299.214	91.69
299.445	89.69
299.675	94.69
299.905	99.69
300.136	88.69
300.366	82.69
300.597	89.69
300.827	88.69
301.057	98.69
301.288	107.69
301.518	72.69
301.748	92.69
301.979	112.69
302.209	81.69
302.439	89.69
302.669	96.69
302.9	94.69
303.13	104.69
303.36	109.69
303.59	104.69
303.82	112.69
304.051	90.69
304.281	91.69
304.511	83.69
304.741	90.69
304.971	93.69
305.201	90.69
305.431	85.69
305.661	84.69
305.891	93.69
306.121	92.69
306.352	104.69
306.582	94.69
306.812	106.69
307.042	90.69
307.272	97.69
307.502	122.69
307.731	105.69
307.961	98.69
308.191	79.69
308.421	109.69
308.651	89.69
308.881	86.69
309.111	94.69
309.341	83.69
309.571	104.69
309.8	94.69
310.03	100.69
310.26	98.69
310.49	82.69
310.72	103.69
310.949	93.69
311.179	86.69
311.409	98.69
311.639	98.69
311.868	81.69
312.098	106.69
312.328	94.69
312.557	107.69
312.787	110.69
313.017	95.69
313.246	98.69
313.476	100.69
313.706	99.69
313.935	106.69
314.165	98.69
314.394	91.69
314.624	90.69
314.853	101.69
315.083	101.69
315.312	95.69
315.542	69.69
315.771	104.69
316.001	89.69
316.23	89.69
316.46	87.69
316.689	85.69
316.919	101.69
317.148	113.69
317.377	85.69
317.607	89.69
317.836	91.69
318.065	99.69
318.295	88.69
318.524	73.69
318.753	102.69
318.983	101.69
319.212	97.69
319.441	121.69
319.67	105.69
319.9	102.69
320.129	82.69
320.358	80.69
320.587	89.69
320.816	90.69
321.046	98.69
321.275	105.69
321.504	91.69
321.733	98.69
321.962	107.69
322.191	96.69
322.42	92.69
322.649	96.69
322.878	119.69
323.108	117.69
323.337	121.69
323.566	140.69
323.795	131.69
324.024	215.69
324.253	369.69
324.482	778.69
324.71	1604.69
324.939	2127.69
325.168	786.69
325.397	229.69
325.626	150.69
325.855	122.69
326.084	120.69
326.313	121.69
326.542	143.69
326.77	213.69
326.999	435.69
327.228	851.69
327.457	1513.69
327.686	1211.69
327.914	366.69
328.143	216.69
328.372	212.69
328.6	146.69
328.829	127.69
329.058	132.69
329.287	124.69
329.515	121.69
329.744	125.69
329.972	155.69
330.201	223.69
330.43	274.69
330.658	183.69
330.887	161.69
331.115	134.69
331.344	86.69
331.572	101.69
331.801	110.69
332.03	98.69
332.258	97.69
332.486	103.69
332.715	100.69
332.943	114.69
333.172	94.69
333.4	98.69
333.629	107.69
333.857	117.69
334.085	143.69
334.314	210.69
334.542	311.69
334.771	317.69
334.999	140.69
335.227	119.69
335.455	99.69
335.684	101.69
335.912	100.69
336.14	95.69
336.369	83.69
336.597	93.69
336.825	101.69
337.053	102.69
337.281	96.69
337.51	94.69
337.738	87.69
337.966	98.69
338.194	82.69
338.422	100.69
338.65	89.69
338.878	85.69
339.106	93.69
339.334	86.69
339.562	90.69
339.79	91.69
340.018	95.69
340.246	93.69
340.474	92.69
340.702	102.69
340.93	91.69
341.158	99.69
341.386	90.69
341.614	95.69
341.842	91.69
342.07	94.69
342.298	82.69
342.526	89.69
342.754	95.69
342.981	98.69
343.209	98.69
343.437	94.69
343.665	79.69
343.893	83.69
344.12	96.69
344.348	94.69
344.576	102.69
344.804	105.69
345.031	103.69
345.259	97.69
345.487	89.69
345.714	102.69
345.942	89.69
346.17	87.69
346.397	97.69
346.625	83.69
346.853	95.69
347.08	88.69
347.308	100.69
347.535	98.69
347.763	104.69
347.99	88.69
348.218	106.69
348.445	104.69
348.673	107.69
348.9	87.69
349.128	99.69
349.355	91.69
349.583	92.69
349.81	90.69
350.037	88.69
350.265	105.69
350.492	93.69
350.72	94.69
350.947	108.69
351.174	106.69
351.402	105.69
351.629	101.69
351.856	93.69
352.083	109.69
352.311	104.69
352.538	117.69
352.765	113.69
352.992	129.69
353.22	105.69
353.447	100.69
353.674	93.69
353.901	85.69
354.128	96.69
354.355	92.69
354.583	98.69
354.81	97.69
355.037	89.69
355.264	86.69
355.491	90.69
355.718	95.69
355.945	94.69
356.172	97.69
356.399	95.69
356.626	81.69
356.853	97.69
357.08	77.69
357.307	72.69
357.534	88.69
357.761	91.69
357.988	88.69
358.215	94.69
358.441	98.69
358.668	82.69
358.895	92.69
359.122	80.69
359.349	93.69
359.576	90.69
359.802	109.69
360.029	107.69
360.256	100.69
360.483	111.69
360.709	86.69
360.936	98.69
361.163	79.69
361.39	98.69
361.616	92.69
361.843	105.69
362.07	96.69
362.296	105.69
362.523	85.69
362.749	110.69
362.976	86.69
363.203	93.69
363.429	103.69
363.656	99.69
363.882	88.69
364.109	98.69
364.335	75.69
364.562	85.69
364.788	105.69
365.015	92.69
365.241	100.69
365.468	96.69
365.694	117.69
365.92	98.69
366.147	112.69
366.373	92.69
366.599	96.69
366.826	93.69
367.052	82.69
367.278	95.69
367.505	79.69
367.731	85.69
367.957	86.69
368.184	95.69
368.41	89.69
368.636	113.69
368.862	109.69
369.089	114.69
369.315	98.69
369.541	103.69
369.767	85.69
369.993	91.69
370.219	97.69
370.445	91.69
370.672	87.69
370.898	85.69
371.124	85.69
371.35	92.69
371.576	92.69
371.802	92.69
372.028	68.69
372.254	91.69
372.48	88.69
372.706	78.69
372.932	80.69
373.158	90.69
373.384	96.69
373.61	91.69
373.835	98.69
374.061	75.69
374.287	96.69
374.513	95.69
374.739	96.69
374.965	87.69
375.191	94.69
375.416	97.69
375.642	79.69
375.868	93.69
376.094	102.69
376.319	85.69
376.545	81.69
376.771	79.69
376.997	84.69
377.222	95.69
377.448	84.69
377.674	86.69
377.899	86.69
378.125	94.69
378.35	96.69
378.576	87.69
378.802	71.69
379.027	87.69
379.253	91.69
379.478	86.69
379.704	105.69
379.929	94.69
380.155	96.69
380.38	87.69
380.606	86.69
380.831	91.69
381.057	89.69
381.282	87.69
381.507	102.69
381.733	86.69
381.958	88.69
382.184	98.69
382.409	93.69
382.634	95.69
382.86	106.69
383.085	108.69
383.31	108.69
383.535	108.69
383.761	111.69
383.986	96.69
384.211	96.69
384.436	100.69
384.662	83.69
384.887	110.69
385.112	89.69
385.337	111.69
385.562	99.69
385.787	100.69
386.013	104.69
386.238	120.69
386.463	93.69
386.688	104.69
386.913	93.69
387.138	114.69
387.363	110.69
387.588	98.69
387.813	105.69
388.038	112.69
388.263	113.69
388.488	112.69
388.713	75.69
388.938	80.69
389.163	98.69
389.387	85.69
389.612	102.69
389.837	92.69
390.062	97.69
390.287	84.69
390.512	78.69
390.736	78.69
390.961	93.69
391.186	78.69
391.411	103.69
391.636	92.69
391.86	89.69
392.085	87.69
392.31	102.69
392.534	80.69
392.759	94.69
392.984	96.69
393.208	100.69
393.433	81.69
393.658	89.69
393.882	83.69
394.107	82.69
394.331	85.69
394.556	72.69
394.78	99.69
395.005	101.69
395.229	78.69
395.454	83.69
395.678	108.69
395.903	101.69
396.127	78.69
396.352	77.69
396.576	77.69
396.801	76.69
397.025	76.69
397.249	91.69
397.474	78.69
397.698	91.69
397.922	74.69
398.147	93.69
398.371	91.69
398.595	89.69
398.82	80.69
399.044	90.69
399.268	90.69
399.492	88.69
399.717	98.69
399.941	91.69
400.165	87.69
400.389	83.69
400.613	76.69
400.837	84.69
401.062	82.69
401.286	88.69
401.51	81.69
401.734	82.69
401.958	104.69
402.182	132.69
402.406	174.69
402.63	119.69
402.854	102.69
403.078	84.69
403.302	90.69
403.526	102.69
403.75	82.69
403.974	75.69
404.198	83.69
404.422	79.69
404.645	86.69
404.869	87.69
405.093	107.69
405.317	108.69
405.541	97.69
405.765	78.69
405.988	103.69
406.212	173.69
406.436	235.69
406.66	151.69
406.883	106.69
407.107	104.69
407.331	80.69
407.555	98.69
407.778	103.69
408.002	87.69
408.226	84.69
408.449	81.69
408.673	94.69
408.896	91.69
409.12	97.69
409.344	82.69
409.567	81.69
409.791	86.69
410.014	91.69
410.238	86.69
410.461	93.69
410.685	89.69
410.908	91.69
411.132	95.69
411.355	104.69
411.578	83.69
411.802	89.69
412.025	80.69
412.249	86.69
412.472	91.69
412.695	104.69
412.919	108.69
413.142	87.69
413.365	75.69
413.589	97.69
413.812	89.69
414.035	98.69
414.258	92.69
414.482	89.69
414.705	102.69
414.928	93.69
415.151	83.69
415.374	82.69
415.597	89.69
415.821	97.69
416.044	98.69
416.267	88.69
416.49	91.69
416.713	74.69
416.936	90.69
417.159	78.69
417.382	92.69
417.605	94.69
417.828	94.69
418.051	103.69
418.274	82.69
418.497	94.69
418.72	82.69
418.943	74.69
419.166	87.69
419.389	102.69
419.611	90.69
419.834	98.69
420.057	108.69
420.28	92.69
420.503	84.69
420.726	80.69
420.948	103.69
421.171	101.69
421.394	83.69
421.617	95.69
421.839	87.69
422.062	91.69
422.285	93.69
422.507	97.69
422.73	93.69
422.953	73.69
423.175	90.69
423.398	98.69
423.621	91.69
423.843	94.69
424.066	76.69
424.288	82.69
424.511	87.69
424.733	89.69
424.956	114.69
425.178	89.69
425.401	113.69
425.623	101.69
425.846	100.69
426.068	109.69
426.291	95.69
426.513	95.69
426.735	110.69
426.958	101.69
427.18	102.69
427.402	134.69
427.625	172.69
427.847	129.69
428.069	133.69
428.292	89.69
428.514	82.69
428.736	84.69
428.958	89.69
429.181	88.69
429.403	82.69
429.625	96.69
429.847	86.69
430.069	107.69
430.292	81.69
430.514	91.69
430.736	81.69
430.958	90.69
431.18	83.69
431.402	90.69
431.624	89.69
431.846	84.69
432.068	88.69
432.29	92.69
432.512	84.69
432.734	81.69
432.956	78.69
433.178	79.69
433.4	111.69
433.622	98.69
433.844	84.69
434.066	93.69
434.287	98.69
434.509	79.69
434.731	81.69
434.953	86.69
435.175	96.69
435.397	105.69
435.618	87.69
435.84	94.69
436.062	120.69
436.284	106.69
436.505	96.69
436.727	91.69
436.949	93.69
437.17	92.69
437.392	78.69
437.614	91.69
437.835	112.69
438.057	118.69
438.278	107.69
438.5	96.69
438.721	119.69
438.943	99.69
439.165	90.69
439.386	91.69
439.608	80.69
439.829	89.69
440.05	140.69
440.272	141.69
440.493	97.69
440.715	88.69
440.936	82.69
441.158	93.69
441.379	66.69
441.6	90.69
441.822	83.69
442.043	102.69
442.264	108.69
442.486	100.69
442.707	88.69
442.928	104.69
443.149	132.69
443.371	129.69
443.592	110.69
443.813	98.69
444.034	90.69
444.255	85.69
444.476	80.69
444.698	87.69
444.919	88.69
445.14	114.69
445.361	111.69
445.582	127.69
445.803	135.69
446.024	145.69
446.245	122.69
446.466	106.69
446.687	83.69
446.908	86.69
447.129	93.69
447.35	88.69
447.571	101.69
447.792	86.69
448.013	91.69
448.234	124.69
448.455	100.69
448.675	112.69
448.896	121.69
449.117	103.69
449.338	101.69
449.559	111.69
449.779	131.69
450	86.69
450.221	81.69
450.442	93.69
450.662	98.69
450.883	104.69
451.104	112.69
451.324	91.69
451.545	91.69
451.766	81.69
451.986	86.69
452.207	92.69
452.428	101.69
452.648	114.69
452.869	112.69
453.089	114.69
453.31	119.69
453.53	98.69
453.751	79.69
453.971	102.69
454.192	96.69
454.412	89.69
454.633	78.69
454.853	87.69
455.073	77.69
455.294	83.69
455.514	98.69
455.734	75.69
455.955	93.69
456.175	91.69
456.395	87.69
456.616	106.69
456.836	78.69
457.056	79.69
457.276	80.69
457.497	89.69
457.717	87.69
457.937	92.69
458.157	105.69
458.377	108.69
458.598	108.69
458.818	162.69
459.038	171.69
459.258	115.69
459.478	87.69
459.698	82.69
459.918	83.69
460.138	82.69
460.358	73.69
460.578	97.69
460.798	108.69
461.018	90.69
461.238	100.69
461.458	71.69
461.678	84.69
461.898	78.69
462.118	89.69
462.338	80.69
462.558	82.69
462.777	89.69
462.997	96.69
463.217	91.69
463.437	77.69
463.657	83.69
463.876	92.69
464.096	85.69
464.316	97.69
464.536	94.69
464.755	80.69
464.975	109.69
465.195	179.69
465.414	180.69
465.634	101.69
465.854	90.69
466.073	84.69
466.293	87.69
466.512	87.69
466.732	86.69
466.951	60.69
467.171	87.69
467.391	96.69
467.61	96.69
467.829	109.69
468.049	140.69
468.268	157.69
468.488	103.69
468.707	75.69
468.927	78.69
469.146	78.69
469.365	82.69
469.585	87.69
469.804	92.69
470.023	102.69
470.243	95.69
470.462	101.69
470.681	108.69
470.901	90.69
471.12	93.69
471.339	101.69
471.558	83.69
471.777	89.69
471.997	116.69
472.216	219.69
472.435	429.69
472.654	156.69
472.873	90.69
473.092	98.69
473.311	92.69
473.53	73.69
473.749	79.69
473.968	89.69
474.187	111.69
474.406	83.69
474.625	85.69
474.844	80.69
475.063	101.69
475.282	88.69
475.501	83.69
475.72	93.69
475.939	88.69
476.158	91.69
476.377	69.69
476.596	96.69
476.814	84.69
477.033	99.69
477.252	91.69
477.471	92.69
477.69	94.69
477.908	84.69
478.127	80.69
478.346	93.69
478.564	79.69
478.783	97.69
479.002	84.69
479.22	89.69
479.439	87.69
479.658	101.69
479.876	88.69
480.095	98.69
480.313	88.69
480.532	94.69
480.751	108.69
480.969	218.69
481.188	668.69
481.406	447.69
481.624	125.69
481.843	103.69
482.061	94.69
482.28	94.69
482.498	98.69
482.717	81.69
482.935	68.69
483.153	76.69
483.372	74.69
483.59	92.69
483.808	87.69
484.027	96.69
484.245	82.69
484.463	87.69
484.681	101.69
484.9	95.69
485.118	95.69
485.336	95.69
485.554	86.69
485.772	87.69
485.99	102.69
486.209	99.69
486.427	99.69
486.645	105.69
486.863	95.69
487.081	104.69
487.299	100.69
487.517	87.69
487.735	90.69
487.953	99.69
488.171	68.69
488.389	73.69
488.607	81.69
488.825	94.69
489.043	80.69
489.261	83.69
489.479	93.69
489.696	83.69
489.914	79.69
490.132	84.69
490.35	82.69
490.568	82.69
490.786	100.69
491.003	87.69
491.221	87.69
491.439	81.69
491.657	76.69
491.874	94.69
492.092	88.69
492.31	80.69
492.527	106.69
492.745	97.69
492.963	93.69
493.18	89.69
493.398	86.69
493.615	97.69
493.833	102.69
494.05	83.69
494.268	88.69
494.485	87.69
494.703	79.69
494.92	73.69
495.138	84.69
495.355	85.69
495.573	99.69
495.79	96.69
496.008	87.69
496.225	87.69
496.442	93.69
496.66	80.69
496.877	91.69
497.094	99.69
497.312	97.69
497.529	74.69
497.746	89.69
497.963	88.69
498.181	106.69
498.398	89.69
498.615	119.69
498.832	103.69
499.049	97.69
499.267	86.69
499.484	89.69
499.701	85.69
499.918	83.69
500.135	87.69
500.352	73.69
500.569	89.69
500.786	103.69
501.003	86.69
501.22	97.69
501.437	78.69
501.654	81.69
501.871	106.69
502.088	90.69
502.305	106.69
502.522	88.69
502.739	79.69
502.956	78.69
503.172	86.69
503.389	105.69
503.606	106.69
503.823	98.69
504.04	98.69
504.256	85.69
504.473	74.69
504.69	93.69
504.907	101.69
505.123	99.69
505.34	94.69
505.557	93.69
505.773	79.69
505.99	85.69
506.207	108.69
506.423	95.69
506.64	98.69
506.856	80.69
507.073	82.69
507.289	78.69
507.506	104.69
507.722	117.69
507.939	115.69
508.155	88.69
508.372	93.69
508.588	96.69
508.805	101.69
509.021	85.69
509.238	112.69
509.454	89.69
509.67	96.69
509.887	119.69
510.103	145.69
510.319	222.69
510.536	826.69
510.752	2745.69
510.968	761.69
511.184	153.69
511.401	118.69
511.617	89.69
511.833	97.69
512.049	90.69
512.265	76.69
512.481	76.69
512.698	104.69
512.914	91.69
513.13	98.69
513.346	90.69
513.562	89.69
513.778	95.69
513.994	97.69
514.21	111.69
514.426	130.69
514.642	151.69
514.858	109.69
515.074	177.69
515.29	515.69
515.506	1762.69
515.721	650.69
515.937	178.69
516.153	101.69
516.369	108.69
516.585	96.69
516.801	89.69
517.016	94.69
517.232	83.69
517.448	96.69
517.664	90.69
517.879	96.69
518.095	94.69
518.311	87.69
518.527	90.69
518.742	106.69
518.958	96.69
519.173	97.69
519.389	89.69
519.605	97.69
519.82	105.69
520.036	112.69
520.251	106.69
520.467	114.69
520.682	93.69
520.898	112.69
521.113	129.69
521.329	158.69
521.544	216.69
521.76	651.69
521.975	2910.69
522.19	1802.69
522.406	387.69
522.621	141.69
522.836	104.69
523.052	93.69
523.267	101.69
523.482	97.69
523.698	106.69
523.913	129.69
524.128	101.69
524.343	102.69
524.559	97.69
524.774	94.69
524.989	103.69
525.204	109.69
525.419	104.69
525.634	97.69
525.849	96.69
526.064	88.69
526.28	89.69
526.495	74.69
526.71	83.69
526.925	89.69
527.14	97.69
527.355	94.69
527.57	89.69
527.785	84.69
527.999	92.69
528.214	89.69
528.429	98.69
528.644	81.69
528.859	111.69
529.074	98.69
529.289	120.69
529.503	181.69
529.718	106.69
529.933	87.69
530.148	83.69
530.363	92.69
530.577	106.69
530.792	95.69
531.007	87.69
531.221	79.69
531.436	88.69
531.651	96.69
531.865	93.69
532.08	95.69
532.295	94.69
532.509	81.69
532.724	92.69
532.938	86.69
533.153	86.69
533.367	95.69
533.582	88.69
533.796	81.69
534.011	87.69
534.225	94.69
534.44	91.69
534.654	99.69
534.868	77.69
535.083	71.69
535.297	95.69
535.511	117.69
535.726	94.69
535.94	92.69
536.154	72.69
536.369	98.69
536.583	84.69
536.797	95.69
537.011	101.69
537.225	88.69
537.44	83.69
537.654	83.69
537.868	98.69
538.082	85.69
538.296	85.69
538.51	101.69
538.724	91.69
538.938	93.69
539.153	86.69
539.367	108.69
539.581	90.69
539.795	94.69
540.009	90.69
540.222	89.69
540.436	85.69
540.65	85.69
540.864	82.69
541.078	114.69
541.292	97.69
541.506	92.69
541.72	89.69
541.934	91.69
542.147	86.69
542.361	90.69
542.575	91.69
542.789	75.69
543.002	81.69
543.216	96.69
543.43	104.69
543.644	101.69
543.857	96.69
544.071	95.69
544.285	88.69
544.498	94.69
544.712	77.69
544.925	88.69
545.139	82.69
545.352	73.69
545.566	95.69
545.779	89.69
545.993	99.69
546.206	85.69
546.42	86.69
546.633	74.69
546.847	101.69
547.06	93.69
547.274	74.69
547.487	92.69
547.7	97.69
547.914	92.69
548.127	87.69
548.34	89.69
548.554	86.69
548.767	92.69
548.98	88.69
549.193	88.69
549.407	80.69
549.62	96.69
549.833	93.69
550.046	97.69
550.259	82.69
550.473	83.69
550.686	77.69
550.899	93.69
551.112	78.69
551.325	88.69
551.538	90.69
551.751	88.69
551.964	80.69
552.177	83.69
552.39	76.69
552.603	83.69
552.816	100.69
553.029	82.69
553.242	88.69
553.455	101.69
553.667	115.69
553.88	96.69
554.093	89.69
554.306	83.69
554.519	89.69
554.732	84.69
554.944	80.69
555.157	83.69
555.37	90.69
555.583	80.69
555.795	87.69
556.008	85.69
556.221	90.69
556.433	89.69
556.646	92.69
556.859	99.69
557.071	88.69
557.284	91.69
557.496	91.69
557.709	81.69
557.921	91.69
558.134	93.69
558.346	84.69
558.559	88.69
558.771	95.69
558.984	91.69
559.196	92.69
559.409	95.69
559.621	84.69
559.833	89.69
560.046	81.69
560.258	69.69
560.47	88.69
560.683	89.69
560.895	96.69
561.107	86.69
561.32	88.69
561.532	83.69
561.744	90.69
561.956	85.69
562.168	94.69
562.381	93.69
562.593	98.69
562.805	97.69
563.017	89.69
563.229	104.69
563.441	81.69
563.653	86.69
563.865	103.69
564.077	83.69
564.289	78.69
564.501	78.69
564.713	97.69
564.925	95.69
565.137	118.69
565.349	93.69
565.561	87.69
565.773	75.69
565.985	89.69
566.197	87.69
566.408	85.69
566.62	90.69
566.832	89.69
567.044	78.69
567.255	98.69
567.467	88.69
567.679	88.69
567.891	86.69
568.102	83.69
568.314	91.69
568.526	89.69
568.737	77.69
568.949	83.69
569.161	89.69
569.372	89.69
569.584	88.69
569.795	93.69
570.007	109.69
570.218	249.69
570.43	160.69
570.641	103.69
570.853	97.69
571.064	89.69
571.276	99.69
571.487	81.69
571.698	85.69
571.91	82.69
572.121	81.69
572.333	93.69
572.544	91.69
572.755	82.69
572.966	84.69
573.178	85.69
573.389	90.69
573.6	104.69
573.811	98.69
574.023	101.69
574.234	77.69
574.445	82.69
574.656	71.69
574.867	91.69
575.078	88.69
575.289	83.69
575.501	101.69
575.712	95.69
575.923	98.69
576.134	82.69
576.345	85.69
576.556	85.69
576.767	94.69
576.978	88.69
577.188	98.69
577.399	83.69
577.61	102.69
577.821	98.69
578.032	123.69
578.243	293.69
578.454	859.69
578.665	233.69
578.875	104.69
579.086	81.69
579.297	90.69
579.508	92.69
579.718	86.69
579.929	84.69
580.14	78.69
580.35	81.69
580.561	70.69
580.772	81.69
580.982	92.69
581.193	89.69
581.403	88.69
581.614	72.69
581.825	89.69
582.035	87.69
582.246	73.69
582.456	83.69
582.667	82.69
582.877	78.69
583.087	94.69
583.298	78.69
583.508	88.69
583.719	80.69
583.929	91.69
584.139	83.69
584.35	80.69
584.56	82.69
584.77	95.69
584.981	66.69
585.191	81.69
585.401	88.69
585.611	68.69
585.821	85.69
586.032	86.69
586.242	93.69
586.452	93.69
586.662	79.69
586.872	103.69
587.082	95.69
587.292	76.69
587.502	87.69
587.713	80.69
587.923	82.69
588.133	78.69
588.343	97.69
588.553	89.69
588.762	91.69
588.972	100.69
589.182	154.69
589.392	106.69
589.602	89.69
589.812	114.69
590.022	101.69
590.232	87.69
590.441	89.69
590.651	102.69
590.861	77.69
591.071	89.69
591.281	94.69
591.49	88.69
591.7	89.69
591.91	91.69
592.119	75.69
592.329	86.69
592.539	75.69
592.748	83.69
592.958	90.69
593.167	91.69
593.377	81.69
593.587	70.69
593.796	87.69
594.006	83.69
594.215	80.69
594.424	79.69
594.634	76.69
594.843	77.69
595.053	74.69
595.262	98.69
595.472	88.69
595.681	73.69
595.89	75.69
596.1	84.69
596.309	96.69
596.518	61.69
596.727	93.69
596.937	84.69
597.146	84.69
597.355	85.69
597.564	88.69
597.774	91.69
597.983	78.69
598.192	92.69
598.401	83.69
598.61	79.69
598.819	81.69
599.028	75.69
599.237	79.69
599.446	102.69
599.655	104.69
599.864	79.69
600.073	67.69
600.282	87.69
600.491	89.69
600.7	87.69
600.909	94.69
601.118	85.69
601.327	103.69
601.536	93.69
601.745	77.69
601.953	81.69
602.162	87.69
602.371	75.69
602.58	85.69
602.789	95.69
602.997	92.69
603.206	85.69
603.415	79.69
603.623	90.69
603.832	78.69
604.041	79.69
604.249	85.69
604.458	75.69
604.666	95.69
604.875	95.69
605.084	88.69
605.292	80.69
605.501	79.69
605.709	80.69
605.918	91.69
606.126	88.69
606.334	79.69
606.543	92.69
606.751	79.69
606.96	94.69
607.168	93.69
607.376	82.69
607.585	82.69
607.793	79.69
608.001	104.69
608.21	84.69
608.418	86.69
608.626	83.69
608.834	79.69
609.043	88.69
609.251	77.69
609.459	81.69
609.667	86.69
609.875	83.69
610.083	90.69
610.291	92.69
610.499	92.69
610.707	81.69
610.916	94.69
611.124	82.69
611.332	82.69
611.54	92.69
611.748	78.69
611.955	79.69
612.163	89.69
612.371	77.69
612.579	78.69
612.787	99.69
612.995	92.69
613.203	82.69
613.411	83.69
613.618	89.69
613.826	73.69
614.034	80.69
614.242	83.69
614.449	69.69
614.657	78.69
614.865	93.69
615.072	91.69
615.28	73.69
615.488	103.69
615.695	104.69
615.903	100.69
616.111	96.69
616.318	94.69
616.526	96.69
616.733	106.69
616.941	97.69
617.148	102.69
617.356	93.69
617.563	93.69
617.771	82.69
617.978	89.69
618.185	98.69
618.393	88.69
618.6	70.69
618.807	88.69
619.015	83.69
619.222	83.69
619.429	86.69
619.637	74.69
619.844	86.69
620.051	83.69
620.258	90.69
620.466	90.69
620.673	78.69
620.88	82.69
621.087	84.69
621.294	82.69
621.501	79.69
621.708	79.69
621.915	89.69
622.122	80.69
622.329	91.69
622.536	84.69
622.743	86.69
622.95	76.69
623.157	80.69
623.364	77.69
623.571	83.69
623.778	83.69
623.985	71.69
624.192	78.69
624.399	65.69
624.606	94.69
624.812	66.69
625.019	88.69
625.226	80.69
625.433	93.69
625.639	92.69
625.846	81.69
626.053	83.69
626.259	76.69
626.466	65.69
626.673	82.69
626.879	84.69
627.086	82.69
627.293	80.69
627.499	81.69
627.706	77.69
627.912	81.69
628.119	97.69
628.325	94.69
628.532	74.69
628.738	84.69
628.945	90.69
629.151	78.69
629.357	84.69
629.564	67.69
629.77	85.69
629.976	91.69
630.183	82.69
630.389	66.69
630.595	77.69
630.802	82.69
631.008	78.69
631.214	88.69
631.42	94.69
631.627	89.69
631.833	81.69
632.039	75.69
632.245	73.69
632.451	78.69
632.657	78.69
632.863	77.69
633.069	76.69
633.275	77.69
633.481	96.69
633.688	80.69
633.893	82.69
634.099	81.69
634.305	83.69
634.511	80.69
634.717	76.69
634.923	80.69
635.129	80.69
635.335	84.69
635.541	81.69
635.747	85.69
635.952	79.69
636.158	86.69
636.364	111.69
636.57	114.69
636.775	83.69
636.981	83.69
637.187	86.69
637.392	94.69
637.598	83.69
637.804	84.69
638.009	86.69
638.215	70.69
638.421	73.69
638.626	67.69
638.832	75.69
639.037	89.69
639.243	81.69
639.448	88.69
639.654	88.69
639.859	82.69
640.065	79.69
640.27	95.69
640.475	76.69
640.681	66.69
640.886	81.69
641.091	73.69
641.297	84.69
641.502	67.69
641.707	94.69
641.913	78.69
642.118	83.69
642.323	86.69
642.528	87.69
642.733	86.69
642.939	80.69
643.144	80.69
643.349	85.69
643.554	79.69
643.759	89.69
643.964	84.69
644.169	88.69
644.374	77.69
644.579	99.69
644.784	69.69
644.989	82.69
645.194	79.69
645.399	93.69
645.604	80.69
645.809	87.69
646.014	88.69
646.219	79.69
646.423	93.69
646.628	94.69
646.833	78.69
647.038	66.69
647.243	71.69
647.447	83.69
647.652	88.69
647.857	78.69
648.062	102.69
648.266	79.69
648.471	78.69
648.676	86.69
648.88	60.69
649.085	77.69
649.289	83.69
649.494	105.69
649.698	124.69
649.903	90.69
650.107	102.69
650.312	98.69
650.516	82.69
650.721	76.69
650.925	90.69
651.13	76.69
651.334	82.69
651.539	71.69
651.743	77.69
651.947	85.69
652.152	82.69
652.356	77.69
652.56	90.69
652.764	79.69
652.969	74.69
653.173	79.69
653.377	86.69
653.581	83.69
653.785	79.69
653.99	77.69
654.194	62.69
654.398	79.69
654.602	94.69
654.806	72.69
655.01	106.69
655.214	101.69
655.418	74.69
655.622	87.69
655.826	86.69
656.03	98.69
656.234	86.69
656.438	98.69
656.642	100.69
656.846	87.69
657.049	78.69
657.253	79.69
657.457	92.69
657.661	88.69
657.865	68.69
658.068	84.69
658.272	85.69
658.476	79.69
658.68	74.69
658.883	82.69
659.087	89.69
659.291	65.69
659.494	83.69
659.698	64.69
659.901	88.69
660.105	83.69
660.309	84.69
660.512	72.69
660.716	75.69
660.919	67.69
661.123	75.69
661.326	80.69
661.53	93.69
661.733	67.69
661.936	66.69
662.14	73.69
662.343	83.69
662.546	90.69
662.75	73.69
662.953	71.69
663.156	71.69
663.36	82.69
663.563	88.69
663.766	70.69
663.969	87.69
664.173	79.69
664.376	74.69
664.579	70.69
664.782	77.69
664.985	82.69
665.188	89.69
665.391	69.69
665.594	88.69
665.797	71.69
666	70.69
666.203	83.69
666.406	70.69
666.609	76.69
666.812	75.69
667.015	92.69
667.218	78.69
667.421	83.69
667.624	79.69
667.827	72.69
668.03	71.69
668.232	81.69
668.435	72.69
668.638	82.69
668.841	86.69
669.043	94.69
669.246	79.69
669.449	81.69
669.651	87.69
669.854	81.69
670.057	71.69
670.259	59.69
670.462	74.69
670.665	78.69
670.867	76.69
671.07	72.69
671.272	77.69
671.475	90.69
671.677	76.69
671.88	96.69
672.082	88.69
672.284	92.69
672.487	73.69
672.689	72.69
672.892	80.69
