Data from Circ_2008_H10_HRD10591_00059.txt Node
Date: Wed Jan 03 10:17:08 EST 2024
User: Yrep
Spectrometer: HR+D1059
Trigger mode: 1
Integration Time (sec): 1.000000E-1
Scans to average: 1
Electric dark correction enabled: true
Nonlinearity correction enabled: false
Boxcar width: 0
XAxis mode: Wavelengths
Number of Pixels in Spectrum: 2048
>>>>>Begin Spectral Data<<<<<
223.165	-0.62
223.4	-0.62
223.635	-0.62
223.869	-16.62
224.104	-32.62
224.338	-13.62
224.573	-4.62
224.808	-19.62
225.042	-6.62
225.277	5.38
225.511	1.38
225.746	-6.62
225.98	-3.62
226.215	9.38
226.449	7.38
226.683	15.38
226.918	33.38
227.152	32.38
227.387	33.38
227.621	27.38
227.856	42.38
228.09	39.38
228.324	48.38
228.559	61.38
228.793	55.38
229.027	52.38
229.262	65.38
229.496	68.38
229.73	76.38
229.964	73.38
230.199	74.38
230.433	71.38
230.667	78.38
230.901	84.38
231.136	82.38
231.37	83.38
231.604	86.38
231.838	77.38
232.072	76.38
232.306	80.38
232.541	79.38
232.775	77.38
233.009	67.38
233.243	92.38
233.477	72.38
233.711	82.38
233.945	64.38
234.179	70.38
234.413	73.38
234.647	78.38
234.881	81.38
235.115	73.38
235.349	68.38
235.583	82.38
235.817	77.38
236.051	65.38
236.285	70.38
236.519	86.38
236.753	68.38
236.987	76.38
237.221	73.38
237.455	75.38
237.689	77.38
237.922	83.38
238.156	78.38
238.39	78.38
238.624	66.38
238.858	82.38
239.091	70.38
239.325	75.38
239.559	90.38
239.793	62.38
240.027	83.38
240.26	78.38
240.494	62.38
240.728	80.38
240.961	80.38
241.195	79.38
241.429	62.38
241.662	70.38
241.896	71.38
242.13	69.38
242.363	78.38
242.597	69.38
242.83	57.38
243.064	70.38
243.298	83.38
243.531	76.38
243.765	86.38
243.998	83.38
244.232	76.38
244.465	89.38
244.699	86.38
244.932	73.38
245.166	75.38
245.399	67.38
245.633	87.38
245.866	82.38
246.099	82.38
246.333	76.38
246.566	66.38
246.8	74.38
247.033	85.38
247.266	84.38
247.5	72.38
247.733	76.38
247.966	69.38
248.2	77.38
248.433	88.38
248.666	77.38
248.899	79.38
249.133	75.38
249.366	91.38
249.599	88.38
249.832	77.38
250.066	69.38
250.299	77.38
250.532	89.38
250.765	70.38
250.998	86.38
251.231	73.38
251.465	86.38
251.698	76.38
251.931	88.38
252.164	75.38
252.397	89.38
252.63	76.38
252.863	73.38
253.096	82.38
253.329	83.38
253.562	69.38
253.795	85.38
254.028	82.38
254.261	80.38
254.494	73.38
254.727	75.38
254.96	67.38
255.193	91.38
255.426	87.38
255.659	80.38
255.892	87.38
256.124	90.38
256.357	74.38
256.59	77.38
256.823	86.38
257.056	89.38
257.289	78.38
257.521	72.38
257.754	69.38
257.987	73.38
258.22	69.38
258.452	70.38
258.685	74.38
258.918	79.38
259.151	91.38
259.383	73.38
259.616	80.38
259.849	83.38
260.081	72.38
260.314	82.38
260.547	78.38
260.779	85.38
261.012	81.38
261.244	83.38
261.477	71.38
261.71	86.38
261.942	112.38
262.175	103.38
262.407	90.38
262.64	86.38
262.872	80.38
263.105	91.38
263.337	72.38
263.57	75.38
263.802	78.38
264.035	82.38
264.267	78.38
264.499	90.38
264.732	83.38
264.964	75.38
265.197	62.38
265.429	88.38
265.661	97.38
265.894	78.38
266.126	84.38
266.358	70.38
266.591	77.38
266.823	79.38
267.055	82.38
267.287	82.38
267.52	81.38
267.752	76.38
267.984	73.38
268.216	81.38
268.448	88.38
268.681	79.38
268.913	88.38
269.145	83.38
269.377	77.38
269.609	83.38
269.841	85.38
270.073	91.38
270.306	86.38
270.538	81.38
270.77	73.38
271.002	78.38
271.234	91.38
271.466	78.38
271.698	71.38
271.93	81.38
272.162	79.38
272.394	89.38
272.626	72.38
272.858	92.38
273.09	83.38
273.322	91.38
273.553	95.38
273.785	67.38
274.017	73.38
274.249	91.38
274.481	78.38
274.713	98.38
274.945	94.38
275.176	102.38
275.408	106.38
275.64	73.38
275.872	87.38
276.104	88.38
276.335	74.38
276.567	101.38
276.799	103.38
277.031	101.38
277.262	83.38
277.494	89.38
277.726	78.38
277.957	87.38
278.189	76.38
278.421	75.38
278.652	90.38
278.884	98.38
279.115	72.38
279.347	82.38
279.579	87.38
279.81	75.38
280.042	79.38
280.273	100.38
280.505	89.38
280.736	86.38
280.968	84.38
281.199	81.38
281.431	93.38
281.662	78.38
281.894	79.38
282.125	82.38
282.356	123.38
282.588	129.38
282.819	90.38
283.051	95.38
283.282	80.38
283.513	96.38
283.745	91.38
283.976	90.38
284.207	81.38
284.439	85.38
284.67	77.38
284.901	79.38
285.132	83.38
285.364	81.38
285.595	73.38
285.826	86.38
286.057	74.38
286.288	70.38
286.52	90.38
286.751	80.38
286.982	83.38
287.213	95.38
287.444	88.38
287.675	73.38
287.906	78.38
288.138	88.38
288.369	87.38
288.6	89.38
288.831	95.38
289.062	82.38
289.293	76.38
289.524	101.38
289.755	94.38
289.986	88.38
290.217	70.38
290.448	79.38
290.679	81.38
290.91	78.38
291.141	85.38
291.371	88.38
291.602	92.38
291.833	71.38
292.064	84.38
292.295	86.38
292.526	92.38
292.757	90.38
292.987	76.38
293.218	86.38
293.449	86.38
293.68	67.38
293.91	80.38
294.141	117.38
294.372	93.38
294.603	83.38
294.833	77.38
295.064	94.38
295.295	87.38
295.525	83.38
295.756	93.38
295.987	107.38
296.217	137.38
296.448	108.38
296.679	85.38
296.909	90.38
297.14	92.38
297.37	89.38
297.601	97.38
297.831	93.38
298.062	86.38
298.292	94.38
298.523	97.38
298.753	77.38
298.984	77.38
299.214	86.38
299.445	98.38
299.675	95.38
299.905	94.38
300.136	87.38
300.366	85.38
300.597	82.38
300.827	89.38
301.057	111.38
301.288	94.38
301.518	93.38
301.748	90.38
301.979	109.38
302.209	92.38
302.439	84.38
302.669	82.38
302.9	83.38
303.13	90.38
303.36	100.38
303.59	93.38
303.82	110.38
304.051	102.38
304.281	95.38
304.511	80.38
304.741	85.38
304.971	83.38
305.201	88.38
305.431	94.38
305.661	98.38
305.891	88.38
306.121	72.38
306.352	96.38
306.582	100.38
306.812	104.38
307.042	90.38
307.272	88.38
307.502	95.38
307.731	98.38
307.961	89.38
308.191	85.38
308.421	97.38
308.651	81.38
308.881	94.38
309.111	79.38
309.341	93.38
309.571	97.38
309.8	95.38
310.03	87.38
310.26	89.38
310.49	94.38
310.72	100.38
310.949	90.38
311.179	97.38
311.409	89.38
311.639	97.38
311.868	78.38
312.098	83.38
312.328	89.38
312.557	106.38
312.787	97.38
313.017	91.38
313.246	83.38
313.476	82.38
313.706	94.38
313.935	94.38
314.165	82.38
314.394	101.38
314.624	92.38
314.853	94.38
315.083	99.38
315.312	93.38
315.542	89.38
315.771	90.38
316.001	66.38
316.23	80.38
316.46	89.38
316.689	95.38
316.919	82.38
317.148	88.38
317.377	84.38
317.607	72.38
317.836	90.38
318.065	99.38
318.295	91.38
318.524	78.38
318.753	89.38
318.983	79.38
319.212	103.38
319.441	118.38
319.67	104.38
319.9	93.38
320.129	98.38
320.358	99.38
320.587	85.38
320.816	111.38
321.046	107.38
321.275	89.38
321.504	81.38
321.733	92.38
321.962	91.38
322.191	92.38
322.42	106.38
322.649	104.38
322.878	104.38
323.108	115.38
323.337	112.38
323.566	118.38
323.795	134.38
324.024	184.38
324.253	333.38
324.482	661.38
324.71	1369.38
324.939	1742.38
325.168	705.38
325.397	213.38
325.626	130.38
325.855	105.38
326.084	119.38
326.313	125.38
326.542	138.38
326.77	212.38
326.999	386.38
327.228	754.38
327.457	1310.38
327.686	1049.38
327.914	336.38
328.143	193.38
328.372	144.38
328.6	131.38
328.829	125.38
329.058	129.38
329.287	122.38
329.515	103.38
329.744	106.38
329.972	123.38
330.201	134.38
330.43	168.38
330.658	143.38
330.887	158.38
331.115	115.38
331.344	89.38
331.572	91.38
331.801	114.38
332.03	83.38
332.258	85.38
332.486	83.38
332.715	81.38
332.943	81.38
333.172	95.38
333.4	103.38
333.629	109.38
333.857	115.38
334.085	122.38
334.314	145.38
334.542	206.38
334.771	177.38
334.999	110.38
335.227	90.38
335.455	100.38
335.684	79.38
335.912	102.38
336.14	87.38
336.369	85.38
336.597	105.38
336.825	93.38
337.053	81.38
337.281	90.38
337.51	86.38
337.738	91.38
337.966	100.38
338.194	78.38
338.422	80.38
338.65	94.38
338.878	99.38
339.106	80.38
339.334	101.38
339.562	77.38
339.79	77.38
340.018	92.38
340.246	97.38
340.474	98.38
340.702	90.38
340.93	102.38
341.158	93.38
341.386	87.38
341.614	102.38
341.842	86.38
342.07	97.38
342.298	98.38
342.526	96.38
342.754	87.38
342.981	90.38
343.209	101.38
343.437	93.38
343.665	97.38
343.893	73.38
344.12	96.38
344.348	85.38
344.576	91.38
344.804	99.38
345.031	93.38
345.259	95.38
345.487	86.38
345.714	101.38
345.942	86.38
346.17	94.38
346.397	93.38
346.625	95.38
346.853	83.38
347.08	86.38
347.308	104.38
347.535	91.38
347.763	92.38
347.99	89.38
348.218	85.38
348.445	98.38
348.673	96.38
348.9	102.38
349.128	95.38
349.355	86.38
349.583	74.38
349.81	79.38
350.037	96.38
350.265	102.38
350.492	102.38
350.72	97.38
350.947	95.38
351.174	111.38
351.402	105.38
351.629	97.38
351.856	93.38
352.083	109.38
352.311	81.38
352.538	97.38
352.765	107.38
352.992	124.38
353.22	111.38
353.447	97.38
353.674	102.38
353.901	89.38
354.128	99.38
354.355	78.38
354.583	105.38
354.81	96.38
355.037	84.38
355.264	80.38
355.491	83.38
355.718	95.38
355.945	81.38
356.172	88.38
356.399	103.38
356.626	85.38
356.853	86.38
357.08	80.38
357.307	91.38
357.534	82.38
357.761	95.38
357.988	94.38
358.215	85.38
358.441	73.38
358.668	83.38
358.895	75.38
359.122	105.38
359.349	67.38
359.576	88.38
359.802	90.38
360.029	113.38
360.256	106.38
360.483	93.38
360.709	110.38
360.936	97.38
361.163	75.38
361.39	88.38
361.616	92.38
361.843	79.38
362.07	87.38
362.296	102.38
362.523	98.38
362.749	93.38
362.976	94.38
363.203	101.38
363.429	96.38
363.656	90.38
363.882	90.38
364.109	83.38
364.335	92.38
364.562	76.38
364.788	90.38
365.015	81.38
365.241	98.38
365.468	110.38
365.694	107.38
365.92	93.38
366.147	100.38
366.373	89.38
366.599	89.38
366.826	87.38
367.052	91.38
367.278	84.38
367.505	80.38
367.731	83.38
367.957	94.38
368.184	94.38
368.41	94.38
368.636	107.38
368.862	120.38
369.089	99.38
369.315	96.38
369.541	90.38
369.767	83.38
369.993	97.38
370.219	77.38
370.445	71.38
370.672	76.38
370.898	86.38
371.124	65.38
371.35	84.38
371.576	69.38
371.802	88.38
372.028	88.38
372.254	88.38
372.48	91.38
372.706	88.38
372.932	89.38
373.158	100.38
373.384	102.38
373.61	86.38
373.835	85.38
374.061	79.38
374.287	88.38
374.513	100.38
374.739	89.38
374.965	83.38
375.191	74.38
375.416	93.38
375.642	100.38
375.868	99.38
376.094	86.38
376.319	80.38
376.545	97.38
376.771	94.38
376.997	89.38
377.222	91.38
377.448	88.38
377.674	89.38
377.899	101.38
378.125	95.38
378.35	90.38
378.576	95.38
378.802	71.38
379.027	75.38
379.253	97.38
379.478	86.38
379.704	89.38
379.929	84.38
380.155	93.38
380.38	84.38
380.606	98.38
380.831	88.38
381.057	104.38
381.282	90.38
381.507	103.38
381.733	77.38
381.958	101.38
382.184	88.38
382.409	95.38
382.634	106.38
382.86	101.38
383.085	95.38
383.31	89.38
383.535	100.38
383.761	102.38
383.986	109.38
384.211	97.38
384.436	95.38
384.662	103.38
384.887	87.38
385.112	97.38
385.337	109.38
385.562	103.38
385.787	105.38
386.013	102.38
386.238	105.38
386.463	105.38
386.688	118.38
386.913	102.38
387.138	86.38
387.363	104.38
387.588	85.38
387.813	104.38
388.038	97.38
388.263	95.38
388.488	89.38
388.713	99.38
388.938	91.38
389.163	98.38
389.387	99.38
389.612	84.38
389.837	90.38
390.062	78.38
390.287	91.38
390.512	85.38
390.736	71.38
390.961	82.38
391.186	83.38
391.411	85.38
391.636	77.38
391.86	89.38
392.085	76.38
392.31	100.38
392.534	90.38
392.759	81.38
392.984	83.38
393.208	91.38
393.433	91.38
393.658	75.38
393.882	89.38
394.107	82.38
394.331	92.38
394.556	87.38
394.78	90.38
395.005	93.38
395.229	85.38
395.454	100.38
395.678	92.38
395.903	87.38
396.127	88.38
396.352	90.38
396.576	86.38
396.801	85.38
397.025	87.38
397.249	83.38
397.474	69.38
397.698	88.38
397.922	89.38
398.147	74.38
398.371	76.38
398.595	81.38
398.82	78.38
399.044	85.38
399.268	85.38
399.492	90.38
399.717	86.38
399.941	81.38
400.165	95.38
400.389	67.38
400.613	95.38
400.837	87.38
401.062	85.38
401.286	90.38
401.51	90.38
401.734	87.38
401.958	87.38
402.182	101.38
402.406	151.38
402.63	133.38
402.854	102.38
403.078	90.38
403.302	82.38
403.526	85.38
403.75	82.38
403.974	71.38
404.198	75.38
404.422	88.38
404.645	85.38
404.869	87.38
405.093	88.38
405.317	107.38
405.541	94.38
405.765	83.38
405.988	125.38
406.212	173.38
406.436	208.38
406.66	141.38
406.883	99.38
407.107	98.38
407.331	94.38
407.555	88.38
407.778	89.38
408.002	75.38
408.226	79.38
408.449	92.38
408.673	87.38
408.896	90.38
409.12	97.38
409.344	75.38
409.567	87.38
409.791	88.38
410.014	80.38
410.238	88.38
410.461	97.38
410.685	92.38
410.908	102.38
411.132	101.38
411.355	85.38
411.578	85.38
411.802	76.38
412.025	95.38
412.249	86.38
412.472	86.38
412.695	101.38
412.919	86.38
413.142	79.38
413.365	93.38
413.589	95.38
413.812	91.38
414.035	80.38
414.258	83.38
414.482	94.38
414.705	81.38
414.928	73.38
415.151	84.38
415.374	85.38
415.597	102.38
415.821	82.38
416.044	75.38
416.267	83.38
416.49	81.38
416.713	80.38
416.936	81.38
417.159	76.38
417.382	75.38
417.605	78.38
417.828	82.38
418.051	82.38
418.274	92.38
418.497	70.38
418.72	81.38
418.943	86.38
419.166	90.38
419.389	86.38
419.611	73.38
419.834	86.38
420.057	86.38
420.28	80.38
420.503	95.38
420.726	78.38
420.948	76.38
421.171	81.38
421.394	82.38
421.617	92.38
421.839	85.38
422.062	101.38
422.285	91.38
422.507	98.38
422.73	90.38
422.953	81.38
423.175	94.38
423.398	87.38
423.621	80.38
423.843	71.38
424.066	70.38
424.288	78.38
424.511	94.38
424.733	79.38
424.956	92.38
425.178	102.38
425.401	91.38
425.623	103.38
425.846	73.38
426.068	84.38
426.291	102.38
426.513	86.38
426.735	83.38
426.958	79.38
427.18	91.38
427.402	124.38
427.625	151.38
427.847	124.38
428.069	101.38
428.292	97.38
428.514	78.38
428.736	88.38
428.958	80.38
429.181	79.38
429.403	86.38
429.625	70.38
429.847	73.38
430.069	88.38
430.292	85.38
430.514	73.38
430.736	75.38
430.958	75.38
431.18	82.38
431.402	90.38
431.624	82.38
431.846	71.38
432.068	90.38
432.29	74.38
432.512	86.38
432.734	79.38
432.956	83.38
433.178	91.38
433.4	89.38
433.622	92.38
433.844	90.38
434.066	95.38
434.287	91.38
434.509	83.38
434.731	85.38
434.953	84.38
435.175	93.38
435.397	82.38
435.618	95.38
435.84	90.38
436.062	122.38
436.284	106.38
436.505	99.38
436.727	98.38
436.949	86.38
437.17	96.38
437.392	89.38
437.614	84.38
437.835	92.38
438.057	104.38
438.278	106.38
438.5	97.38
438.721	106.38
438.943	97.38
439.165	82.38
439.386	74.38
439.608	98.38
439.829	91.38
440.05	109.38
440.272	119.38
440.493	75.38
440.715	75.38
440.936	89.38
441.158	87.38
441.379	96.38
441.6	97.38
441.822	92.38
442.043	81.38
442.264	97.38
442.486	107.38
442.707	93.38
442.928	95.38
443.149	114.38
443.371	122.38
443.592	99.38
443.813	107.38
444.034	87.38
444.255	86.38
444.476	83.38
444.698	80.38
444.919	93.38
445.14	131.38
445.361	120.38
445.582	105.38
445.803	120.38
446.024	101.38
446.245	114.38
446.466	91.38
446.687	67.38
446.908	90.38
447.129	86.38
447.35	88.38
447.571	87.38
447.792	81.38
448.013	94.38
448.234	95.38
448.455	83.38
448.675	93.38
448.896	90.38
449.117	99.38
449.338	97.38
449.559	117.38
449.779	113.38
450	89.38
450.221	77.38
450.442	80.38
450.662	88.38
450.883	94.38
451.104	106.38
451.324	91.38
451.545	78.38
451.766	89.38
451.986	79.38
452.207	89.38
452.428	89.38
452.648	74.38
452.869	81.38
453.089	91.38
453.31	132.38
453.53	104.38
453.751	99.38
453.971	90.38
454.192	110.38
454.412	90.38
454.633	76.38
454.853	75.38
455.073	91.38
455.294	86.38
455.514	101.38
455.734	90.38
455.955	86.38
456.175	76.38
456.395	83.38
456.616	84.38
456.836	77.38
457.056	81.38
457.276	81.38
457.497	71.38
457.717	73.38
457.937	81.38
458.157	88.38
458.377	95.38
458.598	109.38
458.818	136.38
459.038	127.38
459.258	98.38
459.478	96.38
459.698	90.38
459.918	92.38
460.138	95.38
460.358	82.38
460.578	101.38
460.798	82.38
461.018	91.38
461.238	90.38
461.458	88.38
461.678	84.38
461.898	89.38
462.118	81.38
462.338	90.38
462.558	77.38
462.777	91.38
462.997	81.38
463.217	95.38
463.437	82.38
463.657	74.38
463.876	88.38
464.096	88.38
464.316	89.38
464.536	102.38
464.755	78.38
464.975	99.38
465.195	145.38
465.414	142.38
465.634	87.38
465.854	83.38
466.073	73.38
466.293	85.38
466.512	75.38
466.732	78.38
466.951	88.38
467.171	93.38
467.391	85.38
467.61	93.38
467.829	111.38
468.049	117.38
468.268	122.38
468.488	84.38
468.707	74.38
468.927	86.38
469.146	85.38
469.365	94.38
469.585	81.38
469.804	90.38
470.023	95.38
470.243	88.38
470.462	83.38
470.681	105.38
470.901	83.38
471.12	80.38
471.339	90.38
471.558	86.38
471.777	90.38
471.997	90.38
472.216	156.38
472.435	217.38
472.654	104.38
472.873	82.38
473.092	76.38
473.311	89.38
473.53	82.38
473.749	92.38
473.968	96.38
474.187	91.38
474.406	103.38
474.625	80.38
474.844	99.38
475.063	79.38
475.282	75.38
475.501	70.38
475.72	77.38
475.939	82.38
476.158	89.38
476.377	82.38
476.596	90.38
476.814	98.38
477.033	78.38
477.252	91.38
477.471	78.38
477.69	80.38
477.908	90.38
478.127	75.38
478.346	79.38
478.564	72.38
478.783	88.38
479.002	95.38
479.22	90.38
479.439	89.38
479.658	107.38
479.876	97.38
480.095	89.38
480.313	100.38
480.532	93.38
480.751	100.38
480.969	159.38
481.188	370.38
481.406	257.38
481.624	114.38
481.843	87.38
482.061	78.38
482.28	89.38
482.498	77.38
482.717	83.38
482.935	94.38
483.153	89.38
483.372	82.38
483.59	76.38
483.808	82.38
484.027	81.38
484.245	101.38
484.463	88.38
484.681	71.38
484.9	92.38
485.118	88.38
485.336	91.38
485.554	87.38
485.772	101.38
485.99	86.38
486.209	93.38
486.427	95.38
486.645	119.38
486.863	101.38
487.081	100.38
487.299	88.38
487.517	89.38
487.735	82.38
487.953	82.38
488.171	80.38
488.389	85.38
488.607	93.38
488.825	96.38
489.043	82.38
489.261	97.38
489.479	96.38
489.696	67.38
489.914	98.38
490.132	77.38
490.35	94.38
490.568	90.38
490.786	91.38
491.003	81.38
491.221	83.38
491.439	92.38
491.657	79.38
491.874	79.38
492.092	94.38
492.31	98.38
492.527	67.38
492.745	89.38
492.963	87.38
493.18	67.38
493.398	74.38
493.615	81.38
493.833	86.38
494.05	76.38
494.268	96.38
494.485	75.38
494.703	90.38
494.92	86.38
495.138	69.38
495.355	88.38
495.573	83.38
495.79	88.38
496.008	89.38
496.225	83.38
496.442	74.38
496.66	98.38
496.877	79.38
497.094	89.38
497.312	90.38
497.529	97.38
497.746	94.38
497.963	101.38
498.181	98.38
498.398	82.38
498.615	100.38
498.832	106.38
499.049	90.38
499.267	89.38
499.484	99.38
499.701	86.38
499.918	101.38
500.135	84.38
500.352	95.38
500.569	94.38
500.786	82.38
501.003	79.38
501.22	82.38
501.437	79.38
501.654	101.38
501.871	102.38
502.088	91.38
502.305	90.38
502.522	83.38
502.739	102.38
502.956	98.38
503.172	92.38
503.389	100.38
503.606	103.38
503.823	107.38
504.04	85.38
504.256	94.38
504.473	94.38
504.69	93.38
504.907	94.38
505.123	93.38
505.34	92.38
505.557	96.38
505.773	86.38
505.99	95.38
506.207	83.38
506.423	85.38
506.64	86.38
506.856	74.38
507.073	88.38
507.289	78.38
507.506	85.38
507.722	94.38
507.939	110.38
508.155	93.38
508.372	96.38
508.588	95.38
508.805	88.38
509.021	90.38
509.238	110.38
509.454	106.38
509.67	97.38
509.887	108.38
510.103	125.38
510.319	203.38
510.536	757.38
510.752	2498.38
510.968	693.38
511.184	162.38
511.401	108.38
511.617	101.38
511.833	83.38
512.049	76.38
512.265	88.38
512.481	91.38
512.698	94.38
512.914	90.38
513.13	88.38
513.346	98.38
513.562	99.38
513.778	106.38
513.994	93.38
514.21	96.38
514.426	107.38
514.642	134.38
514.858	125.38
515.074	157.38
515.29	429.38
515.506	1479.38
515.721	559.38
515.937	160.38
516.153	121.38
516.369	111.38
516.585	89.38
516.801	91.38
517.016	87.38
517.232	88.38
517.448	83.38
517.664	89.38
517.879	88.38
518.095	77.38
518.311	88.38
518.527	101.38
518.742	90.38
518.958	88.38
519.173	100.38
519.389	92.38
519.605	75.38
519.82	90.38
520.036	92.38
520.251	111.38
520.467	108.38
520.682	117.38
520.898	115.38
521.113	113.38
521.329	141.38
521.544	195.38
521.76	531.38
521.975	2434.38
522.19	1514.38
522.406	321.38
522.621	117.38
522.836	107.38
523.052	93.38
523.267	94.38
523.482	78.38
523.698	95.38
523.913	107.38
524.128	103.38
524.343	74.38
524.559	97.38
524.774	90.38
524.989	103.38
525.204	101.38
525.419	109.38
525.634	77.38
525.849	91.38
526.064	92.38
526.28	90.38
526.495	80.38
526.71	83.38
526.925	86.38
527.14	76.38
527.355	89.38
527.57	90.38
527.785	88.38
527.999	81.38
528.214	91.38
528.429	91.38
528.644	92.38
528.859	78.38
529.074	104.38
529.289	109.38
529.503	186.38
529.718	101.38
529.933	88.38
530.148	79.38
530.363	78.38
530.577	84.38
530.792	88.38
531.007	82.38
531.221	98.38
531.436	88.38
531.651	100.38
531.865	97.38
532.08	88.38
532.295	96.38
532.509	83.38
532.724	82.38
532.938	75.38
533.153	86.38
533.367	99.38
533.582	89.38
533.796	100.38
534.011	77.38
534.225	88.38
534.44	84.38
534.654	98.38
534.868	87.38
535.083	84.38
535.297	80.38
535.511	99.38
535.726	93.38
535.94	99.38
536.154	99.38
536.369	90.38
536.583	92.38
536.797	90.38
537.011	93.38
537.225	88.38
537.44	80.38
537.654	98.38
537.868	96.38
538.082	86.38
538.296	100.38
538.51	99.38
538.724	72.38
538.938	92.38
539.153	90.38
539.367	99.38
539.581	94.38
539.795	87.38
540.009	84.38
540.222	86.38
540.436	92.38
540.65	88.38
540.864	86.38
541.078	93.38
541.292	91.38
541.506	91.38
541.72	82.38
541.934	82.38
542.147	83.38
542.361	84.38
542.575	93.38
542.789	94.38
543.002	85.38
543.216	89.38
543.43	101.38
543.644	90.38
543.857	86.38
544.071	84.38
544.285	93.38
544.498	75.38
544.712	99.38
544.925	79.38
545.139	74.38
545.352	77.38
545.566	90.38
545.779	89.38
545.993	89.38
546.206	97.38
546.42	75.38
546.633	80.38
546.847	95.38
547.06	77.38
547.274	89.38
547.487	78.38
547.7	93.38
547.914	87.38
548.127	76.38
548.34	81.38
548.554	73.38
548.767	79.38
548.98	90.38
549.193	72.38
549.407	97.38
549.62	90.38
549.833	83.38
550.046	95.38
550.259	88.38
550.473	94.38
550.686	74.38
550.899	80.38
551.112	84.38
551.325	84.38
551.538	80.38
551.751	82.38
551.964	94.38
552.177	91.38
552.39	76.38
552.603	106.38
552.816	82.38
553.029	92.38
553.242	112.38
553.455	101.38
553.667	102.38
553.88	101.38
554.093	98.38
554.306	82.38
554.519	90.38
554.732	102.38
554.944	90.38
555.157	82.38
555.37	81.38
555.583	86.38
555.795	92.38
556.008	85.38
556.221	83.38
556.433	92.38
556.646	86.38
556.859	82.38
557.071	90.38
557.284	89.38
557.496	86.38
557.709	76.38
557.921	81.38
558.134	92.38
558.346	82.38
558.559	79.38
558.771	77.38
558.984	93.38
559.196	89.38
559.409	93.38
559.621	91.38
559.833	93.38
560.046	82.38
560.258	69.38
560.47	90.38
560.683	86.38
560.895	91.38
561.107	81.38
561.32	86.38
561.532	83.38
561.744	80.38
561.956	78.38
562.168	69.38
562.381	108.38
562.593	78.38
562.805	94.38
563.017	89.38
563.229	108.38
563.441	94.38
563.653	100.38
563.865	90.38
564.077	91.38
564.289	98.38
564.501	84.38
564.713	78.38
564.925	92.38
565.137	98.38
565.349	92.38
565.561	74.38
565.773	82.38
565.985	81.38
566.197	87.38
566.408	88.38
566.62	77.38
566.832	88.38
567.044	85.38
567.255	99.38
567.467	86.38
567.679	85.38
567.891	79.38
568.102	80.38
568.314	87.38
568.526	89.38
568.737	80.38
568.949	78.38
569.161	84.38
569.372	88.38
569.584	79.38
569.795	83.38
570.007	109.38
570.218	264.38
570.43	139.38
570.641	87.38
570.853	81.38
571.064	94.38
571.276	90.38
571.487	94.38
571.698	93.38
571.91	83.38
572.121	69.38
572.333	88.38
572.544	90.38
572.755	90.38
572.966	97.38
573.178	92.38
573.389	80.38
573.6	97.38
573.811	97.38
574.023	83.38
574.234	87.38
574.445	73.38
574.656	88.38
574.867	85.38
575.078	79.38
575.289	79.38
575.501	89.38
575.712	81.38
575.923	81.38
576.134	93.38
576.345	90.38
576.556	86.38
576.767	104.38
576.978	100.38
577.188	96.38
577.399	87.38
577.61	87.38
577.821	91.38
578.032	130.38
578.243	266.38
578.454	798.38
578.665	238.38
578.875	105.38
579.086	90.38
579.297	83.38
579.508	80.38
579.718	93.38
579.929	86.38
580.14	91.38
580.35	88.38
580.561	88.38
580.772	82.38
580.982	93.38
581.193	77.38
581.403	88.38
581.614	101.38
581.825	87.38
582.035	88.38
582.246	101.38
582.456	83.38
582.667	66.38
582.877	80.38
583.087	80.38
583.298	74.38
583.508	81.38
583.719	69.38
583.929	88.38
584.139	95.38
584.35	78.38
584.56	90.38
584.77	94.38
584.981	86.38
585.191	94.38
585.401	78.38
585.611	89.38
585.821	95.38
586.032	92.38
586.242	83.38
586.452	97.38
586.662	84.38
586.872	79.38
587.082	98.38
587.292	86.38
587.502	87.38
587.713	90.38
587.923	103.38
588.133	82.38
588.343	87.38
588.553	81.38
588.762	91.38
588.972	103.38
589.182	131.38
589.392	89.38
589.602	77.38
589.812	96.38
590.022	90.38
590.232	82.38
590.441	86.38
590.651	85.38
590.861	81.38
591.071	91.38
591.281	93.38
591.49	86.38
591.7	90.38
591.91	85.38
592.119	92.38
592.329	84.38
592.539	87.38
592.748	90.38
592.958	95.38
593.167	84.38
593.377	90.38
593.587	95.38
593.796	85.38
594.006	86.38
594.215	90.38
594.424	92.38
594.634	87.38
594.843	86.38
595.053	82.38
595.262	78.38
595.472	87.38
595.681	78.38
595.89	94.38
596.1	100.38
596.309	81.38
596.518	82.38
596.727	89.38
596.937	74.38
597.146	104.38
597.355	78.38
597.564	82.38
597.774	91.38
597.983	74.38
598.192	78.38
598.401	70.38
598.61	76.38
598.819	86.38
599.028	94.38
599.237	76.38
599.446	81.38
599.655	86.38
599.864	80.38
600.073	84.38
600.282	70.38
600.491	83.38
600.7	91.38
600.909	87.38
601.118	95.38
601.327	95.38
601.536	84.38
601.745	97.38
601.953	80.38
602.162	75.38
602.371	97.38
602.58	83.38
602.789	94.38
602.997	90.38
603.206	92.38
603.415	93.38
603.623	89.38
603.832	94.38
604.041	85.38
604.249	83.38
604.458	87.38
604.666	91.38
604.875	87.38
605.084	94.38
605.292	74.38
605.501	74.38
605.709	88.38
605.918	80.38
606.126	85.38
606.334	87.38
606.543	86.38
606.751	75.38
606.96	87.38
607.168	83.38
607.376	93.38
607.585	90.38
607.793	81.38
608.001	104.38
608.21	85.38
608.418	80.38
608.626	79.38
608.834	83.38
609.043	90.38
609.251	86.38
609.459	83.38
609.667	80.38
609.875	102.38
610.083	88.38
610.291	99.38
610.499	92.38
610.707	102.38
610.916	93.38
611.124	72.38
611.332	75.38
611.54	78.38
611.748	80.38
611.955	80.38
612.163	88.38
612.371	88.38
612.579	78.38
612.787	77.38
612.995	83.38
613.203	87.38
613.411	90.38
613.618	83.38
613.826	76.38
614.034	91.38
614.242	85.38
614.449	88.38
614.657	73.38
614.865	75.38
615.072	86.38
615.28	88.38
615.488	76.38
615.695	80.38
615.903	87.38
616.111	98.38
616.318	101.38
616.526	93.38
616.733	85.38
616.941	81.38
617.148	98.38
617.356	92.38
617.563	74.38
617.771	88.38
617.978	66.38
618.185	64.38
618.393	80.38
618.6	79.38
618.807	89.38
619.015	93.38
619.222	83.38
619.429	80.38
619.637	82.38
619.844	84.38
620.051	91.38
620.258	82.38
620.466	96.38
620.673	72.38
620.88	85.38
621.087	86.38
621.294	75.38
621.501	69.38
621.708	75.38
621.915	98.38
622.122	78.38
622.329	76.38
622.536	82.38
622.743	84.38
622.95	91.38
623.157	91.38
623.364	79.38
623.571	89.38
623.778	79.38
623.985	75.38
624.192	103.38
624.399	74.38
624.606	68.38
624.812	87.38
625.019	84.38
625.226	83.38
625.433	79.38
625.639	81.38
625.846	74.38
626.053	73.38
626.259	80.38
626.466	89.38
626.673	74.38
626.879	77.38
627.086	89.38
627.293	84.38
627.499	78.38
627.706	97.38
627.912	88.38
628.119	98.38
628.325	77.38
628.532	82.38
628.738	79.38
628.945	81.38
629.151	80.38
629.357	79.38
629.564	88.38
629.77	86.38
629.976	85.38
630.183	82.38
630.389	75.38
630.595	77.38
630.802	77.38
631.008	80.38
631.214	78.38
631.42	82.38
631.627	81.38
631.833	74.38
632.039	80.38
632.245	81.38
632.451	88.38
632.657	89.38
632.863	77.38
633.069	80.38
633.275	78.38
633.481	89.38
633.688	85.38
633.893	79.38
634.099	85.38
634.305	84.38
634.511	82.38
634.717	75.38
634.923	86.38
635.129	89.38
635.335	85.38
635.541	74.38
635.747	75.38
635.952	80.38
636.158	97.38
636.364	97.38
636.57	84.38
636.775	83.38
636.981	80.38
637.187	82.38
637.392	78.38
637.598	70.38
637.804	74.38
638.009	83.38
638.215	80.38
638.421	87.38
638.626	88.38
638.832	88.38
639.037	89.38
639.243	66.38
639.448	83.38
639.654	83.38
639.859	80.38
640.065	86.38
640.27	81.38
640.475	74.38
640.681	86.38
640.886	82.38
641.091	93.38
641.297	87.38
641.502	80.38
641.707	87.38
641.913	83.38
642.118	84.38
642.323	83.38
642.528	94.38
642.733	93.38
642.939	80.38
643.144	83.38
643.349	88.38
643.554	85.38
643.759	87.38
643.964	70.38
644.169	98.38
644.374	84.38
644.579	73.38
644.784	84.38
644.989	86.38
645.194	85.38
645.399	75.38
645.604	106.38
645.809	83.38
646.014	85.38
646.219	74.38
646.423	77.38
646.628	88.38
646.833	90.38
647.038	72.38
647.243	70.38
647.447	72.38
647.652	87.38
647.857	83.38
648.062	83.38
648.266	69.38
648.471	78.38
648.676	88.38
648.88	91.38
649.085	80.38
649.289	85.38
649.494	108.38
649.698	121.38
649.903	91.38
650.107	81.38
650.312	96.38
650.516	77.38
650.721	78.38
650.925	76.38
651.13	73.38
651.334	84.38
651.539	70.38
651.743	87.38
651.947	77.38
652.152	66.38
652.356	78.38
652.56	96.38
652.764	75.38
652.969	90.38
653.173	77.38
653.377	79.38
653.581	74.38
653.785	76.38
653.99	73.38
654.194	89.38
654.398	69.38
654.602	82.38
654.806	82.38
655.01	99.38
655.214	89.38
655.418	91.38
655.622	82.38
655.826	93.38
656.03	90.38
656.234	95.38
656.438	82.38
656.642	85.38
656.846	92.38
657.049	77.38
657.253	77.38
657.457	88.38
657.661	85.38
657.865	72.38
658.068	85.38
658.272	82.38
658.476	76.38
658.68	90.38
658.883	83.38
659.087	83.38
659.291	93.38
659.494	82.38
659.698	69.38
659.901	74.38
660.105	78.38
660.309	80.38
660.512	74.38
660.716	76.38
660.919	68.38
661.123	82.38
661.326	86.38
661.53	73.38
661.733	76.38
661.936	98.38
662.14	79.38
662.343	78.38
662.546	95.38
662.75	72.38
662.953	75.38
663.156	85.38
663.36	86.38
663.563	57.38
663.766	79.38
663.969	85.38
664.173	83.38
664.376	80.38
664.579	81.38
664.782	59.38
664.985	75.38
665.188	72.38
665.391	73.38
665.594	91.38
665.797	81.38
666	65.38
666.203	72.38
666.406	80.38
666.609	74.38
666.812	82.38
667.015	82.38
667.218	69.38
667.421	80.38
667.624	75.38
667.827	86.38
668.03	69.38
668.232	71.38
668.435	77.38
668.638	98.38
668.841	95.38
669.043	97.38
669.246	70.38
669.449	87.38
669.651	86.38
669.854	80.38
670.057	75.38
670.259	87.38
670.462	95.38
670.665	91.38
670.867	77.38
671.07	80.38
671.272	89.38
671.475	81.38
671.677	88.38
671.88	79.38
672.082	91.38
672.284	74.38
672.487	86.38
672.689	90.38
672.892	89.38
