Data from Circ_2008_H10_HRD10591_00083.txt Node
Date: Wed Jan 03 10:17:12 EST 2024
User: Yrep
Spectrometer: HR+D1059
Trigger mode: 1
Integration Time (sec): 1.000000E-1
Scans to average: 1
Electric dark correction enabled: true
Nonlinearity correction enabled: false
Boxcar width: 0
XAxis mode: Wavelengths
Number of Pixels in Spectrum: 2048
>>>>>Begin Spectral Data<<<<<
223.165	-19.19
223.4	-19.19
223.635	-19.19
223.869	-33.19
224.104	-21.19
224.338	-20.19
224.573	1.81
224.808	-8.19
225.042	5.81
225.277	-12.19
225.511	1.81
225.746	2.81
225.98	7.81
226.215	15.81
226.449	20.81
226.683	20.81
226.918	15.81
227.152	20.81
227.387	22.81
227.621	40.81
227.856	64.81
228.09	44.81
228.324	48.81
228.559	56.81
228.793	58.81
229.027	79.81
229.262	71.81
229.496	77.81
229.73	72.81
229.964	79.81
230.199	81.81
230.433	67.81
230.667	68.81
230.901	69.81
231.136	76.81
231.37	80.81
231.604	78.81
231.838	82.81
232.072	83.81
232.306	80.81
232.541	85.81
232.775	67.81
233.009	85.81
233.243	78.81
233.477	76.81
233.711	86.81
233.945	81.81
234.179	88.81
234.413	89.81
234.647	83.81
234.881	73.81
235.115	83.81
235.349	80.81
235.583	84.81
235.817	79.81
236.051	75.81
236.285	79.81
236.519	75.81
236.753	67.81
236.987	70.81
237.221	90.81
237.455	76.81
237.689	95.81
237.922	71.81
238.156	82.81
238.39	77.81
238.624	73.81
238.858	71.81
239.091	88.81
239.325	89.81
239.559	78.81
239.793	81.81
240.027	85.81
240.26	72.81
240.494	84.81
240.728	82.81
240.961	77.81
241.195	66.81
241.429	84.81
241.662	73.81
241.896	72.81
242.13	64.81
242.363	74.81
242.597	64.81
242.83	66.81
243.064	68.81
243.298	88.81
243.531	85.81
243.765	83.81
243.998	64.81
244.232	87.81
244.465	97.81
244.699	89.81
244.932	94.81
245.166	81.81
245.399	74.81
245.633	91.81
245.866	82.81
246.099	77.81
246.333	71.81
246.566	81.81
246.8	77.81
247.033	84.81
247.266	68.81
247.5	75.81
247.733	81.81
247.966	84.81
248.2	91.81
248.433	94.81
248.666	73.81
248.899	80.81
249.133	75.81
249.366	98.81
249.599	94.81
249.832	92.81
250.066	87.81
250.299	74.81
250.532	73.81
250.765	77.81
250.998	75.81
251.231	83.81
251.465	97.81
251.698	67.81
251.931	85.81
252.164	79.81
252.397	83.81
252.63	73.81
252.863	77.81
253.096	73.81
253.329	73.81
253.562	89.81
253.795	89.81
254.028	80.81
254.261	86.81
254.494	85.81
254.727	89.81
254.96	98.81
255.193	83.81
255.426	85.81
255.659	87.81
255.892	97.81
256.124	71.81
256.357	72.81
256.59	77.81
256.823	76.81
257.056	100.81
257.289	84.81
257.521	84.81
257.754	89.81
257.987	59.81
258.22	91.81
258.452	87.81
258.685	84.81
258.918	79.81
259.151	82.81
259.383	92.81
259.616	72.81
259.849	72.81
260.081	89.81
260.314	95.81
260.547	75.81
260.779	61.81
261.012	88.81
261.244	87.81
261.477	85.81
261.71	95.81
261.942	122.81
262.175	124.81
262.407	104.81
262.64	94.81
262.872	80.81
263.105	77.81
263.337	94.81
263.57	98.81
263.802	71.81
264.035	75.81
264.267	74.81
264.499	78.81
264.732	91.81
264.964	81.81
265.197	87.81
265.429	90.81
265.661	72.81
265.894	86.81
266.126	87.81
266.358	78.81
266.591	82.81
266.823	75.81
267.055	96.81
267.287	93.81
267.52	75.81
267.752	85.81
267.984	104.81
268.216	82.81
268.448	82.81
268.681	75.81
268.913	85.81
269.145	92.81
269.377	95.81
269.609	85.81
269.841	88.81
270.073	88.81
270.306	78.81
270.538	80.81
270.77	81.81
271.002	78.81
271.234	73.81
271.466	91.81
271.698	71.81
271.93	90.81
272.162	90.81
272.394	87.81
272.626	89.81
272.858	94.81
273.09	85.81
273.322	91.81
273.553	108.81
273.785	80.81
274.017	79.81
274.249	88.81
274.481	79.81
274.713	89.81
274.945	90.81
275.176	66.81
275.408	88.81
275.64	74.81
275.872	79.81
276.104	85.81
276.335	99.81
276.567	98.81
276.799	114.81
277.031	100.81
277.262	107.81
277.494	87.81
277.726	88.81
277.957	87.81
278.189	86.81
278.421	86.81
278.652	84.81
278.884	76.81
279.115	98.81
279.347	104.81
279.579	87.81
279.81	93.81
280.042	90.81
280.273	104.81
280.505	97.81
280.736	86.81
280.968	75.81
281.199	82.81
281.431	75.81
281.662	72.81
281.894	79.81
282.125	105.81
282.356	129.81
282.588	133.81
282.819	119.81
283.051	69.81
283.282	86.81
283.513	95.81
283.745	80.81
283.976	87.81
284.207	79.81
284.439	91.81
284.67	94.81
284.901	92.81
285.132	93.81
285.364	81.81
285.595	101.81
285.826	97.81
286.057	87.81
286.288	77.81
286.52	77.81
286.751	78.81
286.982	91.81
287.213	75.81
287.444	101.81
287.675	87.81
287.906	94.81
288.138	103.81
288.369	96.81
288.6	86.81
288.831	85.81
289.062	94.81
289.293	91.81
289.524	73.81
289.755	83.81
289.986	82.81
290.217	94.81
290.448	92.81
290.679	93.81
290.91	99.81
291.141	85.81
291.371	87.81
291.602	85.81
291.833	92.81
292.064	101.81
292.295	82.81
292.526	99.81
292.757	95.81
292.987	93.81
293.218	102.81
293.449	81.81
293.68	87.81
293.91	89.81
294.141	94.81
294.372	87.81
294.603	90.81
294.833	89.81
295.064	87.81
295.295	95.81
295.525	86.81
295.756	100.81
295.987	120.81
296.217	144.81
296.448	135.81
296.679	92.81
296.909	99.81
297.14	97.81
297.37	84.81
297.601	90.81
297.831	101.81
298.062	93.81
298.292	97.81
298.523	99.81
298.753	85.81
298.984	75.81
299.214	78.81
299.445	93.81
299.675	95.81
299.905	95.81
300.136	101.81
300.366	83.81
300.597	101.81
300.827	96.81
301.057	94.81
301.288	103.81
301.518	93.81
301.748	92.81
301.979	115.81
302.209	88.81
302.439	95.81
302.669	97.81
302.9	89.81
303.13	100.81
303.36	109.81
303.59	101.81
303.82	95.81
304.051	93.81
304.281	91.81
304.511	88.81
304.741	87.81
304.971	81.81
305.201	99.81
305.431	84.81
305.661	109.81
305.891	102.81
306.121	98.81
306.352	103.81
306.582	94.81
306.812	109.81
307.042	99.81
307.272	104.81
307.502	99.81
307.731	94.81
307.961	91.81
308.191	85.81
308.421	96.81
308.651	107.81
308.881	92.81
309.111	97.81
309.341	103.81
309.571	107.81
309.8	103.81
310.03	108.81
310.26	89.81
310.49	97.81
310.72	84.81
310.949	99.81
311.179	98.81
311.409	92.81
311.639	79.81
311.868	93.81
312.098	85.81
312.328	103.81
312.557	110.81
312.787	110.81
313.017	103.81
313.246	110.81
313.476	82.81
313.706	90.81
313.935	91.81
314.165	95.81
314.394	96.81
314.624	89.81
314.853	85.81
315.083	105.81
315.312	81.81
315.542	96.81
315.771	96.81
316.001	112.81
316.23	104.81
316.46	89.81
316.689	93.81
316.919	92.81
317.148	102.81
317.377	95.81
317.607	92.81
317.836	81.81
318.065	86.81
318.295	98.81
318.524	83.81
318.753	81.81
318.983	98.81
319.212	106.81
319.441	109.81
319.67	112.81
319.9	104.81
320.129	105.81
320.358	83.81
320.587	88.81
320.816	90.81
321.046	106.81
321.275	104.81
321.504	95.81
321.733	80.81
321.962	91.81
322.191	86.81
322.42	106.81
322.649	116.81
322.878	113.81
323.108	120.81
323.337	120.81
323.566	135.81
323.795	155.81
324.024	199.81
324.253	367.81
324.482	770.81
324.71	1553.81
324.939	2036.81
325.168	772.81
325.397	235.81
325.626	148.81
325.855	117.81
326.084	135.81
326.313	141.81
326.542	156.81
326.77	235.81
326.999	459.81
327.228	873.81
327.457	1531.81
327.686	1228.81
327.914	363.81
328.143	217.81
328.372	173.81
328.6	143.81
328.829	139.81
329.058	121.81
329.287	136.81
329.515	103.81
329.744	123.81
329.972	125.81
330.201	179.81
330.43	213.81
330.658	177.81
330.887	146.81
331.115	116.81
331.344	103.81
331.572	98.81
331.801	104.81
332.03	101.81
332.258	104.81
332.486	91.81
332.715	103.81
332.943	109.81
333.172	98.81
333.4	99.81
333.629	107.81
333.857	130.81
334.085	139.81
334.314	197.81
334.542	259.81
334.771	260.81
334.999	114.81
335.227	106.81
335.455	108.81
335.684	96.81
335.912	93.81
336.14	88.81
336.369	100.81
336.597	98.81
336.825	110.81
337.053	98.81
337.281	85.81
337.51	89.81
337.738	102.81
337.966	87.81
338.194	113.81
338.422	104.81
338.65	112.81
338.878	112.81
339.106	90.81
339.334	93.81
339.562	105.81
339.79	99.81
340.018	80.81
340.246	84.81
340.474	81.81
340.702	97.81
340.93	84.81
341.158	96.81
341.386	96.81
341.614	100.81
341.842	93.81
342.07	90.81
342.298	99.81
342.526	95.81
342.754	85.81
342.981	94.81
343.209	72.81
343.437	98.81
343.665	84.81
343.893	87.81
344.12	93.81
344.348	80.81
344.576	98.81
344.804	105.81
345.031	90.81
345.259	102.81
345.487	98.81
345.714	84.81
345.942	86.81
346.17	95.81
346.397	94.81
346.625	91.81
346.853	89.81
347.08	93.81
347.308	103.81
347.535	96.81
347.763	93.81
347.99	91.81
348.218	95.81
348.445	104.81
348.673	97.81
348.9	96.81
349.128	89.81
349.355	82.81
349.583	98.81
349.81	94.81
350.037	92.81
350.265	95.81
350.492	105.81
350.72	94.81
350.947	102.81
351.174	114.81
351.402	115.81
351.629	98.81
351.856	111.81
352.083	99.81
352.311	100.81
352.538	111.81
352.765	112.81
352.992	103.81
353.22	121.81
353.447	108.81
353.674	100.81
353.901	83.81
354.128	85.81
354.355	103.81
354.583	93.81
354.81	98.81
355.037	102.81
355.264	84.81
355.491	99.81
355.718	84.81
355.945	84.81
356.172	92.81
356.399	97.81
356.626	100.81
356.853	96.81
357.08	91.81
357.307	100.81
357.534	93.81
357.761	83.81
357.988	93.81
358.215	98.81
358.441	83.81
358.668	89.81
358.895	89.81
359.122	94.81
359.349	93.81
359.576	81.81
359.802	102.81
360.029	107.81
360.256	112.81
360.483	106.81
360.709	91.81
360.936	88.81
361.163	96.81
361.39	101.81
361.616	103.81
361.843	98.81
362.07	100.81
362.296	97.81
362.523	114.81
362.749	101.81
362.976	86.81
363.203	97.81
363.429	97.81
363.656	99.81
363.882	89.81
364.109	90.81
364.335	94.81
364.562	103.81
364.788	107.81
365.015	103.81
365.241	98.81
365.468	109.81
365.694	115.81
365.92	96.81
366.147	93.81
366.373	92.81
366.599	83.81
366.826	91.81
367.052	85.81
367.278	93.81
367.505	89.81
367.731	95.81
367.957	91.81
368.184	66.81
368.41	95.81
368.636	92.81
368.862	124.81
369.089	108.81
369.315	85.81
369.541	89.81
369.767	94.81
369.993	93.81
370.219	79.81
370.445	88.81
370.672	105.81
370.898	87.81
371.124	90.81
371.35	85.81
371.576	89.81
371.802	82.81
372.028	85.81
372.254	102.81
372.48	90.81
372.706	101.81
372.932	87.81
373.158	93.81
373.384	97.81
373.61	79.81
373.835	88.81
374.061	85.81
374.287	82.81
374.513	95.81
374.739	95.81
374.965	106.81
375.191	95.81
375.416	81.81
375.642	107.81
375.868	91.81
376.094	88.81
376.319	81.81
376.545	84.81
376.771	84.81
376.997	96.81
377.222	95.81
377.448	96.81
377.674	99.81
377.899	95.81
378.125	87.81
378.35	85.81
378.576	82.81
378.802	91.81
379.027	86.81
379.253	85.81
379.478	91.81
379.704	105.81
379.929	94.81
380.155	99.81
380.38	101.81
380.606	91.81
380.831	102.81
381.057	91.81
381.282	83.81
381.507	104.81
381.733	113.81
381.958	93.81
382.184	97.81
382.409	89.81
382.634	103.81
382.86	95.81
383.085	97.81
383.31	79.81
383.535	94.81
383.761	88.81
383.986	96.81
384.211	92.81
384.436	99.81
384.662	92.81
384.887	119.81
385.112	96.81
385.337	100.81
385.562	100.81
385.787	123.81
386.013	107.81
386.238	121.81
386.463	98.81
386.688	110.81
386.913	100.81
387.138	104.81
387.363	89.81
387.588	104.81
387.813	85.81
388.038	116.81
388.263	104.81
388.488	101.81
388.713	93.81
388.938	95.81
389.163	92.81
389.387	90.81
389.612	88.81
389.837	91.81
390.062	89.81
390.287	75.81
390.512	93.81
390.736	77.81
390.961	89.81
391.186	99.81
391.411	102.81
391.636	93.81
391.86	85.81
392.085	95.81
392.31	81.81
392.534	92.81
392.759	91.81
392.984	96.81
393.208	87.81
393.433	89.81
393.658	89.81
393.882	67.81
394.107	84.81
394.331	91.81
394.556	87.81
394.78	93.81
395.005	85.81
395.229	92.81
395.454	94.81
395.678	84.81
395.903	94.81
396.127	95.81
396.352	92.81
396.576	95.81
396.801	87.81
397.025	90.81
397.249	92.81
397.474	90.81
397.698	81.81
397.922	85.81
398.147	88.81
398.371	95.81
398.595	89.81
398.82	95.81
399.044	97.81
399.268	85.81
399.492	84.81
399.717	85.81
399.941	88.81
400.165	87.81
400.389	94.81
400.613	91.81
400.837	92.81
401.062	88.81
401.286	85.81
401.51	94.81
401.734	101.81
401.958	92.81
402.182	119.81
402.406	163.81
402.63	119.81
402.854	92.81
403.078	81.81
403.302	100.81
403.526	93.81
403.75	89.81
403.974	92.81
404.198	91.81
404.422	81.81
404.645	91.81
404.869	90.81
405.093	103.81
405.317	109.81
405.541	91.81
405.765	96.81
405.988	111.81
406.212	169.81
406.436	240.81
406.66	138.81
406.883	112.81
407.107	102.81
407.331	91.81
407.555	92.81
407.778	100.81
408.002	76.81
408.226	97.81
408.449	81.81
408.673	83.81
408.896	95.81
409.12	105.81
409.344	85.81
409.567	94.81
409.791	92.81
410.014	79.81
410.238	91.81
410.461	83.81
410.685	88.81
410.908	92.81
411.132	97.81
411.355	104.81
411.578	97.81
411.802	90.81
412.025	80.81
412.249	72.81
412.472	89.81
412.695	99.81
412.919	101.81
413.142	92.81
413.365	88.81
413.589	98.81
413.812	71.81
414.035	75.81
414.258	81.81
414.482	89.81
414.705	96.81
414.928	88.81
415.151	93.81
415.374	84.81
415.597	97.81
415.821	90.81
416.044	91.81
416.267	88.81
416.49	96.81
416.713	82.81
416.936	87.81
417.159	87.81
417.382	76.81
417.605	82.81
417.828	94.81
418.051	93.81
418.274	79.81
418.497	79.81
418.72	81.81
418.943	98.81
419.166	98.81
419.389	99.81
419.611	80.81
419.834	83.81
420.057	98.81
420.28	86.81
420.503	90.81
420.726	99.81
420.948	89.81
421.171	92.81
421.394	95.81
421.617	94.81
421.839	98.81
422.062	98.81
422.285	103.81
422.507	112.81
422.73	99.81
422.953	88.81
423.175	96.81
423.398	95.81
423.621	87.81
423.843	80.81
424.066	97.81
424.288	94.81
424.511	102.81
424.733	93.81
424.956	100.81
425.178	97.81
425.401	81.81
425.623	101.81
425.846	88.81
426.068	92.81
426.291	100.81
426.513	100.81
426.735	96.81
426.958	96.81
427.18	90.81
427.402	128.81
427.625	164.81
427.847	135.81
428.069	111.81
428.292	117.81
428.514	94.81
428.736	84.81
428.958	91.81
429.181	89.81
429.403	83.81
429.625	80.81
429.847	82.81
430.069	98.81
430.292	89.81
430.514	89.81
430.736	85.81
430.958	78.81
431.18	77.81
431.402	78.81
431.624	86.81
431.846	77.81
432.068	86.81
432.29	82.81
432.512	92.81
432.734	87.81
432.956	104.81
433.178	111.81
433.4	92.81
433.622	87.81
433.844	86.81
434.066	78.81
434.287	88.81
434.509	91.81
434.731	89.81
434.953	91.81
435.175	89.81
435.397	96.81
435.618	100.81
435.84	82.81
436.062	109.81
436.284	118.81
436.505	114.81
436.727	99.81
436.949	101.81
437.17	83.81
437.392	89.81
437.614	104.81
437.835	111.81
438.057	104.81
438.278	98.81
438.5	103.81
438.721	124.81
438.943	116.81
439.165	85.81
439.386	95.81
439.608	84.81
439.829	115.81
440.05	117.81
440.272	142.81
440.493	108.81
440.715	105.81
440.936	76.81
441.158	91.81
441.379	80.81
441.6	101.81
441.822	91.81
442.043	87.81
442.264	97.81
442.486	87.81
442.707	99.81
442.928	103.81
443.149	129.81
443.371	122.81
443.592	103.81
443.813	102.81
444.034	114.81
444.255	99.81
444.476	97.81
444.698	75.81
444.919	89.81
445.14	141.81
445.361	105.81
445.582	122.81
445.803	126.81
446.024	135.81
446.245	133.81
446.466	109.81
446.687	91.81
446.908	96.81
447.129	87.81
447.35	81.81
447.571	94.81
447.792	99.81
448.013	107.81
448.234	104.81
448.455	100.81
448.675	105.81
448.896	101.81
449.117	77.81
449.338	102.81
449.559	124.81
449.779	114.81
450	98.81
450.221	87.81
450.442	79.81
450.662	100.81
450.883	96.81
451.104	115.81
451.324	96.81
451.545	75.81
451.766	85.81
451.986	97.81
452.207	90.81
452.428	96.81
452.648	108.81
452.869	106.81
453.089	108.81
453.31	110.81
453.53	82.81
453.751	73.81
453.971	99.81
454.192	119.81
454.412	91.81
454.633	90.81
454.853	88.81
455.073	76.81
455.294	77.81
455.514	93.81
455.734	83.81
455.955	79.81
456.175	78.81
456.395	86.81
456.616	86.81
456.836	90.81
457.056	80.81
457.276	79.81
457.497	92.81
457.717	84.81
457.937	96.81
458.157	89.81
458.377	80.81
458.598	103.81
458.818	149.81
459.038	147.81
459.258	115.81
459.478	101.81
459.698	89.81
459.918	92.81
460.138	88.81
460.358	80.81
460.578	78.81
460.798	80.81
461.018	105.81
461.238	94.81
461.458	79.81
461.678	75.81
461.898	96.81
462.118	97.81
462.338	93.81
462.558	89.81
462.777	90.81
462.997	75.81
463.217	92.81
463.437	82.81
463.657	89.81
463.876	81.81
464.096	87.81
464.316	84.81
464.536	103.81
464.755	86.81
464.975	130.81
465.195	175.81
465.414	154.81
465.634	95.81
465.854	88.81
466.073	84.81
466.293	82.81
466.512	88.81
466.732	84.81
466.951	93.81
467.171	105.81
467.391	82.81
467.61	100.81
467.829	102.81
468.049	132.81
468.268	147.81
468.488	87.81
468.707	83.81
468.927	81.81
469.146	84.81
469.365	75.81
469.585	83.81
469.804	81.81
470.023	88.81
470.243	100.81
470.462	99.81
470.681	114.81
470.901	89.81
471.12	95.81
471.339	96.81
471.558	91.81
471.777	83.81
471.997	97.81
472.216	192.81
472.435	347.81
472.654	154.81
472.873	101.81
473.092	92.81
473.311	81.81
473.53	92.81
473.749	91.81
473.968	103.81
474.187	116.81
474.406	99.81
474.625	88.81
474.844	77.81
475.063	92.81
475.282	79.81
475.501	89.81
475.72	89.81
475.939	91.81
476.158	73.81
476.377	88.81
476.596	89.81
476.814	81.81
477.033	93.81
477.252	82.81
477.471	94.81
477.69	83.81
477.908	89.81
478.127	103.81
478.346	107.81
478.564	85.81
478.783	87.81
479.002	96.81
479.22	81.81
479.439	101.81
479.658	119.81
479.876	91.81
480.095	94.81
480.313	89.81
480.532	114.81
480.751	102.81
480.969	221.81
481.188	571.81
481.406	363.81
481.624	101.81
481.843	100.81
482.061	99.81
482.28	91.81
482.498	90.81
482.717	89.81
482.935	86.81
483.153	90.81
483.372	81.81
483.59	84.81
483.808	87.81
484.027	84.81
484.245	90.81
484.463	96.81
484.681	88.81
484.9	91.81
485.118	83.81
485.336	87.81
485.554	95.81
485.772	98.81
485.99	103.81
486.209	99.81
486.427	100.81
486.645	99.81
486.863	108.81
487.081	98.81
487.299	102.81
487.517	107.81
487.735	92.81
487.953	74.81
488.171	75.81
488.389	96.81
488.607	110.81
488.825	97.81
489.043	88.81
489.261	81.81
489.479	97.81
489.696	90.81
489.914	93.81
490.132	98.81
490.35	97.81
490.568	96.81
490.786	82.81
491.003	84.81
491.221	87.81
491.439	83.81
491.657	87.81
491.874	77.81
492.092	91.81
492.31	85.81
492.527	83.81
492.745	98.81
492.963	107.81
493.18	105.81
493.398	98.81
493.615	92.81
493.833	94.81
494.05	93.81
494.268	91.81
494.485	94.81
494.703	77.81
494.92	92.81
495.138	96.81
495.355	102.81
495.573	93.81
495.79	87.81
496.008	91.81
496.225	99.81
496.442	84.81
496.66	83.81
496.877	79.81
497.094	95.81
497.312	82.81
497.529	74.81
497.746	85.81
497.963	96.81
498.181	89.81
498.398	92.81
498.615	114.81
498.832	95.81
499.049	83.81
499.267	98.81
499.484	101.81
499.701	90.81
499.918	84.81
500.135	84.81
500.352	103.81
500.569	87.81
500.786	88.81
501.003	90.81
501.22	100.81
501.437	75.81
501.654	92.81
501.871	105.81
502.088	92.81
502.305	111.81
502.522	91.81
502.739	82.81
502.956	92.81
503.172	88.81
503.389	97.81
503.606	108.81
503.823	111.81
504.04	87.81
504.256	77.81
504.473	102.81
504.69	89.81
504.907	79.81
505.123	98.81
505.34	87.81
505.557	82.81
505.773	88.81
505.99	100.81
506.207	100.81
506.423	98.81
506.64	83.81
506.856	98.81
507.073	103.81
507.289	105.81
507.506	100.81
507.722	100.81
507.939	112.81
508.155	101.81
508.372	82.81
508.588	78.81
508.805	106.81
509.021	84.81
509.238	84.81
509.454	102.81
509.67	103.81
509.887	104.81
510.103	138.81
510.319	235.81
510.536	823.81
510.752	2699.81
510.968	729.81
511.184	167.81
511.401	108.81
511.617	108.81
511.833	92.81
512.049	93.81
512.265	91.81
512.481	88.81
512.698	88.81
512.914	100.81
513.13	97.81
513.346	85.81
513.562	91.81
513.778	96.81
513.994	91.81
514.21	113.81
514.426	129.81
514.642	123.81
514.858	123.81
515.074	170.81
515.29	477.81
515.506	1698.81
515.721	633.81
515.937	168.81
516.153	108.81
516.369	79.81
516.585	113.81
516.801	99.81
517.016	91.81
517.232	113.81
517.448	99.81
517.664	86.81
517.879	97.81
518.095	94.81
518.311	104.81
518.527	83.81
518.742	85.81
518.958	99.81
519.173	106.81
519.389	109.81
519.605	99.81
519.82	93.81
520.036	104.81
520.251	128.81
520.467	106.81
520.682	105.81
520.898	102.81
521.113	108.81
521.329	148.81
521.544	207.81
521.76	613.81
521.975	2730.81
522.19	1659.81
522.406	349.81
522.621	125.81
522.836	97.81
523.052	105.81
523.267	105.81
523.482	88.81
523.698	96.81
523.913	121.81
524.128	99.81
524.343	87.81
524.559	106.81
524.774	88.81
524.989	105.81
525.204	111.81
525.419	107.81
525.634	84.81
525.849	82.81
526.064	107.81
526.28	93.81
526.495	70.81
526.71	94.81
526.925	90.81
527.14	98.81
527.355	90.81
527.57	88.81
527.785	85.81
527.999	85.81
528.214	97.81
528.429	92.81
528.644	109.81
528.859	99.81
529.074	91.81
529.289	128.81
529.503	191.81
529.718	102.81
529.933	79.81
530.148	80.81
530.363	95.81
530.577	80.81
530.792	97.81
531.007	93.81
531.221	91.81
531.436	94.81
531.651	89.81
531.865	86.81
532.08	85.81
532.295	101.81
532.509	97.81
532.724	92.81
532.938	103.81
533.153	95.81
533.367	100.81
533.582	82.81
533.796	93.81
534.011	92.81
534.225	91.81
534.44	107.81
534.654	107.81
534.868	84.81
535.083	89.81
535.297	94.81
535.511	95.81
535.726	96.81
535.94	100.81
536.154	95.81
536.369	81.81
536.583	86.81
536.797	82.81
537.011	107.81
537.225	89.81
537.44	87.81
537.654	89.81
537.868	90.81
538.082	95.81
538.296	97.81
538.51	81.81
538.724	96.81
538.938	91.81
539.153	94.81
539.367	110.81
539.581	106.81
539.795	93.81
540.009	80.81
540.222	93.81
540.436	97.81
540.65	93.81
540.864	87.81
541.078	96.81
541.292	85.81
541.506	96.81
541.72	105.81
541.934	91.81
542.147	110.81
542.361	112.81
542.575	95.81
542.789	85.81
543.002	79.81
543.216	95.81
543.43	93.81
543.644	92.81
543.857	101.81
544.071	104.81
544.285	92.81
544.498	84.81
544.712	86.81
544.925	89.81
545.139	101.81
545.352	81.81
545.566	71.81
545.779	91.81
545.993	89.81
546.206	92.81
546.42	94.81
546.633	87.81
546.847	88.81
547.06	95.81
547.274	91.81
547.487	75.81
547.7	82.81
547.914	84.81
548.127	79.81
548.34	96.81
548.554	73.81
548.767	96.81
548.98	82.81
549.193	85.81
549.407	81.81
549.62	82.81
549.833	87.81
550.046	108.81
550.259	95.81
550.473	87.81
550.686	74.81
550.899	108.81
551.112	91.81
551.325	96.81
551.538	83.81
551.751	98.81
551.964	99.81
552.177	94.81
552.39	101.81
552.603	88.81
552.816	83.81
553.029	94.81
553.242	85.81
553.455	96.81
553.667	95.81
553.88	105.81
554.093	81.81
554.306	103.81
554.519	83.81
554.732	91.81
554.944	90.81
555.157	103.81
555.37	90.81
555.583	92.81
555.795	83.81
556.008	93.81
556.221	79.81
556.433	100.81
556.646	88.81
556.859	94.81
557.071	95.81
557.284	108.81
557.496	90.81
557.709	100.81
557.921	97.81
558.134	89.81
558.346	85.81
558.559	81.81
558.771	80.81
558.984	84.81
559.196	92.81
559.409	84.81
559.621	95.81
559.833	94.81
560.046	85.81
560.258	87.81
560.47	95.81
560.683	71.81
560.895	87.81
561.107	86.81
561.32	76.81
561.532	87.81
561.744	98.81
561.956	92.81
562.168	91.81
562.381	101.81
562.593	93.81
562.805	95.81
563.017	91.81
563.229	79.81
563.441	91.81
563.653	89.81
563.865	95.81
564.077	81.81
564.289	91.81
564.501	92.81
564.713	96.81
564.925	84.81
565.137	105.81
565.349	95.81
565.561	96.81
565.773	89.81
565.985	90.81
566.197	91.81
566.408	83.81
566.62	85.81
566.832	98.81
567.044	95.81
567.255	92.81
567.467	81.81
567.679	90.81
567.891	80.81
568.102	87.81
568.314	82.81
568.526	92.81
568.737	83.81
568.949	93.81
569.161	86.81
569.372	91.81
569.584	84.81
569.795	79.81
570.007	108.81
570.218	269.81
570.43	150.81
570.641	99.81
570.853	93.81
571.064	91.81
571.276	82.81
571.487	88.81
571.698	92.81
571.91	95.81
572.121	96.81
572.333	82.81
572.544	81.81
572.755	90.81
572.966	96.81
573.178	76.81
573.389	85.81
573.6	83.81
573.811	91.81
574.023	85.81
574.234	75.81
574.445	93.81
574.656	81.81
574.867	84.81
575.078	81.81
575.289	75.81
575.501	87.81
575.712	82.81
575.923	80.81
576.134	75.81
576.345	80.81
576.556	105.81
576.767	83.81
576.978	85.81
577.188	95.81
577.399	99.81
577.61	90.81
577.821	112.81
578.032	125.81
578.243	294.81
578.454	835.81
578.665	238.81
578.875	99.81
579.086	88.81
579.297	76.81
579.508	96.81
579.718	95.81
579.929	97.81
580.14	92.81
580.35	96.81
580.561	84.81
580.772	82.81
580.982	96.81
581.193	82.81
581.403	98.81
581.614	98.81
581.825	90.81
582.035	98.81
582.246	85.81
582.456	83.81
582.667	84.81
582.877	91.81
583.087	83.81
583.298	82.81
583.508	98.81
583.719	103.81
583.929	102.81
584.139	93.81
584.35	75.81
584.56	81.81
584.77	89.81
584.981	91.81
585.191	96.81
585.401	96.81
585.611	88.81
585.821	102.81
586.032	93.81
586.242	92.81
586.452	91.81
586.662	87.81
586.872	88.81
587.082	87.81
587.292	89.81
587.502	92.81
587.713	88.81
587.923	82.81
588.133	91.81
588.343	97.81
588.553	85.81
588.762	91.81
588.972	107.81
589.182	137.81
589.392	95.81
589.602	95.81
589.812	114.81
590.022	98.81
590.232	89.81
590.441	90.81
590.651	89.81
590.861	82.81
591.071	99.81
591.281	94.81
591.49	93.81
591.7	98.81
591.91	91.81
592.119	83.81
592.329	89.81
592.539	85.81
592.748	86.81
592.958	82.81
593.167	85.81
593.377	93.81
593.587	89.81
593.796	96.81
594.006	84.81
594.215	96.81
594.424	83.81
594.634	91.81
594.843	79.81
595.053	82.81
595.262	71.81
595.472	88.81
595.681	84.81
595.89	90.81
596.1	87.81
596.309	101.81
596.518	91.81
596.727	91.81
596.937	99.81
597.146	79.81
597.355	82.81
597.564	89.81
597.774	92.81
597.983	89.81
598.192	87.81
598.401	80.81
598.61	89.81
598.819	84.81
599.028	91.81
599.237	100.81
599.446	94.81
599.655	84.81
599.864	76.81
600.073	73.81
600.282	84.81
600.491	90.81
600.7	80.81
600.909	89.81
601.118	93.81
601.327	93.81
601.536	90.81
601.745	98.81
601.953	82.81
602.162	96.81
602.371	89.81
602.58	83.81
602.789	89.81
602.997	95.81
603.206	91.81
603.415	74.81
603.623	84.81
603.832	91.81
604.041	82.81
604.249	83.81
604.458	97.81
604.666	76.81
604.875	91.81
605.084	71.81
605.292	93.81
605.501	69.81
605.709	94.81
605.918	75.81
606.126	98.81
606.334	95.81
606.543	73.81
606.751	92.81
606.96	91.81
607.168	97.81
607.376	87.81
607.585	91.81
607.793	84.81
608.001	78.81
608.21	89.81
608.418	96.81
608.626	72.81
608.834	78.81
609.043	87.81
609.251	92.81
609.459	85.81
609.667	80.81
609.875	74.81
610.083	83.81
610.291	85.81
610.499	92.81
610.707	85.81
610.916	85.81
611.124	91.81
611.332	98.81
611.54	85.81
611.748	82.81
611.955	87.81
612.163	75.81
612.371	72.81
612.579	96.81
612.787	94.81
612.995	90.81
613.203	93.81
613.411	90.81
613.618	93.81
613.826	90.81
614.034	97.81
614.242	84.81
614.449	94.81
614.657	80.81
614.865	91.81
615.072	87.81
615.28	72.81
615.488	84.81
615.695	95.81
615.903	90.81
616.111	106.81
616.318	104.81
616.526	92.81
616.733	103.81
616.941	84.81
617.148	87.81
617.356	83.81
617.563	100.81
617.771	82.81
617.978	77.81
618.185	75.81
618.393	82.81
618.6	73.81
618.807	83.81
619.015	100.81
619.222	85.81
619.429	102.81
619.637	91.81
619.844	82.81
620.051	91.81
620.258	83.81
620.466	94.81
620.673	95.81
620.88	81.81
621.087	95.81
621.294	72.81
621.501	78.81
621.708	83.81
621.915	87.81
622.122	79.81
622.329	93.81
622.536	80.81
622.743	83.81
622.95	85.81
623.157	78.81
623.364	85.81
623.571	79.81
623.778	79.81
623.985	82.81
624.192	75.81
624.399	69.81
624.606	77.81
624.812	76.81
625.019	69.81
625.226	67.81
625.433	104.81
625.639	75.81
625.846	94.81
626.053	76.81
626.259	84.81
626.466	100.81
626.673	94.81
626.879	80.81
627.086	77.81
627.293	88.81
627.499	73.81
627.706	91.81
627.912	93.81
628.119	77.81
628.325	96.81
628.532	83.81
628.738	92.81
628.945	84.81
629.151	80.81
629.357	84.81
629.564	75.81
629.77	85.81
629.976	77.81
630.183	90.81
630.389	85.81
630.595	79.81
630.802	91.81
631.008	89.81
631.214	76.81
631.42	90.81
631.627	83.81
631.833	80.81
632.039	88.81
632.245	78.81
632.451	76.81
632.657	83.81
632.863	85.81
633.069	81.81
633.275	82.81
633.481	95.81
633.688	93.81
633.893	92.81
634.099	83.81
634.305	77.81
634.511	79.81
634.717	81.81
634.923	78.81
635.129	83.81
635.335	87.81
635.541	100.81
635.747	100.81
635.952	93.81
636.158	103.81
636.364	109.81
636.57	105.81
636.775	81.81
636.981	82.81
637.187	81.81
637.392	80.81
637.598	67.81
637.804	106.81
638.009	94.81
638.215	86.81
638.421	88.81
638.626	81.81
638.832	67.81
639.037	85.81
639.243	88.81
639.448	88.81
639.654	93.81
639.859	92.81
640.065	89.81
640.27	85.81
640.475	80.81
640.681	79.81
640.886	65.81
641.091	86.81
641.297	79.81
641.502	92.81
641.707	88.81
641.913	84.81
642.118	87.81
642.323	84.81
642.528	96.81
642.733	88.81
642.939	95.81
643.144	85.81
643.349	107.81
643.554	97.81
643.759	92.81
643.964	84.81
644.169	91.81
644.374	81.81
644.579	79.81
644.784	76.81
644.989	98.81
645.194	73.81
645.399	85.81
645.604	89.81
645.809	81.81
646.014	94.81
646.219	90.81
646.423	91.81
646.628	91.81
646.833	100.81
647.038	89.81
647.243	90.81
647.447	75.81
647.652	76.81
647.857	86.81
648.062	90.81
648.266	93.81
648.471	84.81
648.676	101.81
648.88	90.81
649.085	92.81
649.289	103.81
649.494	117.81
649.698	127.81
649.903	97.81
650.107	81.81
650.312	87.81
650.516	81.81
650.721	75.81
650.925	87.81
651.13	81.81
651.334	81.81
651.539	75.81
651.743	77.81
651.947	65.81
652.152	85.81
652.356	78.81
652.56	80.81
652.764	77.81
652.969	83.81
653.173	84.81
653.377	81.81
653.581	91.81
653.785	100.81
653.99	78.81
654.194	83.81
654.398	79.81
654.602	87.81
654.806	88.81
655.01	97.81
655.214	97.81
655.418	74.81
655.622	79.81
655.826	80.81
656.03	91.81
656.234	84.81
656.438	89.81
656.642	88.81
656.846	98.81
657.049	72.81
657.253	97.81
657.457	90.81
657.661	83.81
657.865	76.81
658.068	76.81
658.272	93.81
658.476	86.81
658.68	88.81
658.883	78.81
659.087	84.81
659.291	82.81
659.494	93.81
659.698	90.81
659.901	75.81
660.105	76.81
660.309	84.81
660.512	79.81
660.716	87.81
660.919	72.81
661.123	88.81
661.326	77.81
661.53	82.81
661.733	87.81
661.936	96.81
662.14	85.81
662.343	85.81
662.546	84.81
662.75	79.81
662.953	97.81
663.156	91.81
663.36	80.81
663.563	78.81
663.766	81.81
663.969	72.81
664.173	85.81
664.376	82.81
664.579	83.81
664.782	71.81
664.985	95.81
665.188	81.81
665.391	82.81
665.594	79.81
665.797	75.81
666	72.81
666.203	87.81
666.406	68.81
666.609	88.81
666.812	63.81
667.015	77.81
667.218	106.81
667.421	83.81
667.624	81.81
667.827	97.81
668.03	68.81
668.232	84.81
668.435	79.81
668.638	72.81
668.841	74.81
669.043	68.81
669.246	80.81
669.449	85.81
669.651	85.81
669.854	75.81
670.057	97.81
670.259	88.81
670.462	96.81
670.665	87.81
670.867	85.81
671.07	84.81
671.272	85.81
671.475	85.81
671.677	84.81
671.88	74.81
672.082	72.81
672.284	76.81
672.487	79.81
672.689	87.81
672.892	68.81
