Data from Circ_2008_H10_HRD10591_00058.txt Node
Date: Wed Jan 03 10:17:07 EST 2024
User: Yrep
Spectrometer: HR+D1059
Trigger mode: 1
Integration Time (sec): 1.000000E-1
Scans to average: 1
Electric dark correction enabled: true
Nonlinearity correction enabled: false
Boxcar width: 0
XAxis mode: Wavelengths
Number of Pixels in Spectrum: 2048
>>>>>Begin Spectral Data<<<<<
223.165	-25.81
223.4	-25.81
223.635	-25.81
223.869	-17.81
224.104	-28.81
224.338	-22.81
224.573	-2.81
224.808	4.19
225.042	-8.81
225.277	1.19
225.511	-0.81
225.746	2.19
225.98	9.19
226.215	14.19
226.449	18.19
226.683	23.19
226.918	16.19
227.152	19.19
227.387	35.19
227.621	42.19
227.856	40.19
228.09	46.19
228.324	55.19
228.559	58.19
228.793	72.19
229.027	54.19
229.262	58.19
229.496	71.19
229.73	79.19
229.964	82.19
230.199	84.19
230.433	78.19
230.667	83.19
230.901	87.19
231.136	86.19
231.37	75.19
231.604	64.19
231.838	70.19
232.072	84.19
232.306	84.19
232.541	74.19
232.775	81.19
233.009	72.19
233.243	80.19
233.477	78.19
233.711	75.19
233.945	74.19
234.179	77.19
234.413	64.19
234.647	75.19
234.881	78.19
235.115	85.19
235.349	72.19
235.583	70.19
235.817	78.19
236.051	81.19
236.285	82.19
236.519	75.19
236.753	90.19
236.987	87.19
237.221	76.19
237.455	79.19
237.689	90.19
237.922	63.19
238.156	75.19
238.39	75.19
238.624	88.19
238.858	78.19
239.091	77.19
239.325	94.19
239.559	82.19
239.793	85.19
240.027	80.19
240.26	74.19
240.494	87.19
240.728	76.19
240.961	81.19
241.195	81.19
241.429	76.19
241.662	74.19
241.896	80.19
242.13	84.19
242.363	82.19
242.597	76.19
242.83	71.19
243.064	91.19
243.298	79.19
243.531	82.19
243.765	80.19
243.998	70.19
244.232	72.19
244.465	80.19
244.699	75.19
244.932	79.19
245.166	80.19
245.399	82.19
245.633	68.19
245.866	83.19
246.099	81.19
246.333	73.19
246.566	82.19
246.8	90.19
247.033	73.19
247.266	66.19
247.5	82.19
247.733	82.19
247.966	80.19
248.2	82.19
248.433	83.19
248.666	90.19
248.899	80.19
249.133	83.19
249.366	105.19
249.599	95.19
249.832	78.19
250.066	81.19
250.299	84.19
250.532	86.19
250.765	74.19
250.998	87.19
251.231	79.19
251.465	59.19
251.698	80.19
251.931	79.19
252.164	75.19
252.397	82.19
252.63	92.19
252.863	74.19
253.096	81.19
253.329	84.19
253.562	80.19
253.795	69.19
254.028	82.19
254.261	74.19
254.494	69.19
254.727	80.19
254.96	80.19
255.193	82.19
255.426	83.19
255.659	71.19
255.892	78.19
256.124	80.19
256.357	73.19
256.59	78.19
256.823	90.19
257.056	83.19
257.289	67.19
257.521	86.19
257.754	66.19
257.987	81.19
258.22	92.19
258.452	87.19
258.685	88.19
258.918	93.19
259.151	83.19
259.383	90.19
259.616	91.19
259.849	82.19
260.081	83.19
260.314	73.19
260.547	76.19
260.779	88.19
261.012	91.19
261.244	79.19
261.477	87.19
261.71	102.19
261.942	106.19
262.175	112.19
262.407	88.19
262.64	76.19
262.872	83.19
263.105	83.19
263.337	78.19
263.57	83.19
263.802	104.19
264.035	72.19
264.267	91.19
264.499	89.19
264.732	76.19
264.964	92.19
265.197	106.19
265.429	92.19
265.661	75.19
265.894	83.19
266.126	92.19
266.358	68.19
266.591	86.19
266.823	80.19
267.055	77.19
267.287	83.19
267.52	86.19
267.752	98.19
267.984	74.19
268.216	88.19
268.448	85.19
268.681	76.19
268.913	89.19
269.145	89.19
269.377	78.19
269.609	71.19
269.841	87.19
270.073	77.19
270.306	71.19
270.538	73.19
270.77	79.19
271.002	79.19
271.234	82.19
271.466	90.19
271.698	88.19
271.93	87.19
272.162	93.19
272.394	86.19
272.626	78.19
272.858	83.19
273.09	81.19
273.322	87.19
273.553	90.19
273.785	88.19
274.017	83.19
274.249	90.19
274.481	86.19
274.713	66.19
274.945	76.19
275.176	93.19
275.408	86.19
275.64	74.19
275.872	88.19
276.104	78.19
276.335	88.19
276.567	102.19
276.799	108.19
277.031	111.19
277.262	98.19
277.494	97.19
277.726	93.19
277.957	77.19
278.189	80.19
278.421	70.19
278.652	76.19
278.884	78.19
279.115	95.19
279.347	81.19
279.579	92.19
279.81	88.19
280.042	76.19
280.273	83.19
280.505	74.19
280.736	77.19
280.968	97.19
281.199	96.19
281.431	86.19
281.662	88.19
281.894	87.19
282.125	86.19
282.356	111.19
282.588	139.19
282.819	97.19
283.051	88.19
283.282	76.19
283.513	99.19
283.745	84.19
283.976	83.19
284.207	78.19
284.439	83.19
284.67	83.19
284.901	73.19
285.132	94.19
285.364	92.19
285.595	84.19
285.826	88.19
286.057	82.19
286.288	84.19
286.52	89.19
286.751	83.19
286.982	84.19
287.213	74.19
287.444	90.19
287.675	94.19
287.906	91.19
288.138	96.19
288.369	90.19
288.6	91.19
288.831	87.19
289.062	93.19
289.293	94.19
289.524	92.19
289.755	86.19
289.986	86.19
290.217	86.19
290.448	88.19
290.679	86.19
290.91	84.19
291.141	88.19
291.371	99.19
291.602	99.19
291.833	101.19
292.064	71.19
292.295	89.19
292.526	74.19
292.757	85.19
292.987	95.19
293.218	100.19
293.449	95.19
293.68	80.19
293.91	89.19
294.141	94.19
294.372	100.19
294.603	86.19
294.833	95.19
295.064	95.19
295.295	84.19
295.525	99.19
295.756	100.19
295.987	108.19
296.217	135.19
296.448	122.19
296.679	92.19
296.909	87.19
297.14	79.19
297.37	89.19
297.601	80.19
297.831	82.19
298.062	87.19
298.292	104.19
298.523	88.19
298.753	90.19
298.984	88.19
299.214	99.19
299.445	93.19
299.675	88.19
299.905	78.19
300.136	90.19
300.366	88.19
300.597	90.19
300.827	87.19
301.057	110.19
301.288	102.19
301.518	98.19
301.748	93.19
301.979	102.19
302.209	101.19
302.439	90.19
302.669	78.19
302.9	86.19
303.13	81.19
303.36	89.19
303.59	107.19
303.82	107.19
304.051	97.19
304.281	93.19
304.511	81.19
304.741	94.19
304.971	90.19
305.201	106.19
305.431	87.19
305.661	96.19
305.891	74.19
306.121	83.19
306.352	111.19
306.582	109.19
306.812	100.19
307.042	91.19
307.272	89.19
307.502	101.19
307.731	97.19
307.961	100.19
308.191	89.19
308.421	75.19
308.651	98.19
308.881	95.19
309.111	99.19
309.341	97.19
309.571	99.19
309.8	96.19
310.03	92.19
310.26	95.19
310.49	98.19
310.72	94.19
310.949	94.19
311.179	96.19
311.409	86.19
311.639	80.19
311.868	84.19
312.098	88.19
312.328	92.19
312.557	84.19
312.787	101.19
313.017	99.19
313.246	83.19
313.476	93.19
313.706	90.19
313.935	79.19
314.165	92.19
314.394	99.19
314.624	91.19
314.853	82.19
315.083	97.19
315.312	79.19
315.542	85.19
315.771	99.19
316.001	90.19
316.23	82.19
316.46	92.19
316.689	79.19
316.919	107.19
317.148	94.19
317.377	103.19
317.607	91.19
317.836	86.19
318.065	91.19
318.295	98.19
318.524	94.19
318.753	107.19
318.983	104.19
319.212	105.19
319.441	115.19
319.67	108.19
319.9	104.19
320.129	77.19
320.358	100.19
320.587	104.19
320.816	99.19
321.046	105.19
321.275	96.19
321.504	95.19
321.733	97.19
321.962	96.19
322.191	87.19
322.42	102.19
322.649	82.19
322.878	114.19
323.108	124.19
323.337	131.19
323.566	128.19
323.795	147.19
324.024	178.19
324.253	337.19
324.482	662.19
324.71	1362.19
324.939	1808.19
325.168	685.19
325.397	233.19
325.626	144.19
325.855	131.19
326.084	113.19
326.313	128.19
326.542	160.19
326.77	205.19
326.999	377.19
327.228	741.19
327.457	1334.19
327.686	1061.19
327.914	287.19
328.143	201.19
328.372	156.19
328.6	149.19
328.829	114.19
329.058	118.19
329.287	128.19
329.515	111.19
329.744	112.19
329.972	118.19
330.201	144.19
330.43	174.19
330.658	146.19
330.887	123.19
331.115	120.19
331.344	96.19
331.572	104.19
331.801	113.19
332.03	87.19
332.258	89.19
332.486	102.19
332.715	104.19
332.943	95.19
333.172	103.19
333.4	99.19
333.629	111.19
333.857	127.19
334.085	105.19
334.314	148.19
334.542	191.19
334.771	194.19
334.999	109.19
335.227	98.19
335.455	88.19
335.684	93.19
335.912	102.19
336.14	101.19
336.369	87.19
336.597	105.19
336.825	101.19
337.053	106.19
337.281	94.19
337.51	89.19
337.738	90.19
337.966	99.19
338.194	106.19
338.422	103.19
338.65	86.19
338.878	87.19
339.106	80.19
339.334	82.19
339.562	93.19
339.79	91.19
340.018	86.19
340.246	107.19
340.474	100.19
340.702	84.19
340.93	93.19
341.158	88.19
341.386	96.19
341.614	89.19
341.842	96.19
342.07	82.19
342.298	100.19
342.526	80.19
342.754	90.19
342.981	94.19
343.209	81.19
343.437	99.19
343.665	75.19
343.893	82.19
344.12	89.19
344.348	91.19
344.576	86.19
344.804	89.19
345.031	107.19
345.259	104.19
345.487	91.19
345.714	97.19
345.942	83.19
346.17	82.19
346.397	98.19
346.625	82.19
346.853	98.19
347.08	82.19
347.308	76.19
347.535	92.19
347.763	102.19
347.99	106.19
348.218	109.19
348.445	95.19
348.673	97.19
348.9	79.19
349.128	92.19
349.355	98.19
349.583	96.19
349.81	95.19
350.037	97.19
350.265	81.19
350.492	97.19
350.72	100.19
350.947	90.19
351.174	114.19
351.402	110.19
351.629	100.19
351.856	100.19
352.083	104.19
352.311	109.19
352.538	98.19
352.765	113.19
352.992	101.19
353.22	95.19
353.447	103.19
353.674	98.19
353.901	93.19
354.128	96.19
354.355	90.19
354.583	103.19
354.81	84.19
355.037	94.19
355.264	86.19
355.491	98.19
355.718	96.19
355.945	96.19
356.172	80.19
356.399	91.19
356.626	97.19
356.853	98.19
357.08	83.19
357.307	85.19
357.534	89.19
357.761	84.19
357.988	96.19
358.215	81.19
358.441	84.19
358.668	83.19
358.895	87.19
359.122	86.19
359.349	98.19
359.576	72.19
359.802	107.19
360.029	110.19
360.256	108.19
360.483	93.19
360.709	87.19
360.936	88.19
361.163	95.19
361.39	99.19
361.616	89.19
361.843	98.19
362.07	90.19
362.296	98.19
362.523	93.19
362.749	89.19
362.976	83.19
363.203	93.19
363.429	77.19
363.656	88.19
363.882	82.19
364.109	93.19
364.335	85.19
364.562	83.19
364.788	89.19
365.015	91.19
365.241	96.19
365.468	99.19
365.694	111.19
365.92	84.19
366.147	96.19
366.373	92.19
366.599	111.19
366.826	92.19
367.052	99.19
367.278	90.19
367.505	96.19
367.731	87.19
367.957	90.19
368.184	94.19
368.41	100.19
368.636	102.19
368.862	107.19
369.089	105.19
369.315	94.19
369.541	93.19
369.767	83.19
369.993	88.19
370.219	97.19
370.445	92.19
370.672	89.19
370.898	88.19
371.124	68.19
371.35	72.19
371.576	86.19
371.802	78.19
372.028	86.19
372.254	82.19
372.48	65.19
372.706	77.19
372.932	95.19
373.158	75.19
373.384	90.19
373.61	83.19
373.835	82.19
374.061	96.19
374.287	101.19
374.513	82.19
374.739	93.19
374.965	83.19
375.191	93.19
375.416	88.19
375.642	97.19
375.868	92.19
376.094	92.19
376.319	95.19
376.545	90.19
376.771	84.19
376.997	84.19
377.222	90.19
377.448	101.19
377.674	71.19
377.899	79.19
378.125	101.19
378.35	94.19
378.576	87.19
378.802	87.19
379.027	103.19
379.253	93.19
379.478	74.19
379.704	88.19
379.929	107.19
380.155	83.19
380.38	98.19
380.606	88.19
380.831	86.19
381.057	93.19
381.282	76.19
381.507	83.19
381.733	88.19
381.958	97.19
382.184	82.19
382.409	95.19
382.634	108.19
382.86	101.19
383.085	100.19
383.31	88.19
383.535	96.19
383.761	90.19
383.986	108.19
384.211	105.19
384.436	90.19
384.662	95.19
384.887	95.19
385.112	96.19
385.337	90.19
385.562	97.19
385.787	112.19
386.013	111.19
386.238	123.19
386.463	91.19
386.688	111.19
386.913	97.19
387.138	103.19
387.363	115.19
387.588	111.19
387.813	103.19
388.038	116.19
388.263	105.19
388.488	108.19
388.713	99.19
388.938	75.19
389.163	106.19
389.387	120.19
389.612	100.19
389.837	95.19
390.062	91.19
390.287	73.19
390.512	99.19
390.736	72.19
390.961	87.19
391.186	88.19
391.411	99.19
391.636	87.19
391.86	91.19
392.085	82.19
392.31	85.19
392.534	84.19
392.759	81.19
392.984	90.19
393.208	97.19
393.433	80.19
393.658	97.19
393.882	83.19
394.107	81.19
394.331	86.19
394.556	74.19
394.78	88.19
395.005	84.19
395.229	76.19
395.454	91.19
395.678	82.19
395.903	84.19
396.127	96.19
396.352	99.19
396.576	75.19
396.801	81.19
397.025	91.19
397.249	84.19
397.474	91.19
397.698	82.19
397.922	78.19
398.147	79.19
398.371	99.19
398.595	88.19
398.82	77.19
399.044	90.19
399.268	92.19
399.492	75.19
399.717	106.19
399.941	91.19
400.165	79.19
400.389	73.19
400.613	91.19
400.837	77.19
401.062	94.19
401.286	78.19
401.51	80.19
401.734	95.19
401.958	91.19
402.182	120.19
402.406	161.19
402.63	128.19
402.854	94.19
403.078	75.19
403.302	89.19
403.526	82.19
403.75	83.19
403.974	93.19
404.198	82.19
404.422	86.19
404.645	90.19
404.869	101.19
405.093	88.19
405.317	87.19
405.541	93.19
405.765	90.19
405.988	123.19
406.212	164.19
406.436	238.19
406.66	137.19
406.883	94.19
407.107	101.19
407.331	85.19
407.555	90.19
407.778	88.19
408.002	97.19
408.226	78.19
408.449	88.19
408.673	99.19
408.896	103.19
409.12	115.19
409.344	83.19
409.567	82.19
409.791	82.19
410.014	89.19
410.238	83.19
410.461	94.19
410.685	99.19
410.908	111.19
411.132	92.19
411.355	80.19
411.578	94.19
411.802	89.19
412.025	79.19
412.249	95.19
412.472	99.19
412.695	85.19
412.919	88.19
413.142	81.19
413.365	86.19
413.589	79.19
413.812	73.19
414.035	101.19
414.258	94.19
414.482	68.19
414.705	77.19
414.928	113.19
415.151	86.19
415.374	87.19
415.597	82.19
415.821	90.19
416.044	81.19
416.267	87.19
416.49	93.19
416.713	78.19
416.936	94.19
417.159	89.19
417.382	100.19
417.605	92.19
417.828	87.19
418.051	90.19
418.274	93.19
418.497	91.19
418.72	89.19
418.943	81.19
419.166	97.19
419.389	88.19
419.611	75.19
419.834	77.19
420.057	89.19
420.28	94.19
420.503	83.19
420.726	92.19
420.948	85.19
421.171	106.19
421.394	88.19
421.617	91.19
421.839	86.19
422.062	94.19
422.285	97.19
422.507	101.19
422.73	115.19
422.953	92.19
423.175	83.19
423.398	75.19
423.621	92.19
423.843	98.19
424.066	87.19
424.288	101.19
424.511	86.19
424.733	94.19
424.956	93.19
425.178	102.19
425.401	101.19
425.623	82.19
425.846	89.19
426.068	97.19
426.291	94.19
426.513	83.19
426.735	81.19
426.958	75.19
427.18	104.19
427.402	115.19
427.625	145.19
427.847	122.19
428.069	127.19
428.292	79.19
428.514	90.19
428.736	84.19
428.958	86.19
429.181	96.19
429.403	75.19
429.625	93.19
429.847	103.19
430.069	103.19
430.292	82.19
430.514	90.19
430.736	88.19
430.958	82.19
431.18	76.19
431.402	77.19
431.624	70.19
431.846	72.19
432.068	98.19
432.29	90.19
432.512	87.19
432.734	85.19
432.956	78.19
433.178	92.19
433.4	75.19
433.622	102.19
433.844	90.19
434.066	94.19
434.287	94.19
434.509	82.19
434.731	78.19
434.953	87.19
435.175	90.19
435.397	104.19
435.618	84.19
435.84	82.19
436.062	111.19
436.284	103.19
436.505	100.19
436.727	79.19
436.949	83.19
437.17	61.19
437.392	76.19
437.614	94.19
437.835	108.19
438.057	120.19
438.278	90.19
438.5	108.19
438.721	118.19
438.943	98.19
439.165	89.19
439.386	78.19
439.608	89.19
439.829	100.19
440.05	121.19
440.272	126.19
440.493	98.19
440.715	96.19
440.936	94.19
441.158	88.19
441.379	87.19
441.6	84.19
441.822	118.19
442.043	97.19
442.264	95.19
442.486	95.19
442.707	82.19
442.928	95.19
443.149	108.19
443.371	136.19
443.592	109.19
443.813	97.19
444.034	98.19
444.255	84.19
444.476	83.19
444.698	85.19
444.919	92.19
445.14	131.19
445.361	108.19
445.582	113.19
445.803	129.19
446.024	120.19
446.245	110.19
446.466	86.19
446.687	85.19
446.908	99.19
447.129	92.19
447.35	91.19
447.571	86.19
447.792	84.19
448.013	103.19
448.234	94.19
448.455	90.19
448.675	107.19
448.896	98.19
449.117	91.19
449.338	118.19
449.559	112.19
449.779	133.19
450	93.19
450.221	86.19
450.442	100.19
450.662	87.19
450.883	100.19
451.104	106.19
451.324	93.19
451.545	97.19
451.766	84.19
451.986	73.19
452.207	80.19
452.428	96.19
452.648	99.19
452.869	111.19
453.089	111.19
453.31	117.19
453.53	88.19
453.751	96.19
453.971	95.19
454.192	114.19
454.412	98.19
454.633	81.19
454.853	93.19
455.073	71.19
455.294	90.19
455.514	94.19
455.734	83.19
455.955	79.19
456.175	90.19
456.395	86.19
456.616	93.19
456.836	92.19
457.056	88.19
457.276	77.19
457.497	75.19
457.717	83.19
457.937	94.19
458.157	83.19
458.377	75.19
458.598	106.19
458.818	150.19
459.038	142.19
459.258	102.19
459.478	95.19
459.698	97.19
459.918	80.19
460.138	86.19
460.358	75.19
460.578	87.19
460.798	96.19
461.018	102.19
461.238	79.19
461.458	88.19
461.678	84.19
461.898	81.19
462.118	86.19
462.338	77.19
462.558	79.19
462.777	73.19
462.997	97.19
463.217	81.19
463.437	92.19
463.657	93.19
463.876	88.19
464.096	90.19
464.316	87.19
464.536	95.19
464.755	98.19
464.975	103.19
465.195	166.19
465.414	152.19
465.634	102.19
465.854	104.19
466.073	88.19
466.293	103.19
466.512	95.19
466.732	82.19
466.951	88.19
467.171	97.19
467.391	84.19
467.61	112.19
467.829	98.19
468.049	117.19
468.268	120.19
468.488	89.19
468.707	96.19
468.927	98.19
469.146	92.19
469.365	81.19
469.585	91.19
469.804	97.19
470.023	78.19
470.243	91.19
470.462	103.19
470.681	97.19
470.901	90.19
471.12	79.19
471.339	83.19
471.558	79.19
471.777	75.19
471.997	100.19
472.216	154.19
472.435	250.19
472.654	114.19
472.873	92.19
473.092	76.19
473.311	79.19
473.53	90.19
473.749	97.19
473.968	99.19
474.187	102.19
474.406	89.19
474.625	95.19
474.844	95.19
475.063	83.19
475.282	76.19
475.501	87.19
475.72	83.19
475.939	78.19
476.158	90.19
476.377	78.19
476.596	82.19
476.814	97.19
477.033	104.19
477.252	86.19
477.471	105.19
477.69	80.19
477.908	97.19
478.127	87.19
478.346	83.19
478.564	79.19
478.783	77.19
479.002	102.19
479.22	76.19
479.439	93.19
479.658	95.19
479.876	100.19
480.095	102.19
480.313	90.19
480.532	99.19
480.751	109.19
480.969	147.19
481.188	398.19
481.406	258.19
481.624	104.19
481.843	91.19
482.061	79.19
482.28	97.19
482.498	89.19
482.717	84.19
482.935	93.19
483.153	84.19
483.372	101.19
483.59	84.19
483.808	97.19
484.027	82.19
484.245	88.19
484.463	78.19
484.681	93.19
484.9	86.19
485.118	92.19
485.336	94.19
485.554	103.19
485.772	91.19
485.99	94.19
486.209	91.19
486.427	114.19
486.645	111.19
486.863	92.19
487.081	81.19
487.299	105.19
487.517	98.19
487.735	92.19
487.953	84.19
488.171	83.19
488.389	86.19
488.607	104.19
488.825	93.19
489.043	96.19
489.261	82.19
489.479	78.19
489.696	76.19
489.914	82.19
490.132	92.19
490.35	104.19
490.568	88.19
490.786	75.19
491.003	91.19
491.221	89.19
491.439	91.19
491.657	96.19
491.874	96.19
492.092	91.19
492.31	85.19
492.527	100.19
492.745	89.19
492.963	99.19
493.18	100.19
493.398	98.19
493.615	91.19
493.833	90.19
494.05	90.19
494.268	87.19
494.485	86.19
494.703	93.19
494.92	90.19
495.138	92.19
495.355	85.19
495.573	92.19
495.79	73.19
496.008	103.19
496.225	72.19
496.442	87.19
496.66	89.19
496.877	94.19
497.094	95.19
497.312	88.19
497.529	83.19
497.746	78.19
497.963	81.19
498.181	83.19
498.398	103.19
498.615	113.19
498.832	103.19
499.049	84.19
499.267	102.19
499.484	86.19
499.701	96.19
499.918	93.19
500.135	85.19
500.352	81.19
500.569	88.19
500.786	85.19
501.003	85.19
501.22	92.19
501.437	86.19
501.654	81.19
501.871	99.19
502.088	103.19
502.305	87.19
502.522	80.19
502.739	92.19
502.956	98.19
503.172	83.19
503.389	96.19
503.606	111.19
503.823	78.19
504.04	87.19
504.256	98.19
504.473	73.19
504.69	86.19
504.907	91.19
505.123	82.19
505.34	76.19
505.557	83.19
505.773	81.19
505.99	96.19
506.207	88.19
506.423	85.19
506.64	94.19
506.856	89.19
507.073	94.19
507.289	95.19
507.506	109.19
507.722	122.19
507.939	105.19
508.155	92.19
508.372	86.19
508.588	96.19
508.805	103.19
509.021	84.19
509.238	95.19
509.454	94.19
509.67	103.19
509.887	110.19
510.103	143.19
510.319	226.19
510.536	827.19
510.752	2706.19
510.968	748.19
511.184	188.19
511.401	114.19
511.617	87.19
511.833	96.19
512.049	92.19
512.265	93.19
512.481	83.19
512.698	94.19
512.914	93.19
513.13	95.19
513.346	82.19
513.562	88.19
513.778	100.19
513.994	92.19
514.21	107.19
514.426	112.19
514.642	133.19
514.858	122.19
515.074	174.19
515.29	466.19
515.506	1625.19
515.721	606.19
515.937	160.19
516.153	98.19
516.369	89.19
516.585	96.19
516.801	107.19
517.016	89.19
517.232	90.19
517.448	89.19
517.664	99.19
517.879	101.19
518.095	95.19
518.311	90.19
518.527	98.19
518.742	102.19
518.958	94.19
519.173	95.19
519.389	98.19
519.605	91.19
519.82	104.19
520.036	99.19
520.251	114.19
520.467	127.19
520.682	107.19
520.898	104.19
521.113	112.19
521.329	150.19
521.544	188.19
521.76	569.19
521.975	2663.19
522.19	1619.19
522.406	333.19
522.621	131.19
522.836	103.19
523.052	85.19
523.267	97.19
523.482	85.19
523.698	100.19
523.913	120.19
524.128	97.19
524.343	96.19
524.559	102.19
524.774	95.19
524.989	111.19
525.204	95.19
525.419	82.19
525.634	90.19
525.849	92.19
526.064	96.19
526.28	90.19
526.495	96.19
526.71	89.19
526.925	92.19
527.14	83.19
527.355	80.19
527.57	87.19
527.785	80.19
527.999	85.19
528.214	97.19
528.429	94.19
528.644	79.19
528.859	97.19
529.074	74.19
529.289	129.19
529.503	172.19
529.718	100.19
529.933	103.19
530.148	77.19
530.363	97.19
530.577	96.19
530.792	84.19
531.007	106.19
531.221	100.19
531.436	102.19
531.651	79.19
531.865	84.19
532.08	86.19
532.295	88.19
532.509	89.19
532.724	80.19
532.938	99.19
533.153	84.19
533.367	83.19
533.582	92.19
533.796	98.19
534.011	101.19
534.225	81.19
534.44	87.19
534.654	88.19
534.868	90.19
535.083	85.19
535.297	95.19
535.511	99.19
535.726	108.19
535.94	99.19
536.154	98.19
536.369	92.19
536.583	94.19
536.797	90.19
537.011	86.19
537.225	83.19
537.44	92.19
537.654	98.19
537.868	96.19
538.082	80.19
538.296	84.19
538.51	89.19
538.724	95.19
538.938	102.19
539.153	100.19
539.367	100.19
539.581	102.19
539.795	83.19
540.009	96.19
540.222	94.19
540.436	96.19
540.65	84.19
540.864	88.19
541.078	101.19
541.292	93.19
541.506	82.19
541.72	91.19
541.934	93.19
542.147	88.19
542.361	78.19
542.575	78.19
542.789	83.19
543.002	88.19
543.216	87.19
543.43	96.19
543.644	78.19
543.857	93.19
544.071	80.19
544.285	89.19
544.498	91.19
544.712	98.19
544.925	74.19
545.139	84.19
545.352	83.19
545.566	98.19
545.779	86.19
545.993	73.19
546.206	93.19
546.42	91.19
546.633	94.19
546.847	70.19
547.06	92.19
547.274	83.19
547.487	77.19
547.7	88.19
547.914	97.19
548.127	88.19
548.34	91.19
548.554	84.19
548.767	84.19
548.98	88.19
549.193	81.19
549.407	77.19
549.62	78.19
549.833	93.19
550.046	80.19
550.259	98.19
550.473	81.19
550.686	89.19
550.899	87.19
551.112	78.19
551.325	82.19
551.538	96.19
551.751	96.19
551.964	88.19
552.177	78.19
552.39	94.19
552.603	105.19
552.816	92.19
553.029	71.19
553.242	100.19
553.455	94.19
553.667	105.19
553.88	107.19
554.093	94.19
554.306	96.19
554.519	101.19
554.732	94.19
554.944	78.19
555.157	93.19
555.37	90.19
555.583	98.19
555.795	97.19
556.008	94.19
556.221	92.19
556.433	87.19
556.646	95.19
556.859	82.19
557.071	90.19
557.284	89.19
557.496	91.19
557.709	99.19
557.921	92.19
558.134	90.19
558.346	71.19
558.559	78.19
558.771	93.19
558.984	81.19
559.196	78.19
559.409	83.19
559.621	98.19
559.833	84.19
560.046	86.19
560.258	95.19
560.47	95.19
560.683	90.19
560.895	89.19
561.107	96.19
561.32	87.19
561.532	81.19
561.744	92.19
561.956	101.19
562.168	81.19
562.381	82.19
562.593	89.19
562.805	90.19
563.017	75.19
563.229	92.19
563.441	81.19
563.653	75.19
563.865	78.19
564.077	88.19
564.289	101.19
564.501	84.19
564.713	88.19
564.925	92.19
565.137	101.19
565.349	95.19
565.561	91.19
565.773	83.19
565.985	77.19
566.197	94.19
566.408	91.19
566.62	92.19
566.832	86.19
567.044	112.19
567.255	78.19
567.467	84.19
567.679	87.19
567.891	85.19
568.102	86.19
568.314	88.19
568.526	91.19
568.737	91.19
568.949	96.19
569.161	85.19
569.372	81.19
569.584	92.19
569.795	80.19
570.007	109.19
570.218	262.19
570.43	140.19
570.641	92.19
570.853	87.19
571.064	96.19
571.276	86.19
571.487	86.19
571.698	82.19
571.91	93.19
572.121	91.19
572.333	83.19
572.544	87.19
572.755	101.19
572.966	85.19
573.178	80.19
573.389	80.19
573.6	82.19
573.811	88.19
574.023	95.19
574.234	75.19
574.445	87.19
574.656	79.19
574.867	80.19
575.078	86.19
575.289	86.19
575.501	86.19
575.712	94.19
575.923	86.19
576.134	98.19
576.345	98.19
576.556	87.19
576.767	79.19
576.978	87.19
577.188	89.19
577.399	84.19
577.61	96.19
577.821	100.19
578.032	136.19
578.243	293.19
578.454	894.19
578.665	243.19
578.875	105.19
579.086	106.19
579.297	82.19
579.508	90.19
579.718	73.19
579.929	97.19
580.14	95.19
580.35	92.19
580.561	89.19
580.772	78.19
580.982	80.19
581.193	89.19
581.403	87.19
581.614	67.19
581.825	97.19
582.035	74.19
582.246	74.19
582.456	94.19
582.667	89.19
582.877	90.19
583.087	94.19
583.298	92.19
583.508	80.19
583.719	90.19
583.929	88.19
584.139	82.19
584.35	77.19
584.56	93.19
584.77	90.19
584.981	84.19
585.191	79.19
585.401	76.19
585.611	74.19
585.821	88.19
586.032	98.19
586.242	93.19
586.452	92.19
586.662	77.19
586.872	81.19
587.082	93.19
587.292	86.19
587.502	81.19
587.713	70.19
587.923	91.19
588.133	76.19
588.343	82.19
588.553	100.19
588.762	94.19
588.972	81.19
589.182	110.19
589.392	102.19
589.602	84.19
589.812	112.19
590.022	83.19
590.232	109.19
590.441	99.19
590.651	75.19
590.861	72.19
591.071	93.19
591.281	89.19
591.49	87.19
591.7	92.19
591.91	79.19
592.119	92.19
592.329	84.19
592.539	96.19
592.748	90.19
592.958	91.19
593.167	70.19
593.377	84.19
593.587	88.19
593.796	84.19
594.006	81.19
594.215	90.19
594.424	80.19
594.634	76.19
594.843	89.19
595.053	92.19
595.262	88.19
595.472	79.19
595.681	89.19
595.89	71.19
596.1	78.19
596.309	88.19
596.518	86.19
596.727	79.19
596.937	88.19
597.146	91.19
597.355	94.19
597.564	88.19
597.774	88.19
597.983	90.19
598.192	84.19
598.401	86.19
598.61	86.19
598.819	87.19
599.028	91.19
599.237	83.19
599.446	91.19
599.655	80.19
599.864	88.19
600.073	88.19
600.282	84.19
600.491	85.19
600.7	88.19
600.909	70.19
601.118	86.19
601.327	102.19
601.536	101.19
601.745	82.19
601.953	100.19
602.162	87.19
602.371	92.19
602.58	79.19
602.789	88.19
602.997	76.19
603.206	76.19
603.415	73.19
603.623	77.19
603.832	93.19
604.041	79.19
604.249	91.19
604.458	95.19
604.666	80.19
604.875	98.19
605.084	89.19
605.292	88.19
605.501	99.19
605.709	86.19
605.918	81.19
606.126	98.19
606.334	81.19
606.543	89.19
606.751	75.19
606.96	90.19
607.168	84.19
607.376	82.19
607.585	92.19
607.793	73.19
608.001	86.19
608.21	105.19
608.418	83.19
608.626	88.19
608.834	85.19
609.043	90.19
609.251	82.19
609.459	75.19
609.667	77.19
609.875	92.19
610.083	88.19
610.291	87.19
610.499	82.19
610.707	97.19
610.916	79.19
611.124	88.19
611.332	86.19
611.54	80.19
611.748	83.19
611.955	80.19
612.163	72.19
612.371	95.19
612.579	84.19
612.787	88.19
612.995	97.19
613.203	91.19
613.411	80.19
613.618	91.19
613.826	81.19
614.034	76.19
614.242	92.19
614.449	99.19
614.657	72.19
614.865	78.19
615.072	83.19
615.28	82.19
615.488	78.19
615.695	96.19
615.903	90.19
616.111	90.19
616.318	81.19
616.526	81.19
616.733	86.19
616.941	91.19
617.148	84.19
617.356	92.19
617.563	88.19
617.771	103.19
617.978	78.19
618.185	90.19
618.393	96.19
618.6	86.19
618.807	90.19
619.015	86.19
619.222	102.19
619.429	91.19
619.637	70.19
619.844	91.19
620.051	81.19
620.258	78.19
620.466	83.19
620.673	95.19
620.88	86.19
621.087	82.19
621.294	66.19
621.501	96.19
621.708	81.19
621.915	82.19
622.122	86.19
622.329	81.19
622.536	80.19
622.743	73.19
622.95	78.19
623.157	78.19
623.364	78.19
623.571	91.19
623.778	73.19
623.985	88.19
624.192	86.19
624.399	85.19
624.606	98.19
624.812	78.19
625.019	92.19
625.226	81.19
625.433	94.19
625.639	78.19
625.846	80.19
626.053	90.19
626.259	82.19
626.466	73.19
626.673	94.19
626.879	95.19
627.086	82.19
627.293	88.19
627.499	90.19
627.706	89.19
627.912	81.19
628.119	97.19
628.325	88.19
628.532	88.19
628.738	75.19
628.945	83.19
629.151	82.19
629.357	89.19
629.564	83.19
629.77	80.19
629.976	54.19
630.183	68.19
630.389	77.19
630.595	83.19
630.802	89.19
631.008	77.19
631.214	89.19
631.42	93.19
631.627	75.19
631.833	79.19
632.039	86.19
632.245	87.19
632.451	103.19
632.657	76.19
632.863	87.19
633.069	83.19
633.275	92.19
633.481	92.19
633.688	69.19
633.893	84.19
634.099	75.19
634.305	79.19
634.511	78.19
634.717	85.19
634.923	83.19
635.129	85.19
635.335	85.19
635.541	92.19
635.747	81.19
635.952	80.19
636.158	80.19
636.364	93.19
636.57	94.19
636.775	76.19
636.981	82.19
637.187	91.19
637.392	94.19
637.598	87.19
637.804	83.19
638.009	95.19
638.215	86.19
638.421	87.19
638.626	98.19
638.832	88.19
639.037	63.19
639.243	85.19
639.448	84.19
639.654	90.19
639.859	98.19
640.065	79.19
640.27	83.19
640.475	101.19
640.681	84.19
640.886	87.19
641.091	91.19
641.297	74.19
641.502	84.19
641.707	91.19
641.913	76.19
642.118	87.19
642.323	83.19
642.528	74.19
642.733	83.19
642.939	83.19
643.144	86.19
643.349	80.19
643.554	87.19
643.759	90.19
643.964	82.19
644.169	85.19
644.374	80.19
644.579	81.19
644.784	105.19
644.989	89.19
645.194	77.19
645.399	102.19
645.604	82.19
645.809	84.19
646.014	95.19
646.219	74.19
646.423	81.19
646.628	90.19
646.833	81.19
647.038	92.19
647.243	77.19
647.447	90.19
647.652	80.19
647.857	83.19
648.062	92.19
648.266	94.19
648.471	86.19
648.676	85.19
648.88	92.19
649.085	81.19
649.289	101.19
649.494	97.19
649.698	131.19
649.903	94.19
650.107	92.19
650.312	82.19
650.516	83.19
650.721	93.19
650.925	80.19
651.13	76.19
651.334	78.19
651.539	77.19
651.743	88.19
651.947	80.19
652.152	78.19
652.356	79.19
652.56	93.19
652.764	86.19
652.969	83.19
653.173	93.19
653.377	91.19
653.581	78.19
653.785	72.19
653.99	92.19
654.194	92.19
654.398	79.19
654.602	94.19
654.806	82.19
655.01	91.19
655.214	81.19
655.418	73.19
655.622	79.19
655.826	91.19
656.03	84.19
656.234	102.19
656.438	99.19
656.642	107.19
656.846	89.19
657.049	91.19
657.253	85.19
657.457	86.19
657.661	77.19
657.865	83.19
658.068	89.19
658.272	95.19
658.476	80.19
658.68	83.19
658.883	70.19
659.087	78.19
659.291	79.19
659.494	84.19
659.698	91.19
659.901	92.19
660.105	90.19
660.309	78.19
660.512	98.19
660.716	89.19
660.919	77.19
661.123	77.19
661.326	75.19
661.53	67.19
661.733	79.19
661.936	76.19
662.14	94.19
662.343	69.19
662.546	78.19
662.75	82.19
662.953	84.19
663.156	71.19
663.36	84.19
663.563	80.19
663.766	82.19
663.969	64.19
664.173	70.19
664.376	81.19
664.579	84.19
664.782	66.19
664.985	73.19
665.188	91.19
665.391	78.19
665.594	77.19
665.797	78.19
666	76.19
666.203	74.19
666.406	88.19
666.609	77.19
666.812	87.19
667.015	83.19
667.218	83.19
667.421	70.19
667.624	84.19
667.827	83.19
668.03	83.19
668.232	81.19
668.435	80.19
668.638	91.19
668.841	84.19
669.043	69.19
669.246	76.19
669.449	88.19
669.651	79.19
669.854	76.19
670.057	80.19
670.259	96.19
670.462	91.19
670.665	85.19
670.867	88.19
671.07	82.19
671.272	67.19
671.475	82.19
671.677	85.19
671.88	70.19
672.082	83.19
672.284	98.19
672.487	97.19
672.689	91.19
672.892	87.19
