Data from Circ_2008_H10_HRD10591_00082.txt Node
Date: Wed Jan 03 10:17:12 EST 2024
User: Yrep
Spectrometer: HR+D1059
Trigger mode: 1
Integration Time (sec): 1.000000E-1
Scans to average: 1
Electric dark correction enabled: true
Nonlinearity correction enabled: false
Boxcar width: 0
XAxis mode: Wavelengths
Number of Pixels in Spectrum: 2048
>>>>>Begin Spectral Data<<<<<
223.165	-14.88
223.4	-14.88
223.635	-14.88
223.869	-17.88
224.104	-18.88
224.338	-18.88
224.573	-5.88
224.808	-13.88
225.042	-15.88
225.277	-1.88
225.511	0.12
225.746	2.12
225.98	-1.88
226.215	10.12
226.449	18.12
226.683	16.12
226.918	30.12
227.152	33.12
227.387	30.12
227.621	43.12
227.856	49.12
228.09	46.12
228.324	57.12
228.559	42.12
228.793	73.12
229.027	67.12
229.262	60.12
229.496	72.12
229.73	90.12
229.964	76.12
230.199	75.12
230.433	65.12
230.667	80.12
230.901	89.12
231.136	87.12
231.37	98.12
231.604	77.12
231.838	82.12
232.072	76.12
232.306	74.12
232.541	84.12
232.775	84.12
233.009	78.12
233.243	81.12
233.477	97.12
233.711	82.12
233.945	65.12
234.179	78.12
234.413	71.12
234.647	86.12
234.881	91.12
235.115	82.12
235.349	72.12
235.583	76.12
235.817	65.12
236.051	68.12
236.285	75.12
236.519	68.12
236.753	93.12
236.987	68.12
237.221	96.12
237.455	88.12
237.689	90.12
237.922	76.12
238.156	55.12
238.39	80.12
238.624	67.12
238.858	80.12
239.091	90.12
239.325	75.12
239.559	79.12
239.793	87.12
240.027	75.12
240.26	64.12
240.494	97.12
240.728	78.12
240.961	92.12
241.195	81.12
241.429	80.12
241.662	67.12
241.896	65.12
242.13	68.12
242.363	66.12
242.597	91.12
242.83	89.12
243.064	81.12
243.298	85.12
243.531	84.12
243.765	91.12
243.998	72.12
244.232	81.12
244.465	89.12
244.699	75.12
244.932	76.12
245.166	82.12
245.399	77.12
245.633	92.12
245.866	75.12
246.099	94.12
246.333	77.12
246.566	92.12
246.8	78.12
247.033	84.12
247.266	76.12
247.5	92.12
247.733	85.12
247.966	84.12
248.2	73.12
248.433	76.12
248.666	76.12
248.899	88.12
249.133	91.12
249.366	91.12
249.599	94.12
249.832	87.12
250.066	90.12
250.299	74.12
250.532	78.12
250.765	92.12
250.998	83.12
251.231	83.12
251.465	89.12
251.698	62.12
251.931	90.12
252.164	87.12
252.397	74.12
252.63	80.12
252.863	73.12
253.096	90.12
253.329	82.12
253.562	76.12
253.795	78.12
254.028	93.12
254.261	86.12
254.494	68.12
254.727	95.12
254.96	97.12
255.193	86.12
255.426	83.12
255.659	88.12
255.892	88.12
256.124	78.12
256.357	84.12
256.59	82.12
256.823	99.12
257.056	81.12
257.289	94.12
257.521	84.12
257.754	83.12
257.987	66.12
258.22	88.12
258.452	84.12
258.685	85.12
258.918	74.12
259.151	79.12
259.383	76.12
259.616	95.12
259.849	100.12
260.081	84.12
260.314	77.12
260.547	88.12
260.779	74.12
261.012	86.12
261.244	87.12
261.477	97.12
261.71	94.12
261.942	113.12
262.175	139.12
262.407	100.12
262.64	90.12
262.872	89.12
263.105	88.12
263.337	100.12
263.57	92.12
263.802	86.12
264.035	90.12
264.267	70.12
264.499	78.12
264.732	83.12
264.964	82.12
265.197	88.12
265.429	74.12
265.661	88.12
265.894	84.12
266.126	78.12
266.358	82.12
266.591	84.12
266.823	89.12
267.055	87.12
267.287	101.12
267.52	94.12
267.752	99.12
267.984	92.12
268.216	90.12
268.448	89.12
268.681	79.12
268.913	89.12
269.145	77.12
269.377	98.12
269.609	93.12
269.841	96.12
270.073	84.12
270.306	88.12
270.538	89.12
270.77	94.12
271.002	85.12
271.234	85.12
271.466	74.12
271.698	95.12
271.93	92.12
272.162	79.12
272.394	83.12
272.626	81.12
272.858	77.12
273.09	92.12
273.322	81.12
273.553	84.12
273.785	82.12
274.017	81.12
274.249	88.12
274.481	73.12
274.713	92.12
274.945	76.12
275.176	98.12
275.408	93.12
275.64	98.12
275.872	98.12
276.104	97.12
276.335	95.12
276.567	107.12
276.799	124.12
277.031	129.12
277.262	115.12
277.494	97.12
277.726	83.12
277.957	83.12
278.189	88.12
278.421	83.12
278.652	91.12
278.884	74.12
279.115	87.12
279.347	100.12
279.579	93.12
279.81	106.12
280.042	94.12
280.273	110.12
280.505	96.12
280.736	97.12
280.968	99.12
281.199	94.12
281.431	86.12
281.662	95.12
281.894	99.12
282.125	87.12
282.356	144.12
282.588	170.12
282.819	127.12
283.051	100.12
283.282	97.12
283.513	80.12
283.745	94.12
283.976	89.12
284.207	110.12
284.439	89.12
284.67	83.12
284.901	95.12
285.132	103.12
285.364	97.12
285.595	86.12
285.826	93.12
286.057	84.12
286.288	85.12
286.52	93.12
286.751	87.12
286.982	96.12
287.213	84.12
287.444	85.12
287.675	95.12
287.906	95.12
288.138	90.12
288.369	97.12
288.6	104.12
288.831	85.12
289.062	106.12
289.293	94.12
289.524	82.12
289.755	96.12
289.986	94.12
290.217	72.12
290.448	99.12
290.679	76.12
290.91	91.12
291.141	98.12
291.371	98.12
291.602	97.12
291.833	96.12
292.064	91.12
292.295	95.12
292.526	96.12
292.757	91.12
292.987	77.12
293.218	99.12
293.449	88.12
293.68	87.12
293.91	77.12
294.141	79.12
294.372	84.12
294.603	80.12
294.833	88.12
295.064	96.12
295.295	85.12
295.525	93.12
295.756	102.12
295.987	127.12
296.217	158.12
296.448	139.12
296.679	97.12
296.909	88.12
297.14	94.12
297.37	81.12
297.601	97.12
297.831	98.12
298.062	95.12
298.292	84.12
298.523	86.12
298.753	89.12
298.984	87.12
299.214	99.12
299.445	88.12
299.675	97.12
299.905	106.12
300.136	91.12
300.366	84.12
300.597	99.12
300.827	99.12
301.057	112.12
301.288	115.12
301.518	101.12
301.748	76.12
301.979	111.12
302.209	94.12
302.439	101.12
302.669	108.12
302.9	100.12
303.13	92.12
303.36	118.12
303.59	109.12
303.82	127.12
304.051	104.12
304.281	92.12
304.511	94.12
304.741	93.12
304.971	89.12
305.201	87.12
305.431	93.12
305.661	88.12
305.891	110.12
306.121	98.12
306.352	108.12
306.582	111.12
306.812	93.12
307.042	86.12
307.272	100.12
307.502	116.12
307.731	119.12
307.961	125.12
308.191	95.12
308.421	84.12
308.651	80.12
308.881	99.12
309.111	98.12
309.341	102.12
309.571	92.12
309.8	101.12
310.03	84.12
310.26	106.12
310.49	103.12
310.72	105.12
310.949	123.12
311.179	113.12
311.409	95.12
311.639	91.12
311.868	85.12
312.098	95.12
312.328	103.12
312.557	112.12
312.787	113.12
313.017	125.12
313.246	109.12
313.476	97.12
313.706	112.12
313.935	96.12
314.165	97.12
314.394	104.12
314.624	109.12
314.853	102.12
315.083	101.12
315.312	94.12
315.542	95.12
315.771	83.12
316.001	101.12
316.23	100.12
316.46	91.12
316.689	114.12
316.919	90.12
317.148	92.12
317.377	96.12
317.607	101.12
317.836	96.12
318.065	77.12
318.295	92.12
318.524	95.12
318.753	90.12
318.983	110.12
319.212	100.12
319.441	126.12
319.67	110.12
319.9	91.12
320.129	86.12
320.358	86.12
320.587	89.12
320.816	97.12
321.046	103.12
321.275	113.12
321.504	97.12
321.733	119.12
321.962	108.12
322.191	119.12
322.42	119.12
322.649	119.12
322.878	103.12
323.108	131.12
323.337	141.12
323.566	156.12
323.795	168.12
324.024	220.12
324.253	448.12
324.482	951.12
324.71	1960.12
324.939	2612.12
325.168	973.12
325.397	268.12
325.626	168.12
325.855	131.12
326.084	147.12
326.313	146.12
326.542	169.12
326.77	242.12
326.999	496.12
327.228	1020.12
327.457	1869.12
327.686	1521.12
327.914	426.12
328.143	283.12
328.372	258.12
328.6	175.12
328.829	144.12
329.058	164.12
329.287	175.12
329.515	131.12
329.744	141.12
329.972	194.12
330.201	299.12
330.43	390.12
330.658	248.12
330.887	209.12
331.115	167.12
331.344	118.12
331.572	108.12
331.801	109.12
332.03	99.12
332.258	99.12
332.486	99.12
332.715	104.12
332.943	103.12
333.172	106.12
333.4	96.12
333.629	133.12
333.857	131.12
334.085	198.12
334.314	295.12
334.542	493.12
334.771	480.12
334.999	173.12
335.227	126.12
335.455	103.12
335.684	112.12
335.912	95.12
336.14	110.12
336.369	85.12
336.597	116.12
336.825	114.12
337.053	95.12
337.281	98.12
337.51	96.12
337.738	103.12
337.966	91.12
338.194	101.12
338.422	116.12
338.65	94.12
338.878	101.12
339.106	105.12
339.334	95.12
339.562	83.12
339.79	100.12
340.018	99.12
340.246	94.12
340.474	105.12
340.702	95.12
340.93	99.12
341.158	110.12
341.386	94.12
341.614	103.12
341.842	99.12
342.07	91.12
342.298	91.12
342.526	104.12
342.754	92.12
342.981	90.12
343.209	93.12
343.437	84.12
343.665	92.12
343.893	90.12
344.12	108.12
344.348	86.12
344.576	92.12
344.804	104.12
345.031	97.12
345.259	98.12
345.487	101.12
345.714	94.12
345.942	103.12
346.17	91.12
346.397	94.12
346.625	99.12
346.853	94.12
347.08	90.12
347.308	99.12
347.535	89.12
347.763	94.12
347.99	105.12
348.218	116.12
348.445	110.12
348.673	107.12
348.9	109.12
349.128	100.12
349.355	92.12
349.583	89.12
349.81	82.12
350.037	87.12
350.265	110.12
350.492	95.12
350.72	96.12
350.947	106.12
351.174	120.12
351.402	122.12
351.629	127.12
351.856	101.12
352.083	114.12
352.311	120.12
352.538	115.12
352.765	107.12
352.992	127.12
353.22	128.12
353.447	115.12
353.674	110.12
353.901	96.12
354.128	94.12
354.355	103.12
354.583	111.12
354.81	94.12
355.037	99.12
355.264	98.12
355.491	104.12
355.718	115.12
355.945	96.12
356.172	77.12
356.399	98.12
356.626	95.12
356.853	122.12
357.08	92.12
357.307	103.12
357.534	81.12
357.761	97.12
357.988	97.12
358.215	76.12
358.441	95.12
358.668	95.12
358.895	96.12
359.122	92.12
359.349	88.12
359.576	92.12
359.802	94.12
360.029	130.12
360.256	122.12
360.483	99.12
360.709	108.12
360.936	106.12
361.163	90.12
361.39	99.12
361.616	101.12
361.843	94.12
362.07	100.12
362.296	96.12
362.523	102.12
362.749	98.12
362.976	99.12
363.203	89.12
363.429	88.12
363.656	91.12
363.882	88.12
364.109	105.12
364.335	94.12
364.562	87.12
364.788	85.12
365.015	100.12
365.241	112.12
365.468	126.12
365.694	112.12
365.92	105.12
366.147	91.12
366.373	88.12
366.599	102.12
366.826	103.12
367.052	104.12
367.278	82.12
367.505	92.12
367.731	93.12
367.957	98.12
368.184	88.12
368.41	112.12
368.636	138.12
368.862	126.12
369.089	133.12
369.315	91.12
369.541	104.12
369.767	107.12
369.993	80.12
370.219	85.12
370.445	102.12
370.672	95.12
370.898	103.12
371.124	74.12
371.35	91.12
371.576	93.12
371.802	80.12
372.028	94.12
372.254	112.12
372.48	84.12
372.706	90.12
372.932	88.12
373.158	96.12
373.384	85.12
373.61	93.12
373.835	108.12
374.061	93.12
374.287	103.12
374.513	106.12
374.739	93.12
374.965	97.12
375.191	91.12
375.416	88.12
375.642	90.12
375.868	99.12
376.094	89.12
376.319	89.12
376.545	85.12
376.771	98.12
376.997	79.12
377.222	100.12
377.448	91.12
377.674	72.12
377.899	85.12
378.125	98.12
378.35	78.12
378.576	82.12
378.802	87.12
379.027	91.12
379.253	90.12
379.478	94.12
379.704	84.12
379.929	99.12
380.155	94.12
380.38	101.12
380.606	96.12
380.831	97.12
381.057	88.12
381.282	89.12
381.507	86.12
381.733	92.12
381.958	99.12
382.184	112.12
382.409	100.12
382.634	98.12
382.86	93.12
383.085	99.12
383.31	93.12
383.535	103.12
383.761	114.12
383.986	97.12
384.211	96.12
384.436	106.12
384.662	97.12
384.887	98.12
385.112	85.12
385.337	100.12
385.562	102.12
385.787	119.12
386.013	120.12
386.238	106.12
386.463	118.12
386.688	106.12
386.913	108.12
387.138	106.12
387.363	100.12
387.588	99.12
387.813	91.12
388.038	111.12
388.263	100.12
388.488	119.12
388.713	103.12
388.938	91.12
389.163	83.12
389.387	100.12
389.612	97.12
389.837	93.12
390.062	96.12
390.287	101.12
390.512	96.12
390.736	80.12
390.961	82.12
391.186	85.12
391.411	82.12
391.636	105.12
391.86	87.12
392.085	73.12
392.31	91.12
392.534	85.12
392.759	78.12
392.984	85.12
393.208	126.12
393.433	157.12
393.658	116.12
393.882	100.12
394.107	85.12
394.331	90.12
394.556	95.12
394.78	101.12
395.005	85.12
395.229	88.12
395.454	93.12
395.678	97.12
395.903	110.12
396.127	82.12
396.352	92.12
396.576	89.12
396.801	102.12
397.025	143.12
397.249	111.12
397.474	90.12
397.698	76.12
397.922	86.12
398.147	92.12
398.371	78.12
398.595	92.12
398.82	89.12
399.044	85.12
399.268	88.12
399.492	73.12
399.717	91.12
399.941	89.12
400.165	101.12
400.389	99.12
400.613	91.12
400.837	85.12
401.062	86.12
401.286	100.12
401.51	90.12
401.734	95.12
401.958	109.12
402.182	144.12
402.406	191.12
402.63	154.12
402.854	106.12
403.078	108.12
403.302	88.12
403.526	101.12
403.75	97.12
403.974	94.12
404.198	89.12
404.422	88.12
404.645	95.12
404.869	85.12
405.093	104.12
405.317	114.12
405.541	117.12
405.765	105.12
405.988	131.12
406.212	208.12
406.436	294.12
406.66	189.12
406.883	117.12
407.107	107.12
407.331	90.12
407.555	121.12
407.778	126.12
408.002	106.12
408.226	92.12
408.449	87.12
408.673	96.12
408.896	90.12
409.12	92.12
409.344	102.12
409.567	96.12
409.791	97.12
410.014	88.12
410.238	94.12
410.461	85.12
410.685	110.12
410.908	103.12
411.132	97.12
411.355	94.12
411.578	72.12
411.802	97.12
412.025	96.12
412.249	102.12
412.472	113.12
412.695	115.12
412.919	87.12
413.142	96.12
413.365	88.12
413.589	81.12
413.812	83.12
414.035	81.12
414.258	81.12
414.482	96.12
414.705	71.12
414.928	97.12
415.151	104.12
415.374	100.12
415.597	87.12
415.821	83.12
416.044	92.12
416.267	92.12
416.49	99.12
416.713	92.12
416.936	84.12
417.159	100.12
417.382	92.12
417.605	79.12
417.828	105.12
418.051	94.12
418.274	96.12
418.497	84.12
418.72	80.12
418.943	83.12
419.166	94.12
419.389	87.12
419.611	84.12
419.834	87.12
420.057	84.12
420.28	93.12
420.503	103.12
420.726	79.12
420.948	84.12
421.171	95.12
421.394	85.12
421.617	98.12
421.839	93.12
422.062	97.12
422.285	98.12
422.507	105.12
422.73	125.12
422.953	120.12
423.175	93.12
423.398	90.12
423.621	76.12
423.843	74.12
424.066	67.12
424.288	81.12
424.511	92.12
424.733	101.12
424.956	113.12
425.178	91.12
425.401	93.12
425.623	115.12
425.846	92.12
426.068	101.12
426.291	101.12
426.513	88.12
426.735	94.12
426.958	95.12
427.18	127.12
427.402	163.12
427.625	216.12
427.847	187.12
428.069	149.12
428.292	113.12
428.514	84.12
428.736	91.12
428.958	77.12
429.181	101.12
429.403	83.12
429.625	76.12
429.847	91.12
430.069	103.12
430.292	104.12
430.514	84.12
430.736	86.12
430.958	79.12
431.18	78.12
431.402	95.12
431.624	90.12
431.846	81.12
432.068	79.12
432.29	80.12
432.512	96.12
432.734	96.12
432.956	97.12
433.178	103.12
433.4	99.12
433.622	92.12
433.844	100.12
434.066	84.12
434.287	95.12
434.509	96.12
434.731	85.12
434.953	83.12
435.175	84.12
435.397	98.12
435.618	100.12
435.84	97.12
436.062	127.12
436.284	125.12
436.505	124.12
436.727	104.12
436.949	104.12
437.17	84.12
437.392	94.12
437.614	101.12
437.835	112.12
438.057	143.12
438.278	129.12
438.5	122.12
438.721	103.12
438.943	103.12
439.165	96.12
439.386	92.12
439.608	93.12
439.829	101.12
440.05	145.12
440.272	185.12
440.493	115.12
440.715	82.12
440.936	91.12
441.158	85.12
441.379	85.12
441.6	89.12
441.822	112.12
442.043	100.12
442.264	102.12
442.486	105.12
442.707	96.12
442.928	100.12
443.149	159.12
443.371	151.12
443.592	140.12
443.813	128.12
444.034	119.12
444.255	91.12
444.476	90.12
444.698	91.12
444.919	93.12
445.14	117.12
445.361	127.12
445.582	115.12
445.803	159.12
446.024	160.12
446.245	150.12
446.466	125.12
446.687	96.12
446.908	87.12
447.129	105.12
447.35	106.12
447.571	92.12
447.792	100.12
448.013	102.12
448.234	98.12
448.455	119.12
448.675	108.12
448.896	138.12
449.117	120.12
449.338	111.12
449.559	111.12
449.779	150.12
450	107.12
450.221	106.12
450.442	93.12
450.662	110.12
450.883	113.12
451.104	110.12
451.324	118.12
451.545	96.12
451.766	93.12
451.986	78.12
452.207	80.12
452.428	100.12
452.648	104.12
452.869	128.12
453.089	112.12
453.31	136.12
453.53	93.12
453.751	95.12
453.971	122.12
454.192	118.12
454.412	97.12
454.633	88.12
454.853	89.12
455.073	78.12
455.294	96.12
455.514	111.12
455.734	90.12
455.955	80.12
456.175	81.12
456.395	81.12
456.616	84.12
456.836	88.12
457.056	83.12
457.276	93.12
457.497	96.12
457.717	81.12
457.937	94.12
458.157	89.12
458.377	100.12
458.598	132.12
458.818	204.12
459.038	207.12
459.258	135.12
459.478	105.12
459.698	94.12
459.918	94.12
460.138	92.12
460.358	83.12
460.578	77.12
460.798	90.12
461.018	91.12
461.238	88.12
461.458	96.12
461.678	74.12
461.898	92.12
462.118	85.12
462.338	79.12
462.558	81.12
462.777	100.12
462.997	84.12
463.217	89.12
463.437	94.12
463.657	77.12
463.876	85.12
464.096	85.12
464.316	104.12
464.536	112.12
464.755	103.12
464.975	117.12
465.195	219.12
465.414	214.12
465.634	111.12
465.854	87.12
466.073	99.12
466.293	103.12
466.512	89.12
466.732	86.12
466.951	89.12
467.171	80.12
467.391	101.12
467.61	117.12
467.829	110.12
468.049	194.12
468.268	253.12
468.488	108.12
468.707	83.12
468.927	98.12
469.146	80.12
469.365	97.12
469.585	89.12
469.804	101.12
470.023	96.12
470.243	91.12
470.462	114.12
470.681	129.12
470.901	109.12
471.12	87.12
471.339	94.12
471.558	79.12
471.777	109.12
471.997	148.12
472.216	307.12
472.435	592.12
472.654	196.12
472.873	106.12
473.092	80.12
473.311	82.12
473.53	79.12
473.749	80.12
473.968	103.12
474.187	113.12
474.406	106.12
474.625	95.12
474.844	81.12
475.063	97.12
475.282	88.12
475.501	89.12
475.72	93.12
475.939	82.12
476.158	91.12
476.377	91.12
476.596	92.12
476.814	96.12
477.033	104.12
477.252	105.12
477.471	80.12
477.69	82.12
477.908	100.12
478.127	99.12
478.346	84.12
478.564	85.12
478.783	100.12
479.002	103.12
479.22	96.12
479.439	95.12
479.658	112.12
479.876	110.12
480.095	101.12
480.313	92.12
480.532	114.12
480.751	135.12
480.969	295.12
481.188	1002.12
481.406	669.12
481.624	172.12
481.843	110.12
482.061	96.12
482.28	97.12
482.498	98.12
482.717	95.12
482.935	83.12
483.153	92.12
483.372	93.12
483.59	95.12
483.808	92.12
484.027	86.12
484.245	93.12
484.463	98.12
484.681	91.12
484.9	102.12
485.118	97.12
485.336	82.12
485.554	95.12
485.772	85.12
485.99	75.12
486.209	109.12
486.427	99.12
486.645	118.12
486.863	116.12
487.081	104.12
487.299	90.12
487.517	97.12
487.735	91.12
487.953	99.12
488.171	93.12
488.389	100.12
488.607	90.12
488.825	85.12
489.043	104.12
489.261	85.12
489.479	93.12
489.696	92.12
489.914	89.12
490.132	101.12
490.35	83.12
490.568	75.12
490.786	100.12
491.003	100.12
491.221	86.12
491.439	91.12
491.657	90.12
491.874	92.12
492.092	89.12
492.31	100.12
492.527	93.12
492.745	95.12
492.963	86.12
493.18	87.12
493.398	88.12
493.615	94.12
493.833	88.12
494.05	83.12
494.268	90.12
494.485	84.12
494.703	92.12
494.92	95.12
495.138	81.12
495.355	92.12
495.573	89.12
495.79	95.12
496.008	93.12
496.225	97.12
496.442	88.12
496.66	107.12
496.877	85.12
497.094	88.12
497.312	85.12
497.529	78.12
497.746	82.12
497.963	93.12
498.181	95.12
498.398	97.12
498.615	107.12
498.832	109.12
499.049	84.12
499.267	107.12
499.484	90.12
499.701	93.12
499.918	92.12
500.135	92.12
500.352	84.12
500.569	84.12
500.786	91.12
501.003	82.12
501.22	85.12
501.437	91.12
501.654	111.12
501.871	137.12
502.088	102.12
502.305	95.12
502.522	97.12
502.739	89.12
502.956	84.12
503.172	87.12
503.389	85.12
503.606	107.12
503.823	102.12
504.04	97.12
504.256	84.12
504.473	95.12
504.69	78.12
504.907	90.12
505.123	84.12
505.34	93.12
505.557	92.12
505.773	96.12
505.99	80.12
506.207	84.12
506.423	108.12
506.64	96.12
506.856	107.12
507.073	103.12
507.289	99.12
507.506	100.12
507.722	136.12
507.939	122.12
508.155	91.12
508.372	98.12
508.588	76.12
508.805	97.12
509.021	92.12
509.238	108.12
509.454	95.12
509.67	102.12
509.887	119.12
510.103	147.12
510.319	267.12
510.536	1012.12
510.752	3331.12
510.968	905.12
511.184	195.12
511.401	113.12
511.617	114.12
511.833	106.12
512.049	97.12
512.265	101.12
512.481	96.12
512.698	96.12
512.914	94.12
513.13	97.12
513.346	106.12
513.562	106.12
513.778	107.12
513.994	93.12
514.21	106.12
514.426	112.12
514.642	161.12
514.858	175.12
515.074	210.12
515.29	665.12
515.506	2407.12
515.721	883.12
515.937	222.12
516.153	134.12
516.369	101.12
516.585	102.12
516.801	87.12
517.016	100.12
517.232	104.12
517.448	89.12
517.664	108.12
517.879	96.12
518.095	94.12
518.311	104.12
518.527	112.12
518.742	91.12
518.958	97.12
519.173	108.12
519.389	87.12
519.605	91.12
519.82	109.12
520.036	111.12
520.251	139.12
520.467	114.12
520.682	128.12
520.898	143.12
521.113	135.12
521.329	170.12
521.544	273.12
521.76	858.12
521.975	3968.12
522.19	2406.12
522.406	470.12
522.621	153.12
522.836	115.12
523.052	114.12
523.267	98.12
523.482	112.12
523.698	108.12
523.913	139.12
524.128	129.12
524.343	109.12
524.559	92.12
524.774	104.12
524.989	91.12
525.204	117.12
525.419	104.12
525.634	107.12
525.849	107.12
526.064	108.12
526.28	86.12
526.495	88.12
526.71	107.12
526.925	93.12
527.14	72.12
527.355	101.12
527.57	82.12
527.785	90.12
527.999	103.12
528.214	101.12
528.429	91.12
528.644	96.12
528.859	94.12
529.074	106.12
529.289	144.12
529.503	248.12
529.718	116.12
529.933	105.12
530.148	102.12
530.363	88.12
530.577	90.12
530.792	87.12
531.007	106.12
531.221	86.12
531.436	91.12
531.651	90.12
531.865	88.12
532.08	101.12
532.295	106.12
532.509	94.12
532.724	81.12
532.938	98.12
533.153	96.12
533.367	99.12
533.582	96.12
533.796	106.12
534.011	80.12
534.225	85.12
534.44	93.12
534.654	101.12
534.868	92.12
535.083	89.12
535.297	111.12
535.511	116.12
535.726	131.12
535.94	96.12
536.154	104.12
536.369	83.12
536.583	100.12
536.797	85.12
537.011	99.12
537.225	103.12
537.44	86.12
537.654	88.12
537.868	94.12
538.082	99.12
538.296	81.12
538.51	97.12
538.724	91.12
538.938	99.12
539.153	93.12
539.367	112.12
539.581	111.12
539.795	108.12
540.009	105.12
540.222	92.12
540.436	94.12
540.65	87.12
540.864	82.12
541.078	122.12
541.292	95.12
541.506	96.12
541.72	97.12
541.934	75.12
542.147	90.12
542.361	100.12
542.575	100.12
542.789	97.12
543.002	88.12
543.216	102.12
543.43	95.12
543.644	104.12
543.857	97.12
544.071	102.12
544.285	82.12
544.498	92.12
544.712	107.12
544.925	94.12
545.139	79.12
545.352	81.12
545.566	83.12
545.779	96.12
545.993	100.12
546.206	96.12
546.42	89.12
546.633	100.12
546.847	81.12
547.06	93.12
547.274	92.12
547.487	87.12
547.7	99.12
547.914	80.12
548.127	74.12
548.34	83.12
548.554	95.12
548.767	84.12
548.98	92.12
549.193	84.12
549.407	85.12
549.62	96.12
549.833	83.12
550.046	104.12
550.259	99.12
550.473	111.12
550.686	86.12
550.899	89.12
551.112	101.12
551.325	88.12
551.538	92.12
551.751	89.12
551.964	89.12
552.177	84.12
552.39	87.12
552.603	93.12
552.816	99.12
553.029	88.12
553.242	103.12
553.455	114.12
553.667	120.12
553.88	115.12
554.093	92.12
554.306	98.12
554.519	90.12
554.732	87.12
554.944	91.12
555.157	92.12
555.37	83.12
555.583	91.12
555.795	89.12
556.008	96.12
556.221	83.12
556.433	96.12
556.646	89.12
556.859	85.12
557.071	91.12
557.284	75.12
557.496	85.12
557.709	95.12
557.921	88.12
558.134	92.12
558.346	93.12
558.559	97.12
558.771	84.12
558.984	84.12
559.196	100.12
559.409	93.12
559.621	98.12
559.833	87.12
560.046	94.12
560.258	87.12
560.47	95.12
560.683	80.12
560.895	101.12
561.107	81.12
561.32	95.12
561.532	83.12
561.744	104.12
561.956	92.12
562.168	83.12
562.381	92.12
562.593	88.12
562.805	91.12
563.017	94.12
563.229	100.12
563.441	101.12
563.653	100.12
563.865	75.12
564.077	97.12
564.289	94.12
564.501	112.12
564.713	89.12
564.925	98.12
565.137	104.12
565.349	108.12
565.561	96.12
565.773	89.12
565.985	90.12
566.197	91.12
566.408	97.12
566.62	95.12
566.832	79.12
567.044	85.12
567.255	87.12
567.467	88.12
567.679	93.12
567.891	93.12
568.102	97.12
568.314	80.12
568.526	71.12
568.737	89.12
568.949	92.12
569.161	92.12
569.372	86.12
569.584	94.12
569.795	97.12
570.007	113.12
570.218	317.12
570.43	160.12
570.641	97.12
570.853	84.12
571.064	98.12
571.276	94.12
571.487	89.12
571.698	92.12
571.91	98.12
572.121	98.12
572.333	90.12
572.544	101.12
572.755	103.12
572.966	84.12
573.178	85.12
573.389	81.12
573.6	94.12
573.811	82.12
574.023	88.12
574.234	75.12
574.445	80.12
574.656	78.12
574.867	90.12
575.078	92.12
575.289	109.12
575.501	95.12
575.712	94.12
575.923	95.12
576.134	89.12
576.345	102.12
576.556	84.12
576.767	94.12
576.978	96.12
577.188	98.12
577.399	87.12
577.61	104.12
577.821	113.12
578.032	118.12
578.243	329.12
578.454	1067.12
578.665	279.12
578.875	121.12
579.086	101.12
579.297	83.12
579.508	98.12
579.718	99.12
579.929	84.12
580.14	95.12
580.35	88.12
580.561	84.12
580.772	91.12
580.982	90.12
581.193	90.12
581.403	85.12
581.614	93.12
581.825	94.12
582.035	85.12
582.246	90.12
582.456	98.12
582.667	78.12
582.877	74.12
583.087	83.12
583.298	92.12
583.508	97.12
583.719	81.12
583.929	93.12
584.139	75.12
584.35	83.12
584.56	84.12
584.77	99.12
584.981	99.12
585.191	81.12
585.401	82.12
585.611	85.12
585.821	75.12
586.032	80.12
586.242	76.12
586.452	92.12
586.662	97.12
586.872	85.12
587.082	96.12
587.292	99.12
587.502	85.12
587.713	94.12
587.923	96.12
588.133	104.12
588.343	93.12
588.553	82.12
588.762	90.12
588.972	85.12
589.182	137.12
589.392	110.12
589.602	92.12
589.812	113.12
590.022	103.12
590.232	85.12
590.441	88.12
590.651	97.12
590.861	106.12
591.071	97.12
591.281	83.12
591.49	90.12
591.7	97.12
591.91	89.12
592.119	89.12
592.329	90.12
592.539	93.12
592.748	96.12
592.958	88.12
593.167	85.12
593.377	92.12
593.587	90.12
593.796	96.12
594.006	91.12
594.215	92.12
594.424	79.12
594.634	79.12
594.843	95.12
595.053	85.12
595.262	91.12
595.472	89.12
595.681	99.12
595.89	90.12
596.1	103.12
596.309	92.12
596.518	85.12
596.727	93.12
596.937	80.12
597.146	76.12
597.355	81.12
597.564	88.12
597.774	108.12
597.983	92.12
598.192	79.12
598.401	79.12
598.61	91.12
598.819	87.12
599.028	94.12
599.237	81.12
599.446	98.12
599.655	85.12
599.864	93.12
600.073	95.12
600.282	93.12
600.491	80.12
600.7	93.12
600.909	80.12
601.118	77.12
601.327	101.12
601.536	102.12
601.745	88.12
601.953	93.12
602.162	82.12
602.371	92.12
602.58	73.12
602.789	93.12
602.997	79.12
603.206	98.12
603.415	90.12
603.623	83.12
603.832	84.12
604.041	72.12
604.249	71.12
604.458	85.12
604.666	98.12
604.875	106.12
605.084	85.12
605.292	68.12
605.501	86.12
605.709	84.12
605.918	78.12
606.126	95.12
606.334	95.12
606.543	94.12
606.751	98.12
606.96	88.12
607.168	85.12
607.376	86.12
607.585	84.12
607.793	90.12
608.001	94.12
608.21	84.12
608.418	91.12
608.626	87.12
608.834	91.12
609.043	74.12
609.251	76.12
609.459	90.12
609.667	89.12
609.875	85.12
610.083	87.12
610.291	90.12
610.499	77.12
610.707	90.12
610.916	84.12
611.124	82.12
611.332	67.12
611.54	88.12
611.748	91.12
611.955	93.12
612.163	92.12
612.371	91.12
612.579	85.12
612.787	74.12
612.995	82.12
613.203	75.12
613.411	84.12
613.618	78.12
613.826	81.12
614.034	84.12
614.242	94.12
614.449	82.12
614.657	83.12
614.865	95.12
615.072	94.12
615.28	80.12
615.488	83.12
615.695	88.12
615.903	100.12
616.111	115.12
616.318	109.12
616.526	96.12
616.733	93.12
616.941	86.12
617.148	89.12
617.356	90.12
617.563	86.12
617.771	90.12
617.978	97.12
618.185	99.12
618.393	76.12
618.6	81.12
618.807	91.12
619.015	89.12
619.222	80.12
619.429	95.12
619.637	87.12
619.844	89.12
620.051	91.12
620.258	75.12
620.466	89.12
620.673	82.12
620.88	81.12
621.087	83.12
621.294	88.12
621.501	95.12
621.708	90.12
621.915	76.12
622.122	77.12
622.329	94.12
622.536	100.12
622.743	90.12
622.95	94.12
623.157	80.12
623.364	79.12
623.571	91.12
623.778	89.12
623.985	92.12
624.192	98.12
624.399	79.12
624.606	83.12
624.812	84.12
625.019	76.12
625.226	93.12
625.433	79.12
625.639	85.12
625.846	82.12
626.053	80.12
626.259	73.12
626.466	98.12
626.673	77.12
626.879	80.12
627.086	106.12
627.293	87.12
627.499	83.12
627.706	83.12
627.912	92.12
628.119	80.12
628.325	91.12
628.532	85.12
628.738	83.12
628.945	80.12
629.151	81.12
629.357	78.12
629.564	92.12
629.77	92.12
629.976	81.12
630.183	90.12
630.389	97.12
630.595	80.12
630.802	86.12
631.008	80.12
631.214	77.12
631.42	83.12
631.627	99.12
631.833	76.12
632.039	88.12
632.245	92.12
632.451	92.12
632.657	80.12
632.863	92.12
633.069	83.12
633.275	77.12
633.481	88.12
633.688	93.12
633.893	97.12
634.099	96.12
634.305	78.12
634.511	90.12
634.717	99.12
634.923	82.12
635.129	77.12
635.335	77.12
635.541	89.12
635.747	77.12
635.952	84.12
636.158	91.12
636.364	148.12
636.57	128.12
636.775	94.12
636.981	83.12
637.187	96.12
637.392	84.12
637.598	84.12
637.804	81.12
638.009	81.12
638.215	85.12
638.421	91.12
638.626	86.12
638.832	105.12
639.037	85.12
639.243	81.12
639.448	73.12
639.654	78.12
639.859	87.12
640.065	94.12
640.27	96.12
640.475	82.12
640.681	85.12
640.886	81.12
641.091	68.12
641.297	92.12
641.502	77.12
641.707	95.12
641.913	86.12
642.118	84.12
642.323	79.12
642.528	90.12
642.733	89.12
642.939	93.12
643.144	83.12
643.349	81.12
643.554	74.12
643.759	73.12
643.964	85.12
644.169	88.12
644.374	79.12
644.579	88.12
644.784	98.12
644.989	88.12
645.194	97.12
645.399	90.12
645.604	88.12
645.809	98.12
646.014	71.12
646.219	87.12
646.423	79.12
646.628	89.12
646.833	97.12
647.038	94.12
647.243	95.12
647.447	91.12
647.652	90.12
647.857	87.12
648.062	83.12
648.266	91.12
648.471	103.12
648.676	76.12
648.88	88.12
649.085	86.12
649.289	82.12
649.494	106.12
649.698	132.12
649.903	101.12
650.107	85.12
650.312	87.12
650.516	92.12
650.721	77.12
650.925	76.12
651.13	81.12
651.334	92.12
651.539	80.12
651.743	95.12
651.947	82.12
652.152	87.12
652.356	82.12
652.56	89.12
652.764	92.12
652.969	100.12
653.173	81.12
653.377	81.12
653.581	95.12
653.785	85.12
653.99	89.12
654.194	82.12
654.398	77.12
654.602	75.12
654.806	85.12
655.01	98.12
655.214	98.12
655.418	80.12
655.622	90.12
655.826	76.12
656.03	101.12
656.234	89.12
656.438	96.12
656.642	79.12
656.846	75.12
657.049	88.12
657.253	103.12
657.457	91.12
657.661	87.12
657.865	77.12
658.068	69.12
658.272	73.12
658.476	71.12
658.68	91.12
658.883	77.12
659.087	80.12
659.291	83.12
659.494	90.12
659.698	65.12
659.901	91.12
660.105	79.12
660.309	79.12
660.512	74.12
660.716	78.12
660.919	96.12
661.123	81.12
661.326	95.12
661.53	91.12
661.733	76.12
661.936	89.12
662.14	73.12
662.343	90.12
662.546	90.12
662.75	88.12
662.953	79.12
663.156	80.12
663.36	95.12
663.563	75.12
663.766	100.12
663.969	79.12
664.173	87.12
664.376	73.12
664.579	86.12
664.782	92.12
664.985	80.12
665.188	65.12
665.391	83.12
665.594	61.12
665.797	86.12
666	71.12
666.203	85.12
666.406	91.12
666.609	84.12
666.812	79.12
667.015	74.12
667.218	89.12
667.421	75.12
667.624	78.12
667.827	78.12
668.03	80.12
668.232	86.12
668.435	87.12
668.638	80.12
668.841	84.12
669.043	89.12
669.246	89.12
669.449	71.12
669.651	75.12
669.854	73.12
670.057	90.12
670.259	77.12
670.462	86.12
670.665	80.12
670.867	63.12
671.07	79.12
671.272	89.12
671.475	90.12
671.677	76.12
671.88	79.12
672.082	73.12
672.284	96.12
672.487	87.12
672.689	82.12
672.892	87.12
