Data from StdD_HRD10591_040.txt Node
Date: Fri May 16 15:31:41 EDT 2025
User: Yrep
Spectrometer: HR+D1059
Trigger mode: 1
Integration Time (sec): 1.000000E-1
Scans to average: 1
Electric dark correction enabled: true
Nonlinearity correction enabled: false
Boxcar width: 0
XAxis mode: Wavelengths
Number of Pixels in Spectrum: 2048
>>>>>Begin Spectral Data<<<<<
223.165	-15.38
223.4	-15.38
223.635	-15.38
223.869	-12.38
224.104	-19.38
224.338	-15.38
224.573	-23.38
224.808	-22.38
225.042	5.62
225.277	-0.38
225.511	-0.38
225.746	5.62
225.98	8.62
226.215	-1.38
226.449	18.62
226.683	13.62
226.918	24.62
227.152	33.62
227.387	32.62
227.621	30.62
227.856	54.62
228.09	47.62
228.324	48.62
228.559	56.62
228.793	64.62
229.027	80.62
229.262	71.62
229.496	64.62
229.73	58.62
229.964	67.62
230.199	64.62
230.433	66.62
230.667	84.62
230.901	70.62
231.136	81.62
231.37	76.62
231.604	65.62
231.838	87.62
232.072	83.62
232.306	78.62
232.541	74.62
232.775	65.62
233.009	71.62
233.243	65.62
233.477	82.62
233.711	70.62
233.945	86.62
234.179	80.62
234.413	90.62
234.647	71.62
234.881	66.62
235.115	88.62
235.349	80.62
235.583	75.62
235.817	90.62
236.051	75.62
236.285	77.62
236.519	78.62
236.753	63.62
236.987	80.62
237.221	59.62
237.455	85.62
237.689	87.62
237.922	90.62
238.156	81.62
238.39	81.62
238.624	71.62
238.858	66.62
239.091	69.62
239.325	91.62
239.559	87.62
239.793	73.62
240.027	79.62
240.26	70.62
240.494	80.62
240.728	68.62
240.961	77.62
241.195	76.62
241.429	79.62
241.662	69.62
241.896	87.62
242.13	71.62
242.363	82.62
242.597	80.62
242.83	80.62
243.064	76.62
243.298	77.62
243.531	76.62
243.765	73.62
243.998	65.62
244.232	77.62
244.465	67.62
244.699	66.62
244.932	69.62
245.166	85.62
245.399	69.62
245.633	72.62
245.866	71.62
246.099	65.62
246.333	86.62
246.566	81.62
246.8	82.62
247.033	78.62
247.266	80.62
247.5	77.62
247.733	59.62
247.966	71.62
248.2	81.62
248.433	88.62
248.666	78.62
248.899	83.62
249.133	88.62
249.366	73.62
249.599	78.62
249.832	76.62
250.066	82.62
250.299	72.62
250.532	88.62
250.765	78.62
250.998	75.62
251.231	74.62
251.465	80.62
251.698	81.62
251.931	77.62
252.164	77.62
252.397	66.62
252.63	81.62
252.863	82.62
253.096	80.62
253.329	89.62
253.562	75.62
253.795	86.62
254.028	78.62
254.261	86.62
254.494	74.62
254.727	89.62
254.96	73.62
255.193	63.62
255.426	83.62
255.659	74.62
255.892	89.62
256.124	68.62
256.357	81.62
256.59	81.62
256.823	80.62
257.056	87.62
257.289	85.62
257.521	80.62
257.754	82.62
257.987	78.62
258.22	85.62
258.452	79.62
258.685	88.62
258.918	81.62
259.151	70.62
259.383	73.62
259.616	67.62
259.849	77.62
260.081	76.62
260.314	72.62
260.547	84.62
260.779	81.62
261.012	73.62
261.244	93.62
261.477	72.62
261.71	85.62
261.942	79.62
262.175	82.62
262.407	75.62
262.64	77.62
262.872	75.62
263.105	82.62
263.337	83.62
263.57	75.62
263.802	94.62
264.035	86.62
264.267	59.62
264.499	81.62
264.732	79.62
264.964	82.62
265.197	74.62
265.429	82.62
265.661	73.62
265.894	80.62
266.126	78.62
266.358	80.62
266.591	80.62
266.823	90.62
267.055	79.62
267.287	87.62
267.52	70.62
267.752	71.62
267.984	69.62
268.216	64.62
268.448	77.62
268.681	88.62
268.913	81.62
269.145	75.62
269.377	85.62
269.609	74.62
269.841	77.62
270.073	83.62
270.306	78.62
270.538	87.62
270.77	90.62
271.002	75.62
271.234	77.62
271.466	75.62
271.698	91.62
271.93	74.62
272.162	77.62
272.394	82.62
272.626	87.62
272.858	94.62
273.09	82.62
273.322	91.62
273.553	92.62
273.785	69.62
274.017	74.62
274.249	82.62
274.481	74.62
274.713	79.62
274.945	81.62
275.176	74.62
275.408	91.62
275.64	73.62
275.872	74.62
276.104	85.62
276.335	81.62
276.567	76.62
276.799	81.62
277.031	88.62
277.262	95.62
277.494	80.62
277.726	76.62
277.957	92.62
278.189	81.62
278.421	90.62
278.652	83.62
278.884	79.62
279.115	86.62
279.347	84.62
279.579	80.62
279.81	77.62
280.042	66.62
280.273	74.62
280.505	81.62
280.736	83.62
280.968	84.62
281.199	69.62
281.431	90.62
281.662	82.62
281.894	86.62
282.125	75.62
282.356	68.62
282.588	73.62
282.819	87.62
283.051	100.62
283.282	89.62
283.513	94.62
283.745	89.62
283.976	93.62
284.207	81.62
284.439	64.62
284.67	80.62
284.901	72.62
285.132	88.62
285.364	93.62
285.595	75.62
285.826	78.62
286.057	86.62
286.288	74.62
286.52	88.62
286.751	95.62
286.982	88.62
287.213	91.62
287.444	77.62
287.675	80.62
287.906	74.62
288.138	82.62
288.369	62.62
288.6	69.62
288.831	77.62
289.062	94.62
289.293	80.62
289.524	80.62
289.755	77.62
289.986	80.62
290.217	83.62
290.448	87.62
290.679	71.62
290.91	91.62
291.141	70.62
291.371	84.62
291.602	74.62
291.833	88.62
292.064	94.62
292.295	85.62
292.526	91.62
292.757	71.62
292.987	73.62
293.218	75.62
293.449	62.62
293.68	77.62
293.91	83.62
294.141	96.62
294.372	89.62
294.603	93.62
294.833	77.62
295.064	85.62
295.295	92.62
295.525	79.62
295.756	89.62
295.987	74.62
296.217	81.62
296.448	93.62
296.679	89.62
296.909	71.62
297.14	79.62
297.37	87.62
297.601	70.62
297.831	76.62
298.062	88.62
298.292	89.62
298.523	89.62
298.753	105.62
298.984	96.62
299.214	80.62
299.445	76.62
299.675	88.62
299.905	77.62
300.136	89.62
300.366	80.62
300.597	71.62
300.827	74.62
301.057	71.62
301.288	92.62
301.518	87.62
301.748	79.62
301.979	84.62
302.209	83.62
302.439	76.62
302.669	78.62
302.9	85.62
303.13	86.62
303.36	81.62
303.59	76.62
303.82	87.62
304.051	81.62
304.281	84.62
304.511	99.62
304.741	77.62
304.971	73.62
305.201	91.62
305.431	86.62
305.661	86.62
305.891	94.62
306.121	78.62
306.352	90.62
306.582	82.62
306.812	94.62
307.042	66.62
307.272	86.62
307.502	86.62
307.731	89.62
307.961	92.62
308.191	90.62
308.421	96.62
308.651	93.62
308.881	76.62
309.111	76.62
309.341	74.62
309.571	77.62
309.8	84.62
310.03	94.62
310.26	88.62
310.49	87.62
310.72	85.62
310.949	82.62
311.179	74.62
311.409	93.62
311.639	81.62
311.868	86.62
312.098	80.62
312.328	74.62
312.557	89.62
312.787	75.62
313.017	83.62
313.246	97.62
313.476	78.62
313.706	87.62
313.935	78.62
314.165	81.62
314.394	79.62
314.624	83.62
314.853	85.62
315.083	87.62
315.312	93.62
315.542	76.62
315.771	79.62
316.001	82.62
316.23	89.62
316.46	69.62
316.689	83.62
316.919	75.62
317.148	86.62
317.377	82.62
317.607	86.62
317.836	89.62
318.065	73.62
318.295	96.62
318.524	74.62
318.753	83.62
318.983	86.62
319.212	77.62
319.441	79.62
319.67	75.62
319.9	90.62
320.129	94.62
320.358	72.62
320.587	66.62
320.816	73.62
321.046	75.62
321.275	73.62
321.504	87.62
321.733	76.62
321.962	90.62
322.191	93.62
322.42	78.62
322.649	87.62
322.878	96.62
323.108	80.62
323.337	73.62
323.566	80.62
323.795	72.62
324.024	76.62
324.253	78.62
324.482	90.62
324.71	80.62
324.939	94.62
325.168	85.62
325.397	97.62
325.626	82.62
325.855	75.62
326.084	96.62
326.313	81.62
326.542	92.62
326.77	94.62
326.999	72.62
327.228	79.62
327.457	75.62
327.686	90.62
327.914	86.62
328.143	91.62
328.372	69.62
328.6	83.62
328.829	78.62
329.058	94.62
329.287	82.62
329.515	84.62
329.744	89.62
329.972	86.62
330.201	98.62
330.43	92.62
330.658	95.62
330.887	86.62
331.115	83.62
331.344	94.62
331.572	97.62
331.801	86.62
332.03	79.62
332.258	75.62
332.486	84.62
332.715	82.62
332.943	74.62
333.172	74.62
333.4	75.62
333.629	84.62
333.857	86.62
334.085	82.62
334.314	76.62
334.542	82.62
334.771	73.62
334.999	82.62
335.227	78.62
335.455	80.62
335.684	72.62
335.912	82.62
336.14	86.62
336.369	87.62
336.597	74.62
336.825	83.62
337.053	63.62
337.281	85.62
337.51	90.62
337.738	83.62
337.966	74.62
338.194	69.62
338.422	77.62
338.65	67.62
338.878	98.62
339.106	84.62
339.334	77.62
339.562	86.62
339.79	81.62
340.018	81.62
340.246	75.62
340.474	80.62
340.702	89.62
340.93	84.62
341.158	73.62
341.386	79.62
341.614	75.62
341.842	77.62
342.07	77.62
342.298	89.62
342.526	87.62
342.754	70.62
342.981	85.62
343.209	68.62
343.437	80.62
343.665	82.62
343.893	93.62
344.12	95.62
344.348	84.62
344.576	65.62
344.804	80.62
345.031	77.62
345.259	86.62
345.487	88.62
345.714	89.62
345.942	77.62
346.17	74.62
346.397	90.62
346.625	83.62
346.853	79.62
347.08	102.62
347.308	81.62
347.535	89.62
347.763	74.62
347.99	77.62
348.218	82.62
348.445	86.62
348.673	82.62
348.9	96.62
349.128	89.62
349.355	85.62
349.583	90.62
349.81	90.62
350.037	92.62
350.265	85.62
350.492	74.62
350.72	83.62
350.947	80.62
351.174	83.62
351.402	85.62
351.629	78.62
351.856	102.62
352.083	76.62
352.311	93.62
352.538	86.62
352.765	79.62
352.992	90.62
353.22	88.62
353.447	87.62
353.674	75.62
353.901	78.62
354.128	84.62
354.355	74.62
354.583	81.62
354.81	88.62
355.037	81.62
355.264	95.62
355.491	89.62
355.718	85.62
355.945	83.62
356.172	86.62
356.399	99.62
356.626	84.62
356.853	64.62
357.08	81.62
357.307	93.62
357.534	90.62
357.761	75.62
357.988	93.62
358.215	86.62
358.441	79.62
358.668	79.62
358.895	86.62
359.122	85.62
359.349	69.62
359.576	76.62
359.802	76.62
360.029	81.62
360.256	74.62
360.483	71.62
360.709	93.62
360.936	93.62
361.163	79.62
361.39	86.62
361.616	75.62
361.843	86.62
362.07	71.62
362.296	75.62
362.523	83.62
362.749	93.62
362.976	90.62
363.203	87.62
363.429	77.62
363.656	82.62
363.882	80.62
364.109	81.62
364.335	67.62
364.562	80.62
364.788	74.62
365.015	77.62
365.241	75.62
365.468	84.62
365.694	85.62
365.92	96.62
366.147	86.62
366.373	85.62
366.599	78.62
366.826	84.62
367.052	89.62
367.278	77.62
367.505	85.62
367.731	73.62
367.957	75.62
368.184	102.62
368.41	93.62
368.636	85.62
368.862	85.62
369.089	86.62
369.315	82.62
369.541	90.62
369.767	82.62
369.993	95.62
370.219	83.62
370.445	65.62
370.672	81.62
370.898	85.62
371.124	77.62
371.35	88.62
371.576	81.62
371.802	72.62
372.028	81.62
372.254	73.62
372.48	94.62
372.706	85.62
372.932	83.62
373.158	77.62
373.384	87.62
373.61	75.62
373.835	82.62
374.061	76.62
374.287	85.62
374.513	73.62
374.739	74.62
374.965	69.62
375.191	82.62
375.416	77.62
375.642	82.62
375.868	86.62
376.094	75.62
376.319	93.62
376.545	78.62
376.771	99.62
376.997	75.62
377.222	67.62
377.448	81.62
377.674	88.62
377.899	86.62
378.125	75.62
378.35	81.62
378.576	78.62
378.802	93.62
379.027	91.62
379.253	76.62
379.478	88.62
379.704	90.62
379.929	71.62
380.155	73.62
380.38	94.62
380.606	89.62
380.831	77.62
381.057	98.62
381.282	96.62
381.507	74.62
381.733	81.62
381.958	75.62
382.184	85.62
382.409	87.62
382.634	71.62
382.86	85.62
383.085	75.62
383.31	66.62
383.535	75.62
383.761	96.62
383.986	81.62
384.211	74.62
384.436	81.62
384.662	96.62
384.887	89.62
385.112	79.62
385.337	79.62
385.562	83.62
385.787	78.62
386.013	75.62
386.238	75.62
386.463	81.62
386.688	97.62
386.913	86.62
387.138	92.62
387.363	72.62
387.588	88.62
387.813	94.62
388.038	81.62
388.263	77.62
388.488	88.62
388.713	95.62
388.938	86.62
389.163	81.62
389.387	88.62
389.612	92.62
389.837	79.62
390.062	86.62
390.287	81.62
390.512	73.62
390.736	66.62
390.961	79.62
391.186	77.62
391.411	89.62
391.636	74.62
391.86	85.62
392.085	80.62
392.31	87.62
392.534	80.62
392.759	81.62
392.984	83.62
393.208	74.62
393.433	84.62
393.658	79.62
393.882	78.62
394.107	83.62
394.331	79.62
394.556	82.62
394.78	63.62
395.005	82.62
395.229	78.62
395.454	90.62
395.678	94.62
395.903	94.62
396.127	89.62
396.352	77.62
396.576	86.62
396.801	87.62
397.025	63.62
397.249	78.62
397.474	78.62
397.698	77.62
397.922	78.62
398.147	86.62
398.371	76.62
398.595	81.62
398.82	86.62
399.044	96.62
399.268	82.62
399.492	90.62
399.717	79.62
399.941	81.62
400.165	75.62
400.389	81.62
400.613	74.62
400.837	90.62
401.062	75.62
401.286	88.62
401.51	73.62
401.734	90.62
401.958	87.62
402.182	93.62
402.406	77.62
402.63	85.62
402.854	79.62
403.078	73.62
403.302	84.62
403.526	88.62
403.75	86.62
403.974	90.62
404.198	83.62
404.422	74.62
404.645	82.62
404.869	67.62
405.093	84.62
405.317	90.62
405.541	71.62
405.765	64.62
405.988	73.62
406.212	88.62
406.436	81.62
406.66	94.62
406.883	78.62
407.107	83.62
407.331	87.62
407.555	81.62
407.778	67.62
408.002	78.62
408.226	91.62
408.449	94.62
408.673	85.62
408.896	72.62
409.12	75.62
409.344	82.62
409.567	90.62
409.791	87.62
410.014	74.62
410.238	75.62
410.461	79.62
410.685	74.62
410.908	85.62
411.132	95.62
411.355	89.62
411.578	85.62
411.802	72.62
412.025	76.62
412.249	91.62
412.472	63.62
412.695	81.62
412.919	97.62
413.142	82.62
413.365	78.62
413.589	79.62
413.812	84.62
414.035	97.62
414.258	78.62
414.482	82.62
414.705	90.62
414.928	77.62
415.151	94.62
415.374	88.62
415.597	89.62
415.821	72.62
416.044	67.62
416.267	85.62
416.49	76.62
416.713	72.62
416.936	82.62
417.159	82.62
417.382	82.62
417.605	81.62
417.828	81.62
418.051	75.62
418.274	78.62
418.497	77.62
418.72	76.62
418.943	89.62
419.166	82.62
419.389	75.62
419.611	78.62
419.834	80.62
420.057	82.62
420.28	70.62
420.503	85.62
420.726	87.62
420.948	64.62
421.171	81.62
421.394	77.62
421.617	81.62
421.839	88.62
422.062	74.62
422.285	77.62
422.507	67.62
422.73	71.62
422.953	88.62
423.175	78.62
423.398	85.62
423.621	82.62
423.843	72.62
424.066	58.62
424.288	99.62
424.511	86.62
424.733	81.62
424.956	74.62
425.178	84.62
425.401	81.62
425.623	85.62
425.846	79.62
426.068	71.62
426.291	73.62
426.513	93.62
426.735	82.62
426.958	79.62
427.18	75.62
427.402	66.62
427.625	78.62
427.847	83.62
428.069	70.62
428.292	71.62
428.514	89.62
428.736	71.62
428.958	85.62
429.181	96.62
429.403	106.62
429.625	78.62
429.847	87.62
430.069	87.62
430.292	74.62
430.514	78.62
430.736	84.62
430.958	83.62
431.18	69.62
431.402	91.62
431.624	98.62
431.846	69.62
432.068	80.62
432.29	68.62
432.512	82.62
432.734	57.62
432.956	64.62
433.178	89.62
433.4	87.62
433.622	85.62
433.844	65.62
434.066	81.62
434.287	77.62
434.509	86.62
434.731	79.62
434.953	91.62
435.175	76.62
435.397	90.62
435.618	75.62
435.84	80.62
436.062	70.62
436.284	91.62
436.505	74.62
436.727	95.62
436.949	89.62
437.17	89.62
437.392	74.62
437.614	88.62
437.835	75.62
438.057	78.62
438.278	91.62
438.5	89.62
438.721	90.62
438.943	87.62
439.165	74.62
439.386	83.62
439.608	82.62
439.829	68.62
440.05	80.62
440.272	90.62
440.493	67.62
440.715	77.62
440.936	90.62
441.158	87.62
441.379	78.62
441.6	70.62
441.822	86.62
442.043	87.62
442.264	88.62
442.486	87.62
442.707	91.62
442.928	78.62
443.149	87.62
443.371	85.62
443.592	78.62
443.813	85.62
444.034	83.62
444.255	91.62
444.476	78.62
444.698	73.62
444.919	88.62
445.14	160.62
445.361	111.62
445.582	87.62
445.803	67.62
446.024	71.62
446.245	88.62
446.466	83.62
446.687	77.62
446.908	73.62
447.129	85.62
447.35	85.62
447.571	89.62
447.792	88.62
448.013	81.62
448.234	91.62
448.455	82.62
448.675	77.62
448.896	72.62
449.117	100.62
449.338	75.62
449.559	83.62
449.779	80.62
450	83.62
450.221	84.62
450.442	82.62
450.662	75.62
450.883	88.62
451.104	91.62
451.324	89.62
451.545	77.62
451.766	75.62
451.986	73.62
452.207	80.62
452.428	77.62
452.648	88.62
452.869	80.62
453.089	93.62
453.31	76.62
453.53	88.62
453.751	77.62
453.971	78.62
454.192	82.62
454.412	82.62
454.633	81.62
454.853	73.62
455.073	71.62
455.294	93.62
455.514	93.62
455.734	82.62
455.955	87.62
456.175	80.62
456.395	73.62
456.616	88.62
456.836	80.62
457.056	78.62
457.276	79.62
457.497	75.62
457.717	78.62
457.937	77.62
458.157	87.62
458.377	85.62
458.598	71.62
458.818	77.62
459.038	77.62
459.258	83.62
459.478	89.62
459.698	79.62
459.918	85.62
460.138	70.62
460.358	72.62
460.578	81.62
460.798	86.62
461.018	73.62
461.238	75.62
461.458	85.62
461.678	83.62
461.898	76.62
462.118	98.62
462.338	78.62
462.558	85.62
462.777	71.62
462.997	82.62
463.217	73.62
463.437	92.62
463.657	75.62
463.876	71.62
464.096	78.62
464.316	88.62
464.536	88.62
464.755	92.62
464.975	87.62
465.195	73.62
465.414	74.62
465.634	81.62
465.854	79.62
466.073	80.62
466.293	81.62
466.512	81.62
466.732	75.62
466.951	91.62
467.171	87.62
467.391	79.62
467.61	88.62
467.829	92.62
468.049	94.62
468.268	85.62
468.488	74.62
468.707	83.62
468.927	97.62
469.146	88.62
469.365	88.62
469.585	83.62
469.804	89.62
470.023	78.62
470.243	87.62
470.462	85.62
470.681	66.62
470.901	71.62
471.12	86.62
471.339	86.62
471.558	110.62
471.777	91.62
471.997	85.62
472.216	78.62
472.435	88.62
472.654	88.62
472.873	78.62
473.092	85.62
473.311	89.62
473.53	95.62
473.749	79.62
473.968	83.62
474.187	96.62
474.406	86.62
474.625	72.62
474.844	87.62
475.063	93.62
475.282	89.62
475.501	85.62
475.72	86.62
475.939	89.62
476.158	80.62
476.377	78.62
476.596	78.62
476.814	78.62
477.033	96.62
477.252	85.62
477.471	77.62
477.69	83.62
477.908	85.62
478.127	91.62
478.346	77.62
478.564	85.62
478.783	79.62
479.002	82.62
479.22	78.62
479.439	76.62
479.658	81.62
479.876	70.62
480.095	86.62
480.313	89.62
480.532	89.62
480.751	81.62
480.969	76.62
481.188	66.62
481.406	66.62
481.624	99.62
481.843	83.62
482.061	86.62
482.28	77.62
482.498	87.62
482.717	87.62
482.935	90.62
483.153	83.62
483.372	84.62
483.59	74.62
483.808	80.62
484.027	82.62
484.245	78.62
484.463	86.62
484.681	82.62
484.9	84.62
485.118	63.62
485.336	72.62
485.554	83.62
485.772	89.62
485.99	79.62
486.209	83.62
486.427	80.62
486.645	89.62
486.863	92.62
487.081	85.62
487.299	88.62
487.517	82.62
487.735	80.62
487.953	79.62
488.171	86.62
488.389	91.62
488.607	83.62
488.825	83.62
489.043	81.62
489.261	82.62
489.479	78.62
489.696	83.62
489.914	75.62
490.132	74.62
490.35	90.62
490.568	106.62
490.786	92.62
491.003	79.62
491.221	85.62
491.439	88.62
491.657	85.62
491.874	91.62
492.092	98.62
492.31	82.62
492.527	91.62
492.745	69.62
492.963	80.62
493.18	96.62
493.398	88.62
493.615	95.62
493.833	83.62
494.05	83.62
494.268	87.62
494.485	82.62
494.703	76.62
494.92	90.62
495.138	88.62
495.355	83.62
495.573	91.62
495.79	91.62
496.008	105.62
496.225	94.62
496.442	89.62
496.66	95.62
496.877	91.62
497.094	83.62
497.312	80.62
497.529	71.62
497.746	77.62
497.963	74.62
498.181	89.62
498.398	83.62
498.615	95.62
498.832	82.62
499.049	76.62
499.267	80.62
499.484	89.62
499.701	85.62
499.918	94.62
500.135	78.62
500.352	83.62
500.569	88.62
500.786	91.62
501.003	93.62
501.22	95.62
501.437	82.62
501.654	72.62
501.871	81.62
502.088	77.62
502.305	74.62
502.522	83.62
502.739	90.62
502.956	99.62
503.172	81.62
503.389	78.62
503.606	82.62
503.823	92.62
504.04	73.62
504.256	76.62
504.473	90.62
504.69	83.62
504.907	78.62
505.123	91.62
505.34	77.62
505.557	65.62
505.773	76.62
505.99	76.62
506.207	75.62
506.423	79.62
506.64	79.62
506.856	76.62
507.073	91.62
507.289	88.62
507.506	75.62
507.722	88.62
507.939	75.62
508.155	80.62
508.372	84.62
508.588	83.62
508.805	83.62
509.021	79.62
509.238	94.62
509.454	80.62
509.67	83.62
509.887	70.62
510.103	77.62
510.319	81.62
510.536	89.62
510.752	85.62
510.968	85.62
511.184	90.62
511.401	67.62
511.617	90.62
511.833	79.62
512.049	87.62
512.265	79.62
512.481	74.62
512.698	78.62
512.914	91.62
513.13	74.62
513.346	83.62
513.562	81.62
513.778	80.62
513.994	71.62
514.21	75.62
514.426	80.62
514.642	71.62
514.858	93.62
515.074	87.62
515.29	78.62
515.506	61.62
515.721	91.62
515.937	86.62
516.153	81.62
516.369	58.62
516.585	67.62
516.801	97.62
517.016	87.62
517.232	82.62
517.448	85.62
517.664	79.62
517.879	88.62
518.095	93.62
518.311	94.62
518.527	94.62
518.742	85.62
518.958	86.62
519.173	85.62
519.389	81.62
519.605	71.62
519.82	71.62
520.036	80.62
520.251	75.62
520.467	85.62
520.682	95.62
520.898	80.62
521.113	69.62
521.329	90.62
521.544	87.62
521.76	82.62
521.975	89.62
522.19	89.62
522.406	80.62
522.621	88.62
522.836	78.62
523.052	71.62
523.267	82.62
523.482	66.62
523.698	79.62
523.913	93.62
524.128	84.62
524.343	85.62
524.559	85.62
524.774	79.62
524.989	79.62
525.204	84.62
525.419	79.62
525.634	77.62
525.849	72.62
526.064	92.62
526.28	74.62
526.495	91.62
526.71	71.62
526.925	70.62
527.14	78.62
527.355	90.62
527.57	71.62
527.785	85.62
527.999	82.62
528.214	82.62
528.429	86.62
528.644	74.62
528.859	97.62
529.074	78.62
529.289	98.62
529.503	75.62
529.718	89.62
529.933	67.62
530.148	86.62
530.363	79.62
530.577	82.62
530.792	81.62
531.007	82.62
531.221	90.62
531.436	96.62
531.651	75.62
531.865	82.62
532.08	86.62
532.295	86.62
532.509	77.62
532.724	76.62
532.938	82.62
533.153	97.62
533.367	93.62
533.582	70.62
533.796	78.62
534.011	80.62
534.225	69.62
534.44	71.62
534.654	88.62
534.868	89.62
535.083	86.62
535.297	85.62
535.511	66.62
535.726	83.62
535.94	75.62
536.154	91.62
536.369	91.62
536.583	94.62
536.797	72.62
537.011	94.62
537.225	76.62
537.44	78.62
537.654	82.62
537.868	81.62
538.082	73.62
538.296	88.62
538.51	77.62
538.724	87.62
538.938	89.62
539.153	80.62
539.367	84.62
539.581	87.62
539.795	78.62
540.009	73.62
540.222	87.62
540.436	93.62
540.65	92.62
540.864	77.62
541.078	85.62
541.292	95.62
541.506	86.62
541.72	79.62
541.934	90.62
542.147	85.62
542.361	82.62
542.575	77.62
542.789	88.62
543.002	75.62
543.216	82.62
543.43	95.62
543.644	67.62
543.857	79.62
544.071	92.62
544.285	92.62
544.498	100.62
544.712	89.62
544.925	82.62
545.139	89.62
545.352	92.62
545.566	88.62
545.779	91.62
545.993	101.62
546.206	93.62
546.42	97.62
546.633	87.62
546.847	86.62
547.06	73.62
547.274	93.62
547.487	79.62
547.7	86.62
547.914	95.62
548.127	93.62
548.34	88.62
548.554	101.62
548.767	83.62
548.98	82.62
549.193	83.62
549.407	86.62
549.62	80.62
549.833	85.62
550.046	83.62
550.259	75.62
550.473	87.62
550.686	87.62
550.899	85.62
551.112	81.62
551.325	88.62
551.538	86.62
551.751	94.62
551.964	74.62
552.177	88.62
552.39	85.62
552.603	82.62
552.816	83.62
553.029	97.62
553.242	80.62
553.455	94.62
553.667	89.62
553.88	87.62
554.093	74.62
554.306	83.62
554.519	91.62
554.732	87.62
554.944	94.62
555.157	74.62
555.37	71.62
555.583	101.62
555.795	89.62
556.008	74.62
556.221	86.62
556.433	85.62
556.646	72.62
556.859	106.62
557.071	99.62
557.284	85.62
557.496	81.62
557.709	96.62
557.921	89.62
558.134	92.62
558.346	89.62
558.559	94.62
558.771	77.62
558.984	91.62
559.196	93.62
559.409	93.62
559.621	109.62
559.833	94.62
560.046	99.62
560.258	81.62
560.47	87.62
560.683	91.62
560.895	70.62
561.107	88.62
561.32	91.62
561.532	65.62
561.744	95.62
561.956	82.62
562.168	81.62
562.381	78.62
562.593	83.62
562.805	98.62
563.017	97.62
563.229	83.62
563.441	80.62
563.653	79.62
563.865	92.62
564.077	77.62
564.289	82.62
564.501	90.62
564.713	83.62
564.925	86.62
565.137	95.62
565.349	89.62
565.561	84.62
565.773	83.62
565.985	80.62
566.197	78.62
566.408	77.62
566.62	90.62
566.832	77.62
567.044	87.62
567.255	77.62
567.467	83.62
567.679	92.62
567.891	88.62
568.102	77.62
568.314	88.62
568.526	79.62
568.737	80.62
568.949	98.62
569.161	82.62
569.372	80.62
569.584	79.62
569.795	88.62
570.007	84.62
570.218	104.62
570.43	89.62
570.641	78.62
570.853	78.62
571.064	76.62
571.276	70.62
571.487	79.62
571.698	78.62
571.91	85.62
572.121	80.62
572.333	86.62
572.544	89.62
572.755	86.62
572.966	90.62
573.178	86.62
573.389	87.62
573.6	94.62
573.811	93.62
574.023	80.62
574.234	77.62
574.445	79.62
574.656	93.62
574.867	84.62
575.078	81.62
575.289	86.62
575.501	93.62
575.712	89.62
575.923	75.62
576.134	92.62
576.345	86.62
576.556	83.62
576.767	82.62
576.978	85.62
577.188	88.62
577.399	86.62
577.61	77.62
577.821	88.62
578.032	91.62
578.243	79.62
578.454	101.62
578.665	71.62
578.875	78.62
579.086	84.62
579.297	92.62
579.508	93.62
579.718	87.62
579.929	106.62
580.14	98.62
580.35	85.62
580.561	102.62
580.772	82.62
580.982	83.62
581.193	87.62
581.403	78.62
581.614	86.62
581.825	82.62
582.035	88.62
582.246	82.62
582.456	76.62
582.667	74.62
582.877	77.62
583.087	78.62
583.298	85.62
583.508	83.62
583.719	88.62
583.929	104.62
584.139	90.62
584.35	73.62
584.56	93.62
584.77	89.62
584.981	87.62
585.191	80.62
585.401	82.62
585.611	78.62
585.821	80.62
586.032	71.62
586.242	85.62
586.452	82.62
586.662	87.62
586.872	81.62
587.082	96.62
587.292	78.62
587.502	74.62
587.713	76.62
587.923	80.62
588.133	79.62
588.343	66.62
588.553	92.62
588.762	86.62
588.972	93.62
589.182	85.62
589.392	73.62
589.602	98.62
589.812	70.62
590.022	87.62
590.232	73.62
590.441	82.62
590.651	83.62
590.861	79.62
591.071	89.62
591.281	81.62
591.49	86.62
591.7	80.62
591.91	94.62
592.119	91.62
592.329	77.62
592.539	80.62
592.748	99.62
592.958	80.62
593.167	80.62
593.377	81.62
593.587	80.62
593.796	88.62
594.006	75.62
594.215	80.62
594.424	81.62
594.634	95.62
594.843	99.62
595.053	81.62
595.262	89.62
595.472	87.62
595.681	102.62
595.89	75.62
596.1	79.62
596.309	93.62
596.518	79.62
596.727	74.62
596.937	88.62
597.146	86.62
597.355	75.62
597.564	80.62
597.774	85.62
597.983	81.62
598.192	80.62
598.401	94.62
598.61	67.62
598.819	76.62
599.028	84.62
599.237	85.62
599.446	81.62
599.655	84.62
599.864	86.62
600.073	93.62
600.282	86.62
600.491	92.62
600.7	99.62
600.909	83.62
601.118	79.62
601.327	68.62
601.536	85.62
601.745	75.62
601.953	89.62
602.162	89.62
602.371	74.62
602.58	72.62
602.789	87.62
602.997	90.62
603.206	90.62
603.415	72.62
603.623	83.62
603.832	84.62
604.041	87.62
604.249	82.62
604.458	81.62
604.666	89.62
604.875	76.62
605.084	87.62
605.292	70.62
605.501	78.62
605.709	80.62
605.918	68.62
606.126	84.62
606.334	75.62
606.543	89.62
606.751	98.62
606.96	86.62
607.168	89.62
607.376	80.62
607.585	94.62
607.793	86.62
608.001	72.62
608.21	92.62
608.418	83.62
608.626	83.62
608.834	78.62
609.043	85.62
609.251	86.62
609.459	84.62
609.667	77.62
609.875	79.62
610.083	80.62
610.291	88.62
610.499	95.62
610.707	83.62
610.916	83.62
611.124	80.62
611.332	76.62
611.54	85.62
611.748	81.62
611.955	89.62
612.163	78.62
612.371	62.62
612.579	77.62
612.787	82.62
612.995	80.62
613.203	80.62
613.411	77.62
613.618	87.62
613.826	90.62
614.034	88.62
614.242	85.62
614.449	80.62
614.657	91.62
614.865	82.62
615.072	84.62
615.28	77.62
615.488	79.62
615.695	79.62
615.903	86.62
616.111	84.62
616.318	75.62
616.526	87.62
616.733	83.62
616.941	88.62
617.148	87.62
617.356	81.62
617.563	84.62
617.771	78.62
617.978	82.62
618.185	85.62
618.393	81.62
618.6	78.62
618.807	85.62
619.015	87.62
619.222	85.62
619.429	84.62
619.637	73.62
619.844	85.62
620.051	82.62
620.258	85.62
620.466	77.62
620.673	75.62
620.88	82.62
621.087	80.62
621.294	74.62
621.501	87.62
621.708	87.62
621.915	88.62
622.122	89.62
622.329	90.62
622.536	90.62
622.743	90.62
622.95	87.62
623.157	85.62
623.364	79.62
623.571	85.62
623.778	92.62
623.985	83.62
624.192	82.62
624.399	92.62
624.606	90.62
624.812	97.62
625.019	84.62
625.226	87.62
625.433	75.62
625.639	85.62
625.846	65.62
626.053	87.62
626.259	78.62
626.466	89.62
626.673	91.62
626.879	78.62
627.086	94.62
627.293	87.62
627.499	88.62
627.706	86.62
627.912	87.62
628.119	80.62
628.325	101.62
628.532	95.62
628.738	80.62
628.945	83.62
629.151	94.62
629.357	85.62
629.564	78.62
629.77	95.62
629.976	81.62
630.183	81.62
630.389	76.62
630.595	73.62
630.802	87.62
631.008	91.62
631.214	79.62
631.42	87.62
631.627	84.62
631.833	79.62
632.039	94.62
632.245	85.62
632.451	73.62
632.657	78.62
632.863	81.62
633.069	71.62
633.275	95.62
633.481	79.62
633.688	85.62
633.893	83.62
634.099	87.62
634.305	84.62
634.511	89.62
634.717	88.62
634.923	72.62
635.129	81.62
635.335	76.62
635.541	90.62
635.747	82.62
635.952	78.62
636.158	94.62
636.364	87.62
636.57	96.62
636.775	84.62
636.981	87.62
637.187	81.62
637.392	79.62
637.598	83.62
637.804	89.62
638.009	67.62
638.215	84.62
638.421	75.62
638.626	70.62
638.832	88.62
639.037	81.62
639.243	93.62
639.448	73.62
639.654	88.62
639.859	67.62
640.065	82.62
640.27	83.62
640.475	89.62
640.681	83.62
640.886	91.62
641.091	86.62
641.297	82.62
641.502	85.62
641.707	79.62
641.913	86.62
642.118	83.62
642.323	73.62
642.528	89.62
642.733	80.62
642.939	82.62
643.144	83.62
643.349	82.62
643.554	87.62
643.759	71.62
643.964	72.62
644.169	88.62
644.374	96.62
644.579	79.62
644.784	74.62
644.989	85.62
645.194	75.62
645.399	75.62
645.604	90.62
645.809	79.62
646.014	83.62
646.219	76.62
646.423	89.62
646.628	87.62
646.833	82.62
647.038	92.62
647.243	86.62
647.447	81.62
647.652	80.62
647.857	86.62
648.062	86.62
648.266	90.62
648.471	74.62
648.676	95.62
648.88	77.62
649.085	78.62
649.289	83.62
649.494	82.62
649.698	83.62
649.903	98.62
650.107	88.62
650.312	81.62
650.516	81.62
650.721	90.62
650.925	72.62
651.13	77.62
651.334	82.62
651.539	86.62
651.743	82.62
651.947	89.62
652.152	92.62
652.356	91.62
652.56	96.62
652.764	69.62
652.969	76.62
653.173	97.62
653.377	70.62
653.581	76.62
653.785	79.62
653.99	72.62
654.194	84.62
654.398	85.62
654.602	75.62
654.806	66.62
655.01	78.62
655.214	89.62
655.418	90.62
655.622	86.62
655.826	81.62
656.03	77.62
656.234	79.62
656.438	74.62
656.642	84.62
656.846	73.62
657.049	80.62
657.253	81.62
657.457	85.62
657.661	79.62
657.865	82.62
658.068	92.62
658.272	63.62
658.476	74.62
658.68	65.62
658.883	83.62
659.087	76.62
659.291	89.62
659.494	89.62
659.698	88.62
659.901	73.62
660.105	82.62
660.309	76.62
660.512	66.62
660.716	78.62
660.919	82.62
661.123	74.62
661.326	88.62
661.53	89.62
661.733	83.62
661.936	81.62
662.14	82.62
662.343	68.62
662.546	85.62
662.75	94.62
662.953	94.62
663.156	81.62
663.36	82.62
663.563	86.62
663.766	81.62
663.969	88.62
664.173	91.62
664.376	87.62
664.579	85.62
664.782	95.62
664.985	93.62
665.188	73.62
665.391	89.62
665.594	91.62
665.797	79.62
666	75.62
666.203	82.62
666.406	75.62
666.609	86.62
666.812	69.62
667.015	78.62
667.218	89.62
667.421	81.62
667.624	71.62
667.827	87.62
668.03	75.62
668.232	85.62
668.435	92.62
668.638	76.62
668.841	69.62
669.043	85.62
669.246	82.62
669.449	71.62
669.651	79.62
669.854	79.62
670.057	82.62
670.259	80.62
670.462	68.62
670.665	83.62
670.867	75.62
671.07	79.62
671.272	91.62
671.475	71.62
671.677	72.62
671.88	77.62
672.082	83.62
672.284	81.62
672.487	67.62
672.689	78.62
672.892	75.62
