Data from StdD_HRD10591_006.txt Node
Date: Fri May 16 15:31:24 EDT 2025
User: Yrep
Spectrometer: HR+D1059
Trigger mode: 1
Integration Time (sec): 1.000000E-1
Scans to average: 1
Electric dark correction enabled: true
Nonlinearity correction enabled: false
Boxcar width: 0
XAxis mode: Wavelengths
Number of Pixels in Spectrum: 2048
>>>>>Begin Spectral Data<<<<<
223.165	-23.81
223.4	-23.81
223.635	-23.81
223.869	-29.81
224.104	-0.81
224.338	-9.81
224.573	-18.81
224.808	-14.81
225.042	1.19
225.277	-15.81
225.511	6.19
225.746	10.19
225.98	9.19
226.215	1.19
226.449	11.19
226.683	22.19
226.918	23.19
227.152	29.19
227.387	33.19
227.621	49.19
227.856	48.19
228.09	41.19
228.324	52.19
228.559	53.19
228.793	67.19
229.027	66.19
229.262	73.19
229.496	60.19
229.73	70.19
229.964	80.19
230.199	66.19
230.433	75.19
230.667	74.19
230.901	86.19
231.136	76.19
231.37	83.19
231.604	75.19
231.838	87.19
232.072	83.19
232.306	82.19
232.541	81.19
232.775	85.19
233.009	92.19
233.243	79.19
233.477	92.19
233.711	78.19
233.945	79.19
234.179	80.19
234.413	73.19
234.647	86.19
234.881	77.19
235.115	79.19
235.349	98.19
235.583	82.19
235.817	75.19
236.051	87.19
236.285	70.19
236.519	75.19
236.753	72.19
236.987	76.19
237.221	87.19
237.455	87.19
237.689	77.19
237.922	65.19
238.156	73.19
238.39	71.19
238.624	71.19
238.858	78.19
239.091	76.19
239.325	84.19
239.559	82.19
239.793	72.19
240.027	76.19
240.26	67.19
240.494	79.19
240.728	58.19
240.961	78.19
241.195	75.19
241.429	64.19
241.662	72.19
241.896	69.19
242.13	86.19
242.363	72.19
242.597	88.19
242.83	78.19
243.064	67.19
243.298	79.19
243.531	75.19
243.765	65.19
243.998	80.19
244.232	74.19
244.465	76.19
244.699	83.19
244.932	73.19
245.166	70.19
245.399	78.19
245.633	79.19
245.866	88.19
246.099	79.19
246.333	71.19
246.566	75.19
246.8	77.19
247.033	67.19
247.266	84.19
247.5	87.19
247.733	75.19
247.966	72.19
248.2	84.19
248.433	73.19
248.666	77.19
248.899	84.19
249.133	76.19
249.366	77.19
249.599	74.19
249.832	82.19
250.066	84.19
250.299	80.19
250.532	71.19
250.765	76.19
250.998	92.19
251.231	76.19
251.465	82.19
251.698	84.19
251.931	84.19
252.164	90.19
252.397	89.19
252.63	78.19
252.863	79.19
253.096	77.19
253.329	77.19
253.562	90.19
253.795	75.19
254.028	86.19
254.261	84.19
254.494	86.19
254.727	86.19
254.96	86.19
255.193	73.19
255.426	74.19
255.659	87.19
255.892	72.19
256.124	76.19
256.357	78.19
256.59	96.19
256.823	76.19
257.056	80.19
257.289	74.19
257.521	78.19
257.754	83.19
257.987	78.19
258.22	71.19
258.452	73.19
258.685	91.19
258.918	90.19
259.151	88.19
259.383	93.19
259.616	100.19
259.849	78.19
260.081	87.19
260.314	64.19
260.547	69.19
260.779	80.19
261.012	93.19
261.244	86.19
261.477	98.19
261.71	81.19
261.942	86.19
262.175	85.19
262.407	92.19
262.64	80.19
262.872	84.19
263.105	79.19
263.337	97.19
263.57	84.19
263.802	91.19
264.035	81.19
264.267	73.19
264.499	94.19
264.732	91.19
264.964	74.19
265.197	76.19
265.429	71.19
265.661	66.19
265.894	106.19
266.126	73.19
266.358	88.19
266.591	87.19
266.823	76.19
267.055	90.19
267.287	103.19
267.52	82.19
267.752	79.19
267.984	83.19
268.216	74.19
268.448	83.19
268.681	85.19
268.913	76.19
269.145	78.19
269.377	85.19
269.609	81.19
269.841	95.19
270.073	72.19
270.306	92.19
270.538	103.19
270.77	84.19
271.002	90.19
271.234	80.19
271.466	73.19
271.698	87.19
271.93	90.19
272.162	85.19
272.394	89.19
272.626	84.19
272.858	80.19
273.09	79.19
273.322	68.19
273.553	82.19
273.785	87.19
274.017	86.19
274.249	89.19
274.481	90.19
274.713	78.19
274.945	76.19
275.176	86.19
275.408	90.19
275.64	77.19
275.872	75.19
276.104	89.19
276.335	88.19
276.567	95.19
276.799	98.19
277.031	83.19
277.262	82.19
277.494	96.19
277.726	93.19
277.957	67.19
278.189	74.19
278.421	82.19
278.652	83.19
278.884	82.19
279.115	86.19
279.347	77.19
279.579	74.19
279.81	87.19
280.042	75.19
280.273	87.19
280.505	88.19
280.736	82.19
280.968	96.19
281.199	94.19
281.431	75.19
281.662	87.19
281.894	90.19
282.125	101.19
282.356	76.19
282.588	80.19
282.819	83.19
283.051	89.19
283.282	84.19
283.513	75.19
283.745	92.19
283.976	83.19
284.207	86.19
284.439	84.19
284.67	90.19
284.901	91.19
285.132	97.19
285.364	87.19
285.595	93.19
285.826	74.19
286.057	74.19
286.288	90.19
286.52	102.19
286.751	88.19
286.982	88.19
287.213	92.19
287.444	88.19
287.675	96.19
287.906	86.19
288.138	91.19
288.369	86.19
288.6	89.19
288.831	76.19
289.062	90.19
289.293	86.19
289.524	83.19
289.755	84.19
289.986	76.19
290.217	59.19
290.448	72.19
290.679	76.19
290.91	97.19
291.141	88.19
291.371	88.19
291.602	90.19
291.833	82.19
292.064	75.19
292.295	79.19
292.526	87.19
292.757	84.19
292.987	93.19
293.218	79.19
293.449	68.19
293.68	85.19
293.91	82.19
294.141	74.19
294.372	79.19
294.603	88.19
294.833	93.19
295.064	75.19
295.295	79.19
295.525	73.19
295.756	88.19
295.987	76.19
296.217	90.19
296.448	74.19
296.679	83.19
296.909	80.19
297.14	88.19
297.37	82.19
297.601	86.19
297.831	78.19
298.062	66.19
298.292	80.19
298.523	90.19
298.753	83.19
298.984	92.19
299.214	97.19
299.445	79.19
299.675	85.19
299.905	82.19
300.136	87.19
300.366	78.19
300.597	93.19
300.827	79.19
301.057	80.19
301.288	87.19
301.518	86.19
301.748	76.19
301.979	90.19
302.209	79.19
302.439	86.19
302.669	85.19
302.9	92.19
303.13	87.19
303.36	79.19
303.59	75.19
303.82	90.19
304.051	85.19
304.281	78.19
304.511	92.19
304.741	94.19
304.971	90.19
305.201	92.19
305.431	77.19
305.661	86.19
305.891	86.19
306.121	81.19
306.352	83.19
306.582	90.19
306.812	77.19
307.042	79.19
307.272	87.19
307.502	87.19
307.731	91.19
307.961	88.19
308.191	90.19
308.421	74.19
308.651	81.19
308.881	91.19
309.111	78.19
309.341	87.19
309.571	89.19
309.8	81.19
310.03	83.19
310.26	80.19
310.49	82.19
310.72	87.19
310.949	86.19
311.179	96.19
311.409	96.19
311.639	95.19
311.868	83.19
312.098	78.19
312.328	77.19
312.557	76.19
312.787	79.19
313.017	91.19
313.246	86.19
313.476	91.19
313.706	97.19
313.935	79.19
314.165	85.19
314.394	82.19
314.624	90.19
314.853	78.19
315.083	85.19
315.312	101.19
315.542	84.19
315.771	82.19
316.001	95.19
316.23	84.19
316.46	87.19
316.689	83.19
316.919	84.19
317.148	88.19
317.377	85.19
317.607	81.19
317.836	72.19
318.065	94.19
318.295	86.19
318.524	83.19
318.753	91.19
318.983	83.19
319.212	87.19
319.441	78.19
319.67	83.19
319.9	90.19
320.129	75.19
320.358	80.19
320.587	82.19
320.816	79.19
321.046	69.19
321.275	79.19
321.504	86.19
321.733	84.19
321.962	84.19
322.191	81.19
322.42	96.19
322.649	91.19
322.878	92.19
323.108	95.19
323.337	101.19
323.566	82.19
323.795	81.19
324.024	103.19
324.253	78.19
324.482	74.19
324.71	79.19
324.939	103.19
325.168	87.19
325.397	89.19
325.626	91.19
325.855	75.19
326.084	89.19
326.313	81.19
326.542	81.19
326.77	74.19
326.999	81.19
327.228	79.19
327.457	95.19
327.686	98.19
327.914	82.19
328.143	75.19
328.372	85.19
328.6	67.19
328.829	91.19
329.058	79.19
329.287	103.19
329.515	93.19
329.744	82.19
329.972	70.19
330.201	82.19
330.43	90.19
330.658	90.19
330.887	81.19
331.115	98.19
331.344	93.19
331.572	85.19
331.801	94.19
332.03	66.19
332.258	87.19
332.486	72.19
332.715	65.19
332.943	72.19
333.172	90.19
333.4	99.19
333.629	76.19
333.857	87.19
334.085	83.19
334.314	82.19
334.542	87.19
334.771	77.19
334.999	83.19
335.227	76.19
335.455	88.19
335.684	87.19
335.912	88.19
336.14	89.19
336.369	81.19
336.597	68.19
336.825	90.19
337.053	82.19
337.281	81.19
337.51	97.19
337.738	95.19
337.966	81.19
338.194	78.19
338.422	93.19
338.65	77.19
338.878	74.19
339.106	77.19
339.334	79.19
339.562	87.19
339.79	98.19
340.018	79.19
340.246	105.19
340.474	91.19
340.702	91.19
340.93	74.19
341.158	79.19
341.386	89.19
341.614	83.19
341.842	72.19
342.07	91.19
342.298	87.19
342.526	86.19
342.754	91.19
342.981	77.19
343.209	94.19
343.437	97.19
343.665	87.19
343.893	82.19
344.12	80.19
344.348	76.19
344.576	73.19
344.804	90.19
345.031	73.19
345.259	87.19
345.487	92.19
345.714	91.19
345.942	95.19
346.17	98.19
346.397	91.19
346.625	86.19
346.853	87.19
347.08	78.19
347.308	86.19
347.535	84.19
347.763	89.19
347.99	85.19
348.218	68.19
348.445	81.19
348.673	84.19
348.9	96.19
349.128	102.19
349.355	74.19
349.583	67.19
349.81	86.19
350.037	69.19
350.265	78.19
350.492	84.19
350.72	88.19
350.947	84.19
351.174	94.19
351.402	98.19
351.629	81.19
351.856	80.19
352.083	78.19
352.311	87.19
352.538	82.19
352.765	74.19
352.992	75.19
353.22	74.19
353.447	91.19
353.674	88.19
353.901	88.19
354.128	83.19
354.355	88.19
354.583	102.19
354.81	90.19
355.037	91.19
355.264	74.19
355.491	91.19
355.718	84.19
355.945	74.19
356.172	81.19
356.399	72.19
356.626	74.19
356.853	86.19
357.08	99.19
357.307	72.19
357.534	74.19
357.761	90.19
357.988	84.19
358.215	82.19
358.441	88.19
358.668	87.19
358.895	90.19
359.122	80.19
359.349	93.19
359.576	92.19
359.802	89.19
360.029	76.19
360.256	86.19
360.483	95.19
360.709	88.19
360.936	94.19
361.163	90.19
361.39	95.19
361.616	80.19
361.843	104.19
362.07	75.19
362.296	81.19
362.523	88.19
362.749	88.19
362.976	93.19
363.203	88.19
363.429	91.19
363.656	87.19
363.882	97.19
364.109	71.19
364.335	90.19
364.562	82.19
364.788	90.19
365.015	89.19
365.241	87.19
365.468	83.19
365.694	96.19
365.92	81.19
366.147	68.19
366.373	76.19
366.599	85.19
366.826	76.19
367.052	74.19
367.278	80.19
367.505	82.19
367.731	83.19
367.957	81.19
368.184	72.19
368.41	99.19
368.636	83.19
368.862	86.19
369.089	90.19
369.315	76.19
369.541	82.19
369.767	71.19
369.993	83.19
370.219	88.19
370.445	94.19
370.672	84.19
370.898	75.19
371.124	68.19
371.35	84.19
371.576	84.19
371.802	83.19
372.028	81.19
372.254	84.19
372.48	87.19
372.706	77.19
372.932	91.19
373.158	93.19
373.384	93.19
373.61	83.19
373.835	75.19
374.061	79.19
374.287	80.19
374.513	75.19
374.739	72.19
374.965	82.19
375.191	75.19
375.416	83.19
375.642	78.19
375.868	76.19
376.094	84.19
376.319	72.19
376.545	74.19
376.771	83.19
376.997	73.19
377.222	74.19
377.448	80.19
377.674	88.19
377.899	94.19
378.125	84.19
378.35	94.19
378.576	82.19
378.802	76.19
379.027	67.19
379.253	76.19
379.478	80.19
379.704	83.19
379.929	85.19
380.155	89.19
380.38	83.19
380.606	68.19
380.831	82.19
381.057	87.19
381.282	84.19
381.507	82.19
381.733	81.19
381.958	81.19
382.184	80.19
382.409	86.19
382.634	88.19
382.86	94.19
383.085	76.19
383.31	81.19
383.535	96.19
383.761	86.19
383.986	103.19
384.211	82.19
384.436	86.19
384.662	72.19
384.887	83.19
385.112	76.19
385.337	80.19
385.562	96.19
385.787	90.19
386.013	88.19
386.238	69.19
386.463	72.19
386.688	83.19
386.913	88.19
387.138	74.19
387.363	62.19
387.588	91.19
387.813	77.19
388.038	78.19
388.263	92.19
388.488	87.19
388.713	73.19
388.938	87.19
389.163	82.19
389.387	86.19
389.612	88.19
389.837	83.19
390.062	85.19
390.287	90.19
390.512	93.19
390.736	78.19
390.961	79.19
391.186	93.19
391.411	67.19
391.636	88.19
391.86	84.19
392.085	91.19
392.31	77.19
392.534	89.19
392.759	87.19
392.984	96.19
393.208	86.19
393.433	83.19
393.658	80.19
393.882	91.19
394.107	87.19
394.331	81.19
394.556	91.19
394.78	87.19
395.005	73.19
395.229	78.19
395.454	83.19
395.678	81.19
395.903	66.19
396.127	91.19
396.352	74.19
396.576	76.19
396.801	78.19
397.025	82.19
397.249	97.19
397.474	87.19
397.698	84.19
397.922	85.19
398.147	79.19
398.371	85.19
398.595	67.19
398.82	84.19
399.044	77.19
399.268	80.19
399.492	84.19
399.717	64.19
399.941	77.19
400.165	78.19
400.389	69.19
400.613	89.19
400.837	77.19
401.062	82.19
401.286	84.19
401.51	75.19
401.734	83.19
401.958	84.19
402.182	85.19
402.406	97.19
402.63	79.19
402.854	86.19
403.078	84.19
403.302	88.19
403.526	87.19
403.75	78.19
403.974	92.19
404.198	92.19
404.422	72.19
404.645	89.19
404.869	90.19
405.093	81.19
405.317	77.19
405.541	80.19
405.765	78.19
405.988	80.19
406.212	65.19
406.436	82.19
406.66	83.19
406.883	88.19
407.107	92.19
407.331	77.19
407.555	76.19
407.778	77.19
408.002	93.19
408.226	82.19
408.449	66.19
408.673	89.19
408.896	83.19
409.12	90.19
409.344	100.19
409.567	75.19
409.791	76.19
410.014	83.19
410.238	87.19
410.461	95.19
410.685	86.19
410.908	84.19
411.132	85.19
411.355	79.19
411.578	88.19
411.802	79.19
412.025	72.19
412.249	79.19
412.472	82.19
412.695	84.19
412.919	77.19
413.142	82.19
413.365	83.19
413.589	82.19
413.812	72.19
414.035	80.19
414.258	76.19
414.482	83.19
414.705	82.19
414.928	80.19
415.151	83.19
415.374	85.19
415.597	80.19
415.821	78.19
416.044	82.19
416.267	93.19
416.49	84.19
416.713	86.19
416.936	92.19
417.159	74.19
417.382	86.19
417.605	74.19
417.828	79.19
418.051	79.19
418.274	90.19
418.497	87.19
418.72	102.19
418.943	82.19
419.166	91.19
419.389	98.19
419.611	103.19
419.834	81.19
420.057	88.19
420.28	69.19
420.503	89.19
420.726	92.19
420.948	86.19
421.171	88.19
421.394	93.19
421.617	73.19
421.839	71.19
422.062	91.19
422.285	71.19
422.507	82.19
422.73	88.19
422.953	86.19
423.175	80.19
423.398	82.19
423.621	79.19
423.843	74.19
424.066	83.19
424.288	74.19
424.511	77.19
424.733	98.19
424.956	76.19
425.178	69.19
425.401	81.19
425.623	77.19
425.846	82.19
426.068	79.19
426.291	74.19
426.513	74.19
426.735	81.19
426.958	80.19
427.18	83.19
427.402	78.19
427.625	77.19
427.847	81.19
428.069	94.19
428.292	89.19
428.514	104.19
428.736	93.19
428.958	82.19
429.181	80.19
429.403	78.19
429.625	79.19
429.847	72.19
430.069	88.19
430.292	93.19
430.514	80.19
430.736	82.19
430.958	76.19
431.18	78.19
431.402	86.19
431.624	81.19
431.846	73.19
432.068	81.19
432.29	80.19
432.512	82.19
432.734	82.19
432.956	78.19
433.178	71.19
433.4	86.19
433.622	89.19
433.844	97.19
434.066	82.19
434.287	77.19
434.509	68.19
434.731	84.19
434.953	77.19
435.175	89.19
435.397	87.19
435.618	85.19
435.84	73.19
436.062	67.19
436.284	89.19
436.505	99.19
436.727	96.19
436.949	87.19
437.17	91.19
437.392	90.19
437.614	80.19
437.835	75.19
438.057	84.19
438.278	59.19
438.5	84.19
438.721	87.19
438.943	76.19
439.165	75.19
439.386	87.19
439.608	86.19
439.829	72.19
440.05	73.19
440.272	79.19
440.493	82.19
440.715	91.19
440.936	81.19
441.158	74.19
441.379	80.19
441.6	75.19
441.822	87.19
442.043	79.19
442.264	85.19
442.486	86.19
442.707	88.19
442.928	78.19
443.149	89.19
443.371	79.19
443.592	80.19
443.813	80.19
444.034	71.19
444.255	83.19
444.476	70.19
444.698	92.19
444.919	80.19
445.14	167.19
445.361	128.19
445.582	75.19
445.803	90.19
446.024	79.19
446.245	78.19
446.466	80.19
446.687	86.19
446.908	84.19
447.129	87.19
447.35	95.19
447.571	93.19
447.792	80.19
448.013	98.19
448.234	87.19
448.455	80.19
448.675	81.19
448.896	86.19
449.117	85.19
449.338	73.19
449.559	83.19
449.779	79.19
450	98.19
450.221	96.19
450.442	83.19
450.662	65.19
450.883	76.19
451.104	79.19
451.324	83.19
451.545	71.19
451.766	78.19
451.986	87.19
452.207	90.19
452.428	75.19
452.648	85.19
452.869	94.19
453.089	79.19
453.31	76.19
453.53	85.19
453.751	89.19
453.971	104.19
454.192	86.19
454.412	63.19
454.633	73.19
454.853	86.19
455.073	83.19
455.294	87.19
455.514	81.19
455.734	91.19
455.955	71.19
456.175	93.19
456.395	76.19
456.616	84.19
456.836	84.19
457.056	82.19
457.276	78.19
457.497	72.19
457.717	79.19
457.937	86.19
458.157	84.19
458.377	84.19
458.598	80.19
458.818	88.19
459.038	76.19
459.258	83.19
459.478	72.19
459.698	88.19
459.918	56.19
460.138	80.19
460.358	83.19
460.578	78.19
460.798	85.19
461.018	80.19
461.238	72.19
461.458	93.19
461.678	92.19
461.898	107.19
462.118	84.19
462.338	94.19
462.558	80.19
462.777	83.19
462.997	91.19
463.217	93.19
463.437	96.19
463.657	81.19
463.876	72.19
464.096	78.19
464.316	80.19
464.536	78.19
464.755	96.19
464.975	82.19
465.195	88.19
465.414	78.19
465.634	75.19
465.854	77.19
466.073	91.19
466.293	79.19
466.512	83.19
466.732	91.19
466.951	75.19
467.171	73.19
467.391	88.19
467.61	73.19
467.829	75.19
468.049	69.19
468.268	84.19
468.488	74.19
468.707	72.19
468.927	88.19
469.146	82.19
469.365	90.19
469.585	81.19
469.804	77.19
470.023	88.19
470.243	86.19
470.462	87.19
470.681	94.19
470.901	79.19
471.12	76.19
471.339	86.19
471.558	75.19
471.777	75.19
471.997	94.19
472.216	88.19
472.435	82.19
472.654	92.19
472.873	99.19
473.092	72.19
473.311	91.19
473.53	86.19
473.749	90.19
473.968	93.19
474.187	98.19
474.406	79.19
474.625	71.19
474.844	88.19
475.063	76.19
475.282	84.19
475.501	90.19
475.72	79.19
475.939	81.19
476.158	90.19
476.377	83.19
476.596	81.19
476.814	90.19
477.033	75.19
477.252	87.19
477.471	82.19
477.69	84.19
477.908	81.19
478.127	92.19
478.346	87.19
478.564	87.19
478.783	91.19
479.002	83.19
479.22	86.19
479.439	89.19
479.658	74.19
479.876	91.19
480.095	77.19
480.313	89.19
480.532	59.19
480.751	90.19
480.969	84.19
481.188	90.19
481.406	92.19
481.624	75.19
481.843	65.19
482.061	83.19
482.28	83.19
482.498	93.19
482.717	82.19
482.935	82.19
483.153	83.19
483.372	95.19
483.59	98.19
483.808	76.19
484.027	91.19
484.245	85.19
484.463	85.19
484.681	75.19
484.9	79.19
485.118	83.19
485.336	87.19
485.554	97.19
485.772	72.19
485.99	84.19
486.209	88.19
486.427	89.19
486.645	79.19
486.863	84.19
487.081	91.19
487.299	91.19
487.517	67.19
487.735	82.19
487.953	83.19
488.171	87.19
488.389	82.19
488.607	93.19
488.825	88.19
489.043	86.19
489.261	92.19
489.479	83.19
489.696	76.19
489.914	77.19
490.132	96.19
490.35	92.19
490.568	99.19
490.786	87.19
491.003	85.19
491.221	83.19
491.439	67.19
491.657	78.19
491.874	86.19
492.092	82.19
492.31	106.19
492.527	86.19
492.745	94.19
492.963	86.19
493.18	89.19
493.398	86.19
493.615	73.19
493.833	75.19
494.05	100.19
494.268	98.19
494.485	103.19
494.703	100.19
494.92	93.19
495.138	84.19
495.355	85.19
495.573	89.19
495.79	82.19
496.008	78.19
496.225	92.19
496.442	102.19
496.66	82.19
496.877	86.19
497.094	80.19
497.312	89.19
497.529	93.19
497.746	88.19
497.963	90.19
498.181	74.19
498.398	66.19
498.615	90.19
498.832	88.19
499.049	85.19
499.267	79.19
499.484	77.19
499.701	90.19
499.918	82.19
500.135	83.19
500.352	89.19
500.569	74.19
500.786	78.19
501.003	84.19
501.22	88.19
501.437	83.19
501.654	92.19
501.871	106.19
502.088	81.19
502.305	86.19
502.522	73.19
502.739	96.19
502.956	96.19
503.172	85.19
503.389	76.19
503.606	72.19
503.823	80.19
504.04	91.19
504.256	89.19
504.473	68.19
504.69	70.19
504.907	76.19
505.123	79.19
505.34	82.19
505.557	90.19
505.773	76.19
505.99	82.19
506.207	64.19
506.423	96.19
506.64	75.19
506.856	96.19
507.073	93.19
507.289	79.19
507.506	86.19
507.722	89.19
507.939	80.19
508.155	65.19
508.372	93.19
508.588	85.19
508.805	90.19
509.021	88.19
509.238	89.19
509.454	92.19
509.67	74.19
509.887	80.19
510.103	95.19
510.319	79.19
510.536	89.19
510.752	74.19
510.968	66.19
511.184	86.19
511.401	80.19
511.617	87.19
511.833	96.19
512.049	91.19
512.265	82.19
512.481	85.19
512.698	72.19
512.914	89.19
513.13	74.19
513.346	68.19
513.562	86.19
513.778	80.19
513.994	84.19
514.21	83.19
514.426	76.19
514.642	88.19
514.858	75.19
515.074	80.19
515.29	79.19
515.506	75.19
515.721	81.19
515.937	96.19
516.153	95.19
516.369	81.19
516.585	90.19
516.801	84.19
517.016	86.19
517.232	88.19
517.448	83.19
517.664	82.19
517.879	91.19
518.095	76.19
518.311	78.19
518.527	91.19
518.742	91.19
518.958	90.19
519.173	96.19
519.389	87.19
519.605	84.19
519.82	87.19
520.036	90.19
520.251	80.19
520.467	81.19
520.682	72.19
520.898	89.19
521.113	90.19
521.329	91.19
521.544	90.19
521.76	82.19
521.975	92.19
522.19	92.19
522.406	77.19
522.621	81.19
522.836	74.19
523.052	66.19
523.267	89.19
523.482	78.19
523.698	89.19
523.913	78.19
524.128	83.19
524.343	87.19
524.559	87.19
524.774	86.19
524.989	83.19
525.204	90.19
525.419	83.19
525.634	81.19
525.849	94.19
526.064	83.19
526.28	89.19
526.495	88.19
526.71	68.19
526.925	78.19
527.14	81.19
527.355	95.19
527.57	77.19
527.785	81.19
527.999	100.19
528.214	85.19
528.429	87.19
528.644	86.19
528.859	91.19
529.074	92.19
529.289	61.19
529.503	68.19
529.718	87.19
529.933	84.19
530.148	84.19
530.363	89.19
530.577	83.19
530.792	75.19
531.007	80.19
531.221	100.19
531.436	89.19
531.651	78.19
531.865	76.19
532.08	73.19
532.295	86.19
532.509	73.19
532.724	68.19
532.938	80.19
533.153	79.19
533.367	89.19
533.582	80.19
533.796	84.19
534.011	77.19
534.225	63.19
534.44	75.19
534.654	89.19
534.868	75.19
535.083	94.19
535.297	69.19
535.511	84.19
535.726	76.19
535.94	81.19
536.154	81.19
536.369	81.19
536.583	79.19
536.797	83.19
537.011	92.19
537.225	80.19
537.44	90.19
537.654	84.19
537.868	73.19
538.082	68.19
538.296	68.19
538.51	86.19
538.724	86.19
538.938	107.19
539.153	92.19
539.367	84.19
539.581	86.19
539.795	72.19
540.009	95.19
540.222	90.19
540.436	76.19
540.65	86.19
540.864	88.19
541.078	82.19
541.292	86.19
541.506	99.19
541.72	82.19
541.934	76.19
542.147	80.19
542.361	95.19
542.575	79.19
542.789	87.19
543.002	75.19
543.216	93.19
543.43	86.19
543.644	90.19
543.857	97.19
544.071	84.19
544.285	88.19
544.498	87.19
544.712	88.19
544.925	89.19
545.139	90.19
545.352	86.19
545.566	97.19
545.779	75.19
545.993	87.19
546.206	80.19
546.42	101.19
546.633	99.19
546.847	98.19
547.06	97.19
547.274	90.19
547.487	84.19
547.7	78.19
547.914	95.19
548.127	94.19
548.34	102.19
548.554	90.19
548.767	102.19
548.98	99.19
549.193	76.19
549.407	101.19
549.62	94.19
549.833	85.19
550.046	87.19
550.259	84.19
550.473	84.19
550.686	81.19
550.899	92.19
551.112	87.19
551.325	82.19
551.538	83.19
551.751	95.19
551.964	87.19
552.177	91.19
552.39	94.19
552.603	85.19
552.816	87.19
553.029	85.19
553.242	71.19
553.455	86.19
553.667	95.19
553.88	88.19
554.093	89.19
554.306	92.19
554.519	100.19
554.732	83.19
554.944	87.19
555.157	90.19
555.37	81.19
555.583	68.19
555.795	94.19
556.008	86.19
556.221	91.19
556.433	94.19
556.646	104.19
556.859	80.19
557.071	86.19
557.284	104.19
557.496	87.19
557.709	82.19
557.921	90.19
558.134	84.19
558.346	91.19
558.559	78.19
558.771	72.19
558.984	87.19
559.196	84.19
559.409	91.19
559.621	90.19
559.833	83.19
560.046	78.19
560.258	86.19
560.47	89.19
560.683	92.19
560.895	78.19
561.107	90.19
561.32	91.19
561.532	88.19
561.744	98.19
561.956	95.19
562.168	96.19
562.381	81.19
562.593	91.19
562.805	75.19
563.017	90.19
563.229	68.19
563.441	81.19
563.653	73.19
563.865	80.19
564.077	106.19
564.289	86.19
564.501	68.19
564.713	90.19
564.925	86.19
565.137	83.19
565.349	87.19
565.561	99.19
565.773	83.19
565.985	84.19
566.197	80.19
566.408	86.19
566.62	79.19
566.832	79.19
567.044	92.19
567.255	88.19
567.467	88.19
567.679	92.19
567.891	87.19
568.102	82.19
568.314	86.19
568.526	87.19
568.737	94.19
568.949	91.19
569.161	80.19
569.372	70.19
569.584	73.19
569.795	95.19
570.007	79.19
570.218	76.19
570.43	79.19
570.641	84.19
570.853	97.19
571.064	89.19
571.276	91.19
571.487	83.19
571.698	78.19
571.91	90.19
572.121	84.19
572.333	91.19
572.544	103.19
572.755	92.19
572.966	82.19
573.178	79.19
573.389	70.19
573.6	86.19
573.811	82.19
574.023	77.19
574.234	60.19
574.445	92.19
574.656	78.19
574.867	85.19
575.078	96.19
575.289	101.19
575.501	70.19
575.712	83.19
575.923	106.19
576.134	94.19
576.345	78.19
576.556	89.19
576.767	88.19
576.978	66.19
577.188	86.19
577.399	68.19
577.61	88.19
577.821	79.19
578.032	68.19
578.243	69.19
578.454	88.19
578.665	75.19
578.875	75.19
579.086	86.19
579.297	91.19
579.508	94.19
579.718	82.19
579.929	87.19
580.14	88.19
580.35	87.19
580.561	86.19
580.772	93.19
580.982	78.19
581.193	91.19
581.403	80.19
581.614	86.19
581.825	80.19
582.035	89.19
582.246	81.19
582.456	87.19
582.667	66.19
582.877	72.19
583.087	82.19
583.298	86.19
583.508	107.19
583.719	90.19
583.929	106.19
584.139	89.19
584.35	72.19
584.56	102.19
584.77	76.19
584.981	78.19
585.191	77.19
585.401	92.19
585.611	78.19
585.821	90.19
586.032	74.19
586.242	78.19
586.452	80.19
586.662	82.19
586.872	102.19
587.082	90.19
587.292	81.19
587.502	89.19
587.713	78.19
587.923	90.19
588.133	86.19
588.343	75.19
588.553	84.19
588.762	99.19
588.972	90.19
589.182	113.19
589.392	86.19
589.602	73.19
589.812	87.19
590.022	88.19
590.232	91.19
590.441	82.19
590.651	89.19
590.861	78.19
591.071	80.19
591.281	76.19
591.49	95.19
591.7	80.19
591.91	75.19
592.119	86.19
592.329	76.19
592.539	104.19
592.748	83.19
592.958	76.19
593.167	86.19
593.377	90.19
593.587	97.19
593.796	81.19
594.006	82.19
594.215	83.19
594.424	87.19
594.634	86.19
594.843	79.19
595.053	90.19
595.262	93.19
595.472	90.19
595.681	82.19
595.89	97.19
596.1	84.19
596.309	93.19
596.518	98.19
596.727	95.19
596.937	95.19
597.146	85.19
597.355	81.19
597.564	87.19
597.774	90.19
597.983	87.19
598.192	87.19
598.401	96.19
598.61	87.19
598.819	90.19
599.028	75.19
599.237	82.19
599.446	90.19
599.655	76.19
599.864	98.19
600.073	95.19
600.282	79.19
600.491	75.19
600.7	78.19
600.909	73.19
601.118	92.19
601.327	76.19
601.536	85.19
601.745	97.19
601.953	74.19
602.162	91.19
602.371	88.19
602.58	81.19
602.789	90.19
602.997	85.19
603.206	102.19
603.415	86.19
603.623	92.19
603.832	80.19
604.041	75.19
604.249	98.19
604.458	84.19
604.666	81.19
604.875	98.19
605.084	89.19
605.292	83.19
605.501	82.19
605.709	83.19
605.918	83.19
606.126	92.19
606.334	82.19
606.543	95.19
606.751	97.19
606.96	77.19
607.168	72.19
607.376	95.19
607.585	82.19
607.793	88.19
608.001	78.19
608.21	93.19
608.418	75.19
608.626	89.19
608.834	111.19
609.043	83.19
609.251	83.19
609.459	75.19
609.667	92.19
609.875	81.19
610.083	88.19
610.291	86.19
610.499	83.19
610.707	106.19
610.916	91.19
611.124	87.19
611.332	79.19
611.54	84.19
611.748	70.19
611.955	81.19
612.163	90.19
612.371	88.19
612.579	108.19
612.787	80.19
612.995	89.19
613.203	76.19
613.411	66.19
613.618	92.19
613.826	87.19
614.034	88.19
614.242	82.19
614.449	89.19
614.657	79.19
614.865	82.19
615.072	82.19
615.28	90.19
615.488	82.19
615.695	85.19
615.903	89.19
616.111	104.19
616.318	91.19
616.526	96.19
616.733	91.19
616.941	70.19
617.148	92.19
617.356	87.19
617.563	76.19
617.771	94.19
617.978	81.19
618.185	93.19
618.393	87.19
618.6	99.19
618.807	86.19
619.015	90.19
619.222	79.19
619.429	80.19
619.637	87.19
619.844	84.19
620.051	83.19
620.258	76.19
620.466	96.19
620.673	94.19
620.88	77.19
621.087	78.19
621.294	84.19
621.501	80.19
621.708	88.19
621.915	89.19
622.122	80.19
622.329	72.19
622.536	86.19
622.743	81.19
622.95	86.19
623.157	88.19
623.364	63.19
623.571	91.19
623.778	80.19
623.985	79.19
624.192	79.19
624.399	79.19
624.606	66.19
624.812	92.19
625.019	92.19
625.226	89.19
625.433	72.19
625.639	105.19
625.846	86.19
626.053	88.19
626.259	90.19
626.466	83.19
626.673	82.19
626.879	91.19
627.086	91.19
627.293	80.19
627.499	97.19
627.706	90.19
627.912	81.19
628.119	88.19
628.325	83.19
628.532	85.19
628.738	90.19
628.945	81.19
629.151	81.19
629.357	93.19
629.564	83.19
629.77	98.19
629.976	70.19
630.183	80.19
630.389	75.19
630.595	82.19
630.802	80.19
631.008	86.19
631.214	82.19
631.42	91.19
631.627	88.19
631.833	100.19
632.039	75.19
632.245	73.19
632.451	88.19
632.657	82.19
632.863	80.19
633.069	83.19
633.275	82.19
633.481	84.19
633.688	82.19
633.893	94.19
634.099	80.19
634.305	95.19
634.511	92.19
634.717	84.19
634.923	77.19
635.129	80.19
635.335	82.19
635.541	86.19
635.747	88.19
635.952	78.19
636.158	89.19
636.364	91.19
636.57	98.19
636.775	89.19
636.981	75.19
637.187	73.19
637.392	86.19
637.598	74.19
637.804	78.19
638.009	95.19
638.215	80.19
638.421	93.19
638.626	78.19
638.832	91.19
639.037	92.19
639.243	95.19
639.448	83.19
639.654	66.19
639.859	84.19
640.065	93.19
640.27	85.19
640.475	94.19
640.681	93.19
640.886	91.19
641.091	84.19
641.297	98.19
641.502	74.19
641.707	88.19
641.913	86.19
642.118	76.19
642.323	86.19
642.528	78.19
642.733	90.19
642.939	89.19
643.144	87.19
643.349	105.19
643.554	77.19
643.759	83.19
643.964	93.19
644.169	94.19
644.374	82.19
644.579	75.19
644.784	79.19
644.989	74.19
645.194	76.19
645.399	79.19
645.604	90.19
645.809	67.19
646.014	74.19
646.219	82.19
646.423	92.19
646.628	82.19
646.833	79.19
647.038	78.19
647.243	80.19
647.447	82.19
647.652	74.19
647.857	69.19
648.062	74.19
648.266	71.19
648.471	81.19
648.676	89.19
648.88	74.19
649.085	106.19
649.289	82.19
649.494	86.19
649.698	108.19
649.903	77.19
650.107	84.19
650.312	81.19
650.516	70.19
650.721	89.19
650.925	81.19
651.13	86.19
651.334	91.19
651.539	97.19
651.743	81.19
651.947	87.19
652.152	85.19
652.356	72.19
652.56	88.19
652.764	80.19
652.969	68.19
653.173	74.19
653.377	78.19
653.581	88.19
653.785	78.19
653.99	82.19
654.194	76.19
654.398	85.19
654.602	89.19
654.806	92.19
655.01	91.19
655.214	89.19
655.418	80.19
655.622	80.19
655.826	81.19
656.03	81.19
656.234	89.19
656.438	83.19
656.642	70.19
656.846	83.19
657.049	87.19
657.253	81.19
657.457	86.19
657.661	88.19
657.865	104.19
658.068	88.19
658.272	97.19
658.476	88.19
658.68	78.19
658.883	93.19
659.087	78.19
659.291	70.19
659.494	89.19
659.698	92.19
659.901	81.19
660.105	79.19
660.309	69.19
660.512	73.19
660.716	82.19
660.919	88.19
661.123	86.19
661.326	87.19
661.53	81.19
661.733	83.19
661.936	91.19
662.14	86.19
662.343	88.19
662.546	83.19
662.75	86.19
662.953	72.19
663.156	74.19
663.36	99.19
663.563	83.19
663.766	87.19
663.969	82.19
664.173	72.19
664.376	82.19
664.579	81.19
664.782	79.19
664.985	96.19
665.188	75.19
665.391	75.19
665.594	85.19
665.797	81.19
666	87.19
666.203	81.19
666.406	82.19
666.609	81.19
666.812	79.19
667.015	63.19
667.218	87.19
667.421	84.19
667.624	69.19
667.827	86.19
668.03	74.19
668.232	94.19
668.435	104.19
668.638	91.19
668.841	95.19
669.043	78.19
669.246	87.19
669.449	92.19
669.651	81.19
669.854	74.19
670.057	78.19
670.259	77.19
670.462	89.19
670.665	80.19
670.867	97.19
671.07	77.19
671.272	75.19
671.475	87.19
671.677	80.19
671.88	95.19
672.082	71.19
672.284	79.19
672.487	74.19
672.689	87.19
672.892	76.19
