Data from StdD_HRD10591_032.txt Node
Date: Fri May 16 15:31:37 EDT 2025
User: Yrep
Spectrometer: HR+D1059
Trigger mode: 1
Integration Time (sec): 1.000000E-1
Scans to average: 1
Electric dark correction enabled: true
Nonlinearity correction enabled: false
Boxcar width: 0
XAxis mode: Wavelengths
Number of Pixels in Spectrum: 2048
>>>>>Begin Spectral Data<<<<<
223.165	-18.69
223.4	-18.69
223.635	-18.69
223.869	-16.69
224.104	-15.69
224.338	-6.69
224.573	-12.69
224.808	-4.69
225.042	-16.69
225.277	-3.69
225.511	2.31
225.746	-7.69
225.98	-9.69
226.215	8.31
226.449	5.31
226.683	35.31
226.918	36.31
227.152	25.31
227.387	38.31
227.621	35.31
227.856	47.31
228.09	42.31
228.324	51.31
228.559	59.31
228.793	64.31
229.027	71.31
229.262	58.31
229.496	70.31
229.73	69.31
229.964	82.31
230.199	64.31
230.433	80.31
230.667	80.31
230.901	77.31
231.136	84.31
231.37	75.31
231.604	66.31
231.838	83.31
232.072	95.31
232.306	80.31
232.541	77.31
232.775	85.31
233.009	78.31
233.243	82.31
233.477	86.31
233.711	78.31
233.945	93.31
234.179	84.31
234.413	81.31
234.647	85.31
234.881	81.31
235.115	89.31
235.349	91.31
235.583	91.31
235.817	81.31
236.051	78.31
236.285	72.31
236.519	79.31
236.753	74.31
236.987	72.31
237.221	81.31
237.455	82.31
237.689	88.31
237.922	65.31
238.156	79.31
238.39	75.31
238.624	91.31
238.858	87.31
239.091	79.31
239.325	78.31
239.559	69.31
239.793	80.31
240.027	86.31
240.26	80.31
240.494	79.31
240.728	70.31
240.961	64.31
241.195	86.31
241.429	87.31
241.662	72.31
241.896	83.31
242.13	101.31
242.363	74.31
242.597	83.31
242.83	79.31
243.064	93.31
243.298	92.31
243.531	88.31
243.765	97.31
243.998	80.31
244.232	89.31
244.465	80.31
244.699	78.31
244.932	88.31
245.166	79.31
245.399	87.31
245.633	84.31
245.866	82.31
246.099	80.31
246.333	80.31
246.566	72.31
246.8	73.31
247.033	65.31
247.266	74.31
247.5	75.31
247.733	70.31
247.966	84.31
248.2	77.31
248.433	82.31
248.666	82.31
248.899	93.31
249.133	83.31
249.366	92.31
249.599	77.31
249.832	82.31
250.066	82.31
250.299	78.31
250.532	89.31
250.765	78.31
250.998	86.31
251.231	80.31
251.465	92.31
251.698	78.31
251.931	93.31
252.164	88.31
252.397	79.31
252.63	86.31
252.863	74.31
253.096	77.31
253.329	84.31
253.562	82.31
253.795	82.31
254.028	75.31
254.261	96.31
254.494	75.31
254.727	85.31
254.96	83.31
255.193	81.31
255.426	90.31
255.659	89.31
255.892	80.31
256.124	80.31
256.357	95.31
256.59	93.31
256.823	71.31
257.056	64.31
257.289	92.31
257.521	78.31
257.754	79.31
257.987	76.31
258.22	80.31
258.452	78.31
258.685	105.31
258.918	85.31
259.151	85.31
259.383	75.31
259.616	82.31
259.849	86.31
260.081	77.31
260.314	79.31
260.547	74.31
260.779	80.31
261.012	95.31
261.244	92.31
261.477	87.31
261.71	77.31
261.942	90.31
262.175	68.31
262.407	68.31
262.64	82.31
262.872	85.31
263.105	83.31
263.337	92.31
263.57	93.31
263.802	89.31
264.035	85.31
264.267	82.31
264.499	85.31
264.732	94.31
264.964	89.31
265.197	78.31
265.429	86.31
265.661	82.31
265.894	77.31
266.126	93.31
266.358	85.31
266.591	69.31
266.823	81.31
267.055	88.31
267.287	86.31
267.52	94.31
267.752	80.31
267.984	90.31
268.216	82.31
268.448	93.31
268.681	100.31
268.913	94.31
269.145	98.31
269.377	76.31
269.609	88.31
269.841	90.31
270.073	104.31
270.306	77.31
270.538	91.31
270.77	80.31
271.002	100.31
271.234	75.31
271.466	77.31
271.698	85.31
271.93	89.31
272.162	105.31
272.394	101.31
272.626	84.31
272.858	90.31
273.09	83.31
273.322	88.31
273.553	74.31
273.785	92.31
274.017	82.31
274.249	86.31
274.481	85.31
274.713	92.31
274.945	80.31
275.176	79.31
275.408	72.31
275.64	91.31
275.872	80.31
276.104	84.31
276.335	94.31
276.567	82.31
276.799	68.31
277.031	79.31
277.262	80.31
277.494	90.31
277.726	93.31
277.957	75.31
278.189	80.31
278.421	81.31
278.652	90.31
278.884	80.31
279.115	86.31
279.347	99.31
279.579	86.31
279.81	82.31
280.042	85.31
280.273	100.31
280.505	76.31
280.736	83.31
280.968	89.31
281.199	93.31
281.431	90.31
281.662	88.31
281.894	79.31
282.125	89.31
282.356	93.31
282.588	75.31
282.819	89.31
283.051	78.31
283.282	75.31
283.513	85.31
283.745	93.31
283.976	69.31
284.207	92.31
284.439	76.31
284.67	92.31
284.901	85.31
285.132	84.31
285.364	84.31
285.595	94.31
285.826	85.31
286.057	85.31
286.288	74.31
286.52	86.31
286.751	85.31
286.982	81.31
287.213	75.31
287.444	78.31
287.675	86.31
287.906	84.31
288.138	95.31
288.369	88.31
288.6	84.31
288.831	74.31
289.062	86.31
289.293	82.31
289.524	94.31
289.755	80.31
289.986	63.31
290.217	98.31
290.448	85.31
290.679	85.31
290.91	97.31
291.141	73.31
291.371	71.31
291.602	74.31
291.833	83.31
292.064	93.31
292.295	92.31
292.526	78.31
292.757	91.31
292.987	100.31
293.218	70.31
293.449	90.31
293.68	89.31
293.91	78.31
294.141	85.31
294.372	90.31
294.603	94.31
294.833	92.31
295.064	103.31
295.295	90.31
295.525	92.31
295.756	84.31
295.987	90.31
296.217	82.31
296.448	87.31
296.679	78.31
296.909	96.31
297.14	86.31
297.37	76.31
297.601	82.31
297.831	82.31
298.062	93.31
298.292	92.31
298.523	79.31
298.753	84.31
298.984	86.31
299.214	96.31
299.445	94.31
299.675	99.31
299.905	82.31
300.136	78.31
300.366	100.31
300.597	97.31
300.827	88.31
301.057	92.31
301.288	80.31
301.518	76.31
301.748	81.31
301.979	117.31
302.209	94.31
302.439	94.31
302.669	102.31
302.9	84.31
303.13	89.31
303.36	84.31
303.59	92.31
303.82	94.31
304.051	90.31
304.281	90.31
304.511	71.31
304.741	93.31
304.971	70.31
305.201	100.31
305.431	93.31
305.661	79.31
305.891	84.31
306.121	83.31
306.352	83.31
306.582	73.31
306.812	84.31
307.042	95.31
307.272	98.31
307.502	93.31
307.731	92.31
307.961	85.31
308.191	78.31
308.421	87.31
308.651	97.31
308.881	87.31
309.111	83.31
309.341	93.31
309.571	84.31
309.8	74.31
310.03	111.31
310.26	86.31
310.49	98.31
310.72	85.31
310.949	91.31
311.179	88.31
311.409	84.31
311.639	87.31
311.868	82.31
312.098	97.31
312.328	84.31
312.557	76.31
312.787	95.31
313.017	85.31
313.246	81.31
313.476	81.31
313.706	89.31
313.935	86.31
314.165	92.31
314.394	90.31
314.624	71.31
314.853	87.31
315.083	84.31
315.312	88.31
315.542	79.31
315.771	91.31
316.001	94.31
316.23	98.31
316.46	76.31
316.689	77.31
316.919	98.31
317.148	88.31
317.377	95.31
317.607	83.31
317.836	106.31
318.065	86.31
318.295	85.31
318.524	89.31
318.753	93.31
318.983	89.31
319.212	108.31
319.441	77.31
319.67	74.31
319.9	72.31
320.129	86.31
320.358	84.31
320.587	88.31
320.816	63.31
321.046	90.31
321.275	84.31
321.504	82.31
321.733	89.31
321.962	87.31
322.191	72.31
322.42	95.31
322.649	88.31
322.878	86.31
323.108	83.31
323.337	80.31
323.566	81.31
323.795	88.31
324.024	81.31
324.253	89.31
324.482	70.31
324.71	94.31
324.939	69.31
325.168	90.31
325.397	82.31
325.626	88.31
325.855	94.31
326.084	79.31
326.313	75.31
326.542	79.31
326.77	83.31
326.999	92.31
327.228	96.31
327.457	93.31
327.686	89.31
327.914	86.31
328.143	89.31
328.372	88.31
328.6	88.31
328.829	81.31
329.058	79.31
329.287	92.31
329.515	90.31
329.744	84.31
329.972	78.31
330.201	99.31
330.43	86.31
330.658	84.31
330.887	90.31
331.115	84.31
331.344	89.31
331.572	76.31
331.801	87.31
332.03	91.31
332.258	90.31
332.486	105.31
332.715	85.31
332.943	78.31
333.172	86.31
333.4	80.31
333.629	83.31
333.857	88.31
334.085	91.31
334.314	90.31
334.542	69.31
334.771	84.31
334.999	72.31
335.227	83.31
335.455	86.31
335.684	85.31
335.912	82.31
336.14	98.31
336.369	85.31
336.597	89.31
336.825	93.31
337.053	92.31
337.281	82.31
337.51	76.31
337.738	97.31
337.966	86.31
338.194	82.31
338.422	88.31
338.65	78.31
338.878	80.31
339.106	85.31
339.334	86.31
339.562	90.31
339.79	77.31
340.018	78.31
340.246	92.31
340.474	97.31
340.702	92.31
340.93	86.31
341.158	90.31
341.386	77.31
341.614	88.31
341.842	83.31
342.07	92.31
342.298	88.31
342.526	94.31
342.754	89.31
342.981	75.31
343.209	100.31
343.437	93.31
343.665	92.31
343.893	82.31
344.12	93.31
344.348	82.31
344.576	83.31
344.804	92.31
345.031	75.31
345.259	82.31
345.487	91.31
345.714	93.31
345.942	90.31
346.17	92.31
346.397	90.31
346.625	90.31
346.853	93.31
347.08	94.31
347.308	88.31
347.535	90.31
347.763	82.31
347.99	88.31
348.218	80.31
348.445	71.31
348.673	79.31
348.9	86.31
349.128	93.31
349.355	64.31
349.583	87.31
349.81	83.31
350.037	83.31
350.265	92.31
350.492	83.31
350.72	84.31
350.947	76.31
351.174	80.31
351.402	86.31
351.629	92.31
351.856	79.31
352.083	79.31
352.311	85.31
352.538	91.31
352.765	80.31
352.992	86.31
353.22	89.31
353.447	84.31
353.674	74.31
353.901	97.31
354.128	94.31
354.355	100.31
354.583	85.31
354.81	91.31
355.037	77.31
355.264	71.31
355.491	85.31
355.718	80.31
355.945	78.31
356.172	81.31
356.399	83.31
356.626	76.31
356.853	94.31
357.08	79.31
357.307	76.31
357.534	89.31
357.761	93.31
357.988	78.31
358.215	83.31
358.441	87.31
358.668	78.31
358.895	101.31
359.122	97.31
359.349	91.31
359.576	82.31
359.802	88.31
360.029	94.31
360.256	104.31
360.483	86.31
360.709	76.31
360.936	90.31
361.163	82.31
361.39	80.31
361.616	90.31
361.843	87.31
362.07	76.31
362.296	78.31
362.523	85.31
362.749	94.31
362.976	81.31
363.203	86.31
363.429	93.31
363.656	78.31
363.882	70.31
364.109	82.31
364.335	86.31
364.562	84.31
364.788	88.31
365.015	101.31
365.241	92.31
365.468	98.31
365.694	90.31
365.92	99.31
366.147	108.31
366.373	97.31
366.599	80.31
366.826	74.31
367.052	92.31
367.278	90.31
367.505	78.31
367.731	102.31
367.957	88.31
368.184	96.31
368.41	94.31
368.636	96.31
368.862	84.31
369.089	92.31
369.315	71.31
369.541	84.31
369.767	80.31
369.993	80.31
370.219	89.31
370.445	80.31
370.672	99.31
370.898	97.31
371.124	92.31
371.35	72.31
371.576	85.31
371.802	92.31
372.028	69.31
372.254	92.31
372.48	82.31
372.706	90.31
372.932	79.31
373.158	86.31
373.384	80.31
373.61	78.31
373.835	93.31
374.061	86.31
374.287	93.31
374.513	86.31
374.739	86.31
374.965	85.31
375.191	74.31
375.416	85.31
375.642	90.31
375.868	67.31
376.094	94.31
376.319	92.31
376.545	71.31
376.771	93.31
376.997	93.31
377.222	96.31
377.448	72.31
377.674	80.31
377.899	81.31
378.125	86.31
378.35	99.31
378.576	86.31
378.802	80.31
379.027	88.31
379.253	93.31
379.478	75.31
379.704	70.31
379.929	77.31
380.155	77.31
380.38	90.31
380.606	98.31
380.831	84.31
381.057	89.31
381.282	93.31
381.507	86.31
381.733	86.31
381.958	86.31
382.184	96.31
382.409	86.31
382.634	92.31
382.86	87.31
383.085	81.31
383.31	94.31
383.535	84.31
383.761	68.31
383.986	86.31
384.211	94.31
384.436	98.31
384.662	85.31
384.887	85.31
385.112	91.31
385.337	85.31
385.562	96.31
385.787	79.31
386.013	81.31
386.238	93.31
386.463	88.31
386.688	88.31
386.913	86.31
387.138	83.31
387.363	98.31
387.588	81.31
387.813	81.31
388.038	98.31
388.263	88.31
388.488	92.31
388.713	85.31
388.938	89.31
389.163	72.31
389.387	89.31
389.612	93.31
389.837	94.31
390.062	101.31
390.287	91.31
390.512	60.31
390.736	76.31
390.961	79.31
391.186	71.31
391.411	91.31
391.636	84.31
391.86	81.31
392.085	85.31
392.31	81.31
392.534	89.31
392.759	87.31
392.984	71.31
393.208	100.31
393.433	79.31
393.658	87.31
393.882	74.31
394.107	88.31
394.331	81.31
394.556	68.31
394.78	80.31
395.005	89.31
395.229	90.31
395.454	88.31
395.678	97.31
395.903	98.31
396.127	91.31
396.352	95.31
396.576	84.31
396.801	79.31
397.025	78.31
397.249	91.31
397.474	77.31
397.698	74.31
397.922	87.31
398.147	93.31
398.371	78.31
398.595	80.31
398.82	88.31
399.044	89.31
399.268	90.31
399.492	75.31
399.717	75.31
399.941	73.31
400.165	84.31
400.389	104.31
400.613	91.31
400.837	86.31
401.062	76.31
401.286	85.31
401.51	89.31
401.734	85.31
401.958	75.31
402.182	84.31
402.406	76.31
402.63	89.31
402.854	86.31
403.078	72.31
403.302	84.31
403.526	110.31
403.75	87.31
403.974	94.31
404.198	86.31
404.422	90.31
404.645	77.31
404.869	99.31
405.093	93.31
405.317	83.31
405.541	96.31
405.765	69.31
405.988	85.31
406.212	83.31
406.436	82.31
406.66	102.31
406.883	84.31
407.107	69.31
407.331	90.31
407.555	82.31
407.778	75.31
408.002	75.31
408.226	97.31
408.449	108.31
408.673	88.31
408.896	89.31
409.12	90.31
409.344	83.31
409.567	88.31
409.791	84.31
410.014	92.31
410.238	82.31
410.461	94.31
410.685	87.31
410.908	69.31
411.132	93.31
411.355	78.31
411.578	100.31
411.802	93.31
412.025	82.31
412.249	89.31
412.472	90.31
412.695	84.31
412.919	87.31
413.142	86.31
413.365	76.31
413.589	90.31
413.812	86.31
414.035	99.31
414.258	89.31
414.482	86.31
414.705	94.31
414.928	84.31
415.151	75.31
415.374	86.31
415.597	89.31
415.821	95.31
416.044	100.31
416.267	89.31
416.49	75.31
416.713	82.31
416.936	81.31
417.159	83.31
417.382	95.31
417.605	80.31
417.828	82.31
418.051	88.31
418.274	83.31
418.497	82.31
418.72	84.31
418.943	82.31
419.166	90.31
419.389	104.31
419.611	86.31
419.834	78.31
420.057	85.31
420.28	70.31
420.503	87.31
420.726	84.31
420.948	83.31
421.171	88.31
421.394	88.31
421.617	71.31
421.839	75.31
422.062	70.31
422.285	84.31
422.507	85.31
422.73	87.31
422.953	83.31
423.175	86.31
423.398	86.31
423.621	78.31
423.843	71.31
424.066	83.31
424.288	90.31
424.511	74.31
424.733	93.31
424.956	94.31
425.178	75.31
425.401	109.31
425.623	74.31
425.846	93.31
426.068	74.31
426.291	97.31
426.513	75.31
426.735	82.31
426.958	80.31
427.18	85.31
427.402	72.31
427.625	95.31
427.847	81.31
428.069	84.31
428.292	73.31
428.514	82.31
428.736	87.31
428.958	95.31
429.181	83.31
429.403	68.31
429.625	76.31
429.847	79.31
430.069	90.31
430.292	103.31
430.514	83.31
430.736	82.31
430.958	86.31
431.18	84.31
431.402	92.31
431.624	95.31
431.846	79.31
432.068	88.31
432.29	77.31
432.512	97.31
432.734	90.31
432.956	84.31
433.178	84.31
433.4	82.31
433.622	91.31
433.844	86.31
434.066	84.31
434.287	91.31
434.509	92.31
434.731	84.31
434.953	97.31
435.175	82.31
435.397	97.31
435.618	67.31
435.84	96.31
436.062	76.31
436.284	83.31
436.505	82.31
436.727	80.31
436.949	86.31
437.17	74.31
437.392	95.31
437.614	84.31
437.835	83.31
438.057	91.31
438.278	89.31
438.5	84.31
438.721	94.31
438.943	92.31
439.165	83.31
439.386	88.31
439.608	71.31
439.829	90.31
440.05	82.31
440.272	79.31
440.493	80.31
440.715	97.31
440.936	76.31
441.158	84.31
441.379	93.31
441.6	80.31
441.822	82.31
442.043	89.31
442.264	93.31
442.486	78.31
442.707	79.31
442.928	84.31
443.149	83.31
443.371	82.31
443.592	77.31
443.813	81.31
444.034	84.31
444.255	94.31
444.476	83.31
444.698	85.31
444.919	89.31
445.14	149.31
445.361	107.31
445.582	71.31
445.803	82.31
446.024	72.31
446.245	90.31
446.466	81.31
446.687	81.31
446.908	93.31
447.129	80.31
447.35	78.31
447.571	92.31
447.792	89.31
448.013	88.31
448.234	84.31
448.455	82.31
448.675	79.31
448.896	85.31
449.117	94.31
449.338	82.31
449.559	80.31
449.779	76.31
450	100.31
450.221	81.31
450.442	77.31
450.662	85.31
450.883	80.31
451.104	74.31
451.324	71.31
451.545	68.31
451.766	93.31
451.986	79.31
452.207	88.31
452.428	88.31
452.648	94.31
452.869	94.31
453.089	74.31
453.31	93.31
453.53	88.31
453.751	88.31
453.971	98.31
454.192	89.31
454.412	96.31
454.633	84.31
454.853	82.31
455.073	83.31
455.294	66.31
455.514	85.31
455.734	90.31
455.955	81.31
456.175	74.31
456.395	82.31
456.616	79.31
456.836	79.31
457.056	76.31
457.276	85.31
457.497	85.31
457.717	80.31
457.937	85.31
458.157	76.31
458.377	88.31
458.598	72.31
458.818	79.31
459.038	78.31
459.258	83.31
459.478	70.31
459.698	68.31
459.918	88.31
460.138	92.31
460.358	68.31
460.578	84.31
460.798	95.31
461.018	78.31
461.238	83.31
461.458	84.31
461.678	101.31
461.898	93.31
462.118	90.31
462.338	91.31
462.558	97.31
462.777	98.31
462.997	70.31
463.217	75.31
463.437	78.31
463.657	78.31
463.876	77.31
464.096	95.31
464.316	73.31
464.536	83.31
464.755	91.31
464.975	82.31
465.195	85.31
465.414	88.31
465.634	88.31
465.854	91.31
466.073	75.31
466.293	91.31
466.512	95.31
466.732	88.31
466.951	78.31
467.171	82.31
467.391	71.31
467.61	87.31
467.829	85.31
468.049	84.31
468.268	82.31
468.488	91.31
468.707	80.31
468.927	88.31
469.146	101.31
469.365	86.31
469.585	90.31
469.804	77.31
470.023	77.31
470.243	81.31
470.462	85.31
470.681	81.31
470.901	76.31
471.12	88.31
471.339	76.31
471.558	85.31
471.777	94.31
471.997	80.31
472.216	97.31
472.435	84.31
472.654	85.31
472.873	91.31
473.092	74.31
473.311	79.31
473.53	88.31
473.749	97.31
473.968	90.31
474.187	95.31
474.406	85.31
474.625	87.31
474.844	97.31
475.063	84.31
475.282	84.31
475.501	85.31
475.72	92.31
475.939	93.31
476.158	87.31
476.377	79.31
476.596	100.31
476.814	73.31
477.033	88.31
477.252	81.31
477.471	82.31
477.69	76.31
477.908	85.31
478.127	88.31
478.346	78.31
478.564	75.31
478.783	91.31
479.002	80.31
479.22	72.31
479.439	93.31
479.658	74.31
479.876	82.31
480.095	88.31
480.313	74.31
480.532	85.31
480.751	81.31
480.969	82.31
481.188	91.31
481.406	73.31
481.624	62.31
481.843	90.31
482.061	83.31
482.28	99.31
482.498	85.31
482.717	81.31
482.935	81.31
483.153	82.31
483.372	91.31
483.59	88.31
483.808	83.31
484.027	81.31
484.245	89.31
484.463	88.31
484.681	90.31
484.9	92.31
485.118	84.31
485.336	84.31
485.554	76.31
485.772	85.31
485.99	90.31
486.209	89.31
486.427	97.31
486.645	80.31
486.863	77.31
487.081	76.31
487.299	81.31
487.517	78.31
487.735	93.31
487.953	105.31
488.171	82.31
488.389	83.31
488.607	90.31
488.825	92.31
489.043	87.31
489.261	92.31
489.479	95.31
489.696	86.31
489.914	89.31
490.132	70.31
490.35	97.31
490.568	84.31
490.786	82.31
491.003	86.31
491.221	92.31
491.439	85.31
491.657	89.31
491.874	95.31
492.092	88.31
492.31	82.31
492.527	83.31
492.745	85.31
492.963	85.31
493.18	86.31
493.398	97.31
493.615	92.31
493.833	96.31
494.05	91.31
494.268	90.31
494.485	84.31
494.703	90.31
494.92	87.31
495.138	79.31
495.355	77.31
495.573	100.31
495.79	82.31
496.008	80.31
496.225	90.31
496.442	93.31
496.66	84.31
496.877	82.31
497.094	90.31
497.312	82.31
497.529	77.31
497.746	98.31
497.963	81.31
498.181	81.31
498.398	83.31
498.615	71.31
498.832	93.31
499.049	84.31
499.267	88.31
499.484	88.31
499.701	97.31
499.918	108.31
500.135	92.31
500.352	86.31
500.569	91.31
500.786	88.31
501.003	89.31
501.22	93.31
501.437	90.31
501.654	80.31
501.871	95.31
502.088	89.31
502.305	85.31
502.522	88.31
502.739	88.31
502.956	83.31
503.172	89.31
503.389	91.31
503.606	83.31
503.823	81.31
504.04	79.31
504.256	82.31
504.473	93.31
504.69	91.31
504.907	96.31
505.123	78.31
505.34	80.31
505.557	81.31
505.773	87.31
505.99	89.31
506.207	93.31
506.423	76.31
506.64	87.31
506.856	80.31
507.073	91.31
507.289	96.31
507.506	80.31
507.722	74.31
507.939	85.31
508.155	85.31
508.372	85.31
508.588	85.31
508.805	87.31
509.021	86.31
509.238	88.31
509.454	79.31
509.67	78.31
509.887	84.31
510.103	95.31
510.319	81.31
510.536	91.31
510.752	82.31
510.968	78.31
511.184	83.31
511.401	88.31
511.617	79.31
511.833	74.31
512.049	83.31
512.265	83.31
512.481	86.31
512.698	79.31
512.914	97.31
513.13	91.31
513.346	80.31
513.562	86.31
513.778	88.31
513.994	96.31
514.21	81.31
514.426	93.31
514.642	102.31
514.858	84.31
515.074	90.31
515.29	77.31
515.506	77.31
515.721	76.31
515.937	88.31
516.153	87.31
516.369	90.31
516.585	88.31
516.801	86.31
517.016	81.31
517.232	85.31
517.448	81.31
517.664	89.31
517.879	85.31
518.095	94.31
518.311	85.31
518.527	70.31
518.742	97.31
518.958	69.31
519.173	87.31
519.389	70.31
519.605	79.31
519.82	90.31
520.036	95.31
520.251	92.31
520.467	82.31
520.682	82.31
520.898	88.31
521.113	83.31
521.329	77.31
521.544	88.31
521.76	99.31
521.975	90.31
522.19	86.31
522.406	89.31
522.621	77.31
522.836	94.31
523.052	88.31
523.267	62.31
523.482	86.31
523.698	88.31
523.913	82.31
524.128	106.31
524.343	104.31
524.559	77.31
524.774	85.31
524.989	97.31
525.204	81.31
525.419	94.31
525.634	81.31
525.849	87.31
526.064	80.31
526.28	83.31
526.495	77.31
526.71	92.31
526.925	89.31
527.14	73.31
527.355	89.31
527.57	97.31
527.785	92.31
527.999	98.31
528.214	72.31
528.429	62.31
528.644	93.31
528.859	82.31
529.074	76.31
529.289	83.31
529.503	86.31
529.718	89.31
529.933	83.31
530.148	74.31
530.363	80.31
530.577	91.31
530.792	86.31
531.007	93.31
531.221	85.31
531.436	82.31
531.651	89.31
531.865	82.31
532.08	75.31
532.295	81.31
532.509	83.31
532.724	71.31
532.938	88.31
533.153	82.31
533.367	83.31
533.582	88.31
533.796	78.31
534.011	85.31
534.225	97.31
534.44	92.31
534.654	89.31
534.868	102.31
535.083	89.31
535.297	76.31
535.511	89.31
535.726	91.31
535.94	88.31
536.154	95.31
536.369	77.31
536.583	84.31
536.797	88.31
537.011	96.31
537.225	88.31
537.44	85.31
537.654	90.31
537.868	79.31
538.082	82.31
538.296	72.31
538.51	92.31
538.724	93.31
538.938	94.31
539.153	105.31
539.367	89.31
539.581	82.31
539.795	82.31
540.009	90.31
540.222	94.31
540.436	75.31
540.65	86.31
540.864	82.31
541.078	85.31
541.292	90.31
541.506	90.31
541.72	90.31
541.934	91.31
542.147	93.31
542.361	95.31
542.575	91.31
542.789	90.31
543.002	79.31
543.216	96.31
543.43	76.31
543.644	94.31
543.857	89.31
544.071	86.31
544.285	78.31
544.498	95.31
544.712	99.31
544.925	100.31
545.139	96.31
545.352	83.31
545.566	83.31
545.779	101.31
545.993	91.31
546.206	92.31
546.42	79.31
546.633	91.31
546.847	84.31
547.06	87.31
547.274	88.31
547.487	90.31
547.7	96.31
547.914	85.31
548.127	86.31
548.34	89.31
548.554	77.31
548.767	78.31
548.98	97.31
549.193	83.31
549.407	93.31
549.62	76.31
549.833	95.31
550.046	100.31
550.259	94.31
550.473	90.31
550.686	91.31
550.899	90.31
551.112	93.31
551.325	91.31
551.538	91.31
551.751	90.31
551.964	97.31
552.177	83.31
552.39	90.31
552.603	93.31
552.816	90.31
553.029	81.31
553.242	95.31
553.455	96.31
553.667	70.31
553.88	95.31
554.093	88.31
554.306	89.31
554.519	81.31
554.732	94.31
554.944	94.31
555.157	85.31
555.37	102.31
555.583	84.31
555.795	92.31
556.008	86.31
556.221	90.31
556.433	85.31
556.646	88.31
556.859	100.31
557.071	90.31
557.284	89.31
557.496	90.31
557.709	93.31
557.921	91.31
558.134	92.31
558.346	113.31
558.559	94.31
558.771	83.31
558.984	75.31
559.196	92.31
559.409	74.31
559.621	88.31
559.833	89.31
560.046	84.31
560.258	101.31
560.47	95.31
560.683	97.31
560.895	82.31
561.107	86.31
561.32	87.31
561.532	87.31
561.744	85.31
561.956	84.31
562.168	83.31
562.381	85.31
562.593	100.31
562.805	102.31
563.017	88.31
563.229	75.31
563.441	77.31
563.653	94.31
563.865	97.31
564.077	76.31
564.289	92.31
564.501	98.31
564.713	84.31
564.925	83.31
565.137	85.31
565.349	76.31
565.561	85.31
565.773	106.31
565.985	93.31
566.197	102.31
566.408	94.31
566.62	96.31
566.832	82.31
567.044	74.31
567.255	77.31
567.467	83.31
567.679	86.31
567.891	91.31
568.102	104.31
568.314	74.31
568.526	81.31
568.737	98.31
568.949	95.31
569.161	105.31
569.372	84.31
569.584	68.31
569.795	90.31
570.007	84.31
570.218	89.31
570.43	74.31
570.641	86.31
570.853	83.31
571.064	105.31
571.276	86.31
571.487	77.31
571.698	93.31
571.91	93.31
572.121	79.31
572.333	92.31
572.544	82.31
572.755	79.31
572.966	91.31
573.178	100.31
573.389	91.31
573.6	87.31
573.811	88.31
574.023	82.31
574.234	78.31
574.445	82.31
574.656	79.31
574.867	88.31
575.078	91.31
575.289	71.31
575.501	93.31
575.712	92.31
575.923	80.31
576.134	84.31
576.345	92.31
576.556	83.31
576.767	85.31
576.978	87.31
577.188	80.31
577.399	99.31
577.61	105.31
577.821	89.31
578.032	75.31
578.243	88.31
578.454	92.31
578.665	92.31
578.875	86.31
579.086	89.31
579.297	79.31
579.508	84.31
579.718	78.31
579.929	84.31
580.14	81.31
580.35	78.31
580.561	96.31
580.772	89.31
580.982	91.31
581.193	89.31
581.403	88.31
581.614	89.31
581.825	76.31
582.035	78.31
582.246	102.31
582.456	81.31
582.667	89.31
582.877	89.31
583.087	78.31
583.298	85.31
583.508	89.31
583.719	86.31
583.929	90.31
584.139	75.31
584.35	81.31
584.56	75.31
584.77	92.31
584.981	85.31
585.191	97.31
585.401	97.31
585.611	85.31
585.821	106.31
586.032	79.31
586.242	82.31
586.452	75.31
586.662	82.31
586.872	83.31
587.082	80.31
587.292	87.31
587.502	81.31
587.713	77.31
587.923	63.31
588.133	86.31
588.343	80.31
588.553	92.31
588.762	92.31
588.972	81.31
589.182	91.31
589.392	84.31
589.602	80.31
589.812	93.31
590.022	86.31
590.232	86.31
590.441	82.31
590.651	95.31
590.861	82.31
591.071	83.31
591.281	98.31
591.49	90.31
591.7	85.31
591.91	93.31
592.119	94.31
592.329	76.31
592.539	77.31
592.748	87.31
592.958	90.31
593.167	76.31
593.377	92.31
593.587	106.31
593.796	92.31
594.006	90.31
594.215	80.31
594.424	76.31
594.634	79.31
594.843	84.31
595.053	76.31
595.262	77.31
595.472	87.31
595.681	88.31
595.89	77.31
596.1	89.31
596.309	90.31
596.518	87.31
596.727	83.31
596.937	84.31
597.146	75.31
597.355	82.31
597.564	84.31
597.774	88.31
597.983	85.31
598.192	90.31
598.401	85.31
598.61	90.31
598.819	76.31
599.028	78.31
599.237	74.31
599.446	96.31
599.655	85.31
599.864	91.31
600.073	89.31
600.282	83.31
600.491	83.31
600.7	84.31
600.909	81.31
601.118	88.31
601.327	88.31
601.536	87.31
601.745	91.31
601.953	89.31
602.162	91.31
602.371	87.31
602.58	79.31
602.789	88.31
602.997	90.31
603.206	88.31
603.415	80.31
603.623	90.31
603.832	84.31
604.041	93.31
604.249	100.31
604.458	92.31
604.666	86.31
604.875	86.31
605.084	82.31
605.292	93.31
605.501	82.31
605.709	93.31
605.918	90.31
606.126	97.31
606.334	86.31
606.543	74.31
606.751	96.31
606.96	87.31
607.168	84.31
607.376	78.31
607.585	78.31
607.793	78.31
608.001	87.31
608.21	88.31
608.418	99.31
608.626	83.31
608.834	88.31
609.043	82.31
609.251	91.31
609.459	81.31
609.667	97.31
609.875	91.31
610.083	88.31
610.291	84.31
610.499	85.31
610.707	84.31
610.916	88.31
611.124	79.31
611.332	92.31
611.54	87.31
611.748	100.31
611.955	80.31
612.163	80.31
612.371	76.31
612.579	86.31
612.787	90.31
612.995	101.31
613.203	104.31
613.411	88.31
613.618	73.31
613.826	78.31
614.034	95.31
614.242	101.31
614.449	88.31
614.657	95.31
614.865	88.31
615.072	86.31
615.28	99.31
615.488	80.31
615.695	86.31
615.903	92.31
616.111	92.31
616.318	91.31
616.526	81.31
616.733	89.31
616.941	89.31
617.148	89.31
617.356	70.31
617.563	58.31
617.771	72.31
617.978	93.31
618.185	89.31
618.393	101.31
618.6	77.31
618.807	77.31
619.015	76.31
619.222	90.31
619.429	80.31
619.637	88.31
619.844	84.31
620.051	83.31
620.258	84.31
620.466	75.31
620.673	84.31
620.88	93.31
621.087	88.31
621.294	80.31
621.501	74.31
621.708	86.31
621.915	88.31
622.122	94.31
622.329	84.31
622.536	86.31
622.743	93.31
622.95	91.31
623.157	90.31
623.364	90.31
623.571	89.31
623.778	75.31
623.985	79.31
624.192	87.31
624.399	86.31
624.606	88.31
624.812	98.31
625.019	86.31
625.226	89.31
625.433	85.31
625.639	82.31
625.846	87.31
626.053	83.31
626.259	90.31
626.466	84.31
626.673	89.31
626.879	82.31
627.086	93.31
627.293	83.31
627.499	105.31
627.706	84.31
627.912	97.31
628.119	79.31
628.325	81.31
628.532	92.31
628.738	82.31
628.945	80.31
629.151	80.31
629.357	97.31
629.564	70.31
629.77	94.31
629.976	83.31
630.183	86.31
630.389	86.31
630.595	77.31
630.802	85.31
631.008	92.31
631.214	90.31
631.42	89.31
631.627	81.31
631.833	83.31
632.039	74.31
632.245	85.31
632.451	92.31
632.657	88.31
632.863	70.31
633.069	77.31
633.275	88.31
633.481	85.31
633.688	80.31
633.893	83.31
634.099	73.31
634.305	82.31
634.511	90.31
634.717	92.31
634.923	72.31
635.129	83.31
635.335	94.31
635.541	74.31
635.747	74.31
635.952	75.31
636.158	74.31
636.364	90.31
636.57	84.31
636.775	97.31
636.981	82.31
637.187	109.31
637.392	93.31
637.598	79.31
637.804	94.31
638.009	69.31
638.215	86.31
638.421	85.31
638.626	86.31
638.832	64.31
639.037	94.31
639.243	77.31
639.448	81.31
639.654	85.31
639.859	84.31
640.065	85.31
640.27	87.31
640.475	85.31
640.681	88.31
640.886	88.31
641.091	94.31
641.297	89.31
641.502	75.31
641.707	86.31
641.913	82.31
642.118	77.31
642.323	84.31
642.528	106.31
642.733	93.31
642.939	90.31
643.144	86.31
643.349	83.31
643.554	85.31
643.759	71.31
643.964	90.31
644.169	78.31
644.374	80.31
644.579	85.31
644.784	74.31
644.989	95.31
645.194	84.31
645.399	76.31
645.604	96.31
645.809	92.31
646.014	82.31
646.219	75.31
646.423	95.31
646.628	96.31
646.833	95.31
647.038	75.31
647.243	85.31
647.447	105.31
647.652	97.31
647.857	72.31
648.062	105.31
648.266	90.31
648.471	79.31
648.676	82.31
648.88	83.31
649.085	88.31
649.289	86.31
649.494	88.31
649.698	82.31
649.903	88.31
650.107	91.31
650.312	100.31
650.516	76.31
650.721	91.31
650.925	87.31
651.13	99.31
651.334	97.31
651.539	83.31
651.743	90.31
651.947	86.31
652.152	93.31
652.356	90.31
652.56	82.31
652.764	73.31
652.969	92.31
653.173	85.31
653.377	82.31
653.581	79.31
653.785	70.31
653.99	81.31
654.194	82.31
654.398	73.31
654.602	81.31
654.806	90.31
655.01	88.31
655.214	77.31
655.418	91.31
655.622	77.31
655.826	74.31
656.03	70.31
656.234	84.31
656.438	87.31
656.642	90.31
656.846	91.31
657.049	91.31
657.253	79.31
657.457	93.31
657.661	65.31
657.865	74.31
658.068	82.31
658.272	89.31
658.476	79.31
658.68	93.31
658.883	86.31
659.087	75.31
659.291	81.31
659.494	92.31
659.698	66.31
659.901	90.31
660.105	78.31
660.309	84.31
660.512	89.31
660.716	92.31
660.919	86.31
661.123	96.31
661.326	82.31
661.53	79.31
661.733	84.31
661.936	87.31
662.14	76.31
662.343	94.31
662.546	77.31
662.75	85.31
662.953	85.31
663.156	77.31
663.36	76.31
663.563	84.31
663.766	86.31
663.969	88.31
664.173	74.31
664.376	85.31
664.579	81.31
664.782	71.31
664.985	98.31
665.188	83.31
665.391	83.31
665.594	83.31
665.797	85.31
666	75.31
666.203	88.31
666.406	88.31
666.609	80.31
666.812	88.31
667.015	80.31
667.218	81.31
667.421	88.31
667.624	76.31
667.827	74.31
668.03	88.31
668.232	90.31
668.435	90.31
668.638	90.31
668.841	93.31
669.043	69.31
669.246	88.31
669.449	88.31
669.651	86.31
669.854	85.31
670.057	81.31
670.259	81.31
670.462	76.31
670.665	86.31
670.867	81.31
671.07	92.31
671.272	100.31
671.475	80.31
671.677	89.31
671.88	71.31
672.082	88.31
672.284	85.31
672.487	78.31
672.689	77.31
672.892	86.31
