Data from StdD_HRD10591_019.txt Node
Date: Fri May 16 15:31:30 EDT 2025
User: Yrep
Spectrometer: HR+D1059
Trigger mode: 1
Integration Time (sec): 1.000000E-1
Scans to average: 1
Electric dark correction enabled: true
Nonlinearity correction enabled: false
Boxcar width: 0
XAxis mode: Wavelengths
Number of Pixels in Spectrum: 2048
>>>>>Begin Spectral Data<<<<<
223.165	-10.5
223.4	-10.5
223.635	-10.5
223.869	-23.5
224.104	-8.5
224.338	-21.5
224.573	-1.5
224.808	-22.5
225.042	-16.5
225.277	-9.5
225.511	-24.5
225.746	7.5
225.98	7.5
226.215	12.5
226.449	21.5
226.683	21.5
226.918	38.5
227.152	29.5
227.387	46.5
227.621	39.5
227.856	33.5
228.09	37.5
228.324	51.5
228.559	50.5
228.793	40.5
229.027	51.5
229.262	57.5
229.496	55.5
229.73	59.5
229.964	57.5
230.199	63.5
230.433	67.5
230.667	78.5
230.901	72.5
231.136	90.5
231.37	67.5
231.604	78.5
231.838	82.5
232.072	75.5
232.306	88.5
232.541	79.5
232.775	70.5
233.009	80.5
233.243	80.5
233.477	85.5
233.711	72.5
233.945	71.5
234.179	82.5
234.413	78.5
234.647	76.5
234.881	86.5
235.115	64.5
235.349	78.5
235.583	70.5
235.817	79.5
236.051	67.5
236.285	60.5
236.519	60.5
236.753	64.5
236.987	76.5
237.221	76.5
237.455	61.5
237.689	72.5
237.922	83.5
238.156	70.5
238.39	52.5
238.624	76.5
238.858	78.5
239.091	77.5
239.325	62.5
239.559	86.5
239.793	77.5
240.027	79.5
240.26	71.5
240.494	76.5
240.728	78.5
240.961	70.5
241.195	62.5
241.429	77.5
241.662	55.5
241.896	70.5
242.13	78.5
242.363	71.5
242.597	62.5
242.83	65.5
243.064	68.5
243.298	68.5
243.531	75.5
243.765	82.5
243.998	75.5
244.232	88.5
244.465	77.5
244.699	56.5
244.932	77.5
245.166	68.5
245.399	75.5
245.633	76.5
245.866	64.5
246.099	63.5
246.333	70.5
246.566	52.5
246.8	79.5
247.033	78.5
247.266	69.5
247.5	90.5
247.733	81.5
247.966	84.5
248.2	57.5
248.433	81.5
248.666	70.5
248.899	79.5
249.133	65.5
249.366	86.5
249.599	82.5
249.832	72.5
250.066	78.5
250.299	77.5
250.532	67.5
250.765	72.5
250.998	73.5
251.231	72.5
251.465	83.5
251.698	75.5
251.931	86.5
252.164	74.5
252.397	58.5
252.63	74.5
252.863	67.5
253.096	90.5
253.329	72.5
253.562	62.5
253.795	83.5
254.028	83.5
254.261	75.5
254.494	87.5
254.727	84.5
254.96	85.5
255.193	92.5
255.426	79.5
255.659	71.5
255.892	66.5
256.124	75.5
256.357	70.5
256.59	64.5
256.823	85.5
257.056	64.5
257.289	70.5
257.521	74.5
257.754	79.5
257.987	70.5
258.22	72.5
258.452	78.5
258.685	82.5
258.918	84.5
259.151	79.5
259.383	73.5
259.616	85.5
259.849	79.5
260.081	80.5
260.314	72.5
260.547	84.5
260.779	76.5
261.012	79.5
261.244	88.5
261.477	87.5
261.71	79.5
261.942	75.5
262.175	71.5
262.407	70.5
262.64	76.5
262.872	83.5
263.105	84.5
263.337	74.5
263.57	77.5
263.802	84.5
264.035	79.5
264.267	68.5
264.499	80.5
264.732	91.5
264.964	62.5
265.197	76.5
265.429	76.5
265.661	75.5
265.894	84.5
266.126	82.5
266.358	92.5
266.591	85.5
266.823	76.5
267.055	81.5
267.287	62.5
267.52	61.5
267.752	79.5
267.984	77.5
268.216	89.5
268.448	68.5
268.681	79.5
268.913	74.5
269.145	91.5
269.377	84.5
269.609	67.5
269.841	85.5
270.073	61.5
270.306	83.5
270.538	79.5
270.77	82.5
271.002	78.5
271.234	75.5
271.466	81.5
271.698	81.5
271.93	69.5
272.162	70.5
272.394	73.5
272.626	80.5
272.858	79.5
273.09	82.5
273.322	70.5
273.553	86.5
273.785	86.5
274.017	85.5
274.249	83.5
274.481	83.5
274.713	94.5
274.945	70.5
275.176	85.5
275.408	83.5
275.64	66.5
275.872	76.5
276.104	80.5
276.335	83.5
276.567	93.5
276.799	78.5
277.031	77.5
277.262	74.5
277.494	84.5
277.726	72.5
277.957	83.5
278.189	73.5
278.421	81.5
278.652	85.5
278.884	84.5
279.115	83.5
279.347	89.5
279.579	73.5
279.81	91.5
280.042	71.5
280.273	74.5
280.505	85.5
280.736	79.5
280.968	85.5
281.199	86.5
281.431	82.5
281.662	78.5
281.894	90.5
282.125	92.5
282.356	70.5
282.588	82.5
282.819	86.5
283.051	87.5
283.282	95.5
283.513	76.5
283.745	77.5
283.976	86.5
284.207	80.5
284.439	76.5
284.67	71.5
284.901	84.5
285.132	81.5
285.364	73.5
285.595	81.5
285.826	88.5
286.057	71.5
286.288	74.5
286.52	75.5
286.751	78.5
286.982	86.5
287.213	79.5
287.444	79.5
287.675	86.5
287.906	73.5
288.138	76.5
288.369	74.5
288.6	93.5
288.831	90.5
289.062	91.5
289.293	82.5
289.524	68.5
289.755	76.5
289.986	89.5
290.217	88.5
290.448	70.5
290.679	67.5
290.91	72.5
291.141	78.5
291.371	77.5
291.602	77.5
291.833	81.5
292.064	67.5
292.295	67.5
292.526	74.5
292.757	80.5
292.987	78.5
293.218	79.5
293.449	86.5
293.68	87.5
293.91	79.5
294.141	76.5
294.372	92.5
294.603	89.5
294.833	78.5
295.064	80.5
295.295	85.5
295.525	82.5
295.756	80.5
295.987	90.5
296.217	94.5
296.448	75.5
296.679	83.5
296.909	91.5
297.14	78.5
297.37	88.5
297.601	90.5
297.831	79.5
298.062	70.5
298.292	71.5
298.523	64.5
298.753	88.5
298.984	74.5
299.214	78.5
299.445	82.5
299.675	89.5
299.905	77.5
300.136	92.5
300.366	58.5
300.597	80.5
300.827	90.5
301.057	86.5
301.288	85.5
301.518	86.5
301.748	76.5
301.979	91.5
302.209	76.5
302.439	77.5
302.669	98.5
302.9	85.5
303.13	79.5
303.36	82.5
303.59	80.5
303.82	83.5
304.051	95.5
304.281	74.5
304.511	78.5
304.741	79.5
304.971	79.5
305.201	75.5
305.431	85.5
305.661	70.5
305.891	81.5
306.121	63.5
306.352	82.5
306.582	76.5
306.812	88.5
307.042	87.5
307.272	90.5
307.502	88.5
307.731	87.5
307.961	85.5
308.191	79.5
308.421	93.5
308.651	73.5
308.881	77.5
309.111	88.5
309.341	94.5
309.571	89.5
309.8	93.5
310.03	83.5
310.26	100.5
310.49	73.5
310.72	60.5
310.949	90.5
311.179	92.5
311.409	93.5
311.639	89.5
311.868	79.5
312.098	94.5
312.328	78.5
312.557	87.5
312.787	66.5
313.017	77.5
313.246	89.5
313.476	81.5
313.706	84.5
313.935	81.5
314.165	89.5
314.394	88.5
314.624	79.5
314.853	83.5
315.083	70.5
315.312	96.5
315.542	90.5
315.771	87.5
316.001	82.5
316.23	82.5
316.46	76.5
316.689	75.5
316.919	68.5
317.148	95.5
317.377	91.5
317.607	92.5
317.836	77.5
318.065	91.5
318.295	75.5
318.524	86.5
318.753	89.5
318.983	83.5
319.212	80.5
319.441	87.5
319.67	80.5
319.9	86.5
320.129	102.5
320.358	85.5
320.587	67.5
320.816	77.5
321.046	77.5
321.275	86.5
321.504	84.5
321.733	82.5
321.962	80.5
322.191	87.5
322.42	90.5
322.649	77.5
322.878	88.5
323.108	83.5
323.337	77.5
323.566	81.5
323.795	85.5
324.024	84.5
324.253	80.5
324.482	80.5
324.71	90.5
324.939	101.5
325.168	89.5
325.397	88.5
325.626	82.5
325.855	83.5
326.084	88.5
326.313	84.5
326.542	89.5
326.77	82.5
326.999	83.5
327.228	85.5
327.457	87.5
327.686	78.5
327.914	80.5
328.143	87.5
328.372	74.5
328.6	81.5
328.829	89.5
329.058	90.5
329.287	87.5
329.515	71.5
329.744	71.5
329.972	84.5
330.201	78.5
330.43	81.5
330.658	78.5
330.887	79.5
331.115	68.5
331.344	75.5
331.572	95.5
331.801	79.5
332.03	103.5
332.258	68.5
332.486	78.5
332.715	85.5
332.943	84.5
333.172	85.5
333.4	79.5
333.629	79.5
333.857	75.5
334.085	92.5
334.314	79.5
334.542	90.5
334.771	84.5
334.999	75.5
335.227	73.5
335.455	82.5
335.684	90.5
335.912	82.5
336.14	83.5
336.369	78.5
336.597	92.5
336.825	93.5
337.053	89.5
337.281	76.5
337.51	91.5
337.738	96.5
337.966	86.5
338.194	71.5
338.422	79.5
338.65	91.5
338.878	95.5
339.106	66.5
339.334	102.5
339.562	79.5
339.79	82.5
340.018	76.5
340.246	94.5
340.474	75.5
340.702	85.5
340.93	77.5
341.158	89.5
341.386	80.5
341.614	79.5
341.842	85.5
342.07	81.5
342.298	86.5
342.526	74.5
342.754	80.5
342.981	86.5
343.209	81.5
343.437	79.5
343.665	78.5
343.893	74.5
344.12	88.5
344.348	89.5
344.576	70.5
344.804	81.5
345.031	88.5
345.259	69.5
345.487	82.5
345.714	80.5
345.942	77.5
346.17	81.5
346.397	84.5
346.625	87.5
346.853	78.5
347.08	83.5
347.308	84.5
347.535	73.5
347.763	69.5
347.99	92.5
348.218	88.5
348.445	92.5
348.673	79.5
348.9	80.5
349.128	89.5
349.355	86.5
349.583	80.5
349.81	76.5
350.037	70.5
350.265	78.5
350.492	79.5
350.72	81.5
350.947	101.5
351.174	80.5
351.402	72.5
351.629	85.5
351.856	75.5
352.083	74.5
352.311	82.5
352.538	96.5
352.765	83.5
352.992	85.5
353.22	86.5
353.447	79.5
353.674	85.5
353.901	89.5
354.128	83.5
354.355	67.5
354.583	81.5
354.81	72.5
355.037	77.5
355.264	87.5
355.491	78.5
355.718	91.5
355.945	84.5
356.172	78.5
356.399	70.5
356.626	71.5
356.853	79.5
357.08	85.5
357.307	68.5
357.534	80.5
357.761	72.5
357.988	70.5
358.215	83.5
358.441	78.5
358.668	72.5
358.895	88.5
359.122	65.5
359.349	66.5
359.576	95.5
359.802	73.5
360.029	86.5
360.256	80.5
360.483	78.5
360.709	80.5
360.936	92.5
361.163	75.5
361.39	89.5
361.616	75.5
361.843	78.5
362.07	91.5
362.296	85.5
362.523	82.5
362.749	88.5
362.976	76.5
363.203	89.5
363.429	82.5
363.656	64.5
363.882	88.5
364.109	82.5
364.335	85.5
364.562	75.5
364.788	82.5
365.015	70.5
365.241	80.5
365.468	78.5
365.694	76.5
365.92	83.5
366.147	77.5
366.373	81.5
366.599	94.5
366.826	76.5
367.052	83.5
367.278	87.5
367.505	95.5
367.731	78.5
367.957	84.5
368.184	91.5
368.41	88.5
368.636	80.5
368.862	82.5
369.089	76.5
369.315	78.5
369.541	92.5
369.767	77.5
369.993	76.5
370.219	72.5
370.445	72.5
370.672	75.5
370.898	74.5
371.124	86.5
371.35	83.5
371.576	81.5
371.802	66.5
372.028	83.5
372.254	84.5
372.48	79.5
372.706	74.5
372.932	72.5
373.158	82.5
373.384	65.5
373.61	87.5
373.835	85.5
374.061	75.5
374.287	80.5
374.513	84.5
374.739	69.5
374.965	84.5
375.191	81.5
375.416	73.5
375.642	77.5
375.868	102.5
376.094	90.5
376.319	63.5
376.545	87.5
376.771	94.5
376.997	72.5
377.222	86.5
377.448	67.5
377.674	78.5
377.899	87.5
378.125	85.5
378.35	69.5
378.576	69.5
378.802	71.5
379.027	73.5
379.253	97.5
379.478	73.5
379.704	74.5
379.929	76.5
380.155	94.5
380.38	79.5
380.606	78.5
380.831	93.5
381.057	64.5
381.282	90.5
381.507	59.5
381.733	64.5
381.958	92.5
382.184	75.5
382.409	90.5
382.634	90.5
382.86	68.5
383.085	81.5
383.31	91.5
383.535	86.5
383.761	80.5
383.986	82.5
384.211	84.5
384.436	87.5
384.662	71.5
384.887	74.5
385.112	84.5
385.337	74.5
385.562	60.5
385.787	78.5
386.013	91.5
386.238	76.5
386.463	103.5
386.688	87.5
386.913	77.5
387.138	77.5
387.363	75.5
387.588	89.5
387.813	76.5
388.038	87.5
388.263	73.5
388.488	69.5
388.713	80.5
388.938	72.5
389.163	79.5
389.387	68.5
389.612	69.5
389.837	80.5
390.062	78.5
390.287	87.5
390.512	83.5
390.736	91.5
390.961	74.5
391.186	69.5
391.411	75.5
391.636	64.5
391.86	73.5
392.085	70.5
392.31	85.5
392.534	93.5
392.759	89.5
392.984	71.5
393.208	87.5
393.433	86.5
393.658	95.5
393.882	90.5
394.107	82.5
394.331	84.5
394.556	78.5
394.78	65.5
395.005	90.5
395.229	80.5
395.454	80.5
395.678	88.5
395.903	78.5
396.127	84.5
396.352	81.5
396.576	73.5
396.801	80.5
397.025	80.5
397.249	87.5
397.474	80.5
397.698	72.5
397.922	85.5
398.147	78.5
398.371	62.5
398.595	89.5
398.82	78.5
399.044	74.5
399.268	70.5
399.492	70.5
399.717	90.5
399.941	75.5
400.165	74.5
400.389	80.5
400.613	82.5
400.837	81.5
401.062	74.5
401.286	61.5
401.51	83.5
401.734	66.5
401.958	83.5
402.182	88.5
402.406	94.5
402.63	72.5
402.854	81.5
403.078	69.5
403.302	61.5
403.526	82.5
403.75	84.5
403.974	74.5
404.198	90.5
404.422	72.5
404.645	71.5
404.869	85.5
405.093	71.5
405.317	73.5
405.541	71.5
405.765	86.5
405.988	76.5
406.212	74.5
406.436	76.5
406.66	87.5
406.883	87.5
407.107	74.5
407.331	61.5
407.555	80.5
407.778	60.5
408.002	83.5
408.226	85.5
408.449	86.5
408.673	72.5
408.896	83.5
409.12	81.5
409.344	67.5
409.567	77.5
409.791	65.5
410.014	84.5
410.238	78.5
410.461	74.5
410.685	86.5
410.908	84.5
411.132	78.5
411.355	60.5
411.578	77.5
411.802	83.5
412.025	73.5
412.249	86.5
412.472	74.5
412.695	79.5
412.919	79.5
413.142	86.5
413.365	82.5
413.589	85.5
413.812	75.5
414.035	85.5
414.258	75.5
414.482	81.5
414.705	86.5
414.928	65.5
415.151	82.5
415.374	82.5
415.597	73.5
415.821	76.5
416.044	73.5
416.267	88.5
416.49	72.5
416.713	70.5
416.936	75.5
417.159	76.5
417.382	86.5
417.605	81.5
417.828	83.5
418.051	74.5
418.274	96.5
418.497	76.5
418.72	73.5
418.943	94.5
419.166	71.5
419.389	72.5
419.611	77.5
419.834	84.5
420.057	82.5
420.28	78.5
420.503	66.5
420.726	84.5
420.948	89.5
421.171	80.5
421.394	74.5
421.617	82.5
421.839	88.5
422.062	83.5
422.285	85.5
422.507	81.5
422.73	91.5
422.953	77.5
423.175	80.5
423.398	70.5
423.621	72.5
423.843	93.5
424.066	70.5
424.288	96.5
424.511	78.5
424.733	91.5
424.956	84.5
425.178	71.5
425.401	71.5
425.623	70.5
425.846	75.5
426.068	62.5
426.291	78.5
426.513	77.5
426.735	77.5
426.958	66.5
427.18	87.5
427.402	72.5
427.625	91.5
427.847	85.5
428.069	66.5
428.292	88.5
428.514	84.5
428.736	73.5
428.958	74.5
429.181	77.5
429.403	76.5
429.625	86.5
429.847	76.5
430.069	83.5
430.292	87.5
430.514	80.5
430.736	76.5
430.958	80.5
431.18	85.5
431.402	60.5
431.624	69.5
431.846	78.5
432.068	85.5
432.29	74.5
432.512	67.5
432.734	77.5
432.956	79.5
433.178	83.5
433.4	71.5
433.622	81.5
433.844	73.5
434.066	80.5
434.287	87.5
434.509	87.5
434.731	64.5
434.953	75.5
435.175	73.5
435.397	65.5
435.618	72.5
435.84	71.5
436.062	65.5
436.284	60.5
436.505	74.5
436.727	75.5
436.949	76.5
437.17	77.5
437.392	67.5
437.614	74.5
437.835	67.5
438.057	52.5
438.278	72.5
438.5	98.5
438.721	75.5
438.943	70.5
439.165	80.5
439.386	73.5
439.608	83.5
439.829	77.5
440.05	78.5
440.272	71.5
440.493	78.5
440.715	87.5
440.936	89.5
441.158	96.5
441.379	82.5
441.6	80.5
441.822	83.5
442.043	79.5
442.264	87.5
442.486	79.5
442.707	82.5
442.928	66.5
443.149	91.5
443.371	83.5
443.592	101.5
443.813	82.5
444.034	92.5
444.255	79.5
444.476	95.5
444.698	66.5
444.919	72.5
445.14	147.5
445.361	100.5
445.582	79.5
445.803	71.5
446.024	94.5
446.245	74.5
446.466	94.5
446.687	77.5
446.908	78.5
447.129	84.5
447.35	84.5
447.571	88.5
447.792	71.5
448.013	83.5
448.234	95.5
448.455	82.5
448.675	70.5
448.896	87.5
449.117	86.5
449.338	79.5
449.559	94.5
449.779	66.5
450	87.5
450.221	87.5
450.442	69.5
450.662	77.5
450.883	65.5
451.104	67.5
451.324	85.5
451.545	77.5
451.766	73.5
451.986	76.5
452.207	86.5
452.428	93.5
452.648	75.5
452.869	76.5
453.089	66.5
453.31	90.5
453.53	78.5
453.751	75.5
453.971	66.5
454.192	75.5
454.412	75.5
454.633	67.5
454.853	62.5
455.073	63.5
455.294	62.5
455.514	89.5
455.734	88.5
455.955	70.5
456.175	71.5
456.395	88.5
456.616	71.5
456.836	80.5
457.056	76.5
457.276	65.5
457.497	60.5
457.717	78.5
457.937	80.5
458.157	84.5
458.377	78.5
458.598	92.5
458.818	79.5
459.038	81.5
459.258	82.5
459.478	90.5
459.698	79.5
459.918	91.5
460.138	72.5
460.358	86.5
460.578	78.5
460.798	86.5
461.018	74.5
461.238	74.5
461.458	89.5
461.678	70.5
461.898	95.5
462.118	74.5
462.338	84.5
462.558	91.5
462.777	85.5
462.997	89.5
463.217	90.5
463.437	71.5
463.657	80.5
463.876	81.5
464.096	83.5
464.316	86.5
464.536	74.5
464.755	74.5
464.975	78.5
465.195	79.5
465.414	77.5
465.634	78.5
465.854	86.5
466.073	86.5
466.293	80.5
466.512	84.5
466.732	82.5
466.951	78.5
467.171	84.5
467.391	89.5
467.61	84.5
467.829	91.5
468.049	80.5
468.268	77.5
468.488	79.5
468.707	70.5
468.927	76.5
469.146	77.5
469.365	82.5
469.585	82.5
469.804	74.5
470.023	86.5
470.243	83.5
470.462	83.5
470.681	77.5
470.901	74.5
471.12	65.5
471.339	93.5
471.558	80.5
471.777	77.5
471.997	67.5
472.216	74.5
472.435	75.5
472.654	77.5
472.873	67.5
473.092	92.5
473.311	96.5
473.53	93.5
473.749	74.5
473.968	68.5
474.187	74.5
474.406	65.5
474.625	67.5
474.844	84.5
475.063	75.5
475.282	75.5
475.501	68.5
475.72	86.5
475.939	74.5
476.158	74.5
476.377	81.5
476.596	75.5
476.814	79.5
477.033	86.5
477.252	78.5
477.471	75.5
477.69	75.5
477.908	67.5
478.127	76.5
478.346	87.5
478.564	83.5
478.783	80.5
479.002	84.5
479.22	74.5
479.439	70.5
479.658	78.5
479.876	82.5
480.095	84.5
480.313	96.5
480.532	85.5
480.751	88.5
480.969	76.5
481.188	75.5
481.406	78.5
481.624	79.5
481.843	86.5
482.061	75.5
482.28	90.5
482.498	74.5
482.717	88.5
482.935	75.5
483.153	69.5
483.372	93.5
483.59	79.5
483.808	78.5
484.027	80.5
484.245	89.5
484.463	75.5
484.681	72.5
484.9	77.5
485.118	78.5
485.336	76.5
485.554	71.5
485.772	74.5
485.99	79.5
486.209	76.5
486.427	73.5
486.645	71.5
486.863	92.5
487.081	85.5
487.299	75.5
487.517	83.5
487.735	88.5
487.953	84.5
488.171	91.5
488.389	76.5
488.607	72.5
488.825	88.5
489.043	69.5
489.261	87.5
489.479	96.5
489.696	86.5
489.914	89.5
490.132	71.5
490.35	73.5
490.568	78.5
490.786	80.5
491.003	91.5
491.221	87.5
491.439	74.5
491.657	84.5
491.874	98.5
492.092	79.5
492.31	81.5
492.527	80.5
492.745	78.5
492.963	94.5
493.18	80.5
493.398	72.5
493.615	72.5
493.833	84.5
494.05	79.5
494.268	77.5
494.485	66.5
494.703	84.5
494.92	90.5
495.138	74.5
495.355	83.5
495.573	69.5
495.79	78.5
496.008	98.5
496.225	83.5
496.442	78.5
496.66	90.5
496.877	80.5
497.094	87.5
497.312	94.5
497.529	75.5
497.746	83.5
497.963	87.5
498.181	77.5
498.398	72.5
498.615	80.5
498.832	78.5
499.049	73.5
499.267	90.5
499.484	85.5
499.701	74.5
499.918	88.5
500.135	92.5
500.352	92.5
500.569	71.5
500.786	91.5
501.003	79.5
501.22	70.5
501.437	86.5
501.654	72.5
501.871	68.5
502.088	75.5
502.305	77.5
502.522	79.5
502.739	86.5
502.956	93.5
503.172	77.5
503.389	89.5
503.606	78.5
503.823	85.5
504.04	89.5
504.256	82.5
504.473	73.5
504.69	77.5
504.907	97.5
505.123	82.5
505.34	75.5
505.557	80.5
505.773	75.5
505.99	58.5
506.207	82.5
506.423	94.5
506.64	77.5
506.856	77.5
507.073	83.5
507.289	75.5
507.506	80.5
507.722	86.5
507.939	69.5
508.155	78.5
508.372	93.5
508.588	82.5
508.805	76.5
509.021	74.5
509.238	68.5
509.454	71.5
509.67	74.5
509.887	82.5
510.103	77.5
510.319	70.5
510.536	89.5
510.752	72.5
510.968	86.5
511.184	75.5
511.401	70.5
511.617	76.5
511.833	65.5
512.049	70.5
512.265	79.5
512.481	92.5
512.698	75.5
512.914	76.5
513.13	79.5
513.346	83.5
513.562	74.5
513.778	82.5
513.994	100.5
514.21	82.5
514.426	78.5
514.642	72.5
514.858	74.5
515.074	75.5
515.29	86.5
515.506	78.5
515.721	78.5
515.937	79.5
516.153	77.5
516.369	82.5
516.585	97.5
516.801	84.5
517.016	76.5
517.232	85.5
517.448	91.5
517.664	85.5
517.879	81.5
518.095	76.5
518.311	82.5
518.527	88.5
518.742	85.5
518.958	75.5
519.173	69.5
519.389	76.5
519.605	91.5
519.82	80.5
520.036	74.5
520.251	90.5
520.467	90.5
520.682	100.5
520.898	61.5
521.113	74.5
521.329	70.5
521.544	67.5
521.76	93.5
521.975	82.5
522.19	85.5
522.406	79.5
522.621	83.5
522.836	81.5
523.052	85.5
523.267	87.5
523.482	81.5
523.698	87.5
523.913	84.5
524.128	80.5
524.343	78.5
524.559	72.5
524.774	77.5
524.989	77.5
525.204	71.5
525.419	65.5
525.634	77.5
525.849	87.5
526.064	90.5
526.28	79.5
526.495	72.5
526.71	81.5
526.925	70.5
527.14	71.5
527.355	77.5
527.57	80.5
527.785	98.5
527.999	75.5
528.214	73.5
528.429	69.5
528.644	71.5
528.859	69.5
529.074	75.5
529.289	68.5
529.503	67.5
529.718	82.5
529.933	67.5
530.148	82.5
530.363	79.5
530.577	85.5
530.792	82.5
531.007	76.5
531.221	86.5
531.436	83.5
531.651	66.5
531.865	78.5
532.08	75.5
532.295	69.5
532.509	69.5
532.724	75.5
532.938	74.5
533.153	80.5
533.367	74.5
533.582	86.5
533.796	88.5
534.011	72.5
534.225	64.5
534.44	90.5
534.654	80.5
534.868	76.5
535.083	89.5
535.297	86.5
535.511	76.5
535.726	83.5
535.94	79.5
536.154	92.5
536.369	83.5
536.583	72.5
536.797	95.5
537.011	99.5
537.225	88.5
537.44	98.5
537.654	72.5
537.868	72.5
538.082	77.5
538.296	84.5
538.51	81.5
538.724	78.5
538.938	94.5
539.153	84.5
539.367	82.5
539.581	93.5
539.795	79.5
540.009	87.5
540.222	71.5
540.436	73.5
540.65	82.5
540.864	77.5
541.078	86.5
541.292	81.5
541.506	82.5
541.72	96.5
541.934	84.5
542.147	80.5
542.361	86.5
542.575	75.5
542.789	84.5
543.002	83.5
543.216	70.5
543.43	70.5
543.644	89.5
543.857	74.5
544.071	89.5
544.285	78.5
544.498	92.5
544.712	88.5
544.925	88.5
545.139	101.5
545.352	72.5
545.566	90.5
545.779	89.5
545.993	93.5
546.206	85.5
546.42	89.5
546.633	77.5
546.847	86.5
547.06	84.5
547.274	71.5
547.487	90.5
547.7	87.5
547.914	87.5
548.127	85.5
548.34	79.5
548.554	97.5
548.767	88.5
548.98	76.5
549.193	78.5
549.407	78.5
549.62	72.5
549.833	83.5
550.046	89.5
550.259	80.5
550.473	82.5
550.686	102.5
550.899	85.5
551.112	85.5
551.325	81.5
551.538	88.5
551.751	80.5
551.964	91.5
552.177	78.5
552.39	89.5
552.603	87.5
552.816	88.5
553.029	78.5
553.242	70.5
553.455	68.5
553.667	89.5
553.88	83.5
554.093	89.5
554.306	90.5
554.519	83.5
554.732	95.5
554.944	80.5
555.157	95.5
555.37	85.5
555.583	89.5
555.795	88.5
556.008	86.5
556.221	79.5
556.433	85.5
556.646	92.5
556.859	88.5
557.071	90.5
557.284	83.5
557.496	95.5
557.709	71.5
557.921	89.5
558.134	75.5
558.346	86.5
558.559	78.5
558.771	92.5
558.984	84.5
559.196	95.5
559.409	74.5
559.621	92.5
559.833	80.5
560.046	86.5
560.258	88.5
560.47	92.5
560.683	77.5
560.895	93.5
561.107	65.5
561.32	79.5
561.532	83.5
561.744	90.5
561.956	92.5
562.168	78.5
562.381	81.5
562.593	75.5
562.805	79.5
563.017	84.5
563.229	77.5
563.441	84.5
563.653	75.5
563.865	71.5
564.077	74.5
564.289	95.5
564.501	84.5
564.713	86.5
564.925	77.5
565.137	93.5
565.349	81.5
565.561	78.5
565.773	88.5
565.985	85.5
566.197	90.5
566.408	83.5
566.62	80.5
566.832	86.5
567.044	84.5
567.255	92.5
567.467	75.5
567.679	84.5
567.891	85.5
568.102	74.5
568.314	80.5
568.526	78.5
568.737	60.5
568.949	95.5
569.161	76.5
569.372	75.5
569.584	93.5
569.795	81.5
570.007	77.5
570.218	79.5
570.43	76.5
570.641	86.5
570.853	91.5
571.064	77.5
571.276	90.5
571.487	91.5
571.698	87.5
571.91	71.5
572.121	81.5
572.333	74.5
572.544	74.5
572.755	67.5
572.966	71.5
573.178	85.5
573.389	87.5
573.6	79.5
573.811	70.5
574.023	78.5
574.234	77.5
574.445	83.5
574.656	90.5
574.867	85.5
575.078	72.5
575.289	78.5
575.501	100.5
575.712	86.5
575.923	77.5
576.134	83.5
576.345	76.5
576.556	79.5
576.767	82.5
576.978	76.5
577.188	88.5
577.399	85.5
577.61	82.5
577.821	83.5
578.032	84.5
578.243	70.5
578.454	90.5
578.665	79.5
578.875	82.5
579.086	95.5
579.297	91.5
579.508	98.5
579.718	88.5
579.929	84.5
580.14	84.5
580.35	85.5
580.561	70.5
580.772	87.5
580.982	80.5
581.193	71.5
581.403	74.5
581.614	82.5
581.825	75.5
582.035	64.5
582.246	88.5
582.456	70.5
582.667	76.5
582.877	76.5
583.087	95.5
583.298	63.5
583.508	84.5
583.719	93.5
583.929	104.5
584.139	79.5
584.35	68.5
584.56	87.5
584.77	81.5
584.981	78.5
585.191	73.5
585.401	82.5
585.611	80.5
585.821	79.5
586.032	83.5
586.242	73.5
586.452	81.5
586.662	84.5
586.872	79.5
587.082	82.5
587.292	77.5
587.502	82.5
587.713	67.5
587.923	70.5
588.133	78.5
588.343	88.5
588.553	79.5
588.762	82.5
588.972	79.5
589.182	92.5
589.392	79.5
589.602	63.5
589.812	84.5
590.022	80.5
590.232	90.5
590.441	83.5
590.651	85.5
590.861	68.5
591.071	84.5
591.281	84.5
591.49	73.5
591.7	81.5
591.91	96.5
592.119	79.5
592.329	79.5
592.539	97.5
592.748	89.5
592.958	75.5
593.167	94.5
593.377	78.5
593.587	74.5
593.796	87.5
594.006	82.5
594.215	79.5
594.424	78.5
594.634	84.5
594.843	95.5
595.053	81.5
595.262	79.5
595.472	77.5
595.681	104.5
595.89	93.5
596.1	94.5
596.309	73.5
596.518	86.5
596.727	82.5
596.937	84.5
597.146	80.5
597.355	80.5
597.564	84.5
597.774	75.5
597.983	74.5
598.192	72.5
598.401	87.5
598.61	98.5
598.819	82.5
599.028	73.5
599.237	79.5
599.446	78.5
599.655	71.5
599.864	85.5
600.073	94.5
600.282	71.5
600.491	76.5
600.7	82.5
600.909	83.5
601.118	91.5
601.327	91.5
601.536	88.5
601.745	70.5
601.953	88.5
602.162	83.5
602.371	76.5
602.58	79.5
602.789	78.5
602.997	79.5
603.206	78.5
603.415	78.5
603.623	78.5
603.832	75.5
604.041	79.5
604.249	69.5
604.458	84.5
604.666	86.5
604.875	76.5
605.084	98.5
605.292	84.5
605.501	78.5
605.709	84.5
605.918	81.5
606.126	75.5
606.334	83.5
606.543	88.5
606.751	90.5
606.96	86.5
607.168	86.5
607.376	89.5
607.585	82.5
607.793	86.5
608.001	76.5
608.21	73.5
608.418	84.5
608.626	84.5
608.834	78.5
609.043	73.5
609.251	83.5
609.459	85.5
609.667	86.5
609.875	86.5
610.083	79.5
610.291	75.5
610.499	85.5
610.707	81.5
610.916	87.5
611.124	83.5
611.332	83.5
611.54	79.5
611.748	70.5
611.955	70.5
612.163	72.5
612.371	66.5
612.579	73.5
612.787	87.5
612.995	89.5
613.203	92.5
613.411	83.5
613.618	71.5
613.826	82.5
614.034	74.5
614.242	79.5
614.449	75.5
614.657	91.5
614.865	89.5
615.072	82.5
615.28	80.5
615.488	90.5
615.695	88.5
615.903	92.5
616.111	75.5
616.318	83.5
616.526	78.5
616.733	68.5
616.941	62.5
617.148	91.5
617.356	73.5
617.563	94.5
617.771	82.5
617.978	75.5
618.185	74.5
618.393	94.5
618.6	82.5
618.807	83.5
619.015	81.5
619.222	80.5
619.429	72.5
619.637	74.5
619.844	78.5
620.051	77.5
620.258	83.5
620.466	84.5
620.673	82.5
620.88	91.5
621.087	74.5
621.294	95.5
621.501	91.5
621.708	73.5
621.915	76.5
622.122	84.5
622.329	80.5
622.536	80.5
622.743	89.5
622.95	73.5
623.157	81.5
623.364	83.5
623.571	78.5
623.778	73.5
623.985	80.5
624.192	76.5
624.399	94.5
624.606	93.5
624.812	72.5
625.019	80.5
625.226	89.5
625.433	76.5
625.639	94.5
625.846	87.5
626.053	76.5
626.259	95.5
626.466	68.5
626.673	89.5
626.879	80.5
627.086	83.5
627.293	84.5
627.499	95.5
627.706	93.5
627.912	85.5
628.119	78.5
628.325	86.5
628.532	91.5
628.738	82.5
628.945	75.5
629.151	77.5
629.357	78.5
629.564	74.5
629.77	84.5
629.976	84.5
630.183	75.5
630.389	88.5
630.595	75.5
630.802	80.5
631.008	79.5
631.214	80.5
631.42	92.5
631.627	88.5
631.833	69.5
632.039	82.5
632.245	81.5
632.451	69.5
632.657	91.5
632.863	90.5
633.069	65.5
633.275	82.5
633.481	78.5
633.688	77.5
633.893	82.5
634.099	80.5
634.305	82.5
634.511	76.5
634.717	68.5
634.923	79.5
635.129	78.5
635.335	68.5
635.541	78.5
635.747	76.5
635.952	75.5
636.158	89.5
636.364	79.5
636.57	83.5
636.775	82.5
636.981	94.5
637.187	91.5
637.392	84.5
637.598	65.5
637.804	79.5
638.009	72.5
638.215	84.5
638.421	84.5
638.626	82.5
638.832	86.5
639.037	75.5
639.243	78.5
639.448	81.5
639.654	76.5
639.859	82.5
640.065	77.5
640.27	89.5
640.475	76.5
640.681	82.5
640.886	99.5
641.091	76.5
641.297	80.5
641.502	98.5
641.707	98.5
641.913	85.5
642.118	84.5
642.323	78.5
642.528	83.5
642.733	83.5
642.939	73.5
643.144	71.5
643.349	65.5
643.554	76.5
643.759	79.5
643.964	64.5
644.169	93.5
644.374	78.5
644.579	83.5
644.784	79.5
644.989	81.5
645.194	75.5
645.399	85.5
645.604	90.5
645.809	84.5
646.014	84.5
646.219	79.5
646.423	82.5
646.628	82.5
646.833	78.5
647.038	72.5
647.243	71.5
647.447	89.5
647.652	92.5
647.857	87.5
648.062	84.5
648.266	90.5
648.471	85.5
648.676	82.5
648.88	80.5
649.085	80.5
649.289	71.5
649.494	77.5
649.698	72.5
649.903	74.5
650.107	68.5
650.312	73.5
650.516	76.5
650.721	75.5
650.925	70.5
651.13	72.5
651.334	85.5
651.539	78.5
651.743	68.5
651.947	76.5
652.152	78.5
652.356	82.5
652.56	65.5
652.764	78.5
652.969	69.5
653.173	70.5
653.377	75.5
653.581	90.5
653.785	87.5
653.99	69.5
654.194	67.5
654.398	72.5
654.602	105.5
654.806	74.5
655.01	67.5
655.214	71.5
655.418	74.5
655.622	70.5
655.826	76.5
656.03	79.5
656.234	77.5
656.438	82.5
656.642	74.5
656.846	76.5
657.049	80.5
657.253	83.5
657.457	65.5
657.661	64.5
657.865	66.5
658.068	81.5
658.272	75.5
658.476	82.5
658.68	79.5
658.883	80.5
659.087	77.5
659.291	78.5
659.494	86.5
659.698	76.5
659.901	74.5
660.105	72.5
660.309	64.5
660.512	83.5
660.716	75.5
660.919	78.5
661.123	85.5
661.326	73.5
661.53	68.5
661.733	68.5
661.936	69.5
662.14	84.5
662.343	92.5
662.546	79.5
662.75	67.5
662.953	92.5
663.156	73.5
663.36	83.5
663.563	85.5
663.766	80.5
663.969	70.5
664.173	82.5
664.376	77.5
664.579	81.5
664.782	65.5
664.985	79.5
665.188	78.5
665.391	82.5
665.594	71.5
665.797	72.5
666	72.5
666.203	72.5
666.406	88.5
666.609	74.5
666.812	76.5
667.015	82.5
667.218	80.5
667.421	65.5
667.624	72.5
667.827	77.5
668.03	75.5
668.232	83.5
668.435	84.5
668.638	78.5
668.841	72.5
669.043	74.5
669.246	79.5
669.449	75.5
669.651	86.5
669.854	85.5
670.057	88.5
670.259	69.5
670.462	78.5
670.665	65.5
670.867	74.5
671.07	79.5
671.272	79.5
671.475	72.5
671.677	69.5
671.88	70.5
672.082	87.5
672.284	66.5
672.487	81.5
672.689	75.5
672.892	74.5
