Data from Propagules_50_1_HRD10591_00009.txt Node
Date: Thu Feb 19 11:07:06 EST 2026
User: Yrep
Spectrometer: HR+D1059
Trigger mode: 1
Integration Time (sec): 1.000000E-1
Scans to average: 1
Electric dark correction enabled: true
Nonlinearity correction enabled: false
Boxcar width: 0
XAxis mode: Wavelengths
Number of Pixels in Spectrum: 2048
>>>>>Begin Spectral Data<<<<<
223.165	-9.75
223.4	-9.75
223.635	-9.75
223.869	-13.75
224.104	-21.75
224.338	-32.75
224.573	-21.75
224.808	-7.75
225.042	2.25
225.277	-7.75
225.511	5.25
225.746	2.25
225.98	11.25
226.215	19.25
226.449	13.25
226.683	14.25
226.918	23.25
227.152	24.25
227.387	43.25
227.621	38.25
227.856	49.25
228.09	42.25
228.324	34.25
228.559	57.25
228.793	42.25
229.027	59.25
229.262	67.25
229.496	67.25
229.73	71.25
229.964	67.25
230.199	70.25
230.433	72.25
230.667	71.25
230.901	79.25
231.136	79.25
231.37	79.25
231.604	79.25
231.838	75.25
232.072	91.25
232.306	74.25
232.541	85.25
232.775	81.25
233.009	69.25
233.243	75.25
233.477	78.25
233.711	79.25
233.945	67.25
234.179	87.25
234.413	75.25
234.647	72.25
234.881	84.25
235.115	72.25
235.349	67.25
235.583	86.25
235.817	76.25
236.051	65.25
236.285	54.25
236.519	68.25
236.753	81.25
236.987	70.25
237.221	75.25
237.455	76.25
237.689	79.25
237.922	79.25
238.156	77.25
238.39	78.25
238.624	66.25
238.858	86.25
239.091	72.25
239.325	59.25
239.559	75.25
239.793	80.25
240.027	82.25
240.26	72.25
240.494	80.25
240.728	73.25
240.961	76.25
241.195	70.25
241.429	80.25
241.662	61.25
241.896	73.25
242.13	88.25
242.363	74.25
242.597	85.25
242.83	66.25
243.064	87.25
243.298	67.25
243.531	92.25
243.765	80.25
243.998	84.25
244.232	75.25
244.465	78.25
244.699	64.25
244.932	69.25
245.166	79.25
245.399	70.25
245.633	82.25
245.866	71.25
246.099	68.25
246.333	75.25
246.566	76.25
246.8	66.25
247.033	76.25
247.266	59.25
247.5	81.25
247.733	76.25
247.966	73.25
248.2	82.25
248.433	75.25
248.666	67.25
248.899	66.25
249.133	76.25
249.366	68.25
249.599	66.25
249.832	71.25
250.066	82.25
250.299	75.25
250.532	76.25
250.765	73.25
250.998	77.25
251.231	91.25
251.465	86.25
251.698	75.25
251.931	76.25
252.164	73.25
252.397	85.25
252.63	75.25
252.863	79.25
253.096	78.25
253.329	76.25
253.562	70.25
253.795	82.25
254.028	87.25
254.261	79.25
254.494	75.25
254.727	82.25
254.96	80.25
255.193	76.25
255.426	77.25
255.659	75.25
255.892	79.25
256.124	75.25
256.357	67.25
256.59	82.25
256.823	82.25
257.056	70.25
257.289	74.25
257.521	78.25
257.754	73.25
257.987	80.25
258.22	64.25
258.452	83.25
258.685	78.25
258.918	67.25
259.151	68.25
259.383	80.25
259.616	73.25
259.849	80.25
260.081	77.25
260.314	68.25
260.547	64.25
260.779	86.25
261.012	67.25
261.244	78.25
261.477	82.25
261.71	83.25
261.942	84.25
262.175	66.25
262.407	71.25
262.64	81.25
262.872	69.25
263.105	84.25
263.337	67.25
263.57	72.25
263.802	66.25
264.035	72.25
264.267	90.25
264.499	81.25
264.732	86.25
264.964	77.25
265.197	69.25
265.429	87.25
265.661	80.25
265.894	82.25
266.126	71.25
266.358	74.25
266.591	85.25
266.823	85.25
267.055	73.25
267.287	74.25
267.52	69.25
267.752	70.25
267.984	69.25
268.216	61.25
268.448	95.25
268.681	74.25
268.913	75.25
269.145	94.25
269.377	81.25
269.609	70.25
269.841	90.25
270.073	82.25
270.306	79.25
270.538	96.25
270.77	75.25
271.002	76.25
271.234	88.25
271.466	65.25
271.698	66.25
271.93	79.25
272.162	70.25
272.394	70.25
272.626	63.25
272.858	82.25
273.09	82.25
273.322	95.25
273.553	80.25
273.785	87.25
274.017	82.25
274.249	58.25
274.481	74.25
274.713	63.25
274.945	83.25
275.176	90.25
275.408	78.25
275.64	89.25
275.872	70.25
276.104	80.25
276.335	82.25
276.567	80.25
276.799	75.25
277.031	78.25
277.262	72.25
277.494	96.25
277.726	84.25
277.957	84.25
278.189	74.25
278.421	74.25
278.652	83.25
278.884	66.25
279.115	81.25
279.347	79.25
279.579	89.25
279.81	83.25
280.042	81.25
280.273	78.25
280.505	87.25
280.736	94.25
280.968	88.25
281.199	80.25
281.431	84.25
281.662	64.25
281.894	85.25
282.125	86.25
282.356	83.25
282.588	84.25
282.819	81.25
283.051	80.25
283.282	73.25
283.513	80.25
283.745	80.25
283.976	70.25
284.207	78.25
284.439	82.25
284.67	75.25
284.901	70.25
285.132	96.25
285.364	70.25
285.595	72.25
285.826	79.25
286.057	77.25
286.288	76.25
286.52	74.25
286.751	79.25
286.982	80.25
287.213	91.25
287.444	83.25
287.675	74.25
287.906	83.25
288.138	88.25
288.369	82.25
288.6	64.25
288.831	87.25
289.062	84.25
289.293	81.25
289.524	78.25
289.755	77.25
289.986	87.25
290.217	83.25
290.448	82.25
290.679	82.25
290.91	69.25
291.141	84.25
291.371	82.25
291.602	83.25
291.833	94.25
292.064	94.25
292.295	89.25
292.526	82.25
292.757	80.25
292.987	82.25
293.218	70.25
293.449	82.25
293.68	84.25
293.91	69.25
294.141	75.25
294.372	86.25
294.603	77.25
294.833	84.25
295.064	84.25
295.295	71.25
295.525	79.25
295.756	76.25
295.987	80.25
296.217	88.25
296.448	81.25
296.679	80.25
296.909	74.25
297.14	84.25
297.37	78.25
297.601	81.25
297.831	76.25
298.062	82.25
298.292	71.25
298.523	80.25
298.753	83.25
298.984	66.25
299.214	84.25
299.445	82.25
299.675	82.25
299.905	102.25
300.136	76.25
300.366	73.25
300.597	90.25
300.827	93.25
301.057	91.25
301.288	71.25
301.518	66.25
301.748	74.25
301.979	94.25
302.209	79.25
302.439	73.25
302.669	93.25
302.9	83.25
303.13	91.25
303.36	84.25
303.59	80.25
303.82	74.25
304.051	84.25
304.281	87.25
304.511	79.25
304.741	87.25
304.971	79.25
305.201	94.25
305.431	90.25
305.661	80.25
305.891	72.25
306.121	84.25
306.352	96.25
306.582	81.25
306.812	83.25
307.042	82.25
307.272	78.25
307.502	86.25
307.731	84.25
307.961	89.25
308.191	82.25
308.421	80.25
308.651	71.25
308.881	79.25
309.111	84.25
309.341	77.25
309.571	78.25
309.8	70.25
310.03	81.25
310.26	76.25
310.49	88.25
310.72	95.25
310.949	77.25
311.179	75.25
311.409	87.25
311.639	84.25
311.868	98.25
312.098	87.25
312.328	89.25
312.557	78.25
312.787	67.25
313.017	78.25
313.246	74.25
313.476	72.25
313.706	72.25
313.935	77.25
314.165	81.25
314.394	94.25
314.624	90.25
314.853	88.25
315.083	70.25
315.312	66.25
315.542	80.25
315.771	74.25
316.001	71.25
316.23	77.25
316.46	74.25
316.689	88.25
316.919	83.25
317.148	71.25
317.377	93.25
317.607	86.25
317.836	76.25
318.065	86.25
318.295	78.25
318.524	68.25
318.753	92.25
318.983	81.25
319.212	79.25
319.441	74.25
319.67	90.25
319.9	75.25
320.129	84.25
320.358	74.25
320.587	75.25
320.816	92.25
321.046	74.25
321.275	76.25
321.504	73.25
321.733	90.25
321.962	80.25
322.191	97.25
322.42	76.25
322.649	72.25
322.878	84.25
323.108	80.25
323.337	78.25
323.566	78.25
323.795	75.25
324.024	74.25
324.253	76.25
324.482	107.25
324.71	92.25
324.939	80.25
325.168	78.25
325.397	72.25
325.626	97.25
325.855	72.25
326.084	82.25
326.313	69.25
326.542	81.25
326.77	84.25
326.999	93.25
327.228	74.25
327.457	70.25
327.686	88.25
327.914	76.25
328.143	80.25
328.372	74.25
328.6	79.25
328.829	84.25
329.058	82.25
329.287	86.25
329.515	88.25
329.744	94.25
329.972	89.25
330.201	74.25
330.43	84.25
330.658	87.25
330.887	88.25
331.115	87.25
331.344	68.25
331.572	82.25
331.801	92.25
332.03	88.25
332.258	80.25
332.486	79.25
332.715	83.25
332.943	90.25
333.172	90.25
333.4	75.25
333.629	80.25
333.857	84.25
334.085	95.25
334.314	81.25
334.542	67.25
334.771	85.25
334.999	84.25
335.227	71.25
335.455	71.25
335.684	93.25
335.912	90.25
336.14	77.25
336.369	82.25
336.597	84.25
336.825	98.25
337.053	81.25
337.281	84.25
337.51	80.25
337.738	78.25
337.966	81.25
338.194	78.25
338.422	88.25
338.65	89.25
338.878	77.25
339.106	70.25
339.334	77.25
339.562	70.25
339.79	87.25
340.018	82.25
340.246	68.25
340.474	72.25
340.702	74.25
340.93	82.25
341.158	78.25
341.386	80.25
341.614	71.25
341.842	80.25
342.07	84.25
342.298	72.25
342.526	72.25
342.754	69.25
342.981	78.25
343.209	78.25
343.437	84.25
343.665	82.25
343.893	82.25
344.12	98.25
344.348	75.25
344.576	82.25
344.804	79.25
345.031	74.25
345.259	82.25
345.487	72.25
345.714	75.25
345.942	73.25
346.17	81.25
346.397	90.25
346.625	93.25
346.853	79.25
347.08	67.25
347.308	77.25
347.535	90.25
347.763	78.25
347.99	87.25
348.218	86.25
348.445	83.25
348.673	82.25
348.9	77.25
349.128	88.25
349.355	61.25
349.583	70.25
349.81	68.25
350.037	71.25
350.265	82.25
350.492	72.25
350.72	85.25
350.947	94.25
351.174	80.25
351.402	76.25
351.629	82.25
351.856	76.25
352.083	88.25
352.311	77.25
352.538	81.25
352.765	84.25
352.992	92.25
353.22	70.25
353.447	76.25
353.674	87.25
353.901	95.25
354.128	92.25
354.355	93.25
354.583	78.25
354.81	85.25
355.037	84.25
355.264	84.25
355.491	73.25
355.718	88.25
355.945	71.25
356.172	75.25
356.399	77.25
356.626	88.25
356.853	90.25
357.08	90.25
357.307	78.25
357.534	75.25
357.761	86.25
357.988	92.25
358.215	80.25
358.441	69.25
358.668	79.25
358.895	78.25
359.122	92.25
359.349	78.25
359.576	74.25
359.802	85.25
360.029	75.25
360.256	68.25
360.483	81.25
360.709	80.25
360.936	92.25
361.163	102.25
361.39	86.25
361.616	83.25
361.843	72.25
362.07	74.25
362.296	81.25
362.523	73.25
362.749	74.25
362.976	89.25
363.203	82.25
363.429	77.25
363.656	68.25
363.882	64.25
364.109	92.25
364.335	83.25
364.562	94.25
364.788	82.25
365.015	84.25
365.241	75.25
365.468	84.25
365.694	76.25
365.92	65.25
366.147	74.25
366.373	76.25
366.599	77.25
366.826	81.25
367.052	77.25
367.278	88.25
367.505	80.25
367.731	83.25
367.957	73.25
368.184	88.25
368.41	70.25
368.636	72.25
368.862	88.25
369.089	74.25
369.315	83.25
369.541	67.25
369.767	78.25
369.993	71.25
370.219	80.25
370.445	81.25
370.672	80.25
370.898	70.25
371.124	91.25
371.35	78.25
371.576	90.25
371.802	80.25
372.028	70.25
372.254	76.25
372.48	88.25
372.706	75.25
372.932	74.25
373.158	66.25
373.384	79.25
373.61	87.25
373.835	86.25
374.061	76.25
374.287	93.25
374.513	82.25
374.739	80.25
374.965	73.25
375.191	88.25
375.416	83.25
375.642	85.25
375.868	81.25
376.094	83.25
376.319	81.25
376.545	83.25
376.771	82.25
376.997	99.25
377.222	78.25
377.448	78.25
377.674	70.25
377.899	73.25
378.125	61.25
378.35	81.25
378.576	71.25
378.802	64.25
379.027	68.25
379.253	90.25
379.478	80.25
379.704	73.25
379.929	79.25
380.155	64.25
380.38	89.25
380.606	80.25
380.831	77.25
381.057	75.25
381.282	74.25
381.507	81.25
381.733	80.25
381.958	103.25
382.184	88.25
382.409	69.25
382.634	82.25
382.86	83.25
383.085	70.25
383.31	87.25
383.535	97.25
383.761	82.25
383.986	74.25
384.211	80.25
384.436	88.25
384.662	87.25
384.887	72.25
385.112	68.25
385.337	83.25
385.562	79.25
385.787	81.25
386.013	89.25
386.238	76.25
386.463	74.25
386.688	77.25
386.913	82.25
387.138	84.25
387.363	83.25
387.588	97.25
387.813	87.25
388.038	83.25
388.263	84.25
388.488	83.25
388.713	77.25
388.938	77.25
389.163	68.25
389.387	73.25
389.612	82.25
389.837	69.25
390.062	94.25
390.287	82.25
390.512	88.25
390.736	72.25
390.961	68.25
391.186	66.25
391.411	86.25
391.636	78.25
391.86	79.25
392.085	85.25
392.31	76.25
392.534	70.25
392.759	78.25
392.984	77.25
393.208	82.25
393.433	96.25
393.658	84.25
393.882	78.25
394.107	68.25
394.331	93.25
394.556	71.25
394.78	79.25
395.005	67.25
395.229	85.25
395.454	74.25
395.678	68.25
395.903	78.25
396.127	74.25
396.352	83.25
396.576	81.25
396.801	92.25
397.025	92.25
397.249	92.25
397.474	87.25
397.698	90.25
397.922	92.25
398.147	89.25
398.371	84.25
398.595	68.25
398.82	87.25
399.044	84.25
399.268	72.25
399.492	70.25
399.717	83.25
399.941	77.25
400.165	81.25
400.389	75.25
400.613	75.25
400.837	61.25
401.062	68.25
401.286	87.25
401.51	90.25
401.734	75.25
401.958	70.25
402.182	83.25
402.406	89.25
402.63	72.25
402.854	78.25
403.078	82.25
403.302	74.25
403.526	77.25
403.75	71.25
403.974	79.25
404.198	84.25
404.422	78.25
404.645	79.25
404.869	86.25
405.093	75.25
405.317	78.25
405.541	88.25
405.765	79.25
405.988	73.25
406.212	81.25
406.436	85.25
406.66	73.25
406.883	75.25
407.107	73.25
407.331	77.25
407.555	91.25
407.778	76.25
408.002	74.25
408.226	85.25
408.449	85.25
408.673	77.25
408.896	87.25
409.12	64.25
409.344	78.25
409.567	79.25
409.791	73.25
410.014	77.25
410.238	79.25
410.461	81.25
410.685	65.25
410.908	81.25
411.132	80.25
411.355	99.25
411.578	86.25
411.802	84.25
412.025	70.25
412.249	78.25
412.472	84.25
412.695	78.25
412.919	85.25
413.142	77.25
413.365	76.25
413.589	77.25
413.812	72.25
414.035	78.25
414.258	71.25
414.482	78.25
414.705	83.25
414.928	76.25
415.151	82.25
415.374	88.25
415.597	72.25
415.821	78.25
416.044	80.25
416.267	66.25
416.49	77.25
416.713	69.25
416.936	88.25
417.159	80.25
417.382	86.25
417.605	85.25
417.828	76.25
418.051	80.25
418.274	79.25
418.497	88.25
418.72	64.25
418.943	80.25
419.166	63.25
419.389	84.25
419.611	76.25
419.834	71.25
420.057	81.25
420.28	78.25
420.503	75.25
420.726	82.25
420.948	65.25
421.171	78.25
421.394	72.25
421.617	101.25
421.839	82.25
422.062	94.25
422.285	84.25
422.507	84.25
422.73	106.25
422.953	84.25
423.175	85.25
423.398	84.25
423.621	70.25
423.843	78.25
424.066	91.25
424.288	63.25
424.511	68.25
424.733	77.25
424.956	70.25
425.178	86.25
425.401	85.25
425.623	78.25
425.846	76.25
426.068	81.25
426.291	55.25
426.513	74.25
426.735	81.25
426.958	78.25
427.18	91.25
427.402	87.25
427.625	89.25
427.847	89.25
428.069	77.25
428.292	81.25
428.514	77.25
428.736	83.25
428.958	80.25
429.181	94.25
429.403	77.25
429.625	80.25
429.847	80.25
430.069	83.25
430.292	78.25
430.514	77.25
430.736	89.25
430.958	68.25
431.18	78.25
431.402	66.25
431.624	90.25
431.846	77.25
432.068	74.25
432.29	77.25
432.512	84.25
432.734	78.25
432.956	75.25
433.178	80.25
433.4	63.25
433.622	79.25
433.844	89.25
434.066	72.25
434.287	71.25
434.509	66.25
434.731	72.25
434.953	66.25
435.175	57.25
435.397	76.25
435.618	70.25
435.84	81.25
436.062	74.25
436.284	82.25
436.505	78.25
436.727	70.25
436.949	91.25
437.17	74.25
437.392	81.25
437.614	95.25
437.835	83.25
438.057	84.25
438.278	88.25
438.5	66.25
438.721	59.25
438.943	78.25
439.165	81.25
439.386	91.25
439.608	78.25
439.829	78.25
440.05	73.25
440.272	91.25
440.493	88.25
440.715	62.25
440.936	83.25
441.158	70.25
441.379	75.25
441.6	85.25
441.822	98.25
442.043	73.25
442.264	85.25
442.486	75.25
442.707	73.25
442.928	76.25
443.149	72.25
443.371	68.25
443.592	86.25
443.813	78.25
444.034	70.25
444.255	66.25
444.476	71.25
444.698	76.25
444.919	82.25
445.14	163.25
445.361	111.25
445.582	84.25
445.803	67.25
446.024	81.25
446.245	84.25
446.466	83.25
446.687	66.25
446.908	93.25
447.129	74.25
447.35	74.25
447.571	88.25
447.792	91.25
448.013	76.25
448.234	80.25
448.455	84.25
448.675	59.25
448.896	70.25
449.117	90.25
449.338	76.25
449.559	83.25
449.779	75.25
450	84.25
450.221	81.25
450.442	70.25
450.662	85.25
450.883	78.25
451.104	75.25
451.324	76.25
451.545	78.25
451.766	68.25
451.986	73.25
452.207	80.25
452.428	87.25
452.648	76.25
452.869	74.25
453.089	83.25
453.31	78.25
453.53	94.25
453.751	66.25
453.971	79.25
454.192	78.25
454.412	84.25
454.633	74.25
454.853	66.25
455.073	71.25
455.294	90.25
455.514	79.25
455.734	90.25
455.955	88.25
456.175	92.25
456.395	90.25
456.616	73.25
456.836	77.25
457.056	69.25
457.276	73.25
457.497	83.25
457.717	90.25
457.937	74.25
458.157	86.25
458.377	81.25
458.598	80.25
458.818	65.25
459.038	74.25
459.258	66.25
459.478	84.25
459.698	87.25
459.918	90.25
460.138	77.25
460.358	58.25
460.578	78.25
460.798	87.25
461.018	80.25
461.238	90.25
461.458	83.25
461.678	74.25
461.898	79.25
462.118	82.25
462.338	81.25
462.558	84.25
462.777	72.25
462.997	82.25
463.217	78.25
463.437	87.25
463.657	83.25
463.876	74.25
464.096	83.25
464.316	64.25
464.536	78.25
464.755	75.25
464.975	63.25
465.195	80.25
465.414	65.25
465.634	74.25
465.854	72.25
466.073	78.25
466.293	74.25
466.512	82.25
466.732	75.25
466.951	63.25
467.171	88.25
467.391	71.25
467.61	68.25
467.829	79.25
468.049	84.25
468.268	70.25
468.488	88.25
468.707	86.25
468.927	86.25
469.146	79.25
469.365	71.25
469.585	80.25
469.804	70.25
470.023	91.25
470.243	77.25
470.462	70.25
470.681	78.25
470.901	90.25
471.12	90.25
471.339	80.25
471.558	84.25
471.777	84.25
471.997	74.25
472.216	76.25
472.435	61.25
472.654	92.25
472.873	96.25
473.092	71.25
473.311	51.25
473.53	72.25
473.749	70.25
473.968	82.25
474.187	84.25
474.406	92.25
474.625	95.25
474.844	84.25
475.063	74.25
475.282	88.25
475.501	99.25
475.72	84.25
475.939	80.25
476.158	87.25
476.377	77.25
476.596	82.25
476.814	85.25
477.033	78.25
477.252	80.25
477.471	81.25
477.69	87.25
477.908	71.25
478.127	74.25
478.346	85.25
478.564	77.25
478.783	84.25
479.002	78.25
479.22	75.25
479.439	78.25
479.658	74.25
479.876	67.25
480.095	82.25
480.313	83.25
480.532	79.25
480.751	75.25
480.969	72.25
481.188	72.25
481.406	73.25
481.624	71.25
481.843	75.25
482.061	75.25
482.28	76.25
482.498	92.25
482.717	89.25
482.935	86.25
483.153	83.25
483.372	86.25
483.59	78.25
483.808	78.25
484.027	83.25
484.245	70.25
484.463	82.25
484.681	84.25
484.9	76.25
485.118	96.25
485.336	86.25
485.554	68.25
485.772	80.25
485.99	91.25
486.209	90.25
486.427	83.25
486.645	79.25
486.863	84.25
487.081	85.25
487.299	88.25
487.517	78.25
487.735	86.25
487.953	81.25
488.171	85.25
488.389	75.25
488.607	82.25
488.825	96.25
489.043	86.25
489.261	73.25
489.479	81.25
489.696	79.25
489.914	78.25
490.132	72.25
490.35	89.25
490.568	80.25
490.786	87.25
491.003	84.25
491.221	89.25
491.439	84.25
491.657	70.25
491.874	70.25
492.092	71.25
492.31	86.25
492.527	83.25
492.745	70.25
492.963	74.25
493.18	81.25
493.398	73.25
493.615	91.25
493.833	83.25
494.05	63.25
494.268	72.25
494.485	69.25
494.703	81.25
494.92	73.25
495.138	74.25
495.355	72.25
495.573	75.25
495.79	88.25
496.008	84.25
496.225	83.25
496.442	81.25
496.66	80.25
496.877	82.25
497.094	83.25
497.312	88.25
497.529	80.25
497.746	83.25
497.963	76.25
498.181	79.25
498.398	78.25
498.615	94.25
498.832	72.25
499.049	82.25
499.267	92.25
499.484	77.25
499.701	74.25
499.918	80.25
500.135	68.25
500.352	74.25
500.569	86.25
500.786	89.25
501.003	81.25
501.22	78.25
501.437	63.25
501.654	68.25
501.871	86.25
502.088	70.25
502.305	85.25
502.522	80.25
502.739	68.25
502.956	86.25
503.172	70.25
503.389	81.25
503.606	90.25
503.823	80.25
504.04	88.25
504.256	83.25
504.473	106.25
504.69	78.25
504.907	83.25
505.123	80.25
505.34	76.25
505.557	93.25
505.773	83.25
505.99	84.25
506.207	66.25
506.423	81.25
506.64	88.25
506.856	75.25
507.073	90.25
507.289	76.25
507.506	75.25
507.722	80.25
507.939	81.25
508.155	99.25
508.372	69.25
508.588	94.25
508.805	82.25
509.021	90.25
509.238	87.25
509.454	70.25
509.67	84.25
509.887	84.25
510.103	74.25
510.319	68.25
510.536	86.25
510.752	64.25
510.968	90.25
511.184	78.25
511.401	82.25
511.617	79.25
511.833	83.25
512.049	71.25
512.265	74.25
512.481	76.25
512.698	69.25
512.914	79.25
513.13	80.25
513.346	81.25
513.562	78.25
513.778	71.25
513.994	76.25
514.21	87.25
514.426	70.25
514.642	89.25
514.858	90.25
515.074	91.25
515.29	82.25
515.506	83.25
515.721	77.25
515.937	84.25
516.153	80.25
516.369	90.25
516.585	71.25
516.801	73.25
517.016	81.25
517.232	73.25
517.448	79.25
517.664	72.25
517.879	75.25
518.095	72.25
518.311	76.25
518.527	95.25
518.742	75.25
518.958	84.25
519.173	79.25
519.389	79.25
519.605	83.25
519.82	80.25
520.036	71.25
520.251	83.25
520.467	80.25
520.682	82.25
520.898	73.25
521.113	86.25
521.329	82.25
521.544	72.25
521.76	66.25
521.975	77.25
522.19	82.25
522.406	79.25
522.621	75.25
522.836	90.25
523.052	84.25
523.267	75.25
523.482	76.25
523.698	92.25
523.913	77.25
524.128	80.25
524.343	90.25
524.559	90.25
524.774	76.25
524.989	85.25
525.204	92.25
525.419	68.25
525.634	86.25
525.849	81.25
526.064	83.25
526.28	100.25
526.495	87.25
526.71	80.25
526.925	91.25
527.14	76.25
527.355	88.25
527.57	66.25
527.785	75.25
527.999	83.25
528.214	89.25
528.429	70.25
528.644	94.25
528.859	95.25
529.074	76.25
529.289	72.25
529.503	84.25
529.718	82.25
529.933	55.25
530.148	76.25
530.363	76.25
530.577	80.25
530.792	80.25
531.007	80.25
531.221	84.25
531.436	82.25
531.651	98.25
531.865	78.25
532.08	77.25
532.295	84.25
532.509	74.25
532.724	87.25
532.938	90.25
533.153	79.25
533.367	72.25
533.582	63.25
533.796	70.25
534.011	79.25
534.225	89.25
534.44	74.25
534.654	80.25
534.868	72.25
535.083	82.25
535.297	78.25
535.511	84.25
535.726	74.25
535.94	78.25
536.154	92.25
536.369	74.25
536.583	83.25
536.797	92.25
537.011	96.25
537.225	87.25
537.44	74.25
537.654	68.25
537.868	68.25
538.082	71.25
538.296	70.25
538.51	84.25
538.724	59.25
538.938	84.25
539.153	70.25
539.367	75.25
539.581	78.25
539.795	79.25
540.009	67.25
540.222	74.25
540.436	85.25
540.65	82.25
540.864	78.25
541.078	69.25
541.292	80.25
541.506	93.25
541.72	84.25
541.934	75.25
542.147	74.25
542.361	86.25
542.575	75.25
542.789	79.25
543.002	75.25
543.216	78.25
543.43	82.25
543.644	90.25
543.857	68.25
544.071	82.25
544.285	76.25
544.498	64.25
544.712	76.25
544.925	78.25
545.139	76.25
545.352	93.25
545.566	88.25
545.779	84.25
545.993	84.25
546.206	83.25
546.42	79.25
546.633	80.25
546.847	86.25
547.06	73.25
547.274	74.25
547.487	77.25
547.7	86.25
547.914	74.25
548.127	87.25
548.34	76.25
548.554	91.25
548.767	92.25
548.98	81.25
549.193	70.25
549.407	80.25
549.62	80.25
549.833	74.25
550.046	68.25
550.259	91.25
550.473	81.25
550.686	86.25
550.899	80.25
551.112	91.25
551.325	73.25
551.538	78.25
551.751	78.25
551.964	82.25
552.177	76.25
552.39	92.25
552.603	72.25
552.816	80.25
553.029	76.25
553.242	74.25
553.455	91.25
553.667	82.25
553.88	90.25
554.093	85.25
554.306	87.25
554.519	87.25
554.732	90.25
554.944	84.25
555.157	75.25
555.37	75.25
555.583	84.25
555.795	88.25
556.008	89.25
556.221	78.25
556.433	87.25
556.646	76.25
556.859	64.25
557.071	67.25
557.284	63.25
557.496	85.25
557.709	80.25
557.921	97.25
558.134	69.25
558.346	79.25
558.559	82.25
558.771	76.25
558.984	83.25
559.196	87.25
559.409	64.25
559.621	104.25
559.833	86.25
560.046	84.25
560.258	89.25
560.47	96.25
560.683	82.25
560.895	92.25
561.107	78.25
561.32	66.25
561.532	78.25
561.744	71.25
561.956	90.25
562.168	70.25
562.381	88.25
562.593	84.25
562.805	88.25
563.017	83.25
563.229	73.25
563.441	80.25
563.653	68.25
563.865	87.25
564.077	70.25
564.289	79.25
564.501	94.25
564.713	98.25
564.925	85.25
565.137	56.25
565.349	80.25
565.561	71.25
565.773	93.25
565.985	81.25
566.197	74.25
566.408	90.25
566.62	81.25
566.832	93.25
567.044	79.25
567.255	88.25
567.467	80.25
567.679	75.25
567.891	83.25
568.102	84.25
568.314	99.25
568.526	90.25
568.737	85.25
568.949	83.25
569.161	71.25
569.372	79.25
569.584	84.25
569.795	71.25
570.007	82.25
570.218	82.25
570.43	81.25
570.641	83.25
570.853	77.25
571.064	82.25
571.276	83.25
571.487	70.25
571.698	67.25
571.91	83.25
572.121	85.25
572.333	93.25
572.544	79.25
572.755	82.25
572.966	99.25
573.178	80.25
573.389	78.25
573.6	75.25
573.811	62.25
574.023	77.25
574.234	74.25
574.445	71.25
574.656	69.25
574.867	73.25
575.078	82.25
575.289	93.25
575.501	90.25
575.712	78.25
575.923	95.25
576.134	85.25
576.345	77.25
576.556	73.25
576.767	98.25
576.978	80.25
577.188	79.25
577.399	85.25
577.61	69.25
577.821	81.25
578.032	79.25
578.243	83.25
578.454	75.25
578.665	88.25
578.875	74.25
579.086	82.25
579.297	76.25
579.508	88.25
579.718	76.25
579.929	87.25
580.14	81.25
580.35	76.25
580.561	82.25
580.772	93.25
580.982	71.25
581.193	90.25
581.403	80.25
581.614	73.25
581.825	88.25
582.035	85.25
582.246	77.25
582.456	78.25
582.667	84.25
582.877	78.25
583.087	78.25
583.298	83.25
583.508	79.25
583.719	74.25
583.929	90.25
584.139	86.25
584.35	100.25
584.56	75.25
584.77	79.25
584.981	85.25
585.191	74.25
585.401	72.25
585.611	79.25
585.821	82.25
586.032	87.25
586.242	82.25
586.452	76.25
586.662	83.25
586.872	94.25
587.082	102.25
587.292	76.25
587.502	78.25
587.713	72.25
587.923	103.25
588.133	91.25
588.343	70.25
588.553	83.25
588.762	106.25
588.972	148.25
589.182	227.25
589.392	163.25
589.602	157.25
589.812	211.25
590.022	147.25
590.232	96.25
590.441	81.25
590.651	90.25
590.861	84.25
591.071	82.25
591.281	90.25
591.49	87.25
591.7	83.25
591.91	70.25
592.119	76.25
592.329	75.25
592.539	72.25
592.748	85.25
592.958	86.25
593.167	86.25
593.377	78.25
593.587	74.25
593.796	80.25
594.006	91.25
594.215	86.25
594.424	77.25
594.634	76.25
594.843	72.25
595.053	85.25
595.262	93.25
595.472	88.25
595.681	81.25
595.89	70.25
596.1	88.25
596.309	72.25
596.518	64.25
596.727	87.25
596.937	96.25
597.146	94.25
597.355	75.25
597.564	80.25
597.774	79.25
597.983	64.25
598.192	74.25
598.401	88.25
598.61	95.25
598.819	93.25
599.028	71.25
599.237	74.25
599.446	79.25
599.655	79.25
599.864	85.25
600.073	86.25
600.282	79.25
600.491	103.25
600.7	92.25
600.909	79.25
601.118	81.25
601.327	82.25
601.536	93.25
601.745	71.25
601.953	80.25
602.162	85.25
602.371	90.25
602.58	84.25
602.789	83.25
602.997	98.25
603.206	75.25
603.415	86.25
603.623	80.25
603.832	92.25
604.041	87.25
604.249	89.25
604.458	82.25
604.666	86.25
604.875	97.25
605.084	86.25
605.292	74.25
605.501	84.25
605.709	94.25
605.918	97.25
606.126	70.25
606.334	79.25
606.543	85.25
606.751	84.25
606.96	84.25
607.168	75.25
607.376	71.25
607.585	84.25
607.793	96.25
608.001	85.25
608.21	86.25
608.418	68.25
608.626	91.25
608.834	81.25
609.043	74.25
609.251	79.25
609.459	96.25
609.667	104.25
609.875	84.25
610.083	79.25
610.291	90.25
610.499	85.25
610.707	91.25
610.916	77.25
611.124	86.25
611.332	91.25
611.54	91.25
611.748	92.25
611.955	88.25
612.163	74.25
612.371	89.25
612.579	92.25
612.787	80.25
612.995	90.25
613.203	76.25
613.411	89.25
613.618	86.25
613.826	77.25
614.034	91.25
614.242	76.25
614.449	77.25
614.657	85.25
614.865	79.25
615.072	91.25
615.28	79.25
615.488	79.25
615.695	72.25
615.903	81.25
616.111	87.25
616.318	85.25
616.526	84.25
616.733	91.25
616.941	70.25
617.148	86.25
617.356	82.25
617.563	82.25
617.771	76.25
617.978	76.25
618.185	74.25
618.393	91.25
618.6	75.25
618.807	83.25
619.015	76.25
619.222	96.25
619.429	90.25
619.637	73.25
619.844	79.25
620.051	74.25
620.258	75.25
620.466	79.25
620.673	79.25
620.88	83.25
621.087	85.25
621.294	92.25
621.501	87.25
621.708	79.25
621.915	78.25
622.122	84.25
622.329	95.25
622.536	92.25
622.743	74.25
622.95	85.25
623.157	85.25
623.364	71.25
623.571	71.25
623.778	89.25
623.985	70.25
624.192	88.25
624.399	84.25
624.606	65.25
624.812	84.25
625.019	83.25
625.226	85.25
625.433	77.25
625.639	73.25
625.846	82.25
626.053	73.25
626.259	68.25
626.466	75.25
626.673	76.25
626.879	78.25
627.086	76.25
627.293	85.25
627.499	79.25
627.706	75.25
627.912	61.25
628.119	92.25
628.325	82.25
628.532	88.25
628.738	76.25
628.945	81.25
629.151	76.25
629.357	83.25
629.564	84.25
629.77	82.25
629.976	85.25
630.183	79.25
630.389	77.25
630.595	75.25
630.802	71.25
631.008	74.25
631.214	72.25
631.42	85.25
631.627	76.25
631.833	72.25
632.039	74.25
632.245	71.25
632.451	82.25
632.657	74.25
632.863	80.25
633.069	74.25
633.275	84.25
633.481	70.25
633.688	68.25
633.893	94.25
634.099	90.25
634.305	88.25
634.511	90.25
634.717	71.25
634.923	76.25
635.129	81.25
635.335	67.25
635.541	68.25
635.747	85.25
635.952	74.25
636.158	88.25
636.364	83.25
636.57	79.25
636.775	84.25
636.981	82.25
637.187	81.25
637.392	80.25
637.598	86.25
637.804	77.25
638.009	73.25
638.215	87.25
638.421	91.25
638.626	77.25
638.832	83.25
639.037	85.25
639.243	77.25
639.448	79.25
639.654	89.25
639.859	80.25
640.065	78.25
640.27	87.25
640.475	75.25
640.681	75.25
640.886	80.25
641.091	69.25
641.297	82.25
641.502	81.25
641.707	80.25
641.913	84.25
642.118	80.25
642.323	66.25
642.528	74.25
642.733	71.25
642.939	77.25
643.144	90.25
643.349	81.25
643.554	80.25
643.759	85.25
643.964	88.25
644.169	88.25
644.374	72.25
644.579	79.25
644.784	82.25
644.989	92.25
645.194	90.25
645.399	78.25
645.604	84.25
645.809	79.25
646.014	72.25
646.219	77.25
646.423	83.25
646.628	86.25
646.833	80.25
647.038	78.25
647.243	87.25
647.447	85.25
647.652	87.25
647.857	76.25
648.062	68.25
648.266	81.25
648.471	82.25
648.676	87.25
648.88	76.25
649.085	93.25
649.289	84.25
649.494	84.25
649.698	91.25
649.903	73.25
650.107	67.25
650.312	80.25
650.516	83.25
650.721	79.25
650.925	80.25
651.13	70.25
651.334	88.25
651.539	76.25
651.743	89.25
651.947	82.25
652.152	84.25
652.356	79.25
652.56	84.25
652.764	84.25
652.969	80.25
653.173	69.25
653.377	73.25
653.581	78.25
653.785	74.25
653.99	82.25
654.194	74.25
654.398	87.25
654.602	77.25
654.806	76.25
655.01	72.25
655.214	73.25
655.418	72.25
655.622	72.25
655.826	67.25
656.03	86.25
656.234	75.25
656.438	93.25
656.642	83.25
656.846	87.25
657.049	92.25
657.253	83.25
657.457	75.25
657.661	77.25
657.865	78.25
658.068	85.25
658.272	86.25
658.476	86.25
658.68	81.25
658.883	88.25
659.087	85.25
659.291	82.25
659.494	90.25
659.698	74.25
659.901	70.25
660.105	68.25
660.309	77.25
660.512	72.25
660.716	83.25
660.919	76.25
661.123	72.25
661.326	66.25
661.53	82.25
661.733	83.25
661.936	72.25
662.14	72.25
662.343	93.25
662.546	88.25
662.75	69.25
662.953	77.25
663.156	88.25
663.36	87.25
663.563	85.25
663.766	72.25
663.969	76.25
664.173	83.25
664.376	82.25
664.579	79.25
664.782	92.25
664.985	89.25
665.188	86.25
665.391	82.25
665.594	78.25
665.797	67.25
666	74.25
666.203	77.25
666.406	82.25
666.609	92.25
666.812	82.25
667.015	76.25
667.218	83.25
667.421	78.25
667.624	90.25
667.827	90.25
668.03	72.25
668.232	66.25
668.435	77.25
668.638	88.25
668.841	82.25
669.043	70.25
669.246	86.25
669.449	77.25
669.651	72.25
669.854	83.25
670.057	88.25
670.259	74.25
670.462	67.25
670.665	78.25
670.867	82.25
671.07	93.25
671.272	82.25
671.475	81.25
671.677	63.25
671.88	67.25
672.082	68.25
672.284	73.25
672.487	76.25
672.689	75.25
672.892	74.25
