Data from Propagules_50_1_HRD10591_00003.txt Node
Date: Thu Feb 19 11:07:04 EST 2026
User: Yrep
Spectrometer: HR+D1059
Trigger mode: 1
Integration Time (sec): 1.000000E-1
Scans to average: 1
Electric dark correction enabled: true
Nonlinearity correction enabled: false
Boxcar width: 0
XAxis mode: Wavelengths
Number of Pixels in Spectrum: 2048
>>>>>Begin Spectral Data<<<<<
223.165	-0.88
223.4	-0.88
223.635	-0.88
223.869	-12.88
224.104	-19.88
224.338	-5.88
224.573	-12.88
224.808	-17.88
225.042	-7.88
225.277	-3.88
225.511	-14.88
225.746	0.12
225.98	3.12
226.215	5.12
226.449	17.12
226.683	24.12
226.918	22.12
227.152	25.12
227.387	35.12
227.621	41.12
227.856	38.12
228.09	42.12
228.324	68.12
228.559	48.12
228.793	58.12
229.027	70.12
229.262	57.12
229.496	65.12
229.73	70.12
229.964	62.12
230.199	71.12
230.433	70.12
230.667	70.12
230.901	82.12
231.136	72.12
231.37	76.12
231.604	80.12
231.838	90.12
232.072	84.12
232.306	63.12
232.541	71.12
232.775	71.12
233.009	71.12
233.243	81.12
233.477	73.12
233.711	78.12
233.945	97.12
234.179	74.12
234.413	80.12
234.647	75.12
234.881	72.12
235.115	79.12
235.349	70.12
235.583	68.12
235.817	78.12
236.051	68.12
236.285	78.12
236.519	73.12
236.753	85.12
236.987	76.12
237.221	76.12
237.455	73.12
237.689	78.12
237.922	78.12
238.156	80.12
238.39	82.12
238.624	78.12
238.858	81.12
239.091	76.12
239.325	80.12
239.559	82.12
239.793	74.12
240.027	79.12
240.26	66.12
240.494	74.12
240.728	76.12
240.961	76.12
241.195	65.12
241.429	77.12
241.662	80.12
241.896	63.12
242.13	71.12
242.363	76.12
242.597	74.12
242.83	80.12
243.064	86.12
243.298	80.12
243.531	79.12
243.765	75.12
243.998	76.12
244.232	74.12
244.465	78.12
244.699	70.12
244.932	73.12
245.166	74.12
245.399	88.12
245.633	79.12
245.866	75.12
246.099	71.12
246.333	75.12
246.566	78.12
246.8	62.12
247.033	89.12
247.266	74.12
247.5	68.12
247.733	61.12
247.966	79.12
248.2	80.12
248.433	73.12
248.666	70.12
248.899	65.12
249.133	70.12
249.366	93.12
249.599	80.12
249.832	74.12
250.066	62.12
250.299	76.12
250.532	82.12
250.765	80.12
250.998	76.12
251.231	67.12
251.465	76.12
251.698	76.12
251.931	70.12
252.164	80.12
252.397	85.12
252.63	70.12
252.863	64.12
253.096	75.12
253.329	84.12
253.562	91.12
253.795	71.12
254.028	78.12
254.261	74.12
254.494	81.12
254.727	87.12
254.96	78.12
255.193	75.12
255.426	77.12
255.659	73.12
255.892	80.12
256.124	70.12
256.357	66.12
256.59	80.12
256.823	80.12
257.056	72.12
257.289	84.12
257.521	77.12
257.754	86.12
257.987	92.12
258.22	76.12
258.452	77.12
258.685	75.12
258.918	84.12
259.151	70.12
259.383	96.12
259.616	78.12
259.849	86.12
260.081	81.12
260.314	78.12
260.547	72.12
260.779	85.12
261.012	80.12
261.244	95.12
261.477	84.12
261.71	87.12
261.942	78.12
262.175	83.12
262.407	74.12
262.64	76.12
262.872	88.12
263.105	72.12
263.337	70.12
263.57	87.12
263.802	71.12
264.035	81.12
264.267	81.12
264.499	81.12
264.732	90.12
264.964	88.12
265.197	85.12
265.429	76.12
265.661	69.12
265.894	84.12
266.126	75.12
266.358	76.12
266.591	78.12
266.823	70.12
267.055	71.12
267.287	86.12
267.52	82.12
267.752	74.12
267.984	78.12
268.216	74.12
268.448	88.12
268.681	78.12
268.913	79.12
269.145	69.12
269.377	92.12
269.609	82.12
269.841	78.12
270.073	72.12
270.306	76.12
270.538	70.12
270.77	80.12
271.002	62.12
271.234	70.12
271.466	70.12
271.698	78.12
271.93	70.12
272.162	68.12
272.394	81.12
272.626	90.12
272.858	73.12
273.09	82.12
273.322	85.12
273.553	70.12
273.785	69.12
274.017	81.12
274.249	66.12
274.481	82.12
274.713	85.12
274.945	87.12
275.176	92.12
275.408	84.12
275.64	88.12
275.872	94.12
276.104	85.12
276.335	71.12
276.567	70.12
276.799	98.12
277.031	85.12
277.262	84.12
277.494	86.12
277.726	74.12
277.957	86.12
278.189	72.12
278.421	68.12
278.652	71.12
278.884	79.12
279.115	87.12
279.347	70.12
279.579	86.12
279.81	74.12
280.042	77.12
280.273	78.12
280.505	76.12
280.736	84.12
280.968	87.12
281.199	79.12
281.431	84.12
281.662	78.12
281.894	88.12
282.125	86.12
282.356	85.12
282.588	86.12
282.819	79.12
283.051	98.12
283.282	89.12
283.513	80.12
283.745	85.12
283.976	90.12
284.207	81.12
284.439	78.12
284.67	77.12
284.901	95.12
285.132	67.12
285.364	67.12
285.595	77.12
285.826	72.12
286.057	89.12
286.288	66.12
286.52	81.12
286.751	78.12
286.982	86.12
287.213	70.12
287.444	85.12
287.675	85.12
287.906	75.12
288.138	80.12
288.369	102.12
288.6	73.12
288.831	89.12
289.062	84.12
289.293	94.12
289.524	77.12
289.755	92.12
289.986	82.12
290.217	74.12
290.448	71.12
290.679	76.12
290.91	85.12
291.141	85.12
291.371	78.12
291.602	77.12
291.833	73.12
292.064	86.12
292.295	82.12
292.526	94.12
292.757	79.12
292.987	84.12
293.218	74.12
293.449	82.12
293.68	83.12
293.91	79.12
294.141	89.12
294.372	78.12
294.603	72.12
294.833	84.12
295.064	67.12
295.295	69.12
295.525	94.12
295.756	73.12
295.987	81.12
296.217	85.12
296.448	70.12
296.679	79.12
296.909	82.12
297.14	84.12
297.37	94.12
297.601	84.12
297.831	93.12
298.062	75.12
298.292	84.12
298.523	97.12
298.753	76.12
298.984	93.12
299.214	82.12
299.445	92.12
299.675	84.12
299.905	72.12
300.136	80.12
300.366	69.12
300.597	66.12
300.827	91.12
301.057	79.12
301.288	84.12
301.518	82.12
301.748	91.12
301.979	94.12
302.209	82.12
302.439	90.12
302.669	80.12
302.9	80.12
303.13	90.12
303.36	78.12
303.59	78.12
303.82	84.12
304.051	86.12
304.281	86.12
304.511	83.12
304.741	79.12
304.971	85.12
305.201	70.12
305.431	80.12
305.661	84.12
305.891	81.12
306.121	75.12
306.352	83.12
306.582	90.12
306.812	74.12
307.042	77.12
307.272	74.12
307.502	84.12
307.731	84.12
307.961	76.12
308.191	73.12
308.421	70.12
308.651	72.12
308.881	72.12
309.111	61.12
309.341	71.12
309.571	93.12
309.8	87.12
310.03	80.12
310.26	87.12
310.49	73.12
310.72	85.12
310.949	87.12
311.179	83.12
311.409	90.12
311.639	67.12
311.868	86.12
312.098	78.12
312.328	78.12
312.557	66.12
312.787	81.12
313.017	80.12
313.246	90.12
313.476	91.12
313.706	89.12
313.935	83.12
314.165	89.12
314.394	82.12
314.624	85.12
314.853	76.12
315.083	81.12
315.312	89.12
315.542	70.12
315.771	84.12
316.001	99.12
316.23	92.12
316.46	82.12
316.689	82.12
316.919	77.12
317.148	84.12
317.377	83.12
317.607	92.12
317.836	72.12
318.065	80.12
318.295	95.12
318.524	81.12
318.753	75.12
318.983	86.12
319.212	83.12
319.441	77.12
319.67	91.12
319.9	87.12
320.129	79.12
320.358	90.12
320.587	80.12
320.816	93.12
321.046	70.12
321.275	82.12
321.504	90.12
321.733	75.12
321.962	80.12
322.191	75.12
322.42	82.12
322.649	74.12
322.878	79.12
323.108	96.12
323.337	83.12
323.566	87.12
323.795	78.12
324.024	88.12
324.253	86.12
324.482	74.12
324.71	84.12
324.939	77.12
325.168	84.12
325.397	77.12
325.626	88.12
325.855	72.12
326.084	83.12
326.313	78.12
326.542	77.12
326.77	83.12
326.999	84.12
327.228	87.12
327.457	69.12
327.686	85.12
327.914	76.12
328.143	78.12
328.372	79.12
328.6	77.12
328.829	87.12
329.058	81.12
329.287	63.12
329.515	82.12
329.744	83.12
329.972	88.12
330.201	92.12
330.43	74.12
330.658	80.12
330.887	81.12
331.115	92.12
331.344	75.12
331.572	82.12
331.801	78.12
332.03	93.12
332.258	78.12
332.486	92.12
332.715	89.12
332.943	76.12
333.172	88.12
333.4	84.12
333.629	91.12
333.857	75.12
334.085	72.12
334.314	85.12
334.542	76.12
334.771	80.12
334.999	79.12
335.227	87.12
335.455	77.12
335.684	78.12
335.912	71.12
336.14	74.12
336.369	79.12
336.597	74.12
336.825	79.12
337.053	72.12
337.281	81.12
337.51	86.12
337.738	101.12
337.966	81.12
338.194	87.12
338.422	88.12
338.65	81.12
338.878	76.12
339.106	78.12
339.334	67.12
339.562	78.12
339.79	93.12
340.018	70.12
340.246	74.12
340.474	85.12
340.702	74.12
340.93	67.12
341.158	79.12
341.386	78.12
341.614	86.12
341.842	92.12
342.07	81.12
342.298	77.12
342.526	90.12
342.754	88.12
342.981	77.12
343.209	96.12
343.437	92.12
343.665	83.12
343.893	85.12
344.12	79.12
344.348	76.12
344.576	98.12
344.804	74.12
345.031	73.12
345.259	80.12
345.487	78.12
345.714	74.12
345.942	87.12
346.17	76.12
346.397	88.12
346.625	90.12
346.853	100.12
347.08	91.12
347.308	94.12
347.535	77.12
347.763	81.12
347.99	92.12
348.218	78.12
348.445	85.12
348.673	84.12
348.9	79.12
349.128	70.12
349.355	86.12
349.583	79.12
349.81	85.12
350.037	90.12
350.265	82.12
350.492	94.12
350.72	89.12
350.947	70.12
351.174	76.12
351.402	76.12
351.629	75.12
351.856	90.12
352.083	83.12
352.311	87.12
352.538	95.12
352.765	77.12
352.992	78.12
353.22	80.12
353.447	68.12
353.674	79.12
353.901	79.12
354.128	82.12
354.355	78.12
354.583	82.12
354.81	81.12
355.037	83.12
355.264	83.12
355.491	74.12
355.718	79.12
355.945	81.12
356.172	78.12
356.399	88.12
356.626	88.12
356.853	84.12
357.08	77.12
357.307	82.12
357.534	80.12
357.761	76.12
357.988	86.12
358.215	97.12
358.441	70.12
358.668	68.12
358.895	78.12
359.122	78.12
359.349	85.12
359.576	80.12
359.802	90.12
360.029	80.12
360.256	86.12
360.483	84.12
360.709	90.12
360.936	91.12
361.163	92.12
361.39	72.12
361.616	83.12
361.843	82.12
362.07	93.12
362.296	88.12
362.523	86.12
362.749	83.12
362.976	92.12
363.203	94.12
363.429	92.12
363.656	74.12
363.882	81.12
364.109	68.12
364.335	89.12
364.562	72.12
364.788	76.12
365.015	70.12
365.241	90.12
365.468	72.12
365.694	96.12
365.92	93.12
366.147	88.12
366.373	73.12
366.599	72.12
366.826	89.12
367.052	92.12
367.278	86.12
367.505	86.12
367.731	65.12
367.957	84.12
368.184	74.12
368.41	86.12
368.636	96.12
368.862	70.12
369.089	78.12
369.315	79.12
369.541	71.12
369.767	84.12
369.993	85.12
370.219	77.12
370.445	84.12
370.672	75.12
370.898	91.12
371.124	95.12
371.35	98.12
371.576	89.12
371.802	81.12
372.028	83.12
372.254	78.12
372.48	74.12
372.706	78.12
372.932	80.12
373.158	80.12
373.384	96.12
373.61	78.12
373.835	82.12
374.061	106.12
374.287	91.12
374.513	70.12
374.739	88.12
374.965	68.12
375.191	84.12
375.416	90.12
375.642	83.12
375.868	94.12
376.094	76.12
376.319	77.12
376.545	80.12
376.771	83.12
376.997	72.12
377.222	85.12
377.448	98.12
377.674	80.12
377.899	84.12
378.125	80.12
378.35	74.12
378.576	88.12
378.802	80.12
379.027	78.12
379.253	74.12
379.478	71.12
379.704	85.12
379.929	90.12
380.155	78.12
380.38	82.12
380.606	89.12
380.831	76.12
381.057	75.12
381.282	81.12
381.507	82.12
381.733	79.12
381.958	86.12
382.184	84.12
382.409	63.12
382.634	80.12
382.86	61.12
383.085	64.12
383.31	80.12
383.535	63.12
383.761	78.12
383.986	94.12
384.211	85.12
384.436	73.12
384.662	76.12
384.887	86.12
385.112	78.12
385.337	80.12
385.562	76.12
385.787	76.12
386.013	77.12
386.238	67.12
386.463	74.12
386.688	98.12
386.913	81.12
387.138	93.12
387.363	80.12
387.588	94.12
387.813	84.12
388.038	76.12
388.263	84.12
388.488	87.12
388.713	76.12
388.938	90.12
389.163	77.12
389.387	75.12
389.612	82.12
389.837	88.12
390.062	68.12
390.287	76.12
390.512	71.12
390.736	75.12
390.961	65.12
391.186	82.12
391.411	92.12
391.636	71.12
391.86	82.12
392.085	84.12
392.31	83.12
392.534	85.12
392.759	92.12
392.984	82.12
393.208	81.12
393.433	77.12
393.658	96.12
393.882	90.12
394.107	80.12
394.331	77.12
394.556	85.12
394.78	80.12
395.005	84.12
395.229	76.12
395.454	73.12
395.678	80.12
395.903	72.12
396.127	77.12
396.352	76.12
396.576	70.12
396.801	90.12
397.025	74.12
397.249	84.12
397.474	85.12
397.698	76.12
397.922	88.12
398.147	72.12
398.371	74.12
398.595	74.12
398.82	78.12
399.044	73.12
399.268	74.12
399.492	73.12
399.717	82.12
399.941	83.12
400.165	73.12
400.389	81.12
400.613	72.12
400.837	73.12
401.062	73.12
401.286	80.12
401.51	81.12
401.734	79.12
401.958	74.12
402.182	76.12
402.406	68.12
402.63	80.12
402.854	70.12
403.078	87.12
403.302	73.12
403.526	81.12
403.75	69.12
403.974	88.12
404.198	92.12
404.422	84.12
404.645	79.12
404.869	82.12
405.093	85.12
405.317	81.12
405.541	68.12
405.765	69.12
405.988	78.12
406.212	80.12
406.436	86.12
406.66	86.12
406.883	77.12
407.107	74.12
407.331	77.12
407.555	81.12
407.778	77.12
408.002	83.12
408.226	79.12
408.449	71.12
408.673	83.12
408.896	93.12
409.12	81.12
409.344	82.12
409.567	80.12
409.791	81.12
410.014	74.12
410.238	74.12
410.461	84.12
410.685	82.12
410.908	75.12
411.132	90.12
411.355	82.12
411.578	64.12
411.802	72.12
412.025	75.12
412.249	73.12
412.472	82.12
412.695	84.12
412.919	78.12
413.142	91.12
413.365	92.12
413.589	86.12
413.812	71.12
414.035	87.12
414.258	80.12
414.482	72.12
414.705	81.12
414.928	90.12
415.151	80.12
415.374	68.12
415.597	74.12
415.821	83.12
416.044	79.12
416.267	91.12
416.49	85.12
416.713	76.12
416.936	92.12
417.159	80.12
417.382	69.12
417.605	74.12
417.828	67.12
418.051	81.12
418.274	76.12
418.497	76.12
418.72	79.12
418.943	92.12
419.166	73.12
419.389	79.12
419.611	85.12
419.834	86.12
420.057	81.12
420.28	69.12
420.503	73.12
420.726	85.12
420.948	83.12
421.171	70.12
421.394	77.12
421.617	83.12
421.839	73.12
422.062	72.12
422.285	63.12
422.507	78.12
422.73	94.12
422.953	90.12
423.175	86.12
423.398	87.12
423.621	84.12
423.843	87.12
424.066	64.12
424.288	76.12
424.511	83.12
424.733	81.12
424.956	71.12
425.178	77.12
425.401	84.12
425.623	78.12
425.846	76.12
426.068	74.12
426.291	78.12
426.513	81.12
426.735	72.12
426.958	82.12
427.18	76.12
427.402	76.12
427.625	73.12
427.847	80.12
428.069	91.12
428.292	69.12
428.514	83.12
428.736	70.12
428.958	79.12
429.181	84.12
429.403	83.12
429.625	92.12
429.847	76.12
430.069	76.12
430.292	91.12
430.514	92.12
430.736	73.12
430.958	74.12
431.18	72.12
431.402	88.12
431.624	85.12
431.846	80.12
432.068	89.12
432.29	80.12
432.512	72.12
432.734	72.12
432.956	84.12
433.178	72.12
433.4	78.12
433.622	91.12
433.844	69.12
434.066	64.12
434.287	74.12
434.509	76.12
434.731	84.12
434.953	68.12
435.175	76.12
435.397	76.12
435.618	80.12
435.84	80.12
436.062	82.12
436.284	78.12
436.505	72.12
436.727	73.12
436.949	75.12
437.17	77.12
437.392	71.12
437.614	73.12
437.835	77.12
438.057	82.12
438.278	77.12
438.5	69.12
438.721	64.12
438.943	83.12
439.165	64.12
439.386	77.12
439.608	81.12
439.829	67.12
440.05	60.12
440.272	68.12
440.493	95.12
440.715	69.12
440.936	76.12
441.158	68.12
441.379	85.12
441.6	75.12
441.822	83.12
442.043	90.12
442.264	71.12
442.486	85.12
442.707	86.12
442.928	87.12
443.149	65.12
443.371	80.12
443.592	84.12
443.813	89.12
444.034	82.12
444.255	81.12
444.476	77.12
444.698	69.12
444.919	87.12
445.14	148.12
445.361	108.12
445.582	85.12
445.803	75.12
446.024	77.12
446.245	71.12
446.466	80.12
446.687	77.12
446.908	68.12
447.129	84.12
447.35	85.12
447.571	84.12
447.792	77.12
448.013	78.12
448.234	73.12
448.455	76.12
448.675	57.12
448.896	69.12
449.117	69.12
449.338	77.12
449.559	84.12
449.779	75.12
450	84.12
450.221	70.12
450.442	76.12
450.662	77.12
450.883	74.12
451.104	82.12
451.324	76.12
451.545	82.12
451.766	80.12
451.986	77.12
452.207	87.12
452.428	84.12
452.648	79.12
452.869	60.12
453.089	76.12
453.31	72.12
453.53	80.12
453.751	77.12
453.971	75.12
454.192	77.12
454.412	72.12
454.633	73.12
454.853	81.12
455.073	74.12
455.294	78.12
455.514	80.12
455.734	74.12
455.955	70.12
456.175	86.12
456.395	88.12
456.616	83.12
456.836	70.12
457.056	73.12
457.276	74.12
457.497	86.12
457.717	81.12
457.937	64.12
458.157	64.12
458.377	93.12
458.598	67.12
458.818	67.12
459.038	73.12
459.258	71.12
459.478	79.12
459.698	79.12
459.918	84.12
460.138	72.12
460.358	73.12
460.578	71.12
460.798	72.12
461.018	80.12
461.238	71.12
461.458	86.12
461.678	81.12
461.898	86.12
462.118	89.12
462.338	80.12
462.558	80.12
462.777	81.12
462.997	72.12
463.217	76.12
463.437	74.12
463.657	73.12
463.876	89.12
464.096	72.12
464.316	70.12
464.536	77.12
464.755	83.12
464.975	66.12
465.195	80.12
465.414	70.12
465.634	96.12
465.854	76.12
466.073	78.12
466.293	80.12
466.512	77.12
466.732	72.12
466.951	94.12
467.171	82.12
467.391	79.12
467.61	73.12
467.829	88.12
468.049	65.12
468.268	84.12
468.488	89.12
468.707	94.12
468.927	75.12
469.146	77.12
469.365	80.12
469.585	71.12
469.804	80.12
470.023	73.12
470.243	85.12
470.462	80.12
470.681	77.12
470.901	72.12
471.12	73.12
471.339	67.12
471.558	59.12
471.777	80.12
471.997	94.12
472.216	87.12
472.435	67.12
472.654	82.12
472.873	78.12
473.092	63.12
473.311	82.12
473.53	89.12
473.749	72.12
473.968	87.12
474.187	90.12
474.406	77.12
474.625	82.12
474.844	71.12
475.063	69.12
475.282	70.12
475.501	70.12
475.72	83.12
475.939	94.12
476.158	80.12
476.377	84.12
476.596	66.12
476.814	85.12
477.033	78.12
477.252	81.12
477.471	70.12
477.69	86.12
477.908	72.12
478.127	70.12
478.346	78.12
478.564	72.12
478.783	94.12
479.002	90.12
479.22	75.12
479.439	70.12
479.658	94.12
479.876	80.12
480.095	70.12
480.313	89.12
480.532	90.12
480.751	81.12
480.969	72.12
481.188	64.12
481.406	62.12
481.624	75.12
481.843	84.12
482.061	91.12
482.28	86.12
482.498	90.12
482.717	84.12
482.935	85.12
483.153	81.12
483.372	72.12
483.59	76.12
483.808	73.12
484.027	81.12
484.245	82.12
484.463	78.12
484.681	96.12
484.9	80.12
485.118	86.12
485.336	85.12
485.554	88.12
485.772	72.12
485.99	80.12
486.209	77.12
486.427	84.12
486.645	74.12
486.863	76.12
487.081	89.12
487.299	73.12
487.517	68.12
487.735	82.12
487.953	79.12
488.171	85.12
488.389	73.12
488.607	75.12
488.825	84.12
489.043	81.12
489.261	86.12
489.479	88.12
489.696	74.12
489.914	86.12
490.132	69.12
490.35	76.12
490.568	75.12
490.786	76.12
491.003	90.12
491.221	64.12
491.439	77.12
491.657	76.12
491.874	100.12
492.092	68.12
492.31	80.12
492.527	86.12
492.745	92.12
492.963	83.12
493.18	73.12
493.398	86.12
493.615	66.12
493.833	73.12
494.05	71.12
494.268	85.12
494.485	85.12
494.703	75.12
494.92	78.12
495.138	78.12
495.355	86.12
495.573	84.12
495.79	69.12
496.008	90.12
496.225	80.12
496.442	83.12
496.66	74.12
496.877	73.12
497.094	88.12
497.312	83.12
497.529	74.12
497.746	88.12
497.963	78.12
498.181	80.12
498.398	81.12
498.615	84.12
498.832	91.12
499.049	84.12
499.267	78.12
499.484	84.12
499.701	75.12
499.918	91.12
500.135	81.12
500.352	83.12
500.569	89.12
500.786	74.12
501.003	68.12
501.22	82.12
501.437	74.12
501.654	83.12
501.871	83.12
502.088	65.12
502.305	80.12
502.522	89.12
502.739	84.12
502.956	86.12
503.172	78.12
503.389	77.12
503.606	77.12
503.823	71.12
504.04	84.12
504.256	75.12
504.473	81.12
504.69	86.12
504.907	78.12
505.123	89.12
505.34	64.12
505.557	73.12
505.773	70.12
505.99	88.12
506.207	83.12
506.423	73.12
506.64	68.12
506.856	77.12
507.073	72.12
507.289	83.12
507.506	74.12
507.722	90.12
507.939	75.12
508.155	106.12
508.372	92.12
508.588	82.12
508.805	95.12
509.021	94.12
509.238	70.12
509.454	83.12
509.67	81.12
509.887	81.12
510.103	82.12
510.319	79.12
510.536	80.12
510.752	78.12
510.968	66.12
511.184	79.12
511.401	75.12
511.617	84.12
511.833	78.12
512.049	69.12
512.265	70.12
512.481	68.12
512.698	90.12
512.914	77.12
513.13	86.12
513.346	89.12
513.562	64.12
513.778	72.12
513.994	84.12
514.21	90.12
514.426	76.12
514.642	84.12
514.858	87.12
515.074	85.12
515.29	77.12
515.506	84.12
515.721	78.12
515.937	84.12
516.153	83.12
516.369	72.12
516.585	87.12
516.801	85.12
517.016	69.12
517.232	81.12
517.448	75.12
517.664	81.12
517.879	92.12
518.095	80.12
518.311	87.12
518.527	78.12
518.742	81.12
518.958	82.12
519.173	83.12
519.389	74.12
519.605	81.12
519.82	64.12
520.036	67.12
520.251	67.12
520.467	85.12
520.682	78.12
520.898	87.12
521.113	90.12
521.329	68.12
521.544	66.12
521.76	76.12
521.975	84.12
522.19	87.12
522.406	89.12
522.621	92.12
522.836	90.12
523.052	89.12
523.267	86.12
523.482	70.12
523.698	85.12
523.913	76.12
524.128	80.12
524.343	92.12
524.559	96.12
524.774	89.12
524.989	87.12
525.204	85.12
525.419	100.12
525.634	75.12
525.849	74.12
526.064	75.12
526.28	82.12
526.495	90.12
526.71	90.12
526.925	76.12
527.14	85.12
527.355	85.12
527.57	91.12
527.785	78.12
527.999	76.12
528.214	76.12
528.429	89.12
528.644	82.12
528.859	90.12
529.074	101.12
529.289	88.12
529.503	82.12
529.718	83.12
529.933	77.12
530.148	84.12
530.363	87.12
530.577	85.12
530.792	89.12
531.007	68.12
531.221	88.12
531.436	72.12
531.651	92.12
531.865	92.12
532.08	77.12
532.295	70.12
532.509	95.12
532.724	80.12
532.938	84.12
533.153	81.12
533.367	78.12
533.582	80.12
533.796	99.12
534.011	87.12
534.225	80.12
534.44	81.12
534.654	86.12
534.868	86.12
535.083	83.12
535.297	71.12
535.511	80.12
535.726	70.12
535.94	80.12
536.154	83.12
536.369	87.12
536.583	79.12
536.797	91.12
537.011	81.12
537.225	78.12
537.44	88.12
537.654	85.12
537.868	82.12
538.082	72.12
538.296	80.12
538.51	90.12
538.724	93.12
538.938	80.12
539.153	86.12
539.367	84.12
539.581	95.12
539.795	84.12
540.009	86.12
540.222	85.12
540.436	74.12
540.65	84.12
540.864	75.12
541.078	84.12
541.292	105.12
541.506	88.12
541.72	82.12
541.934	86.12
542.147	84.12
542.361	87.12
542.575	84.12
542.789	76.12
543.002	84.12
543.216	78.12
543.43	81.12
543.644	82.12
543.857	77.12
544.071	68.12
544.285	96.12
544.498	85.12
544.712	92.12
544.925	81.12
545.139	81.12
545.352	80.12
545.566	84.12
545.779	83.12
545.993	91.12
546.206	74.12
546.42	80.12
546.633	82.12
546.847	84.12
547.06	78.12
547.274	75.12
547.487	93.12
547.7	79.12
547.914	90.12
548.127	60.12
548.34	98.12
548.554	90.12
548.767	93.12
548.98	80.12
549.193	76.12
549.407	89.12
549.62	90.12
549.833	81.12
550.046	82.12
550.259	87.12
550.473	83.12
550.686	83.12
550.899	93.12
551.112	69.12
551.325	89.12
551.538	88.12
551.751	83.12
551.964	84.12
552.177	80.12
552.39	86.12
552.603	86.12
552.816	84.12
553.029	82.12
553.242	87.12
553.455	96.12
553.667	81.12
553.88	83.12
554.093	82.12
554.306	77.12
554.519	87.12
554.732	70.12
554.944	92.12
555.157	86.12
555.37	92.12
555.583	79.12
555.795	94.12
556.008	80.12
556.221	94.12
556.433	96.12
556.646	76.12
556.859	83.12
557.071	81.12
557.284	88.12
557.496	90.12
557.709	85.12
557.921	91.12
558.134	80.12
558.346	93.12
558.559	82.12
558.771	76.12
558.984	79.12
559.196	85.12
559.409	91.12
559.621	72.12
559.833	82.12
560.046	92.12
560.258	86.12
560.47	92.12
560.683	73.12
560.895	85.12
561.107	81.12
561.32	74.12
561.532	78.12
561.744	100.12
561.956	82.12
562.168	77.12
562.381	74.12
562.593	94.12
562.805	82.12
563.017	68.12
563.229	86.12
563.441	99.12
563.653	89.12
563.865	84.12
564.077	85.12
564.289	90.12
564.501	87.12
564.713	87.12
564.925	74.12
565.137	97.12
565.349	73.12
565.561	75.12
565.773	81.12
565.985	77.12
566.197	77.12
566.408	93.12
566.62	82.12
566.832	82.12
567.044	80.12
567.255	85.12
567.467	85.12
567.679	92.12
567.891	102.12
568.102	75.12
568.314	89.12
568.526	89.12
568.737	83.12
568.949	96.12
569.161	97.12
569.372	85.12
569.584	90.12
569.795	81.12
570.007	92.12
570.218	84.12
570.43	90.12
570.641	86.12
570.853	96.12
571.064	91.12
571.276	84.12
571.487	80.12
571.698	94.12
571.91	84.12
572.121	84.12
572.333	86.12
572.544	61.12
572.755	72.12
572.966	85.12
573.178	80.12
573.389	80.12
573.6	71.12
573.811	88.12
574.023	77.12
574.234	99.12
574.445	82.12
574.656	77.12
574.867	70.12
575.078	86.12
575.289	76.12
575.501	76.12
575.712	86.12
575.923	87.12
576.134	82.12
576.345	76.12
576.556	69.12
576.767	99.12
576.978	90.12
577.188	89.12
577.399	71.12
577.61	72.12
577.821	86.12
578.032	83.12
578.243	80.12
578.454	90.12
578.665	75.12
578.875	84.12
579.086	87.12
579.297	94.12
579.508	86.12
579.718	90.12
579.929	87.12
580.14	81.12
580.35	87.12
580.561	76.12
580.772	75.12
580.982	85.12
581.193	69.12
581.403	80.12
581.614	86.12
581.825	89.12
582.035	78.12
582.246	86.12
582.456	88.12
582.667	82.12
582.877	80.12
583.087	82.12
583.298	77.12
583.508	77.12
583.719	86.12
583.929	96.12
584.139	87.12
584.35	79.12
584.56	84.12
584.77	70.12
584.981	80.12
585.191	77.12
585.401	84.12
585.611	89.12
585.821	80.12
586.032	90.12
586.242	86.12
586.452	78.12
586.662	86.12
586.872	80.12
587.082	94.12
587.292	78.12
587.502	91.12
587.713	74.12
587.923	90.12
588.133	92.12
588.343	76.12
588.553	94.12
588.762	124.12
588.972	171.12
589.182	255.12
589.392	218.12
589.602	165.12
589.812	234.12
590.022	146.12
590.232	91.12
590.441	94.12
590.651	100.12
590.861	82.12
591.071	72.12
591.281	60.12
591.49	89.12
591.7	97.12
591.91	88.12
592.119	77.12
592.329	63.12
592.539	85.12
592.748	87.12
592.958	85.12
593.167	82.12
593.377	80.12
593.587	92.12
593.796	78.12
594.006	81.12
594.215	78.12
594.424	68.12
594.634	80.12
594.843	80.12
595.053	90.12
595.262	89.12
595.472	88.12
595.681	86.12
595.89	89.12
596.1	79.12
596.309	90.12
596.518	80.12
596.727	75.12
596.937	88.12
597.146	90.12
597.355	89.12
597.564	95.12
597.774	88.12
597.983	86.12
598.192	72.12
598.401	73.12
598.61	77.12
598.819	79.12
599.028	92.12
599.237	74.12
599.446	95.12
599.655	97.12
599.864	76.12
600.073	81.12
600.282	77.12
600.491	82.12
600.7	89.12
600.909	88.12
601.118	82.12
601.327	91.12
601.536	80.12
601.745	76.12
601.953	81.12
602.162	86.12
602.371	69.12
602.58	79.12
602.789	79.12
602.997	75.12
603.206	108.12
603.415	77.12
603.623	85.12
603.832	87.12
604.041	90.12
604.249	86.12
604.458	94.12
604.666	67.12
604.875	78.12
605.084	77.12
605.292	87.12
605.501	84.12
605.709	76.12
605.918	70.12
606.126	88.12
606.334	80.12
606.543	77.12
606.751	79.12
606.96	76.12
607.168	82.12
607.376	76.12
607.585	91.12
607.793	80.12
608.001	74.12
608.21	88.12
608.418	86.12
608.626	88.12
608.834	71.12
609.043	74.12
609.251	81.12
609.459	80.12
609.667	88.12
609.875	79.12
610.083	85.12
610.291	92.12
610.499	95.12
610.707	86.12
610.916	84.12
611.124	92.12
611.332	77.12
611.54	88.12
611.748	90.12
611.955	87.12
612.163	86.12
612.371	74.12
612.579	84.12
612.787	90.12
612.995	91.12
613.203	107.12
613.411	86.12
613.618	86.12
613.826	76.12
614.034	79.12
614.242	70.12
614.449	76.12
614.657	75.12
614.865	89.12
615.072	81.12
615.28	79.12
615.488	73.12
615.695	85.12
615.903	78.12
616.111	78.12
616.318	98.12
616.526	79.12
616.733	86.12
616.941	82.12
617.148	85.12
617.356	88.12
617.563	83.12
617.771	87.12
617.978	78.12
618.185	78.12
618.393	86.12
618.6	98.12
618.807	92.12
619.015	74.12
619.222	76.12
619.429	72.12
619.637	90.12
619.844	83.12
620.051	84.12
620.258	84.12
620.466	79.12
620.673	82.12
620.88	83.12
621.087	80.12
621.294	80.12
621.501	88.12
621.708	98.12
621.915	93.12
622.122	92.12
622.329	75.12
622.536	90.12
622.743	84.12
622.95	79.12
623.157	78.12
623.364	83.12
623.571	96.12
623.778	83.12
623.985	96.12
624.192	80.12
624.399	74.12
624.606	92.12
624.812	75.12
625.019	77.12
625.226	78.12
625.433	83.12
625.639	85.12
625.846	80.12
626.053	76.12
626.259	94.12
626.466	80.12
626.673	87.12
626.879	81.12
627.086	92.12
627.293	77.12
627.499	72.12
627.706	76.12
627.912	78.12
628.119	87.12
628.325	85.12
628.532	90.12
628.738	81.12
628.945	83.12
629.151	82.12
629.357	81.12
629.564	78.12
629.77	74.12
629.976	77.12
630.183	102.12
630.389	74.12
630.595	70.12
630.802	78.12
631.008	85.12
631.214	86.12
631.42	84.12
631.627	74.12
631.833	90.12
632.039	75.12
632.245	79.12
632.451	84.12
632.657	84.12
632.863	77.12
633.069	76.12
633.275	81.12
633.481	78.12
633.688	87.12
633.893	70.12
634.099	70.12
634.305	82.12
634.511	64.12
634.717	81.12
634.923	80.12
635.129	85.12
635.335	71.12
635.541	94.12
635.747	82.12
635.952	90.12
636.158	77.12
636.364	86.12
636.57	84.12
636.775	92.12
636.981	73.12
637.187	82.12
637.392	102.12
637.598	68.12
637.804	89.12
638.009	72.12
638.215	86.12
638.421	93.12
638.626	74.12
638.832	91.12
639.037	78.12
639.243	93.12
639.448	87.12
639.654	84.12
639.859	82.12
640.065	83.12
640.27	80.12
640.475	80.12
640.681	76.12
640.886	74.12
641.091	69.12
641.297	84.12
641.502	90.12
641.707	87.12
641.913	86.12
642.118	88.12
642.323	94.12
642.528	80.12
642.733	96.12
642.939	89.12
643.144	83.12
643.349	84.12
643.554	87.12
643.759	83.12
643.964	83.12
644.169	86.12
644.374	74.12
644.579	85.12
644.784	82.12
644.989	86.12
645.194	69.12
645.399	90.12
645.604	76.12
645.809	76.12
646.014	73.12
646.219	72.12
646.423	96.12
646.628	92.12
646.833	97.12
647.038	69.12
647.243	71.12
647.447	76.12
647.652	72.12
647.857	80.12
648.062	84.12
648.266	87.12
648.471	86.12
648.676	76.12
648.88	80.12
649.085	80.12
649.289	86.12
649.494	63.12
649.698	78.12
649.903	75.12
650.107	74.12
650.312	69.12
650.516	75.12
650.721	89.12
650.925	74.12
651.13	86.12
651.334	86.12
651.539	83.12
651.743	87.12
651.947	76.12
652.152	92.12
652.356	93.12
652.56	89.12
652.764	78.12
652.969	86.12
653.173	87.12
653.377	79.12
653.581	101.12
653.785	86.12
653.99	82.12
654.194	79.12
654.398	77.12
654.602	80.12
654.806	84.12
655.01	73.12
655.214	80.12
655.418	88.12
655.622	93.12
655.826	86.12
656.03	84.12
656.234	80.12
656.438	89.12
656.642	70.12
656.846	83.12
657.049	81.12
657.253	78.12
657.457	73.12
657.661	83.12
657.865	80.12
658.068	76.12
658.272	82.12
658.476	78.12
658.68	78.12
658.883	78.12
659.087	81.12
659.291	77.12
659.494	75.12
659.698	80.12
659.901	81.12
660.105	86.12
660.309	84.12
660.512	86.12
660.716	80.12
660.919	73.12
661.123	89.12
661.326	77.12
661.53	82.12
661.733	76.12
661.936	76.12
662.14	71.12
662.343	77.12
662.546	93.12
662.75	84.12
662.953	85.12
663.156	80.12
663.36	65.12
663.563	76.12
663.766	85.12
663.969	88.12
664.173	94.12
664.376	64.12
664.579	80.12
664.782	81.12
664.985	79.12
665.188	72.12
665.391	76.12
665.594	65.12
665.797	80.12
666	84.12
666.203	75.12
666.406	72.12
666.609	68.12
666.812	77.12
667.015	72.12
667.218	74.12
667.421	85.12
667.624	74.12
667.827	77.12
668.03	65.12
668.232	86.12
668.435	82.12
668.638	80.12
668.841	75.12
669.043	72.12
669.246	78.12
669.449	88.12
669.651	89.12
669.854	73.12
670.057	83.12
670.259	80.12
670.462	73.12
670.665	78.12
670.867	73.12
671.07	67.12
671.272	77.12
671.475	92.12
671.677	80.12
671.88	84.12
672.082	85.12
672.284	80.12
672.487	85.12
672.689	73.12
672.892	83.12
