Data from Propagules_50_1_HRD10591_00011.txt Node
Date: Thu Feb 19 11:07:07 EST 2026
User: Yrep
Spectrometer: HR+D1059
Trigger mode: 1
Integration Time (sec): 1.000000E-1
Scans to average: 1
Electric dark correction enabled: true
Nonlinearity correction enabled: false
Boxcar width: 0
XAxis mode: Wavelengths
Number of Pixels in Spectrum: 2048
>>>>>Begin Spectral Data<<<<<
223.165	-20.12
223.4	-20.12
223.635	-20.12
223.869	-25.12
224.104	-37.12
224.338	-16.12
224.573	-9.12
224.808	5.88
225.042	-4.12
225.277	-20.12
225.511	-1.12
225.746	1.88
225.98	9.88
226.215	17.88
226.449	14.88
226.683	24.88
226.918	25.88
227.152	31.88
227.387	41.88
227.621	34.88
227.856	46.88
228.09	53.88
228.324	61.88
228.559	59.88
228.793	67.88
229.027	58.88
229.262	69.88
229.496	67.88
229.73	85.88
229.964	80.88
230.199	66.88
230.433	81.88
230.667	85.88
230.901	91.88
231.136	83.88
231.37	77.88
231.604	75.88
231.838	77.88
232.072	77.88
232.306	76.88
232.541	85.88
232.775	95.88
233.009	101.88
233.243	80.88
233.477	78.88
233.711	79.88
233.945	74.88
234.179	83.88
234.413	79.88
234.647	84.88
234.881	85.88
235.115	69.88
235.349	84.88
235.583	73.88
235.817	95.88
236.051	86.88
236.285	63.88
236.519	73.88
236.753	79.88
236.987	89.88
237.221	94.88
237.455	67.88
237.689	75.88
237.922	77.88
238.156	71.88
238.39	69.88
238.624	92.88
238.858	91.88
239.091	85.88
239.325	88.88
239.559	87.88
239.793	98.88
240.027	85.88
240.26	83.88
240.494	62.88
240.728	85.88
240.961	77.88
241.195	73.88
241.429	73.88
241.662	95.88
241.896	70.88
242.13	86.88
242.363	80.88
242.597	63.88
242.83	59.88
243.064	73.88
243.298	79.88
243.531	79.88
243.765	79.88
243.998	86.88
244.232	91.88
244.465	83.88
244.699	78.88
244.932	83.88
245.166	85.88
245.399	84.88
245.633	78.88
245.866	89.88
246.099	63.88
246.333	84.88
246.566	84.88
246.8	79.88
247.033	86.88
247.266	76.88
247.5	94.88
247.733	87.88
247.966	79.88
248.2	89.88
248.433	90.88
248.666	81.88
248.899	83.88
249.133	86.88
249.366	89.88
249.599	73.88
249.832	99.88
250.066	89.88
250.299	74.88
250.532	92.88
250.765	86.88
250.998	81.88
251.231	81.88
251.465	91.88
251.698	89.88
251.931	76.88
252.164	70.88
252.397	92.88
252.63	76.88
252.863	66.88
253.096	82.88
253.329	69.88
253.562	85.88
253.795	90.88
254.028	80.88
254.261	88.88
254.494	80.88
254.727	85.88
254.96	74.88
255.193	89.88
255.426	90.88
255.659	70.88
255.892	79.88
256.124	72.88
256.357	85.88
256.59	82.88
256.823	85.88
257.056	85.88
257.289	77.88
257.521	85.88
257.754	80.88
257.987	84.88
258.22	76.88
258.452	82.88
258.685	72.88
258.918	80.88
259.151	82.88
259.383	73.88
259.616	91.88
259.849	73.88
260.081	78.88
260.314	89.88
260.547	91.88
260.779	88.88
261.012	79.88
261.244	86.88
261.477	95.88
261.71	71.88
261.942	67.88
262.175	81.88
262.407	85.88
262.64	67.88
262.872	87.88
263.105	86.88
263.337	90.88
263.57	83.88
263.802	68.88
264.035	85.88
264.267	74.88
264.499	85.88
264.732	79.88
264.964	82.88
265.197	77.88
265.429	76.88
265.661	98.88
265.894	108.88
266.126	82.88
266.358	88.88
266.591	77.88
266.823	79.88
267.055	76.88
267.287	87.88
267.52	84.88
267.752	94.88
267.984	79.88
268.216	75.88
268.448	90.88
268.681	71.88
268.913	82.88
269.145	81.88
269.377	89.88
269.609	84.88
269.841	93.88
270.073	83.88
270.306	79.88
270.538	91.88
270.77	80.88
271.002	92.88
271.234	89.88
271.466	77.88
271.698	91.88
271.93	89.88
272.162	73.88
272.394	77.88
272.626	73.88
272.858	87.88
273.09	91.88
273.322	97.88
273.553	71.88
273.785	88.88
274.017	84.88
274.249	90.88
274.481	95.88
274.713	73.88
274.945	70.88
275.176	85.88
275.408	91.88
275.64	89.88
275.872	89.88
276.104	86.88
276.335	85.88
276.567	87.88
276.799	85.88
277.031	74.88
277.262	92.88
277.494	92.88
277.726	86.88
277.957	75.88
278.189	93.88
278.421	83.88
278.652	99.88
278.884	78.88
279.115	99.88
279.347	90.88
279.579	77.88
279.81	70.88
280.042	84.88
280.273	92.88
280.505	74.88
280.736	91.88
280.968	96.88
281.199	73.88
281.431	99.88
281.662	77.88
281.894	72.88
282.125	89.88
282.356	84.88
282.588	78.88
282.819	90.88
283.051	88.88
283.282	97.88
283.513	89.88
283.745	97.88
283.976	81.88
284.207	82.88
284.439	93.88
284.67	90.88
284.901	91.88
285.132	81.88
285.364	86.88
285.595	82.88
285.826	81.88
286.057	81.88
286.288	79.88
286.52	89.88
286.751	80.88
286.982	81.88
287.213	89.88
287.444	82.88
287.675	97.88
287.906	97.88
288.138	87.88
288.369	79.88
288.6	94.88
288.831	91.88
289.062	89.88
289.293	97.88
289.524	93.88
289.755	86.88
289.986	67.88
290.217	90.88
290.448	89.88
290.679	89.88
290.91	88.88
291.141	88.88
291.371	92.88
291.602	90.88
291.833	94.88
292.064	81.88
292.295	89.88
292.526	72.88
292.757	92.88
292.987	86.88
293.218	89.88
293.449	84.88
293.68	83.88
293.91	93.88
294.141	80.88
294.372	94.88
294.603	78.88
294.833	93.88
295.064	97.88
295.295	81.88
295.525	76.88
295.756	84.88
295.987	80.88
296.217	99.88
296.448	85.88
296.679	85.88
296.909	105.88
297.14	81.88
297.37	83.88
297.601	100.88
297.831	105.88
298.062	93.88
298.292	76.88
298.523	90.88
298.753	90.88
298.984	88.88
299.214	93.88
299.445	87.88
299.675	89.88
299.905	84.88
300.136	80.88
300.366	85.88
300.597	91.88
300.827	77.88
301.057	90.88
301.288	81.88
301.518	89.88
301.748	84.88
301.979	100.88
302.209	87.88
302.439	86.88
302.669	83.88
302.9	75.88
303.13	88.88
303.36	95.88
303.59	102.88
303.82	90.88
304.051	95.88
304.281	85.88
304.511	97.88
304.741	81.88
304.971	95.88
305.201	88.88
305.431	83.88
305.661	90.88
305.891	89.88
306.121	74.88
306.352	89.88
306.582	85.88
306.812	91.88
307.042	87.88
307.272	98.88
307.502	70.88
307.731	97.88
307.961	84.88
308.191	85.88
308.421	84.88
308.651	101.88
308.881	99.88
309.111	88.88
309.341	83.88
309.571	84.88
309.8	91.88
310.03	98.88
310.26	99.88
310.49	88.88
310.72	72.88
310.949	88.88
311.179	88.88
311.409	89.88
311.639	78.88
311.868	78.88
312.098	103.88
312.328	83.88
312.557	81.88
312.787	88.88
313.017	91.88
313.246	99.88
313.476	93.88
313.706	100.88
313.935	98.88
314.165	76.88
314.394	94.88
314.624	77.88
314.853	105.88
315.083	86.88
315.312	93.88
315.542	84.88
315.771	79.88
316.001	82.88
316.23	79.88
316.46	101.88
316.689	85.88
316.919	89.88
317.148	82.88
317.377	73.88
317.607	79.88
317.836	72.88
318.065	97.88
318.295	100.88
318.524	93.88
318.753	87.88
318.983	78.88
319.212	89.88
319.441	82.88
319.67	89.88
319.9	82.88
320.129	92.88
320.358	97.88
320.587	98.88
320.816	99.88
321.046	77.88
321.275	86.88
321.504	89.88
321.733	86.88
321.962	97.88
322.191	94.88
322.42	87.88
322.649	72.88
322.878	95.88
323.108	87.88
323.337	85.88
323.566	90.88
323.795	80.88
324.024	80.88
324.253	75.88
324.482	87.88
324.71	80.88
324.939	90.88
325.168	78.88
325.397	82.88
325.626	86.88
325.855	84.88
326.084	85.88
326.313	90.88
326.542	67.88
326.77	79.88
326.999	78.88
327.228	87.88
327.457	97.88
327.686	96.88
327.914	77.88
328.143	91.88
328.372	84.88
328.6	71.88
328.829	87.88
329.058	86.88
329.287	93.88
329.515	92.88
329.744	97.88
329.972	101.88
330.201	101.88
330.43	77.88
330.658	88.88
330.887	85.88
331.115	90.88
331.344	92.88
331.572	91.88
331.801	87.88
332.03	90.88
332.258	88.88
332.486	79.88
332.715	92.88
332.943	83.88
333.172	87.88
333.4	99.88
333.629	83.88
333.857	80.88
334.085	101.88
334.314	84.88
334.542	94.88
334.771	70.88
334.999	82.88
335.227	74.88
335.455	77.88
335.684	100.88
335.912	88.88
336.14	84.88
336.369	81.88
336.597	77.88
336.825	85.88
337.053	83.88
337.281	110.88
337.51	82.88
337.738	105.88
337.966	95.88
338.194	80.88
338.422	75.88
338.65	78.88
338.878	76.88
339.106	97.88
339.334	88.88
339.562	103.88
339.79	95.88
340.018	80.88
340.246	90.88
340.474	89.88
340.702	103.88
340.93	88.88
341.158	102.88
341.386	94.88
341.614	85.88
341.842	85.88
342.07	90.88
342.298	95.88
342.526	95.88
342.754	84.88
342.981	86.88
343.209	94.88
343.437	92.88
343.665	86.88
343.893	95.88
344.12	97.88
344.348	81.88
344.576	90.88
344.804	90.88
345.031	74.88
345.259	86.88
345.487	81.88
345.714	83.88
345.942	91.88
346.17	81.88
346.397	97.88
346.625	90.88
346.853	97.88
347.08	81.88
347.308	100.88
347.535	93.88
347.763	89.88
347.99	83.88
348.218	89.88
348.445	81.88
348.673	92.88
348.9	96.88
349.128	95.88
349.355	82.88
349.583	67.88
349.81	83.88
350.037	86.88
350.265	82.88
350.492	79.88
350.72	91.88
350.947	92.88
351.174	98.88
351.402	103.88
351.629	93.88
351.856	87.88
352.083	85.88
352.311	88.88
352.538	99.88
352.765	101.88
352.992	87.88
353.22	96.88
353.447	90.88
353.674	90.88
353.901	83.88
354.128	89.88
354.355	86.88
354.583	86.88
354.81	76.88
355.037	77.88
355.264	85.88
355.491	89.88
355.718	80.88
355.945	97.88
356.172	87.88
356.399	89.88
356.626	83.88
356.853	80.88
357.08	77.88
357.307	97.88
357.534	89.88
357.761	92.88
357.988	99.88
358.215	81.88
358.441	91.88
358.668	78.88
358.895	75.88
359.122	88.88
359.349	83.88
359.576	88.88
359.802	84.88
360.029	85.88
360.256	92.88
360.483	89.88
360.709	90.88
360.936	88.88
361.163	93.88
361.39	93.88
361.616	89.88
361.843	71.88
362.07	97.88
362.296	85.88
362.523	83.88
362.749	81.88
362.976	98.88
363.203	91.88
363.429	88.88
363.656	81.88
363.882	81.88
364.109	90.88
364.335	88.88
364.562	86.88
364.788	85.88
365.015	85.88
365.241	83.88
365.468	92.88
365.694	80.88
365.92	96.88
366.147	88.88
366.373	85.88
366.599	85.88
366.826	100.88
367.052	72.88
367.278	84.88
367.505	92.88
367.731	87.88
367.957	95.88
368.184	90.88
368.41	87.88
368.636	81.88
368.862	88.88
369.089	81.88
369.315	88.88
369.541	95.88
369.767	87.88
369.993	90.88
370.219	91.88
370.445	83.88
370.672	80.88
370.898	85.88
371.124	99.88
371.35	83.88
371.576	81.88
371.802	92.88
372.028	78.88
372.254	80.88
372.48	73.88
372.706	92.88
372.932	93.88
373.158	87.88
373.384	98.88
373.61	84.88
373.835	81.88
374.061	90.88
374.287	82.88
374.513	90.88
374.739	91.88
374.965	85.88
375.191	77.88
375.416	86.88
375.642	93.88
375.868	75.88
376.094	89.88
376.319	81.88
376.545	90.88
376.771	72.88
376.997	77.88
377.222	75.88
377.448	93.88
377.674	73.88
377.899	97.88
378.125	111.88
378.35	90.88
378.576	91.88
378.802	89.88
379.027	70.88
379.253	79.88
379.478	92.88
379.704	90.88
379.929	81.88
380.155	71.88
380.38	87.88
380.606	97.88
380.831	90.88
381.057	94.88
381.282	87.88
381.507	89.88
381.733	92.88
381.958	86.88
382.184	96.88
382.409	82.88
382.634	91.88
382.86	76.88
383.085	89.88
383.31	74.88
383.535	80.88
383.761	96.88
383.986	93.88
384.211	88.88
384.436	85.88
384.662	99.88
384.887	78.88
385.112	81.88
385.337	78.88
385.562	81.88
385.787	97.88
386.013	97.88
386.238	86.88
386.463	83.88
386.688	101.88
386.913	87.88
387.138	87.88
387.363	81.88
387.588	81.88
387.813	98.88
388.038	85.88
388.263	110.88
388.488	88.88
388.713	83.88
388.938	86.88
389.163	80.88
389.387	83.88
389.612	80.88
389.837	87.88
390.062	80.88
390.287	89.88
390.512	84.88
390.736	79.88
390.961	91.88
391.186	74.88
391.411	77.88
391.636	82.88
391.86	95.88
392.085	87.88
392.31	90.88
392.534	87.88
392.759	91.88
392.984	78.88
393.208	112.88
393.433	91.88
393.658	73.88
393.882	79.88
394.107	80.88
394.331	85.88
394.556	80.88
394.78	95.88
395.005	89.88
395.229	89.88
395.454	90.88
395.678	79.88
395.903	97.88
396.127	101.88
396.352	88.88
396.576	81.88
396.801	91.88
397.025	82.88
397.249	86.88
397.474	87.88
397.698	91.88
397.922	92.88
398.147	89.88
398.371	85.88
398.595	82.88
398.82	91.88
399.044	78.88
399.268	83.88
399.492	101.88
399.717	90.88
399.941	84.88
400.165	87.88
400.389	79.88
400.613	90.88
400.837	85.88
401.062	73.88
401.286	81.88
401.51	87.88
401.734	89.88
401.958	83.88
402.182	77.88
402.406	81.88
402.63	78.88
402.854	86.88
403.078	85.88
403.302	81.88
403.526	80.88
403.75	79.88
403.974	85.88
404.198	88.88
404.422	88.88
404.645	82.88
404.869	84.88
405.093	73.88
405.317	91.88
405.541	94.88
405.765	89.88
405.988	89.88
406.212	80.88
406.436	71.88
406.66	92.88
406.883	79.88
407.107	79.88
407.331	81.88
407.555	84.88
407.778	81.88
408.002	80.88
408.226	98.88
408.449	96.88
408.673	81.88
408.896	87.88
409.12	80.88
409.344	89.88
409.567	72.88
409.791	78.88
410.014	90.88
410.238	79.88
410.461	82.88
410.685	95.88
410.908	89.88
411.132	99.88
411.355	89.88
411.578	81.88
411.802	82.88
412.025	71.88
412.249	81.88
412.472	81.88
412.695	85.88
412.919	91.88
413.142	82.88
413.365	86.88
413.589	89.88
413.812	80.88
414.035	88.88
414.258	81.88
414.482	77.88
414.705	97.88
414.928	79.88
415.151	89.88
415.374	84.88
415.597	73.88
415.821	79.88
416.044	97.88
416.267	81.88
416.49	83.88
416.713	82.88
416.936	72.88
417.159	88.88
417.382	86.88
417.605	88.88
417.828	79.88
418.051	71.88
418.274	80.88
418.497	77.88
418.72	83.88
418.943	81.88
419.166	96.88
419.389	92.88
419.611	83.88
419.834	91.88
420.057	95.88
420.28	83.88
420.503	86.88
420.726	87.88
420.948	81.88
421.171	98.88
421.394	83.88
421.617	78.88
421.839	86.88
422.062	93.88
422.285	80.88
422.507	106.88
422.73	67.88
422.953	90.88
423.175	93.88
423.398	74.88
423.621	75.88
423.843	79.88
424.066	83.88
424.288	92.88
424.511	69.88
424.733	81.88
424.956	88.88
425.178	77.88
425.401	78.88
425.623	87.88
425.846	89.88
426.068	80.88
426.291	67.88
426.513	94.88
426.735	69.88
426.958	65.88
427.18	74.88
427.402	89.88
427.625	81.88
427.847	85.88
428.069	80.88
428.292	79.88
428.514	82.88
428.736	82.88
428.958	86.88
429.181	72.88
429.403	95.88
429.625	75.88
429.847	71.88
430.069	85.88
430.292	93.88
430.514	95.88
430.736	87.88
430.958	95.88
431.18	88.88
431.402	93.88
431.624	81.88
431.846	76.88
432.068	74.88
432.29	83.88
432.512	97.88
432.734	89.88
432.956	79.88
433.178	75.88
433.4	58.88
433.622	80.88
433.844	88.88
434.066	92.88
434.287	82.88
434.509	77.88
434.731	85.88
434.953	80.88
435.175	75.88
435.397	75.88
435.618	83.88
435.84	84.88
436.062	81.88
436.284	91.88
436.505	88.88
436.727	78.88
436.949	77.88
437.17	70.88
437.392	71.88
437.614	92.88
437.835	99.88
438.057	80.88
438.278	87.88
438.5	84.88
438.721	82.88
438.943	84.88
439.165	73.88
439.386	81.88
439.608	85.88
439.829	85.88
440.05	94.88
440.272	83.88
440.493	87.88
440.715	87.88
440.936	84.88
441.158	89.88
441.379	92.88
441.6	89.88
441.822	70.88
442.043	81.88
442.264	81.88
442.486	83.88
442.707	75.88
442.928	78.88
443.149	73.88
443.371	91.88
443.592	88.88
443.813	96.88
444.034	88.88
444.255	77.88
444.476	78.88
444.698	78.88
444.919	82.88
445.14	141.88
445.361	107.88
445.582	90.88
445.803	87.88
446.024	94.88
446.245	85.88
446.466	83.88
446.687	74.88
446.908	83.88
447.129	97.88
447.35	88.88
447.571	87.88
447.792	86.88
448.013	97.88
448.234	82.88
448.455	90.88
448.675	92.88
448.896	80.88
449.117	94.88
449.338	88.88
449.559	84.88
449.779	101.88
450	77.88
450.221	81.88
450.442	73.88
450.662	89.88
450.883	79.88
451.104	80.88
451.324	76.88
451.545	84.88
451.766	83.88
451.986	84.88
452.207	93.88
452.428	79.88
452.648	79.88
452.869	86.88
453.089	78.88
453.31	84.88
453.53	73.88
453.751	89.88
453.971	89.88
454.192	66.88
454.412	85.88
454.633	93.88
454.853	91.88
455.073	74.88
455.294	75.88
455.514	93.88
455.734	87.88
455.955	93.88
456.175	87.88
456.395	85.88
456.616	105.88
456.836	77.88
457.056	87.88
457.276	81.88
457.497	78.88
457.717	94.88
457.937	82.88
458.157	89.88
458.377	80.88
458.598	87.88
458.818	91.88
459.038	97.88
459.258	87.88
459.478	81.88
459.698	84.88
459.918	79.88
460.138	75.88
460.358	77.88
460.578	79.88
460.798	88.88
461.018	89.88
461.238	86.88
461.458	88.88
461.678	103.88
461.898	99.88
462.118	94.88
462.338	83.88
462.558	81.88
462.777	77.88
462.997	90.88
463.217	89.88
463.437	87.88
463.657	90.88
463.876	97.88
464.096	73.88
464.316	90.88
464.536	87.88
464.755	89.88
464.975	77.88
465.195	78.88
465.414	90.88
465.634	90.88
465.854	91.88
466.073	75.88
466.293	80.88
466.512	83.88
466.732	79.88
466.951	73.88
467.171	94.88
467.391	72.88
467.61	85.88
467.829	73.88
468.049	80.88
468.268	90.88
468.488	91.88
468.707	74.88
468.927	85.88
469.146	86.88
469.365	92.88
469.585	81.88
469.804	89.88
470.023	75.88
470.243	90.88
470.462	80.88
470.681	85.88
470.901	86.88
471.12	81.88
471.339	91.88
471.558	81.88
471.777	90.88
471.997	82.88
472.216	93.88
472.435	81.88
472.654	90.88
472.873	87.88
473.092	83.88
473.311	99.88
473.53	99.88
473.749	81.88
473.968	76.88
474.187	92.88
474.406	87.88
474.625	90.88
474.844	79.88
475.063	84.88
475.282	85.88
475.501	90.88
475.72	83.88
475.939	83.88
476.158	72.88
476.377	69.88
476.596	89.88
476.814	88.88
477.033	78.88
477.252	88.88
477.471	89.88
477.69	75.88
477.908	81.88
478.127	72.88
478.346	95.88
478.564	85.88
478.783	95.88
479.002	76.88
479.22	75.88
479.439	85.88
479.658	83.88
479.876	90.88
480.095	75.88
480.313	74.88
480.532	87.88
480.751	84.88
480.969	79.88
481.188	89.88
481.406	81.88
481.624	88.88
481.843	83.88
482.061	78.88
482.28	80.88
482.498	86.88
482.717	86.88
482.935	83.88
483.153	88.88
483.372	77.88
483.59	87.88
483.808	76.88
484.027	86.88
484.245	83.88
484.463	91.88
484.681	106.88
484.9	71.88
485.118	85.88
485.336	90.88
485.554	91.88
485.772	80.88
485.99	85.88
486.209	96.88
486.427	88.88
486.645	88.88
486.863	83.88
487.081	89.88
487.299	82.88
487.517	83.88
487.735	80.88
487.953	77.88
488.171	87.88
488.389	87.88
488.607	79.88
488.825	80.88
489.043	77.88
489.261	86.88
489.479	70.88
489.696	77.88
489.914	87.88
490.132	72.88
490.35	97.88
490.568	83.88
490.786	92.88
491.003	98.88
491.221	73.88
491.439	84.88
491.657	69.88
491.874	81.88
492.092	83.88
492.31	77.88
492.527	87.88
492.745	88.88
492.963	75.88
493.18	94.88
493.398	94.88
493.615	81.88
493.833	77.88
494.05	92.88
494.268	74.88
494.485	75.88
494.703	81.88
494.92	73.88
495.138	83.88
495.355	88.88
495.573	77.88
495.79	88.88
496.008	93.88
496.225	95.88
496.442	78.88
496.66	74.88
496.877	81.88
497.094	93.88
497.312	87.88
497.529	84.88
497.746	79.88
497.963	81.88
498.181	77.88
498.398	86.88
498.615	86.88
498.832	83.88
499.049	87.88
499.267	85.88
499.484	79.88
499.701	85.88
499.918	76.88
500.135	80.88
500.352	95.88
500.569	77.88
500.786	97.88
501.003	81.88
501.22	89.88
501.437	74.88
501.654	77.88
501.871	83.88
502.088	79.88
502.305	87.88
502.522	95.88
502.739	89.88
502.956	84.88
503.172	81.88
503.389	81.88
503.606	82.88
503.823	79.88
504.04	81.88
504.256	85.88
504.473	81.88
504.69	87.88
504.907	91.88
505.123	78.88
505.34	82.88
505.557	81.88
505.773	82.88
505.99	93.88
506.207	85.88
506.423	86.88
506.64	79.88
506.856	90.88
507.073	87.88
507.289	77.88
507.506	80.88
507.722	72.88
507.939	79.88
508.155	86.88
508.372	90.88
508.588	75.88
508.805	89.88
509.021	80.88
509.238	75.88
509.454	87.88
509.67	91.88
509.887	80.88
510.103	87.88
510.319	77.88
510.536	84.88
510.752	91.88
510.968	91.88
511.184	88.88
511.401	86.88
511.617	85.88
511.833	97.88
512.049	99.88
512.265	87.88
512.481	99.88
512.698	84.88
512.914	95.88
513.13	95.88
513.346	83.88
513.562	84.88
513.778	68.88
513.994	82.88
514.21	75.88
514.426	82.88
514.642	99.88
514.858	86.88
515.074	89.88
515.29	81.88
515.506	87.88
515.721	80.88
515.937	93.88
516.153	84.88
516.369	77.88
516.585	97.88
516.801	80.88
517.016	72.88
517.232	90.88
517.448	81.88
517.664	81.88
517.879	86.88
518.095	77.88
518.311	95.88
518.527	93.88
518.742	78.88
518.958	83.88
519.173	88.88
519.389	90.88
519.605	76.88
519.82	96.88
520.036	94.88
520.251	101.88
520.467	74.88
520.682	75.88
520.898	85.88
521.113	76.88
521.329	85.88
521.544	87.88
521.76	83.88
521.975	88.88
522.19	98.88
522.406	77.88
522.621	92.88
522.836	82.88
523.052	89.88
523.267	105.88
523.482	89.88
523.698	85.88
523.913	74.88
524.128	73.88
524.343	97.88
524.559	79.88
524.774	84.88
524.989	105.88
525.204	89.88
525.419	95.88
525.634	91.88
525.849	83.88
526.064	84.88
526.28	92.88
526.495	87.88
526.71	95.88
526.925	93.88
527.14	87.88
527.355	94.88
527.57	89.88
527.785	98.88
527.999	83.88
528.214	84.88
528.429	101.88
528.644	99.88
528.859	89.88
529.074	87.88
529.289	87.88
529.503	92.88
529.718	91.88
529.933	93.88
530.148	85.88
530.363	86.88
530.577	93.88
530.792	86.88
531.007	89.88
531.221	86.88
531.436	93.88
531.651	89.88
531.865	84.88
532.08	95.88
532.295	95.88
532.509	85.88
532.724	84.88
532.938	91.88
533.153	83.88
533.367	87.88
533.582	75.88
533.796	90.88
534.011	78.88
534.225	88.88
534.44	87.88
534.654	101.88
534.868	90.88
535.083	89.88
535.297	94.88
535.511	82.88
535.726	94.88
535.94	95.88
536.154	87.88
536.369	77.88
536.583	77.88
536.797	102.88
537.011	95.88
537.225	84.88
537.44	87.88
537.654	96.88
537.868	93.88
538.082	86.88
538.296	69.88
538.51	97.88
538.724	86.88
538.938	85.88
539.153	90.88
539.367	96.88
539.581	91.88
539.795	81.88
540.009	92.88
540.222	83.88
540.436	81.88
540.65	74.88
540.864	86.88
541.078	87.88
541.292	90.88
541.506	90.88
541.72	85.88
541.934	83.88
542.147	106.88
542.361	88.88
542.575	86.88
542.789	77.88
543.002	89.88
543.216	88.88
543.43	87.88
543.644	93.88
543.857	88.88
544.071	92.88
544.285	92.88
544.498	91.88
544.712	94.88
544.925	87.88
545.139	81.88
545.352	73.88
545.566	74.88
545.779	118.88
545.993	87.88
546.206	94.88
546.42	86.88
546.633	87.88
546.847	88.88
547.06	90.88
547.274	79.88
547.487	92.88
547.7	80.88
547.914	80.88
548.127	94.88
548.34	87.88
548.554	71.88
548.767	90.88
548.98	105.88
549.193	83.88
549.407	70.88
549.62	89.88
549.833	85.88
550.046	81.88
550.259	91.88
550.473	89.88
550.686	97.88
550.899	85.88
551.112	105.88
551.325	91.88
551.538	91.88
551.751	91.88
551.964	97.88
552.177	87.88
552.39	95.88
552.603	105.88
552.816	83.88
553.029	85.88
553.242	90.88
553.455	87.88
553.667	101.88
553.88	82.88
554.093	85.88
554.306	81.88
554.519	101.88
554.732	82.88
554.944	96.88
555.157	90.88
555.37	89.88
555.583	82.88
555.795	103.88
556.008	83.88
556.221	97.88
556.433	87.88
556.646	72.88
556.859	85.88
557.071	77.88
557.284	90.88
557.496	91.88
557.709	77.88
557.921	89.88
558.134	88.88
558.346	80.88
558.559	88.88
558.771	83.88
558.984	96.88
559.196	81.88
559.409	94.88
559.621	89.88
559.833	73.88
560.046	85.88
560.258	82.88
560.47	90.88
560.683	95.88
560.895	99.88
561.107	85.88
561.32	79.88
561.532	89.88
561.744	80.88
561.956	98.88
562.168	94.88
562.381	84.88
562.593	84.88
562.805	92.88
563.017	90.88
563.229	88.88
563.441	92.88
563.653	79.88
563.865	81.88
564.077	70.88
564.289	99.88
564.501	95.88
564.713	91.88
564.925	83.88
565.137	79.88
565.349	79.88
565.561	76.88
565.773	90.88
565.985	87.88
566.197	98.88
566.408	105.88
566.62	75.88
566.832	90.88
567.044	91.88
567.255	75.88
567.467	91.88
567.679	81.88
567.891	78.88
568.102	88.88
568.314	99.88
568.526	102.88
568.737	88.88
568.949	77.88
569.161	86.88
569.372	93.88
569.584	92.88
569.795	74.88
570.007	95.88
570.218	96.88
570.43	105.88
570.641	84.88
570.853	92.88
571.064	95.88
571.276	91.88
571.487	97.88
571.698	95.88
571.91	80.88
572.121	93.88
572.333	97.88
572.544	91.88
572.755	104.88
572.966	77.88
573.178	79.88
573.389	97.88
573.6	85.88
573.811	89.88
574.023	95.88
574.234	89.88
574.445	89.88
574.656	84.88
574.867	82.88
575.078	91.88
575.289	90.88
575.501	84.88
575.712	99.88
575.923	65.88
576.134	85.88
576.345	98.88
576.556	85.88
576.767	89.88
576.978	96.88
577.188	93.88
577.399	83.88
577.61	98.88
577.821	92.88
578.032	79.88
578.243	96.88
578.454	96.88
578.665	90.88
578.875	92.88
579.086	92.88
579.297	82.88
579.508	76.88
579.718	80.88
579.929	78.88
580.14	94.88
580.35	102.88
580.561	86.88
580.772	108.88
580.982	91.88
581.193	79.88
581.403	87.88
581.614	94.88
581.825	93.88
582.035	101.88
582.246	95.88
582.456	81.88
582.667	84.88
582.877	89.88
583.087	79.88
583.298	87.88
583.508	73.88
583.719	79.88
583.929	84.88
584.139	85.88
584.35	87.88
584.56	91.88
584.77	90.88
584.981	92.88
585.191	91.88
585.401	83.88
585.611	89.88
585.821	83.88
586.032	100.88
586.242	91.88
586.452	97.88
586.662	104.88
586.872	91.88
587.082	86.88
587.292	71.88
587.502	82.88
587.713	84.88
587.923	80.88
588.133	92.88
588.343	100.88
588.553	98.88
588.762	105.88
588.972	121.88
589.182	192.88
589.392	137.88
589.602	124.88
589.812	162.88
590.022	141.88
590.232	114.88
590.441	97.88
590.651	91.88
590.861	89.88
591.071	91.88
591.281	91.88
591.49	94.88
591.7	85.88
591.91	91.88
592.119	93.88
592.329	88.88
592.539	83.88
592.748	99.88
592.958	81.88
593.167	94.88
593.377	87.88
593.587	97.88
593.796	91.88
594.006	89.88
594.215	98.88
594.424	87.88
594.634	87.88
594.843	104.88
595.053	93.88
595.262	92.88
595.472	87.88
595.681	91.88
595.89	90.88
596.1	73.88
596.309	95.88
596.518	92.88
596.727	80.88
596.937	97.88
597.146	89.88
597.355	83.88
597.564	97.88
597.774	83.88
597.983	83.88
598.192	95.88
598.401	81.88
598.61	101.88
598.819	81.88
599.028	81.88
599.237	99.88
599.446	99.88
599.655	92.88
599.864	71.88
600.073	81.88
600.282	98.88
600.491	81.88
600.7	97.88
600.909	97.88
601.118	89.88
601.327	89.88
601.536	93.88
601.745	81.88
601.953	91.88
602.162	92.88
602.371	73.88
602.58	98.88
602.789	81.88
602.997	79.88
603.206	91.88
603.415	97.88
603.623	89.88
603.832	77.88
604.041	85.88
604.249	70.88
604.458	79.88
604.666	87.88
604.875	77.88
605.084	83.88
605.292	97.88
605.501	74.88
605.709	98.88
605.918	94.88
606.126	81.88
606.334	89.88
606.543	90.88
606.751	96.88
606.96	78.88
607.168	75.88
607.376	74.88
607.585	97.88
607.793	81.88
608.001	78.88
608.21	77.88
608.418	69.88
608.626	95.88
608.834	82.88
609.043	90.88
609.251	89.88
609.459	81.88
609.667	83.88
609.875	92.88
610.083	84.88
610.291	91.88
610.499	101.88
610.707	90.88
610.916	91.88
611.124	86.88
611.332	92.88
611.54	98.88
611.748	94.88
611.955	92.88
612.163	96.88
612.371	93.88
612.579	77.88
612.787	97.88
612.995	72.88
613.203	77.88
613.411	88.88
613.618	92.88
613.826	83.88
614.034	87.88
614.242	81.88
614.449	87.88
614.657	75.88
614.865	83.88
615.072	98.88
615.28	92.88
615.488	87.88
615.695	77.88
615.903	94.88
616.111	95.88
616.318	85.88
616.526	91.88
616.733	87.88
616.941	73.88
617.148	98.88
617.356	84.88
617.563	88.88
617.771	73.88
617.978	79.88
618.185	89.88
618.393	84.88
618.6	82.88
618.807	78.88
619.015	84.88
619.222	88.88
619.429	85.88
619.637	111.88
619.844	92.88
620.051	87.88
620.258	97.88
620.466	75.88
620.673	90.88
620.88	77.88
621.087	89.88
621.294	85.88
621.501	85.88
621.708	85.88
621.915	88.88
622.122	95.88
622.329	83.88
622.536	74.88
622.743	95.88
622.95	93.88
623.157	84.88
623.364	88.88
623.571	81.88
623.778	86.88
623.985	88.88
624.192	83.88
624.399	91.88
624.606	97.88
624.812	81.88
625.019	91.88
625.226	89.88
625.433	83.88
625.639	94.88
625.846	91.88
626.053	90.88
626.259	86.88
626.466	97.88
626.673	87.88
626.879	85.88
627.086	94.88
627.293	91.88
627.499	87.88
627.706	91.88
627.912	83.88
628.119	82.88
628.325	86.88
628.532	71.88
628.738	84.88
628.945	94.88
629.151	89.88
629.357	83.88
629.564	85.88
629.77	89.88
629.976	106.88
630.183	91.88
630.389	91.88
630.595	80.88
630.802	85.88
631.008	81.88
631.214	101.88
631.42	82.88
631.627	90.88
631.833	88.88
632.039	90.88
632.245	94.88
632.451	85.88
632.657	83.88
632.863	95.88
633.069	81.88
633.275	81.88
633.481	77.88
633.688	81.88
633.893	84.88
634.099	82.88
634.305	79.88
634.511	90.88
634.717	93.88
634.923	93.88
635.129	85.88
635.335	87.88
635.541	83.88
635.747	100.88
635.952	73.88
636.158	87.88
636.364	87.88
636.57	86.88
636.775	96.88
636.981	95.88
637.187	83.88
637.392	82.88
637.598	75.88
637.804	82.88
638.009	92.88
638.215	85.88
638.421	68.88
638.626	78.88
638.832	68.88
639.037	72.88
639.243	74.88
639.448	79.88
639.654	93.88
639.859	82.88
640.065	88.88
640.27	94.88
640.475	79.88
640.681	75.88
640.886	63.88
641.091	76.88
641.297	91.88
641.502	95.88
641.707	89.88
641.913	84.88
642.118	83.88
642.323	103.88
642.528	81.88
642.733	80.88
642.939	84.88
643.144	89.88
643.349	84.88
643.554	91.88
643.759	89.88
643.964	97.88
644.169	86.88
644.374	80.88
644.579	88.88
644.784	78.88
644.989	80.88
645.194	96.88
645.399	102.88
645.604	91.88
645.809	82.88
646.014	79.88
646.219	93.88
646.423	93.88
646.628	101.88
646.833	82.88
647.038	99.88
647.243	88.88
647.447	83.88
647.652	81.88
647.857	85.88
648.062	86.88
648.266	91.88
648.471	89.88
648.676	84.88
648.88	85.88
649.085	81.88
649.289	93.88
649.494	100.88
649.698	88.88
649.903	83.88
650.107	81.88
650.312	88.88
650.516	84.88
650.721	96.88
650.925	73.88
651.13	72.88
651.334	95.88
651.539	91.88
651.743	83.88
651.947	89.88
652.152	92.88
652.356	75.88
652.56	73.88
652.764	85.88
652.969	89.88
653.173	82.88
653.377	93.88
653.581	81.88
653.785	91.88
653.99	87.88
654.194	89.88
654.398	85.88
654.602	89.88
654.806	93.88
655.01	81.88
655.214	85.88
655.418	86.88
655.622	83.88
655.826	79.88
656.03	85.88
656.234	83.88
656.438	86.88
656.642	79.88
656.846	87.88
657.049	72.88
657.253	93.88
657.457	85.88
657.661	81.88
657.865	89.88
658.068	79.88
658.272	81.88
658.476	101.88
658.68	77.88
658.883	77.88
659.087	90.88
659.291	87.88
659.494	78.88
659.698	82.88
659.901	92.88
660.105	86.88
660.309	91.88
660.512	105.88
660.716	62.88
660.919	82.88
661.123	79.88
661.326	83.88
661.53	83.88
661.733	77.88
661.936	100.88
662.14	91.88
662.343	77.88
662.546	81.88
662.75	75.88
662.953	83.88
663.156	89.88
663.36	98.88
663.563	77.88
663.766	81.88
663.969	83.88
664.173	102.88
664.376	85.88
664.579	75.88
664.782	80.88
664.985	95.88
665.188	99.88
665.391	93.88
665.594	88.88
665.797	80.88
666	81.88
666.203	79.88
666.406	90.88
666.609	81.88
666.812	93.88
667.015	92.88
667.218	85.88
667.421	97.88
667.624	78.88
667.827	80.88
668.03	95.88
668.232	86.88
668.435	85.88
668.638	73.88
668.841	97.88
669.043	100.88
669.246	86.88
669.449	84.88
669.651	81.88
669.854	87.88
670.057	97.88
670.259	77.88
670.462	75.88
670.665	81.88
670.867	75.88
671.07	81.88
671.272	94.88
671.475	87.88
671.677	89.88
671.88	86.88
672.082	84.88
672.284	85.88
672.487	93.88
672.689	81.88
672.892	82.88
