Data from HP_2_HRD10591_00029.txt Node
Date: Mon Jan 19 14:16:15 EST 2026
User: Yrep
Spectrometer: HR+D1059
Trigger mode: 1
Integration Time (sec): 1.000000E-1
Scans to average: 1
Electric dark correction enabled: true
Nonlinearity correction enabled: false
Boxcar width: 0
XAxis mode: Wavelengths
Number of Pixels in Spectrum: 2048
>>>>>Begin Spectral Data<<<<<
223.165	-7.62
223.4	-7.62
223.635	-7.62
223.869	-12.62
224.104	-14.62
224.338	-16.62
224.573	-12.62
224.808	-8.62
225.042	-10.62
225.277	-15.62
225.511	2.38
225.746	-5.62
225.98	14.38
226.215	5.38
226.449	12.38
226.683	19.38
226.918	23.38
227.152	27.38
227.387	30.38
227.621	41.38
227.856	59.38
228.09	53.38
228.324	46.38
228.559	63.38
228.793	61.38
229.027	50.38
229.262	63.38
229.496	61.38
229.73	79.38
229.964	67.38
230.199	64.38
230.433	72.38
230.667	86.38
230.901	68.38
231.136	71.38
231.37	81.38
231.604	68.38
231.838	68.38
232.072	76.38
232.306	73.38
232.541	73.38
232.775	78.38
233.009	87.38
233.243	76.38
233.477	74.38
233.711	83.38
233.945	75.38
234.179	84.38
234.413	80.38
234.647	69.38
234.881	79.38
235.115	81.38
235.349	81.38
235.583	72.38
235.817	72.38
236.051	71.38
236.285	84.38
236.519	77.38
236.753	69.38
236.987	82.38
237.221	89.38
237.455	75.38
237.689	75.38
237.922	74.38
238.156	77.38
238.39	80.38
238.624	69.38
238.858	62.38
239.091	56.38
239.325	71.38
239.559	76.38
239.793	73.38
240.027	79.38
240.26	71.38
240.494	61.38
240.728	54.38
240.961	83.38
241.195	91.38
241.429	62.38
241.662	76.38
241.896	55.38
242.13	72.38
242.363	67.38
242.597	73.38
242.83	87.38
243.064	83.38
243.298	83.38
243.531	55.38
243.765	79.38
243.998	66.38
244.232	72.38
244.465	70.38
244.699	87.38
244.932	69.38
245.166	71.38
245.399	83.38
245.633	85.38
245.866	78.38
246.099	73.38
246.333	74.38
246.566	59.38
246.8	63.38
247.033	71.38
247.266	59.38
247.5	62.38
247.733	76.38
247.966	75.38
248.2	76.38
248.433	53.38
248.666	73.38
248.899	73.38
249.133	64.38
249.366	81.38
249.599	80.38
249.832	69.38
250.066	89.38
250.299	69.38
250.532	70.38
250.765	79.38
250.998	84.38
251.231	73.38
251.465	70.38
251.698	83.38
251.931	69.38
252.164	86.38
252.397	75.38
252.63	95.38
252.863	68.38
253.096	73.38
253.329	66.38
253.562	82.38
253.795	81.38
254.028	71.38
254.261	66.38
254.494	68.38
254.727	69.38
254.96	87.38
255.193	96.38
255.426	82.38
255.659	82.38
255.892	68.38
256.124	74.38
256.357	83.38
256.59	64.38
256.823	84.38
257.056	89.38
257.289	88.38
257.521	80.38
257.754	68.38
257.987	69.38
258.22	64.38
258.452	71.38
258.685	69.38
258.918	64.38
259.151	65.38
259.383	78.38
259.616	89.38
259.849	82.38
260.081	86.38
260.314	81.38
260.547	78.38
260.779	81.38
261.012	80.38
261.244	78.38
261.477	80.38
261.71	76.38
261.942	91.38
262.175	85.38
262.407	70.38
262.64	59.38
262.872	81.38
263.105	68.38
263.337	70.38
263.57	82.38
263.802	81.38
264.035	93.38
264.267	85.38
264.499	84.38
264.732	73.38
264.964	75.38
265.197	73.38
265.429	84.38
265.661	76.38
265.894	79.38
266.126	77.38
266.358	71.38
266.591	85.38
266.823	96.38
267.055	79.38
267.287	71.38
267.52	88.38
267.752	65.38
267.984	75.38
268.216	84.38
268.448	79.38
268.681	84.38
268.913	76.38
269.145	85.38
269.377	82.38
269.609	78.38
269.841	81.38
270.073	76.38
270.306	89.38
270.538	82.38
270.77	69.38
271.002	84.38
271.234	77.38
271.466	73.38
271.698	74.38
271.93	81.38
272.162	64.38
272.394	81.38
272.626	76.38
272.858	61.38
273.09	92.38
273.322	83.38
273.553	87.38
273.785	78.38
274.017	77.38
274.249	83.38
274.481	83.38
274.713	83.38
274.945	79.38
275.176	89.38
275.408	91.38
275.64	85.38
275.872	93.38
276.104	80.38
276.335	76.38
276.567	91.38
276.799	92.38
277.031	86.38
277.262	83.38
277.494	75.38
277.726	77.38
277.957	81.38
278.189	71.38
278.421	91.38
278.652	83.38
278.884	88.38
279.115	70.38
279.347	71.38
279.579	78.38
279.81	67.38
280.042	76.38
280.273	81.38
280.505	83.38
280.736	88.38
280.968	82.38
281.199	91.38
281.431	76.38
281.662	69.38
281.894	80.38
282.125	71.38
282.356	91.38
282.588	70.38
282.819	79.38
283.051	81.38
283.282	84.38
283.513	89.38
283.745	79.38
283.976	84.38
284.207	73.38
284.439	76.38
284.67	68.38
284.901	89.38
285.132	84.38
285.364	93.38
285.595	99.38
285.826	83.38
286.057	78.38
286.288	85.38
286.52	77.38
286.751	82.38
286.982	75.38
287.213	81.38
287.444	81.38
287.675	86.38
287.906	92.38
288.138	85.38
288.369	80.38
288.6	86.38
288.831	85.38
289.062	85.38
289.293	74.38
289.524	75.38
289.755	93.38
289.986	99.38
290.217	69.38
290.448	83.38
290.679	79.38
290.91	81.38
291.141	86.38
291.371	88.38
291.602	79.38
291.833	93.38
292.064	84.38
292.295	77.38
292.526	76.38
292.757	73.38
292.987	68.38
293.218	93.38
293.449	78.38
293.68	82.38
293.91	82.38
294.141	87.38
294.372	89.38
294.603	85.38
294.833	90.38
295.064	57.38
295.295	73.38
295.525	78.38
295.756	87.38
295.987	78.38
296.217	85.38
296.448	94.38
296.679	83.38
296.909	69.38
297.14	81.38
297.37	85.38
297.601	70.38
297.831	67.38
298.062	79.38
298.292	67.38
298.523	71.38
298.753	86.38
298.984	71.38
299.214	82.38
299.445	65.38
299.675	79.38
299.905	80.38
300.136	90.38
300.366	98.38
300.597	83.38
300.827	87.38
301.057	72.38
301.288	81.38
301.518	76.38
301.748	84.38
301.979	93.38
302.209	76.38
302.439	81.38
302.669	81.38
302.9	98.38
303.13	88.38
303.36	82.38
303.59	85.38
303.82	97.38
304.051	104.38
304.281	72.38
304.511	80.38
304.741	83.38
304.971	87.38
305.201	78.38
305.431	77.38
305.661	74.38
305.891	68.38
306.121	84.38
306.352	78.38
306.582	80.38
306.812	78.38
307.042	85.38
307.272	79.38
307.502	75.38
307.731	77.38
307.961	80.38
308.191	83.38
308.421	87.38
308.651	76.38
308.881	77.38
309.111	81.38
309.341	91.38
309.571	97.38
309.8	91.38
310.03	76.38
310.26	81.38
310.49	87.38
310.72	84.38
310.949	85.38
311.179	88.38
311.409	70.38
311.639	79.38
311.868	86.38
312.098	79.38
312.328	72.38
312.557	77.38
312.787	91.38
313.017	88.38
313.246	75.38
313.476	83.38
313.706	86.38
313.935	71.38
314.165	80.38
314.394	70.38
314.624	87.38
314.853	83.38
315.083	89.38
315.312	89.38
315.542	88.38
315.771	87.38
316.001	87.38
316.23	84.38
316.46	83.38
316.689	72.38
316.919	90.38
317.148	93.38
317.377	85.38
317.607	96.38
317.836	95.38
318.065	86.38
318.295	82.38
318.524	72.38
318.753	80.38
318.983	88.38
319.212	74.38
319.441	82.38
319.67	78.38
319.9	78.38
320.129	85.38
320.358	82.38
320.587	91.38
320.816	81.38
321.046	81.38
321.275	73.38
321.504	92.38
321.733	91.38
321.962	81.38
322.191	85.38
322.42	78.38
322.649	83.38
322.878	82.38
323.108	78.38
323.337	66.38
323.566	93.38
323.795	98.38
324.024	83.38
324.253	69.38
324.482	84.38
324.71	82.38
324.939	80.38
325.168	83.38
325.397	79.38
325.626	69.38
325.855	72.38
326.084	74.38
326.313	63.38
326.542	79.38
326.77	79.38
326.999	70.38
327.228	88.38
327.457	87.38
327.686	89.38
327.914	68.38
328.143	86.38
328.372	74.38
328.6	86.38
328.829	87.38
329.058	90.38
329.287	82.38
329.515	77.38
329.744	72.38
329.972	80.38
330.201	87.38
330.43	86.38
330.658	71.38
330.887	75.38
331.115	79.38
331.344	69.38
331.572	93.38
331.801	79.38
332.03	81.38
332.258	88.38
332.486	93.38
332.715	97.38
332.943	69.38
333.172	92.38
333.4	82.38
333.629	71.38
333.857	80.38
334.085	85.38
334.314	88.38
334.542	86.38
334.771	81.38
334.999	83.38
335.227	81.38
335.455	93.38
335.684	88.38
335.912	92.38
336.14	91.38
336.369	91.38
336.597	78.38
336.825	81.38
337.053	88.38
337.281	94.38
337.51	82.38
337.738	91.38
337.966	81.38
338.194	86.38
338.422	85.38
338.65	83.38
338.878	95.38
339.106	87.38
339.334	83.38
339.562	77.38
339.79	83.38
340.018	85.38
340.246	81.38
340.474	71.38
340.702	65.38
340.93	93.38
341.158	91.38
341.386	93.38
341.614	80.38
341.842	72.38
342.07	70.38
342.298	94.38
342.526	77.38
342.754	81.38
342.981	89.38
343.209	89.38
343.437	94.38
343.665	83.38
343.893	86.38
344.12	83.38
344.348	80.38
344.576	81.38
344.804	77.38
345.031	73.38
345.259	86.38
345.487	89.38
345.714	75.38
345.942	89.38
346.17	88.38
346.397	84.38
346.625	92.38
346.853	91.38
347.08	85.38
347.308	79.38
347.535	71.38
347.763	88.38
347.99	84.38
348.218	83.38
348.445	91.38
348.673	69.38
348.9	87.38
349.128	88.38
349.355	91.38
349.583	73.38
349.81	79.38
350.037	94.38
350.265	90.38
350.492	80.38
350.72	77.38
350.947	82.38
351.174	85.38
351.402	79.38
351.629	77.38
351.856	83.38
352.083	77.38
352.311	84.38
352.538	77.38
352.765	83.38
352.992	74.38
353.22	86.38
353.447	84.38
353.674	85.38
353.901	72.38
354.128	98.38
354.355	83.38
354.583	71.38
354.81	76.38
355.037	87.38
355.264	78.38
355.491	74.38
355.718	83.38
355.945	78.38
356.172	79.38
356.399	88.38
356.626	82.38
356.853	83.38
357.08	92.38
357.307	87.38
357.534	67.38
357.761	101.38
357.988	85.38
358.215	89.38
358.441	101.38
358.668	74.38
358.895	91.38
359.122	80.38
359.349	81.38
359.576	73.38
359.802	79.38
360.029	66.38
360.256	81.38
360.483	101.38
360.709	81.38
360.936	85.38
361.163	74.38
361.39	96.38
361.616	79.38
361.843	97.38
362.07	93.38
362.296	89.38
362.523	88.38
362.749	92.38
362.976	88.38
363.203	124.38
363.429	94.38
363.656	72.38
363.882	86.38
364.109	97.38
364.335	105.38
364.562	123.38
364.788	101.38
365.015	95.38
365.241	95.38
365.468	82.38
365.694	86.38
365.92	73.38
366.147	91.38
366.373	79.38
366.599	79.38
366.826	84.38
367.052	82.38
367.278	85.38
367.505	85.38
367.731	79.38
367.957	69.38
368.184	65.38
368.41	92.38
368.636	83.38
368.862	89.38
369.089	81.38
369.315	98.38
369.541	85.38
369.767	90.38
369.993	80.38
370.219	94.38
370.445	89.38
370.672	96.38
370.898	85.38
371.124	100.38
371.35	87.38
371.576	75.38
371.802	63.38
372.028	74.38
372.254	80.38
372.48	88.38
372.706	78.38
372.932	85.38
373.158	88.38
373.384	109.38
373.61	97.38
373.835	108.38
374.061	91.38
374.287	99.38
374.513	108.38
374.739	100.38
374.965	100.38
375.191	91.38
375.416	77.38
375.642	88.38
375.868	99.38
376.094	94.38
376.319	104.38
376.545	83.38
376.771	93.38
376.997	81.38
377.222	80.38
377.448	80.38
377.674	85.38
377.899	72.38
378.125	79.38
378.35	69.38
378.576	91.38
378.802	77.38
379.027	92.38
379.253	79.38
379.478	82.38
379.704	85.38
379.929	79.38
380.155	85.38
380.38	81.38
380.606	85.38
380.831	98.38
381.057	79.38
381.282	66.38
381.507	91.38
381.733	81.38
381.958	98.38
382.184	91.38
382.409	82.38
382.634	74.38
382.86	70.38
383.085	87.38
383.31	60.38
383.535	89.38
383.761	101.38
383.986	94.38
384.211	81.38
384.436	76.38
384.662	83.38
384.887	94.38
385.112	91.38
385.337	72.38
385.562	89.38
385.787	93.38
386.013	94.38
386.238	85.38
386.463	96.38
386.688	100.38
386.913	89.38
387.138	92.38
387.363	98.38
387.588	91.38
387.813	93.38
388.038	90.38
388.263	84.38
388.488	85.38
388.713	88.38
388.938	75.38
389.163	91.38
389.387	73.38
389.612	92.38
389.837	85.38
390.062	84.38
390.287	94.38
390.512	93.38
390.736	79.38
390.961	85.38
391.186	87.38
391.411	90.38
391.636	72.38
391.86	91.38
392.085	101.38
392.31	92.38
392.534	89.38
392.759	111.38
392.984	150.38
393.208	210.38
393.433	284.38
393.658	230.38
393.882	117.38
394.107	107.38
394.331	117.38
394.556	95.38
394.78	95.38
395.005	100.38
395.229	98.38
395.454	100.38
395.678	90.38
395.903	114.38
396.127	122.38
396.352	134.38
396.576	144.38
396.801	206.38
397.025	239.38
397.249	145.38
397.474	98.38
397.698	87.38
397.922	85.38
398.147	87.38
398.371	80.38
398.595	84.38
398.82	84.38
399.044	73.38
399.268	83.38
399.492	83.38
399.717	85.38
399.941	79.38
400.165	90.38
400.389	79.38
400.613	66.38
400.837	91.38
401.062	95.38
401.286	95.38
401.51	105.38
401.734	85.38
401.958	80.38
402.182	91.38
402.406	75.38
402.63	81.38
402.854	81.38
403.078	65.38
403.302	101.38
403.526	103.38
403.75	95.38
403.974	90.38
404.198	102.38
404.422	154.38
404.645	151.38
404.869	137.38
405.093	101.38
405.317	73.38
405.541	92.38
405.765	95.38
405.988	85.38
406.212	90.38
406.436	86.38
406.66	79.38
406.883	82.38
407.107	86.38
407.331	88.38
407.555	91.38
407.778	112.38
408.002	107.38
408.226	91.38
408.449	94.38
408.673	84.38
408.896	91.38
409.12	81.38
409.344	79.38
409.567	94.38
409.791	98.38
410.014	94.38
410.238	87.38
410.461	80.38
410.685	88.38
410.908	110.38
411.132	94.38
411.355	66.38
411.578	95.38
411.802	86.38
412.025	76.38
412.249	78.38
412.472	88.38
412.695	82.38
412.919	81.38
413.142	79.38
413.365	84.38
413.589	93.38
413.812	101.38
414.035	86.38
414.258	85.38
414.482	79.38
414.705	77.38
414.928	78.38
415.151	78.38
415.374	82.38
415.597	79.38
415.821	88.38
416.044	80.38
416.267	88.38
416.49	86.38
416.713	92.38
416.936	94.38
417.159	72.38
417.382	77.38
417.605	84.38
417.828	84.38
418.051	90.38
418.274	76.38
418.497	73.38
418.72	92.38
418.943	81.38
419.166	83.38
419.389	79.38
419.611	93.38
419.834	77.38
420.057	74.38
420.28	81.38
420.503	93.38
420.726	89.38
420.948	95.38
421.171	107.38
421.394	102.38
421.617	102.38
421.839	110.38
422.062	110.38
422.285	161.38
422.507	288.38
422.73	451.38
422.953	424.38
423.175	201.38
423.398	132.38
423.621	101.38
423.843	78.38
424.066	81.38
424.288	84.38
424.511	101.38
424.733	84.38
424.956	82.38
425.178	83.38
425.401	86.38
425.623	85.38
425.846	86.38
426.068	81.38
426.291	73.38
426.513	86.38
426.735	81.38
426.958	99.38
427.18	85.38
427.402	87.38
427.625	93.38
427.847	100.38
428.069	100.38
428.292	124.38
428.514	129.38
428.736	121.38
428.958	140.38
429.181	125.38
429.403	96.38
429.625	91.38
429.847	120.38
430.069	157.38
430.292	175.38
430.514	175.38
430.736	132.38
430.958	131.38
431.18	73.38
431.402	89.38
431.624	100.38
431.846	109.38
432.068	133.38
432.29	96.38
432.512	88.38
432.734	79.38
432.956	75.38
433.178	94.38
433.4	74.38
433.622	73.38
433.844	84.38
434.066	78.38
434.287	88.38
434.509	76.38
434.731	82.38
434.953	78.38
435.175	85.38
435.397	83.38
435.618	108.38
435.84	89.38
436.062	94.38
436.284	87.38
436.505	93.38
436.727	67.38
436.949	80.38
437.17	85.38
437.392	95.38
437.614	83.38
437.835	83.38
438.057	85.38
438.278	77.38
438.5	88.38
438.721	92.38
438.943	80.38
439.165	79.38
439.386	74.38
439.608	82.38
439.829	84.38
440.05	84.38
440.272	80.38
440.493	84.38
440.715	80.38
440.936	81.38
441.158	63.38
441.379	82.38
441.6	84.38
441.822	81.38
442.043	97.38
442.264	92.38
442.486	129.38
442.707	152.38
442.928	113.38
443.149	121.38
443.371	155.38
443.592	247.38
443.813	225.38
444.034	125.38
444.255	101.38
444.476	74.38
444.698	77.38
444.919	89.38
445.14	157.38
445.361	206.38
445.582	301.38
445.803	273.38
446.024	127.38
446.245	96.38
446.466	74.38
446.687	65.38
446.908	70.38
447.129	80.38
447.35	86.38
447.571	87.38
447.792	80.38
448.013	80.38
448.234	82.38
448.455	88.38
448.675	83.38
448.896	76.38
449.117	89.38
449.338	95.38
449.559	71.38
449.779	89.38
450	74.38
450.221	71.38
450.442	78.38
450.662	93.38
450.883	74.38
451.104	85.38
451.324	81.38
451.545	82.38
451.766	88.38
451.986	64.38
452.207	84.38
452.428	96.38
452.648	83.38
452.869	101.38
453.089	82.38
453.31	83.38
453.53	86.38
453.751	94.38
453.971	90.38
454.192	85.38
454.412	74.38
454.633	80.38
454.853	71.38
455.073	69.38
455.294	81.38
455.514	75.38
455.734	79.38
455.955	100.38
456.175	92.38
456.395	92.38
456.616	96.38
456.836	84.38
457.056	74.38
457.276	91.38
457.497	70.38
457.717	81.38
457.937	91.38
458.157	121.38
458.377	97.38
458.598	102.38
458.818	112.38
459.038	97.38
459.258	84.38
459.478	79.38
459.698	92.38
459.918	79.38
460.138	85.38
460.358	96.38
460.578	94.38
460.798	122.38
461.018	117.38
461.238	90.38
461.458	88.38
461.678	84.38
461.898	85.38
462.118	84.38
462.338	96.38
462.558	73.38
462.777	75.38
462.997	90.38
463.217	83.38
463.437	71.38
463.657	81.38
463.876	95.38
464.096	86.38
464.316	74.38
464.536	82.38
464.755	85.38
464.975	79.38
465.195	93.38
465.414	75.38
465.634	92.38
465.854	91.38
466.073	77.38
466.293	66.38
466.512	77.38
466.732	94.38
466.951	94.38
467.171	78.38
467.391	79.38
467.61	84.38
467.829	70.38
468.049	82.38
468.268	78.38
468.488	86.38
468.707	86.38
468.927	87.38
469.146	69.38
469.365	71.38
469.585	77.38
469.804	81.38
470.023	79.38
470.243	71.38
470.462	79.38
470.681	84.38
470.901	87.38
471.12	87.38
471.339	93.38
471.558	74.38
471.777	79.38
471.997	77.38
472.216	102.38
472.435	84.38
472.654	74.38
472.873	77.38
473.092	88.38
473.311	91.38
473.53	93.38
473.749	76.38
473.968	81.38
474.187	80.38
474.406	86.38
474.625	78.38
474.844	90.38
475.063	81.38
475.282	85.38
475.501	81.38
475.72	98.38
475.939	78.38
476.158	93.38
476.377	74.38
476.596	74.38
476.814	80.38
477.033	78.38
477.252	84.38
477.471	75.38
477.69	77.38
477.908	73.38
478.127	92.38
478.346	86.38
478.564	71.38
478.783	92.38
479.002	79.38
479.22	98.38
479.439	79.38
479.658	85.38
479.876	70.38
480.095	80.38
480.313	88.38
480.532	83.38
480.751	85.38
480.969	82.38
481.188	77.38
481.406	93.38
481.624	87.38
481.843	90.38
482.061	75.38
482.28	86.38
482.498	80.38
482.717	96.38
482.935	100.38
483.153	96.38
483.372	87.38
483.59	91.38
483.808	82.38
484.027	81.38
484.245	69.38
484.463	88.38
484.681	87.38
484.9	75.38
485.118	102.38
485.336	95.38
485.554	59.38
485.772	82.38
485.99	89.38
486.209	92.38
486.427	86.38
486.645	96.38
486.863	73.38
487.081	81.38
487.299	99.38
487.517	95.38
487.735	114.38
487.953	139.38
488.171	113.38
488.389	77.38
488.607	85.38
488.825	84.38
489.043	70.38
489.261	87.38
489.479	88.38
489.696	94.38
489.914	78.38
490.132	80.38
490.35	89.38
490.568	81.38
490.786	77.38
491.003	75.38
491.221	77.38
491.439	80.38
491.657	81.38
491.874	82.38
492.092	78.38
492.31	76.38
492.527	85.38
492.745	95.38
492.963	75.38
493.18	74.38
493.398	80.38
493.615	87.38
493.833	86.38
494.05	76.38
494.268	83.38
494.485	96.38
494.703	93.38
494.92	88.38
495.138	87.38
495.355	87.38
495.573	101.38
495.79	93.38
496.008	86.38
496.225	95.38
496.442	88.38
496.66	99.38
496.877	85.38
497.094	80.38
497.312	74.38
497.529	96.38
497.746	80.38
497.963	90.38
498.181	92.38
498.398	84.38
498.615	85.38
498.832	88.38
499.049	94.38
499.267	82.38
499.484	96.38
499.701	80.38
499.918	90.38
500.135	81.38
500.352	87.38
500.569	91.38
500.786	100.38
501.003	85.38
501.22	81.38
501.437	77.38
501.654	78.38
501.871	91.38
502.088	73.38
502.305	80.38
502.522	77.38
502.739	92.38
502.956	90.38
503.172	94.38
503.389	81.38
503.606	78.38
503.823	88.38
504.04	91.38
504.256	126.38
504.473	122.38
504.69	85.38
504.907	80.38
505.123	81.38
505.34	80.38
505.557	77.38
505.773	93.38
505.99	91.38
506.207	88.38
506.423	82.38
506.64	74.38
506.856	81.38
507.073	87.38
507.289	73.38
507.506	92.38
507.722	77.38
507.939	74.38
508.155	86.38
508.372	75.38
508.588	105.38
508.805	91.38
509.021	85.38
509.238	88.38
509.454	83.38
509.67	79.38
509.887	91.38
510.103	91.38
510.319	89.38
510.536	81.38
510.752	91.38
510.968	100.38
511.184	89.38
511.401	90.38
511.617	98.38
511.833	87.38
512.049	92.38
512.265	84.38
512.481	92.38
512.698	77.38
512.914	81.38
513.13	91.38
513.346	91.38
513.562	79.38
513.778	78.38
513.994	70.38
514.21	80.38
514.426	87.38
514.642	100.38
514.858	85.38
515.074	101.38
515.29	79.38
515.506	89.38
515.721	95.38
515.937	79.38
516.153	86.38
516.369	82.38
516.585	83.38
516.801	83.38
517.016	83.38
517.232	88.38
517.448	71.38
517.664	101.38
517.879	91.38
518.095	96.38
518.311	91.38
518.527	102.38
518.742	114.38
518.958	128.38
519.173	149.38
519.389	90.38
519.605	93.38
519.82	93.38
520.036	102.38
520.251	97.38
520.467	89.38
520.682	78.38
520.898	86.38
521.113	92.38
521.329	83.38
521.544	92.38
521.76	86.38
521.975	92.38
522.19	95.38
522.406	89.38
522.621	85.38
522.836	104.38
523.052	96.38
523.267	87.38
523.482	91.38
523.698	93.38
523.913	105.38
524.128	79.38
524.343	76.38
524.559	81.38
524.774	84.38
524.989	84.38
525.204	73.38
525.419	88.38
525.634	89.38
525.849	99.38
526.064	116.38
526.28	176.38
526.495	271.38
526.71	309.38
526.925	207.38
527.14	272.38
527.355	264.38
527.57	93.38
527.785	99.38
527.999	89.38
528.214	83.38
528.429	75.38
528.644	108.38
528.859	72.38
529.074	69.38
529.289	92.38
529.503	79.38
529.718	82.38
529.933	76.38
530.148	96.38
530.363	88.38
530.577	92.38
530.792	87.38
531.007	104.38
531.221	71.38
531.436	92.38
531.651	88.38
531.865	96.38
532.08	87.38
532.295	88.38
532.509	94.38
532.724	92.38
532.938	90.38
533.153	92.38
533.367	99.38
533.582	101.38
533.796	96.38
534.011	93.38
534.225	110.38
534.44	112.38
534.654	104.38
534.868	109.38
535.083	155.38
535.297	137.38
535.511	100.38
535.726	90.38
535.94	112.38
536.154	118.38
536.369	108.38
536.583	95.38
536.797	102.38
537.011	99.38
537.225	87.38
537.44	92.38
537.654	92.38
537.868	104.38
538.082	94.38
538.296	87.38
538.51	89.38
538.724	96.38
538.938	93.38
539.153	109.38
539.367	97.38
539.581	107.38
539.795	97.38
540.009	95.38
540.222	97.38
540.436	91.38
540.65	100.38
540.864	99.38
541.078	95.38
541.292	99.38
541.506	107.38
541.72	95.38
541.934	109.38
542.147	81.38
542.361	84.38
542.575	95.38
542.789	104.38
543.002	96.38
543.216	100.38
543.43	92.38
543.644	93.38
543.857	103.38
544.071	97.38
544.285	95.38
544.498	95.38
544.712	109.38
544.925	108.38
545.139	90.38
545.352	89.38
545.566	101.38
545.779	105.38
545.993	108.38
546.206	107.38
546.42	98.38
546.633	119.38
546.847	121.38
547.06	119.38
547.274	128.38
547.487	144.38
547.7	166.38
547.914	173.38
548.127	176.38
548.34	167.38
548.554	152.38
548.767	166.38
548.98	206.38
549.193	174.38
549.407	179.38
549.62	188.38
549.833	197.38
550.046	215.38
550.259	216.38
550.473	201.38
550.686	235.38
550.899	253.38
551.112	257.38
551.325	294.38
551.538	273.38
551.751	267.38
551.964	251.38
552.177	260.38
552.39	240.38
552.603	250.38
552.816	238.38
553.029	233.38
553.242	225.38
553.455	238.38
553.667	255.38
553.88	273.38
554.093	259.38
554.306	243.38
554.519	269.38
554.732	261.38
554.944	257.38
555.157	235.38
555.37	238.38
555.583	207.38
555.795	210.38
556.008	198.38
556.221	177.38
556.433	173.38
556.646	173.38
556.859	191.38
557.071	155.38
557.284	158.38
557.496	149.38
557.709	155.38
557.921	147.38
558.134	154.38
558.346	173.38
558.559	167.38
558.771	174.38
558.984	307.38
559.196	378.38
559.409	208.38
559.621	303.38
559.833	237.38
560.046	257.38
560.258	224.38
560.47	222.38
560.683	127.38
560.895	109.38
561.107	94.38
561.32	102.38
561.532	104.38
561.744	96.38
561.956	84.38
562.168	88.38
562.381	99.38
562.593	98.38
562.805	88.38
563.017	97.38
563.229	101.38
563.441	87.38
563.653	85.38
563.865	104.38
564.077	88.38
564.289	89.38
564.501	92.38
564.713	101.38
564.925	95.38
565.137	96.38
565.349	92.38
565.561	88.38
565.773	110.38
565.985	80.38
566.197	85.38
566.408	105.38
566.62	92.38
566.832	104.38
567.044	88.38
567.255	85.38
567.467	92.38
567.679	86.38
567.891	97.38
568.102	94.38
568.314	91.38
568.526	102.38
568.737	91.38
568.949	94.38
569.161	94.38
569.372	78.38
569.584	99.38
569.795	109.38
570.007	105.38
570.218	86.38
570.43	89.38
570.641	85.38
570.853	100.38
571.064	95.38
571.276	101.38
571.487	109.38
571.698	96.38
571.91	107.38
572.121	91.38
572.333	97.38
572.544	88.38
572.755	84.38
572.966	73.38
573.178	103.38
573.389	86.38
573.6	88.38
573.811	90.38
574.023	89.38
574.234	84.38
574.445	82.38
574.656	83.38
574.867	92.38
575.078	95.38
575.289	86.38
575.501	100.38
575.712	88.38
575.923	95.38
576.134	89.38
576.345	93.38
576.556	91.38
576.767	100.38
576.978	81.38
577.188	99.38
577.399	88.38
577.61	77.38
577.821	92.38
578.032	95.38
578.243	106.38
578.454	108.38
578.665	101.38
578.875	90.38
579.086	89.38
579.297	81.38
579.508	95.38
579.718	105.38
579.929	104.38
580.14	105.38
580.35	115.38
580.561	114.38
580.772	99.38
580.982	84.38
581.193	86.38
581.403	72.38
581.614	97.38
581.825	98.38
582.035	84.38
582.246	97.38
582.456	96.38
582.667	85.38
582.877	102.38
583.087	84.38
583.298	93.38
583.508	97.38
583.719	98.38
583.929	95.38
584.139	96.38
584.35	98.38
584.56	91.38
584.77	89.38
584.981	101.38
585.191	85.38
585.401	91.38
585.611	100.38
585.821	151.38
586.032	202.38
586.242	119.38
586.452	99.38
586.662	96.38
586.872	91.38
587.082	95.38
587.292	110.38
587.502	113.38
587.713	92.38
587.923	118.38
588.133	104.38
588.343	126.38
588.553	129.38
588.762	166.38
588.972	297.38
589.182	827.38
589.392	534.38
589.602	342.38
589.812	679.38
590.022	364.38
590.232	167.38
590.441	127.38
590.651	109.38
590.861	111.38
591.071	116.38
591.281	108.38
591.49	113.38
591.7	119.38
591.91	109.38
592.119	91.38
592.329	109.38
592.539	102.38
592.748	110.38
592.958	123.38
593.167	112.38
593.377	111.38
593.587	124.38
593.796	103.38
594.006	124.38
594.215	121.38
594.424	123.38
594.634	120.38
594.843	125.38
595.053	131.38
595.262	134.38
595.472	114.38
595.681	124.38
595.89	152.38
596.1	140.38
596.309	156.38
596.518	142.38
596.727	160.38
596.937	157.38
597.146	169.38
597.355	174.38
597.564	175.38
597.774	159.38
597.983	175.38
598.192	175.38
598.401	166.38
598.61	179.38
598.819	187.38
599.028	191.38
599.237	181.38
599.446	189.38
599.655	172.38
599.864	186.38
600.073	180.38
600.282	176.38
600.491	190.38
600.7	207.38
600.909	178.38
601.118	171.38
601.327	158.38
601.536	179.38
601.745	165.38
601.953	164.38
602.162	157.38
602.371	167.38
602.58	149.38
602.789	176.38
602.997	157.38
603.206	172.38
603.415	172.38
603.623	177.38
603.832	163.38
604.041	171.38
604.249	174.38
604.458	185.38
604.666	169.38
604.875	190.38
605.084	193.38
605.292	205.38
605.501	187.38
605.709	193.38
605.918	224.38
606.126	232.38
606.334	229.38
606.543	225.38
606.751	214.38
606.96	222.38
607.168	211.38
607.376	201.38
607.585	211.38
607.793	211.38
608.001	204.38
608.21	204.38
608.418	207.38
608.626	202.38
608.834	219.38
609.043	239.38
609.251	225.38
609.459	213.38
609.667	243.38
609.875	259.38
610.083	243.38
610.291	265.38
610.499	341.38
610.707	259.38
610.916	205.38
611.124	219.38
611.332	222.38
611.54	226.38
611.748	247.38
611.955	239.38
612.163	243.38
612.371	394.38
612.579	356.38
612.787	268.38
612.995	266.38
613.203	261.38
613.411	240.38
613.618	229.38
613.826	219.38
614.034	225.38
614.242	251.38
614.449	248.38
614.657	242.38
614.865	248.38
615.072	243.38
615.28	258.38
615.488	241.38
615.695	237.38
615.903	246.38
616.111	272.38
616.318	416.38
616.526	480.38
616.733	322.38
616.941	287.38
617.148	348.38
617.356	276.38
617.563	259.38
617.771	255.38
617.978	228.38
618.185	214.38
618.393	218.38
618.6	205.38
618.807	209.38
619.015	190.38
619.222	208.38
619.429	219.38
619.637	222.38
619.844	205.38
620.051	207.38
620.258	209.38
620.466	221.38
620.673	228.38
620.88	212.38
621.087	207.38
621.294	220.38
621.501	196.38
621.708	215.38
621.915	214.38
622.122	212.38
622.329	225.38
622.536	226.38
622.743	223.38
622.95	241.38
623.157	238.38
623.364	262.38
623.571	256.38
623.778	261.38
623.985	263.38
624.192	267.38
624.399	259.38
624.606	275.38
624.812	278.38
625.019	285.38
625.226	267.38
625.433	272.38
625.639	257.38
625.846	259.38
626.053	229.38
626.259	216.38
626.466	211.38
626.673	235.38
626.879	221.38
627.086	235.38
627.293	240.38
627.499	220.38
627.706	201.38
627.912	167.38
628.119	148.38
628.325	147.38
628.532	136.38
628.738	132.38
628.945	112.38
629.151	115.38
629.357	123.38
629.564	101.38
629.77	114.38
629.976	113.38
630.183	116.38
630.389	116.38
630.595	102.38
630.802	104.38
631.008	98.38
631.214	98.38
631.42	110.38
631.627	121.38
631.833	112.38
632.039	99.38
632.245	101.38
632.451	94.38
632.657	118.38
632.863	110.38
633.069	93.38
633.275	118.38
633.481	101.38
633.688	102.38
633.893	123.38
634.099	107.38
634.305	108.38
634.511	121.38
634.717	99.38
634.923	107.38
635.129	104.38
635.335	103.38
635.541	109.38
635.747	112.38
635.952	102.38
636.158	115.38
636.364	103.38
636.57	110.38
636.775	119.38
636.981	118.38
637.187	109.38
637.392	103.38
637.598	115.38
637.804	104.38
638.009	114.38
638.215	118.38
638.421	88.38
638.626	111.38
638.832	88.38
639.037	90.38
639.243	97.38
639.448	96.38
639.654	91.38
639.859	97.38
640.065	97.38
640.27	99.38
640.475	85.38
640.681	87.38
640.886	87.38
641.091	94.38
641.297	105.38
641.502	83.38
641.707	92.38
641.913	92.38
642.118	83.38
642.323	88.38
642.528	100.38
642.733	83.38
642.939	103.38
643.144	95.38
643.349	93.38
643.554	104.38
643.759	101.38
643.964	112.38
644.169	187.38
644.374	123.38
644.579	92.38
644.784	85.38
644.989	97.38
645.194	109.38
645.399	109.38
645.604	96.38
645.809	96.38
646.014	86.38
646.219	99.38
646.423	152.38
646.628	134.38
646.833	95.38
647.038	103.38
647.243	100.38
647.447	104.38
647.652	83.38
647.857	93.38
648.062	107.38
648.266	94.38
648.471	96.38
648.676	93.38
648.88	85.38
649.085	101.38
649.289	86.38
649.494	99.38
649.698	123.38
649.903	79.38
650.107	84.38
650.312	87.38
650.516	76.38
650.721	80.38
650.925	91.38
651.13	87.38
651.334	81.38
651.539	71.38
651.743	82.38
651.947	78.38
652.152	87.38
652.356	79.38
652.56	96.38
652.764	86.38
652.969	88.38
653.173	78.38
653.377	78.38
653.581	82.38
653.785	74.38
653.99	84.38
654.194	79.38
654.398	73.38
654.602	83.38
654.806	95.38
655.01	78.38
655.214	86.38
655.418	71.38
655.622	81.38
655.826	84.38
656.03	70.38
656.234	88.38
656.438	77.38
656.642	81.38
656.846	79.38
657.049	93.38
657.253	78.38
657.457	96.38
657.661	72.38
657.865	78.38
658.068	78.38
658.272	77.38
658.476	88.38
658.68	79.38
658.883	65.38
659.087	84.38
659.291	79.38
659.494	81.38
659.698	80.38
659.901	72.38
660.105	90.38
660.309	86.38
660.512	73.38
660.716	66.38
660.919	81.38
661.123	87.38
661.326	77.38
661.53	81.38
661.733	62.38
661.936	77.38
662.14	78.38
662.343	80.38
662.546	66.38
662.75	72.38
662.953	88.38
663.156	82.38
663.36	67.38
663.563	76.38
663.766	85.38
663.969	74.38
664.173	77.38
664.376	84.38
664.579	67.38
664.782	83.38
664.985	69.38
665.188	73.38
665.391	77.38
665.594	85.38
665.797	68.38
666	84.38
666.203	86.38
666.406	58.38
666.609	71.38
666.812	73.38
667.015	71.38
667.218	80.38
667.421	81.38
667.624	71.38
667.827	80.38
668.03	87.38
668.232	87.38
668.435	87.38
668.638	80.38
668.841	83.38
669.043	72.38
669.246	73.38
669.449	78.38
669.651	96.38
669.854	73.38
670.057	56.38
670.259	76.38
670.462	68.38
670.665	89.38
670.867	81.38
671.07	70.38
671.272	75.38
671.475	80.38
671.677	79.38
671.88	67.38
672.082	74.38
672.284	86.38
672.487	100.38
672.689	88.38
672.892	78.38
