Data from HP_2_HRD10591_00027.txt Node
Date: Mon Jan 19 14:16:14 EST 2026
User: Yrep
Spectrometer: HR+D1059
Trigger mode: 1
Integration Time (sec): 1.000000E-1
Scans to average: 1
Electric dark correction enabled: true
Nonlinearity correction enabled: false
Boxcar width: 0
XAxis mode: Wavelengths
Number of Pixels in Spectrum: 2048
>>>>>Begin Spectral Data<<<<<
223.165	-20.69
223.4	-20.69
223.635	-20.69
223.869	-14.69
224.104	-10.69
224.338	-16.69
224.573	-12.69
224.808	-17.69
225.042	-0.69
225.277	-18.69
225.511	6.31
225.746	2.31
225.98	-5.69
226.215	19.31
226.449	18.31
226.683	16.31
226.918	21.31
227.152	34.31
227.387	31.31
227.621	49.31
227.856	44.31
228.09	42.31
228.324	50.31
228.559	59.31
228.793	50.31
229.027	57.31
229.262	75.31
229.496	74.31
229.73	63.31
229.964	73.31
230.199	73.31
230.433	76.31
230.667	85.31
230.901	71.31
231.136	84.31
231.37	85.31
231.604	83.31
231.838	79.31
232.072	89.31
232.306	77.31
232.541	75.31
232.775	99.31
233.009	83.31
233.243	93.31
233.477	75.31
233.711	99.31
233.945	95.31
234.179	85.31
234.413	65.31
234.647	87.31
234.881	77.31
235.115	87.31
235.349	87.31
235.583	77.31
235.817	77.31
236.051	82.31
236.285	65.31
236.519	81.31
236.753	76.31
236.987	83.31
237.221	77.31
237.455	92.31
237.689	79.31
237.922	77.31
238.156	77.31
238.39	72.31
238.624	71.31
238.858	69.31
239.091	79.31
239.325	76.31
239.559	79.31
239.793	78.31
240.027	77.31
240.26	72.31
240.494	63.31
240.728	75.31
240.961	79.31
241.195	70.31
241.429	79.31
241.662	84.31
241.896	79.31
242.13	85.31
242.363	75.31
242.597	69.31
242.83	80.31
243.064	77.31
243.298	83.31
243.531	81.31
243.765	79.31
243.998	69.31
244.232	76.31
244.465	87.31
244.699	78.31
244.932	79.31
245.166	80.31
245.399	71.31
245.633	79.31
245.866	87.31
246.099	67.31
246.333	77.31
246.566	84.31
246.8	79.31
247.033	65.31
247.266	76.31
247.5	67.31
247.733	87.31
247.966	78.31
248.2	75.31
248.433	77.31
248.666	73.31
248.899	78.31
249.133	82.31
249.366	82.31
249.599	77.31
249.832	81.31
250.066	70.31
250.299	78.31
250.532	72.31
250.765	77.31
250.998	85.31
251.231	69.31
251.465	89.31
251.698	81.31
251.931	70.31
252.164	59.31
252.397	93.31
252.63	77.31
252.863	84.31
253.096	80.31
253.329	91.31
253.562	75.31
253.795	87.31
254.028	75.31
254.261	75.31
254.494	89.31
254.727	91.31
254.96	85.31
255.193	91.31
255.426	78.31
255.659	80.31
255.892	73.31
256.124	83.31
256.357	90.31
256.59	78.31
256.823	81.31
257.056	69.31
257.289	83.31
257.521	87.31
257.754	72.31
257.987	75.31
258.22	91.31
258.452	86.31
258.685	75.31
258.918	86.31
259.151	89.31
259.383	71.31
259.616	76.31
259.849	81.31
260.081	74.31
260.314	90.31
260.547	92.31
260.779	83.31
261.012	79.31
261.244	71.31
261.477	79.31
261.71	83.31
261.942	82.31
262.175	78.31
262.407	78.31
262.64	85.31
262.872	79.31
263.105	75.31
263.337	77.31
263.57	74.31
263.802	83.31
264.035	88.31
264.267	79.31
264.499	73.31
264.732	83.31
264.964	77.31
265.197	77.31
265.429	79.31
265.661	94.31
265.894	69.31
266.126	86.31
266.358	86.31
266.591	69.31
266.823	97.31
267.055	89.31
267.287	93.31
267.52	91.31
267.752	78.31
267.984	73.31
268.216	79.31
268.448	96.31
268.681	74.31
268.913	90.31
269.145	99.31
269.377	79.31
269.609	79.31
269.841	77.31
270.073	93.31
270.306	82.31
270.538	93.31
270.77	88.31
271.002	79.31
271.234	77.31
271.466	90.31
271.698	85.31
271.93	89.31
272.162	82.31
272.394	84.31
272.626	98.31
272.858	90.31
273.09	72.31
273.322	93.31
273.553	82.31
273.785	83.31
274.017	89.31
274.249	71.31
274.481	88.31
274.713	91.31
274.945	83.31
275.176	85.31
275.408	89.31
275.64	77.31
275.872	79.31
276.104	88.31
276.335	80.31
276.567	86.31
276.799	86.31
277.031	85.31
277.262	91.31
277.494	94.31
277.726	79.31
277.957	96.31
278.189	82.31
278.421	77.31
278.652	73.31
278.884	73.31
279.115	91.31
279.347	87.31
279.579	80.31
279.81	68.31
280.042	92.31
280.273	76.31
280.505	87.31
280.736	83.31
280.968	86.31
281.199	67.31
281.431	84.31
281.662	88.31
281.894	90.31
282.125	82.31
282.356	83.31
282.588	85.31
282.819	90.31
283.051	88.31
283.282	79.31
283.513	92.31
283.745	90.31
283.976	94.31
284.207	88.31
284.439	86.31
284.67	91.31
284.901	89.31
285.132	80.31
285.364	93.31
285.595	79.31
285.826	95.31
286.057	99.31
286.288	93.31
286.52	89.31
286.751	73.31
286.982	80.31
287.213	86.31
287.444	87.31
287.675	84.31
287.906	87.31
288.138	82.31
288.369	89.31
288.6	86.31
288.831	87.31
289.062	87.31
289.293	86.31
289.524	75.31
289.755	96.31
289.986	90.31
290.217	77.31
290.448	74.31
290.679	83.31
290.91	86.31
291.141	82.31
291.371	79.31
291.602	80.31
291.833	73.31
292.064	73.31
292.295	78.31
292.526	86.31
292.757	79.31
292.987	78.31
293.218	84.31
293.449	71.31
293.68	78.31
293.91	94.31
294.141	74.31
294.372	88.31
294.603	85.31
294.833	82.31
295.064	97.31
295.295	98.31
295.525	88.31
295.756	70.31
295.987	80.31
296.217	89.31
296.448	82.31
296.679	103.31
296.909	93.31
297.14	90.31
297.37	86.31
297.601	87.31
297.831	87.31
298.062	91.31
298.292	75.31
298.523	91.31
298.753	88.31
298.984	87.31
299.214	90.31
299.445	100.31
299.675	88.31
299.905	97.31
300.136	86.31
300.366	93.31
300.597	86.31
300.827	91.31
301.057	89.31
301.288	82.31
301.518	85.31
301.748	91.31
301.979	105.31
302.209	83.31
302.439	91.31
302.669	93.31
302.9	86.31
303.13	92.31
303.36	85.31
303.59	90.31
303.82	101.31
304.051	85.31
304.281	97.31
304.511	83.31
304.741	80.31
304.971	93.31
305.201	82.31
305.431	81.31
305.661	86.31
305.891	76.31
306.121	77.31
306.352	80.31
306.582	87.31
306.812	85.31
307.042	86.31
307.272	79.31
307.502	78.31
307.731	94.31
307.961	76.31
308.191	83.31
308.421	83.31
308.651	74.31
308.881	98.31
309.111	85.31
309.341	92.31
309.571	78.31
309.8	91.31
310.03	75.31
310.26	74.31
310.49	92.31
310.72	105.31
310.949	102.31
311.179	88.31
311.409	92.31
311.639	86.31
311.868	89.31
312.098	97.31
312.328	87.31
312.557	71.31
312.787	89.31
313.017	81.31
313.246	84.31
313.476	77.31
313.706	81.31
313.935	89.31
314.165	90.31
314.394	83.31
314.624	81.31
314.853	99.31
315.083	97.31
315.312	85.31
315.542	83.31
315.771	82.31
316.001	77.31
316.23	90.31
316.46	77.31
316.689	77.31
316.919	79.31
317.148	86.31
317.377	89.31
317.607	100.31
317.836	97.31
318.065	106.31
318.295	81.31
318.524	86.31
318.753	84.31
318.983	78.31
319.212	88.31
319.441	76.31
319.67	88.31
319.9	84.31
320.129	86.31
320.358	86.31
320.587	78.31
320.816	93.31
321.046	93.31
321.275	88.31
321.504	85.31
321.733	99.31
321.962	85.31
322.191	79.31
322.42	83.31
322.649	103.31
322.878	94.31
323.108	91.31
323.337	91.31
323.566	87.31
323.795	80.31
324.024	73.31
324.253	82.31
324.482	90.31
324.71	84.31
324.939	98.31
325.168	74.31
325.397	95.31
325.626	79.31
325.855	79.31
326.084	93.31
326.313	83.31
326.542	97.31
326.77	89.31
326.999	87.31
327.228	85.31
327.457	86.31
327.686	78.31
327.914	90.31
328.143	91.31
328.372	100.31
328.6	83.31
328.829	85.31
329.058	100.31
329.287	90.31
329.515	93.31
329.744	77.31
329.972	96.31
330.201	81.31
330.43	76.31
330.658	82.31
330.887	78.31
331.115	81.31
331.344	93.31
331.572	99.31
331.801	71.31
332.03	94.31
332.258	105.31
332.486	96.31
332.715	80.31
332.943	87.31
333.172	88.31
333.4	85.31
333.629	93.31
333.857	85.31
334.085	90.31
334.314	86.31
334.542	76.31
334.771	85.31
334.999	82.31
335.227	87.31
335.455	71.31
335.684	97.31
335.912	79.31
336.14	87.31
336.369	79.31
336.597	101.31
336.825	81.31
337.053	91.31
337.281	83.31
337.51	81.31
337.738	84.31
337.966	82.31
338.194	80.31
338.422	73.31
338.65	91.31
338.878	84.31
339.106	89.31
339.334	84.31
339.562	79.31
339.79	85.31
340.018	79.31
340.246	92.31
340.474	95.31
340.702	92.31
340.93	83.31
341.158	104.31
341.386	81.31
341.614	101.31
341.842	94.31
342.07	88.31
342.298	87.31
342.526	97.31
342.754	86.31
342.981	79.31
343.209	93.31
343.437	88.31
343.665	88.31
343.893	91.31
344.12	91.31
344.348	90.31
344.576	89.31
344.804	91.31
345.031	85.31
345.259	78.31
345.487	83.31
345.714	80.31
345.942	90.31
346.17	102.31
346.397	82.31
346.625	86.31
346.853	89.31
347.08	70.31
347.308	87.31
347.535	87.31
347.763	106.31
347.99	97.31
348.218	92.31
348.445	77.31
348.673	75.31
348.9	86.31
349.128	83.31
349.355	95.31
349.583	87.31
349.81	89.31
350.037	99.31
350.265	89.31
350.492	85.31
350.72	68.31
350.947	79.31
351.174	86.31
351.402	94.31
351.629	83.31
351.856	80.31
352.083	92.31
352.311	78.31
352.538	88.31
352.765	89.31
352.992	87.31
353.22	90.31
353.447	88.31
353.674	74.31
353.901	104.31
354.128	90.31
354.355	81.31
354.583	94.31
354.81	76.31
355.037	97.31
355.264	75.31
355.491	85.31
355.718	81.31
355.945	95.31
356.172	83.31
356.399	95.31
356.626	100.31
356.853	93.31
357.08	67.31
357.307	83.31
357.534	85.31
357.761	93.31
357.988	85.31
358.215	79.31
358.441	93.31
358.668	90.31
358.895	84.31
359.122	81.31
359.349	83.31
359.576	85.31
359.802	98.31
360.029	83.31
360.256	91.31
360.483	80.31
360.709	87.31
360.936	93.31
361.163	83.31
361.39	87.31
361.616	93.31
361.843	85.31
362.07	90.31
362.296	92.31
362.523	83.31
362.749	89.31
362.976	86.31
363.203	101.31
363.429	90.31
363.656	84.31
363.882	94.31
364.109	86.31
364.335	107.31
364.562	106.31
364.788	83.31
365.015	103.31
365.241	95.31
365.468	107.31
365.694	76.31
365.92	102.31
366.147	96.31
366.373	90.31
366.599	77.31
366.826	77.31
367.052	95.31
367.278	94.31
367.505	93.31
367.731	98.31
367.957	88.31
368.184	85.31
368.41	62.31
368.636	79.31
368.862	79.31
369.089	77.31
369.315	95.31
369.541	97.31
369.767	79.31
369.993	90.31
370.219	87.31
370.445	93.31
370.672	95.31
370.898	92.31
371.124	77.31
371.35	77.31
371.576	73.31
371.802	93.31
372.028	85.31
372.254	93.31
372.48	103.31
372.706	85.31
372.932	98.31
373.158	88.31
373.384	95.31
373.61	92.31
373.835	79.31
374.061	104.31
374.287	82.31
374.513	96.31
374.739	81.31
374.965	91.31
375.191	80.31
375.416	79.31
375.642	86.31
375.868	87.31
376.094	75.31
376.319	80.31
376.545	77.31
376.771	91.31
376.997	79.31
377.222	95.31
377.448	91.31
377.674	94.31
377.899	77.31
378.125	100.31
378.35	89.31
378.576	87.31
378.802	91.31
379.027	88.31
379.253	85.31
379.478	90.31
379.704	83.31
379.929	88.31
380.155	78.31
380.38	97.31
380.606	87.31
380.831	82.31
381.057	80.31
381.282	93.31
381.507	97.31
381.733	78.31
381.958	83.31
382.184	98.31
382.409	95.31
382.634	90.31
382.86	80.31
383.085	95.31
383.31	90.31
383.535	100.31
383.761	93.31
383.986	92.31
384.211	90.31
384.436	77.31
384.662	75.31
384.887	93.31
385.112	92.31
385.337	89.31
385.562	104.31
385.787	85.31
386.013	86.31
386.238	91.31
386.463	91.31
386.688	86.31
386.913	101.31
387.138	98.31
387.363	87.31
387.588	104.31
387.813	101.31
388.038	93.31
388.263	78.31
388.488	87.31
388.713	85.31
388.938	73.31
389.163	79.31
389.387	87.31
389.612	84.31
389.837	88.31
390.062	73.31
390.287	84.31
390.512	75.31
390.736	89.31
390.961	66.31
391.186	83.31
391.411	75.31
391.636	87.31
391.86	89.31
392.085	94.31
392.31	86.31
392.534	77.31
392.759	86.31
392.984	99.31
393.208	115.31
393.433	166.31
393.658	138.31
393.882	101.31
394.107	89.31
394.331	101.31
394.556	94.31
394.78	100.31
395.005	86.31
395.229	86.31
395.454	83.31
395.678	85.31
395.903	101.31
396.127	102.31
396.352	109.31
396.576	106.31
396.801	147.31
397.025	154.31
397.249	103.31
397.474	107.31
397.698	92.31
397.922	82.31
398.147	99.31
398.371	84.31
398.595	89.31
398.82	91.31
399.044	95.31
399.268	86.31
399.492	81.31
399.717	85.31
399.941	88.31
400.165	99.31
400.389	95.31
400.613	80.31
400.837	104.31
401.062	94.31
401.286	93.31
401.51	92.31
401.734	95.31
401.958	78.31
402.182	87.31
402.406	81.31
402.63	89.31
402.854	103.31
403.078	99.31
403.302	87.31
403.526	88.31
403.75	90.31
403.974	92.31
404.198	97.31
404.422	94.31
404.645	109.31
404.869	96.31
405.093	86.31
405.317	90.31
405.541	84.31
405.765	77.31
405.988	84.31
406.212	87.31
406.436	97.31
406.66	91.31
406.883	86.31
407.107	92.31
407.331	80.31
407.555	89.31
407.778	86.31
408.002	94.31
408.226	87.31
408.449	94.31
408.673	78.31
408.896	97.31
409.12	89.31
409.344	83.31
409.567	90.31
409.791	77.31
410.014	97.31
410.238	70.31
410.461	82.31
410.685	97.31
410.908	79.31
411.132	84.31
411.355	77.31
411.578	83.31
411.802	90.31
412.025	77.31
412.249	97.31
412.472	85.31
412.695	74.31
412.919	93.31
413.142	101.31
413.365	82.31
413.589	91.31
413.812	83.31
414.035	70.31
414.258	90.31
414.482	81.31
414.705	71.31
414.928	87.31
415.151	91.31
415.374	87.31
415.597	81.31
415.821	73.31
416.044	85.31
416.267	89.31
416.49	83.31
416.713	74.31
416.936	85.31
417.159	94.31
417.382	93.31
417.605	83.31
417.828	89.31
418.051	86.31
418.274	95.31
418.497	94.31
418.72	81.31
418.943	90.31
419.166	88.31
419.389	89.31
419.611	92.31
419.834	79.31
420.057	76.31
420.28	81.31
420.503	93.31
420.726	94.31
420.948	99.31
421.171	83.31
421.394	87.31
421.617	82.31
421.839	101.31
422.062	104.31
422.285	117.31
422.507	171.31
422.73	235.31
422.953	216.31
423.175	134.31
423.398	98.31
423.621	101.31
423.843	92.31
424.066	87.31
424.288	101.31
424.511	70.31
424.733	90.31
424.956	84.31
425.178	87.31
425.401	76.31
425.623	85.31
425.846	71.31
426.068	73.31
426.291	80.31
426.513	87.31
426.735	107.31
426.958	99.31
427.18	92.31
427.402	100.31
427.625	77.31
427.847	78.31
428.069	94.31
428.292	95.31
428.514	102.31
428.736	100.31
428.958	101.31
429.181	106.31
429.403	85.31
429.625	83.31
429.847	97.31
430.069	119.31
430.292	133.31
430.514	140.31
430.736	107.31
430.958	118.31
431.18	99.31
431.402	91.31
431.624	88.31
431.846	102.31
432.068	105.31
432.29	91.31
432.512	87.31
432.734	70.31
432.956	76.31
433.178	86.31
433.4	96.31
433.622	96.31
433.844	85.31
434.066	88.31
434.287	90.31
434.509	105.31
434.731	84.31
434.953	91.31
435.175	78.31
435.397	91.31
435.618	74.31
435.84	79.31
436.062	87.31
436.284	94.31
436.505	64.31
436.727	81.31
436.949	85.31
437.17	96.31
437.392	97.31
437.614	86.31
437.835	81.31
438.057	71.31
438.278	74.31
438.5	81.31
438.721	80.31
438.943	95.31
439.165	72.31
439.386	91.31
439.608	78.31
439.829	89.31
440.05	97.31
440.272	87.31
440.493	99.31
440.715	97.31
440.936	95.31
441.158	84.31
441.379	81.31
441.6	82.31
441.822	74.31
442.043	107.31
442.264	88.31
442.486	99.31
442.707	111.31
442.928	101.31
443.149	91.31
443.371	103.31
443.592	157.31
443.813	136.31
444.034	113.31
444.255	75.31
444.476	93.31
444.698	82.31
444.919	99.31
445.14	153.31
445.361	157.31
445.582	202.31
445.803	163.31
446.024	99.31
446.245	83.31
446.466	92.31
446.687	84.31
446.908	96.31
447.129	79.31
447.35	86.31
447.571	89.31
447.792	88.31
448.013	96.31
448.234	100.31
448.455	75.31
448.675	96.31
448.896	93.31
449.117	81.31
449.338	75.31
449.559	80.31
449.779	76.31
450	76.31
450.221	82.31
450.442	90.31
450.662	83.31
450.883	93.31
451.104	85.31
451.324	88.31
451.545	82.31
451.766	83.31
451.986	85.31
452.207	83.31
452.428	85.31
452.648	98.31
452.869	86.31
453.089	80.31
453.31	72.31
453.53	90.31
453.751	82.31
453.971	97.31
454.192	84.31
454.412	78.31
454.633	88.31
454.853	76.31
455.073	89.31
455.294	90.31
455.514	97.31
455.734	88.31
455.955	83.31
456.175	86.31
456.395	95.31
456.616	95.31
456.836	100.31
457.056	80.31
457.276	91.31
457.497	68.31
457.717	75.31
457.937	87.31
458.157	99.31
458.377	93.31
458.598	99.31
458.818	103.31
459.038	93.31
459.258	81.31
459.478	76.31
459.698	84.31
459.918	74.31
460.138	81.31
460.358	86.31
460.578	95.31
460.798	100.31
461.018	107.31
461.238	77.31
461.458	68.31
461.678	86.31
461.898	83.31
462.118	73.31
462.338	87.31
462.558	87.31
462.777	71.31
462.997	79.31
463.217	98.31
463.437	96.31
463.657	84.31
463.876	66.31
464.096	67.31
464.316	92.31
464.536	80.31
464.755	86.31
464.975	79.31
465.195	91.31
465.414	73.31
465.634	78.31
465.854	82.31
466.073	94.31
466.293	82.31
466.512	88.31
466.732	96.31
466.951	76.31
467.171	85.31
467.391	75.31
467.61	98.31
467.829	78.31
468.049	75.31
468.268	89.31
468.488	92.31
468.707	81.31
468.927	91.31
469.146	88.31
469.365	97.31
469.585	89.31
469.804	87.31
470.023	85.31
470.243	80.31
470.462	84.31
470.681	84.31
470.901	98.31
471.12	78.31
471.339	81.31
471.558	73.31
471.777	91.31
471.997	81.31
472.216	82.31
472.435	68.31
472.654	83.31
472.873	86.31
473.092	93.31
473.311	89.31
473.53	96.31
473.749	97.31
473.968	83.31
474.187	79.31
474.406	87.31
474.625	80.31
474.844	85.31
475.063	93.31
475.282	74.31
475.501	79.31
475.72	89.31
475.939	88.31
476.158	93.31
476.377	82.31
476.596	85.31
476.814	84.31
477.033	90.31
477.252	74.31
477.471	86.31
477.69	76.31
477.908	96.31
478.127	90.31
478.346	76.31
478.564	91.31
478.783	76.31
479.002	79.31
479.22	84.31
479.439	79.31
479.658	71.31
479.876	98.31
480.095	83.31
480.313	56.31
480.532	69.31
480.751	80.31
480.969	98.31
481.188	78.31
481.406	101.31
481.624	80.31
481.843	108.31
482.061	87.31
482.28	90.31
482.498	81.31
482.717	95.31
482.935	97.31
483.153	89.31
483.372	93.31
483.59	86.31
483.808	107.31
484.027	82.31
484.245	86.31
484.463	95.31
484.681	99.31
484.9	77.31
485.118	92.31
485.336	93.31
485.554	93.31
485.772	91.31
485.99	87.31
486.209	91.31
486.427	91.31
486.645	84.31
486.863	77.31
487.081	95.31
487.299	90.31
487.517	77.31
487.735	87.31
487.953	119.31
488.171	108.31
488.389	91.31
488.607	74.31
488.825	90.31
489.043	73.31
489.261	101.31
489.479	97.31
489.696	93.31
489.914	83.31
490.132	91.31
490.35	75.31
490.568	79.31
490.786	86.31
491.003	81.31
491.221	74.31
491.439	78.31
491.657	76.31
491.874	78.31
492.092	80.31
492.31	82.31
492.527	84.31
492.745	86.31
492.963	89.31
493.18	89.31
493.398	82.31
493.615	72.31
493.833	97.31
494.05	75.31
494.268	65.31
494.485	95.31
494.703	91.31
494.92	101.31
495.138	89.31
495.355	80.31
495.573	91.31
495.79	97.31
496.008	92.31
496.225	90.31
496.442	86.31
496.66	80.31
496.877	85.31
497.094	82.31
497.312	75.31
497.529	95.31
497.746	85.31
497.963	82.31
498.181	97.31
498.398	86.31
498.615	90.31
498.832	93.31
499.049	89.31
499.267	86.31
499.484	98.31
499.701	89.31
499.918	92.31
500.135	101.31
500.352	82.31
500.569	65.31
500.786	87.31
501.003	93.31
501.22	92.31
501.437	80.31
501.654	84.31
501.871	79.31
502.088	87.31
502.305	103.31
502.522	90.31
502.739	94.31
502.956	94.31
503.172	85.31
503.389	78.31
503.606	89.31
503.823	83.31
504.04	92.31
504.256	112.31
504.473	105.31
504.69	97.31
504.907	100.31
505.123	93.31
505.34	93.31
505.557	80.31
505.773	79.31
505.99	81.31
506.207	82.31
506.423	76.31
506.64	76.31
506.856	85.31
507.073	71.31
507.289	86.31
507.506	86.31
507.722	82.31
507.939	96.31
508.155	85.31
508.372	103.31
508.588	90.31
508.805	93.31
509.021	84.31
509.238	96.31
509.454	92.31
509.67	73.31
509.887	83.31
510.103	79.31
510.319	87.31
510.536	85.31
510.752	103.31
510.968	99.31
511.184	89.31
511.401	82.31
511.617	79.31
511.833	89.31
512.049	97.31
512.265	79.31
512.481	99.31
512.698	89.31
512.914	88.31
513.13	91.31
513.346	87.31
513.562	83.31
513.778	93.31
513.994	86.31
514.21	86.31
514.426	88.31
514.642	87.31
514.858	85.31
515.074	86.31
515.29	89.31
515.506	93.31
515.721	86.31
515.937	74.31
516.153	87.31
516.369	87.31
516.585	76.31
516.801	85.31
517.016	87.31
517.232	73.31
517.448	99.31
517.664	89.31
517.879	80.31
518.095	84.31
518.311	85.31
518.527	97.31
518.742	88.31
518.958	122.31
519.173	90.31
519.389	94.31
519.605	84.31
519.82	83.31
520.036	89.31
520.251	90.31
520.467	80.31
520.682	85.31
520.898	92.31
521.113	85.31
521.329	76.31
521.544	80.31
521.76	81.31
521.975	77.31
522.19	80.31
522.406	86.31
522.621	85.31
522.836	87.31
523.052	79.31
523.267	86.31
523.482	86.31
523.698	77.31
523.913	87.31
524.128	80.31
524.343	72.31
524.559	89.31
524.774	91.31
524.989	93.31
525.204	98.31
525.419	80.31
525.634	85.31
525.849	106.31
526.064	107.31
526.28	135.31
526.495	155.31
526.71	174.31
526.925	143.31
527.14	161.31
527.355	155.31
527.57	105.31
527.785	78.31
527.999	97.31
528.214	77.31
528.429	97.31
528.644	87.31
528.859	85.31
529.074	93.31
529.289	82.31
529.503	86.31
529.718	85.31
529.933	79.31
530.148	87.31
530.363	86.31
530.577	80.31
530.792	92.31
531.007	78.31
531.221	96.31
531.436	83.31
531.651	92.31
531.865	85.31
532.08	93.31
532.295	89.31
532.509	90.31
532.724	86.31
532.938	94.31
533.153	82.31
533.367	75.31
533.582	90.31
533.796	81.31
534.011	86.31
534.225	89.31
534.44	104.31
534.654	101.31
534.868	88.31
535.083	105.31
535.297	109.31
535.511	104.31
535.726	91.31
535.94	90.31
536.154	97.31
536.369	113.31
536.583	93.31
536.797	97.31
537.011	89.31
537.225	103.31
537.44	87.31
537.654	86.31
537.868	84.31
538.082	82.31
538.296	95.31
538.51	104.31
538.724	90.31
538.938	94.31
539.153	82.31
539.367	87.31
539.581	90.31
539.795	93.31
540.009	75.31
540.222	93.31
540.436	87.31
540.65	97.31
540.864	90.31
541.078	90.31
541.292	82.31
541.506	86.31
541.72	107.31
541.934	87.31
542.147	104.31
542.361	87.31
542.575	99.31
542.789	89.31
543.002	101.31
543.216	91.31
543.43	90.31
543.644	86.31
543.857	71.31
544.071	83.31
544.285	103.31
544.498	97.31
544.712	92.31
544.925	96.31
545.139	89.31
545.352	81.31
545.566	91.31
545.779	101.31
545.993	98.31
546.206	104.31
546.42	93.31
546.633	100.31
546.847	103.31
547.06	106.31
547.274	102.31
547.487	109.31
547.7	123.31
547.914	147.31
548.127	142.31
548.34	140.31
548.554	131.31
548.767	147.31
548.98	132.31
549.193	130.31
549.407	137.31
549.62	137.31
549.833	144.31
550.046	161.31
550.259	163.31
550.473	151.31
550.686	154.31
550.899	189.31
551.112	183.31
551.325	178.31
551.538	195.31
551.751	196.31
551.964	190.31
552.177	184.31
552.39	179.31
552.603	174.31
552.816	174.31
553.029	172.31
553.242	181.31
553.455	175.31
553.667	198.31
553.88	173.31
554.093	207.31
554.306	190.31
554.519	193.31
554.732	188.31
554.944	184.31
555.157	192.31
555.37	182.31
555.583	181.31
555.795	159.31
556.008	171.31
556.221	159.31
556.433	148.31
556.646	138.31
556.859	139.31
557.071	143.31
557.284	125.31
557.496	118.31
557.709	114.31
557.921	127.31
558.134	119.31
558.346	140.31
558.559	138.31
558.771	140.31
558.984	200.31
559.196	231.31
559.409	147.31
559.621	191.31
559.833	139.31
560.046	157.31
560.258	145.31
560.47	149.31
560.683	101.31
560.895	106.31
561.107	120.31
561.32	105.31
561.532	87.31
561.744	105.31
561.956	105.31
562.168	82.31
562.381	89.31
562.593	97.31
562.805	79.31
563.017	96.31
563.229	83.31
563.441	74.31
563.653	85.31
563.865	87.31
564.077	101.31
564.289	77.31
564.501	97.31
564.713	94.31
564.925	105.31
565.137	103.31
565.349	91.31
565.561	85.31
565.773	95.31
565.985	111.31
566.197	87.31
566.408	97.31
566.62	97.31
566.832	103.31
567.044	100.31
567.255	101.31
567.467	100.31
567.679	94.31
567.891	97.31
568.102	102.31
568.314	78.31
568.526	86.31
568.737	89.31
568.949	103.31
569.161	93.31
569.372	100.31
569.584	93.31
569.795	102.31
570.007	85.31
570.218	93.31
570.43	99.31
570.641	85.31
570.853	82.31
571.064	91.31
571.276	92.31
571.487	94.31
571.698	90.31
571.91	100.31
572.121	97.31
572.333	87.31
572.544	97.31
572.755	97.31
572.966	106.31
573.178	101.31
573.389	73.31
573.6	88.31
573.811	106.31
574.023	93.31
574.234	94.31
574.445	100.31
574.656	99.31
574.867	95.31
575.078	90.31
575.289	86.31
575.501	101.31
575.712	95.31
575.923	80.31
576.134	93.31
576.345	85.31
576.556	105.31
576.767	94.31
576.978	88.31
577.188	87.31
577.399	99.31
577.61	87.31
577.821	96.31
578.032	89.31
578.243	99.31
578.454	99.31
578.665	87.31
578.875	97.31
579.086	85.31
579.297	84.31
579.508	100.31
579.718	94.31
579.929	103.31
580.14	77.31
580.35	96.31
580.561	121.31
580.772	103.31
580.982	87.31
581.193	110.31
581.403	93.31
581.614	91.31
581.825	95.31
582.035	96.31
582.246	89.31
582.456	97.31
582.667	89.31
582.877	82.31
583.087	97.31
583.298	95.31
583.508	95.31
583.719	100.31
583.929	101.31
584.139	89.31
584.35	85.31
584.56	87.31
584.77	79.31
584.981	87.31
585.191	89.31
585.401	92.31
585.611	90.31
585.821	118.31
586.032	147.31
586.242	99.31
586.452	94.31
586.662	108.31
586.872	108.31
587.082	76.31
587.292	94.31
587.502	104.31
587.713	93.31
587.923	95.31
588.133	116.31
588.343	115.31
588.553	111.31
588.762	121.31
588.972	196.31
589.182	410.31
589.392	291.31
589.602	225.31
589.812	332.31
590.022	222.31
590.232	119.31
590.441	109.31
590.651	104.31
590.861	87.31
591.071	113.31
591.281	106.31
591.49	114.31
591.7	105.31
591.91	115.31
592.119	102.31
592.329	108.31
592.539	103.31
592.748	102.31
592.958	108.31
593.167	102.31
593.377	106.31
593.587	106.31
593.796	109.31
594.006	105.31
594.215	106.31
594.424	114.31
594.634	109.31
594.843	110.31
595.053	108.31
595.262	105.31
595.472	117.31
595.681	120.31
595.89	124.31
596.1	121.31
596.309	129.31
596.518	113.31
596.727	138.31
596.937	133.31
597.146	129.31
597.355	140.31
597.564	119.31
597.774	138.31
597.983	154.31
598.192	137.31
598.401	127.31
598.61	147.31
598.819	134.31
599.028	135.31
599.237	141.31
599.446	146.31
599.655	143.31
599.864	139.31
600.073	147.31
600.282	150.31
600.491	163.31
600.7	146.31
600.909	129.31
601.118	127.31
601.327	130.31
601.536	129.31
601.745	140.31
601.953	124.31
602.162	147.31
602.371	121.31
602.58	105.31
602.789	122.31
602.997	123.31
603.206	147.31
603.415	145.31
603.623	137.31
603.832	134.31
604.041	144.31
604.249	133.31
604.458	168.31
604.666	143.31
604.875	157.31
605.084	158.31
605.292	148.31
605.501	166.31
605.709	155.31
605.918	159.31
606.126	177.31
606.334	172.31
606.543	171.31
606.751	162.31
606.96	166.31
607.168	160.31
607.376	148.31
607.585	151.31
607.793	142.31
608.001	155.31
608.21	151.31
608.418	164.31
608.626	159.31
608.834	169.31
609.043	172.31
609.251	179.31
609.459	179.31
609.667	171.31
609.875	190.31
610.083	172.31
610.291	182.31
610.499	200.31
610.707	195.31
610.916	167.31
611.124	170.31
611.332	157.31
611.54	163.31
611.748	154.31
611.955	159.31
612.163	179.31
612.371	264.31
612.579	219.31
612.787	190.31
612.995	182.31
613.203	197.31
613.411	179.31
613.618	181.31
613.826	163.31
614.034	174.31
614.242	164.31
614.449	177.31
614.657	180.31
614.865	162.31
615.072	172.31
615.28	171.31
615.488	169.31
615.695	170.31
615.903	177.31
616.111	194.31
616.318	251.31
616.526	283.31
616.733	214.31
616.941	197.31
617.148	221.31
617.356	186.31
617.563	171.31
617.771	185.31
617.978	164.31
618.185	168.31
618.393	169.31
618.6	178.31
618.807	171.31
619.015	156.31
619.222	161.31
619.429	155.31
619.637	166.31
619.844	176.31
620.051	162.31
620.258	161.31
620.466	179.31
620.673	180.31
620.88	163.31
621.087	168.31
621.294	171.31
621.501	172.31
621.708	153.31
621.915	173.31
622.122	155.31
622.329	157.31
622.536	197.31
622.743	179.31
622.95	180.31
623.157	180.31
623.364	174.31
623.571	188.31
623.778	169.31
623.985	174.31
624.192	183.31
624.399	190.31
624.606	200.31
624.812	200.31
625.019	215.31
625.226	178.31
625.433	181.31
625.639	180.31
625.846	173.31
626.053	171.31
626.259	162.31
626.466	165.31
626.673	173.31
626.879	172.31
627.086	193.31
627.293	179.31
627.499	173.31
627.706	158.31
627.912	131.31
628.119	133.31
628.325	136.31
628.532	121.31
628.738	125.31
628.945	114.31
629.151	103.31
629.357	102.31
629.564	105.31
629.77	99.31
629.976	99.31
630.183	103.31
630.389	99.31
630.595	87.31
630.802	95.31
631.008	88.31
631.214	97.31
631.42	93.31
631.627	103.31
631.833	108.31
632.039	105.31
632.245	93.31
632.451	96.31
632.657	94.31
632.863	87.31
633.069	96.31
633.275	93.31
633.481	98.31
633.688	109.31
633.893	108.31
634.099	103.31
634.305	105.31
634.511	93.31
634.717	102.31
634.923	104.31
635.129	91.31
635.335	100.31
635.541	117.31
635.747	103.31
635.952	102.31
636.158	88.31
636.364	97.31
636.57	114.31
636.775	99.31
636.981	111.31
637.187	91.31
637.392	95.31
637.598	110.31
637.804	93.31
638.009	103.31
638.215	89.31
638.421	98.31
638.626	98.31
638.832	82.31
639.037	86.31
639.243	100.31
639.448	100.31
639.654	115.31
639.859	106.31
640.065	86.31
640.27	84.31
640.475	98.31
640.681	85.31
640.886	105.31
641.091	98.31
641.297	89.31
641.502	99.31
641.707	99.31
641.913	96.31
642.118	98.31
642.323	88.31
642.528	94.31
642.733	87.31
642.939	101.31
643.144	91.31
643.349	98.31
643.554	94.31
643.759	91.31
643.964	111.31
644.169	130.31
644.374	102.31
644.579	93.31
644.784	97.31
644.989	90.31
645.194	119.31
645.399	95.31
645.604	88.31
645.809	86.31
646.014	99.31
646.219	97.31
646.423	119.31
646.628	113.31
646.833	114.31
647.038	94.31
647.243	104.31
647.447	102.31
647.652	98.31
647.857	97.31
648.062	92.31
648.266	89.31
648.471	89.31
648.676	107.31
648.88	95.31
649.085	107.31
649.289	93.31
649.494	101.31
649.698	109.31
649.903	85.31
650.107	87.31
650.312	97.31
650.516	86.31
650.721	92.31
650.925	95.31
651.13	89.31
651.334	82.31
651.539	99.31
651.743	77.31
651.947	85.31
652.152	86.31
652.356	94.31
652.56	89.31
652.764	100.31
652.969	78.31
653.173	96.31
653.377	92.31
653.581	86.31
653.785	83.31
653.99	86.31
654.194	95.31
654.398	79.31
654.602	81.31
654.806	97.31
655.01	85.31
655.214	80.31
655.418	90.31
655.622	86.31
655.826	91.31
656.03	86.31
656.234	87.31
656.438	94.31
656.642	83.31
656.846	97.31
657.049	84.31
657.253	79.31
657.457	73.31
657.661	74.31
657.865	77.31
658.068	87.31
658.272	90.31
658.476	91.31
658.68	96.31
658.883	90.31
659.087	85.31
659.291	75.31
659.494	98.31
659.698	91.31
659.901	97.31
660.105	92.31
660.309	80.31
660.512	87.31
660.716	90.31
660.919	71.31
661.123	94.31
661.326	83.31
661.53	77.31
661.733	80.31
661.936	82.31
662.14	94.31
662.343	101.31
662.546	74.31
662.75	101.31
662.953	81.31
663.156	91.31
663.36	96.31
663.563	86.31
663.766	91.31
663.969	86.31
664.173	80.31
664.376	88.31
664.579	84.31
664.782	75.31
664.985	83.31
665.188	89.31
665.391	90.31
665.594	85.31
665.797	86.31
666	102.31
666.203	67.31
666.406	93.31
666.609	92.31
666.812	95.31
667.015	87.31
667.218	88.31
667.421	83.31
667.624	74.31
667.827	86.31
668.03	87.31
668.232	68.31
668.435	87.31
668.638	98.31
668.841	97.31
669.043	91.31
669.246	84.31
669.449	97.31
669.651	79.31
669.854	89.31
670.057	91.31
670.259	90.31
670.462	89.31
670.665	84.31
670.867	70.31
671.07	89.31
671.272	83.31
671.475	86.31
671.677	84.31
671.88	80.31
672.082	75.31
672.284	79.31
672.487	81.31
672.689	72.31
672.892	92.31
