Data from Circ_2007_H10_HRD10591_00066.txt Node
Date: Wed Jan 03 10:22:10 EST 2024
User: Yrep
Spectrometer: HR+D1059
Trigger mode: 1
Integration Time (sec): 1.000000E-1
Scans to average: 1
Electric dark correction enabled: true
Nonlinearity correction enabled: false
Boxcar width: 0
XAxis mode: Wavelengths
Number of Pixels in Spectrum: 2048
>>>>>Begin Spectral Data<<<<<
223.165	-22.94
223.4	-22.94
223.635	-22.94
223.869	-15.94
224.104	-21.94
224.338	-5.94
224.573	-16.94
224.808	-10.94
225.042	-5.94
225.277	1.06
225.511	-3.94
225.746	2.06
225.98	8.06
226.215	11.06
226.449	19.06
226.683	21.06
226.918	12.06
227.152	30.06
227.387	30.06
227.621	35.06
227.856	24.06
228.09	36.06
228.324	50.06
228.559	59.06
228.793	60.06
229.027	59.06
229.262	55.06
229.496	68.06
229.73	110.06
229.964	90.06
230.199	81.06
230.433	68.06
230.667	84.06
230.901	81.06
231.136	69.06
231.37	82.06
231.604	91.06
231.838	73.06
232.072	82.06
232.306	88.06
232.541	88.06
232.775	86.06
233.009	88.06
233.243	73.06
233.477	84.06
233.711	91.06
233.945	94.06
234.179	81.06
234.413	76.06
234.647	82.06
234.881	85.06
235.115	88.06
235.349	101.06
235.583	82.06
235.817	79.06
236.051	83.06
236.285	91.06
236.519	72.06
236.753	81.06
236.987	76.06
237.221	97.06
237.455	100.06
237.689	75.06
237.922	91.06
238.156	79.06
238.39	87.06
238.624	80.06
238.858	50.06
239.091	82.06
239.325	81.06
239.559	84.06
239.793	77.06
240.027	91.06
240.26	92.06
240.494	62.06
240.728	77.06
240.961	73.06
241.195	83.06
241.429	93.06
241.662	81.06
241.896	66.06
242.13	76.06
242.363	91.06
242.597	87.06
242.83	81.06
243.064	71.06
243.298	66.06
243.531	87.06
243.765	71.06
243.998	71.06
244.232	88.06
244.465	92.06
244.699	86.06
244.932	81.06
245.166	80.06
245.399	72.06
245.633	86.06
245.866	79.06
246.099	81.06
246.333	95.06
246.566	76.06
246.8	87.06
247.033	84.06
247.266	78.06
247.5	91.06
247.733	82.06
247.966	87.06
248.2	95.06
248.433	84.06
248.666	85.06
248.899	84.06
249.133	81.06
249.366	107.06
249.599	108.06
249.832	86.06
250.066	91.06
250.299	94.06
250.532	95.06
250.765	102.06
250.998	80.06
251.231	87.06
251.465	96.06
251.698	83.06
251.931	86.06
252.164	87.06
252.397	92.06
252.63	94.06
252.863	86.06
253.096	90.06
253.329	67.06
253.562	76.06
253.795	83.06
254.028	79.06
254.261	92.06
254.494	68.06
254.727	84.06
254.96	82.06
255.193	87.06
255.426	88.06
255.659	74.06
255.892	79.06
256.124	91.06
256.357	87.06
256.59	91.06
256.823	83.06
257.056	75.06
257.289	92.06
257.521	90.06
257.754	94.06
257.987	93.06
258.22	90.06
258.452	107.06
258.685	94.06
258.918	70.06
259.151	99.06
259.383	86.06
259.616	80.06
259.849	87.06
260.081	107.06
260.314	78.06
260.547	75.06
260.779	100.06
261.012	104.06
261.244	107.06
261.477	102.06
261.71	119.06
261.942	125.06
262.175	147.06
262.407	111.06
262.64	84.06
262.872	85.06
263.105	94.06
263.337	84.06
263.57	96.06
263.802	99.06
264.035	74.06
264.267	85.06
264.499	81.06
264.732	88.06
264.964	84.06
265.197	86.06
265.429	91.06
265.661	89.06
265.894	79.06
266.126	72.06
266.358	83.06
266.591	77.06
266.823	86.06
267.055	90.06
267.287	78.06
267.52	100.06
267.752	98.06
267.984	92.06
268.216	89.06
268.448	89.06
268.681	79.06
268.913	75.06
269.145	95.06
269.377	85.06
269.609	86.06
269.841	97.06
270.073	82.06
270.306	75.06
270.538	86.06
270.77	82.06
271.002	87.06
271.234	87.06
271.466	100.06
271.698	84.06
271.93	85.06
272.162	92.06
272.394	102.06
272.626	84.06
272.858	74.06
273.09	85.06
273.322	92.06
273.553	82.06
273.785	75.06
274.017	68.06
274.249	83.06
274.481	77.06
274.713	85.06
274.945	85.06
275.176	95.06
275.408	99.06
275.64	99.06
275.872	119.06
276.104	100.06
276.335	94.06
276.567	107.06
276.799	144.06
277.031	146.06
277.262	162.06
277.494	123.06
277.726	110.06
277.957	100.06
278.189	77.06
278.421	85.06
278.652	95.06
278.884	80.06
279.115	90.06
279.347	93.06
279.579	92.06
279.81	116.06
280.042	162.06
280.273	193.06
280.505	148.06
280.736	103.06
280.968	96.06
281.199	95.06
281.431	100.06
281.662	96.06
281.894	94.06
282.125	123.06
282.356	144.06
282.588	179.06
282.819	128.06
283.051	95.06
283.282	94.06
283.513	90.06
283.745	96.06
283.976	102.06
284.207	86.06
284.439	99.06
284.67	102.06
284.901	98.06
285.132	101.06
285.364	101.06
285.595	88.06
285.826	92.06
286.057	90.06
286.288	86.06
286.52	94.06
286.751	95.06
286.982	96.06
287.213	91.06
287.444	81.06
287.675	110.06
287.906	107.06
288.138	107.06
288.369	104.06
288.6	92.06
288.831	94.06
289.062	84.06
289.293	87.06
289.524	92.06
289.755	83.06
289.986	93.06
290.217	90.06
290.448	85.06
290.679	83.06
290.91	92.06
291.141	87.06
291.371	95.06
291.602	97.06
291.833	84.06
292.064	101.06
292.295	88.06
292.526	87.06
292.757	94.06
292.987	87.06
293.218	92.06
293.449	90.06
293.68	88.06
293.91	76.06
294.141	93.06
294.372	99.06
294.603	84.06
294.833	100.06
295.064	91.06
295.295	81.06
295.525	89.06
295.756	106.06
295.987	115.06
296.217	168.06
296.448	151.06
296.679	106.06
296.909	84.06
297.14	98.06
297.37	92.06
297.601	81.06
297.831	101.06
298.062	100.06
298.292	99.06
298.523	88.06
298.753	78.06
298.984	88.06
299.214	84.06
299.445	99.06
299.675	104.06
299.905	93.06
300.136	84.06
300.366	94.06
300.597	96.06
300.827	87.06
301.057	107.06
301.288	115.06
301.518	98.06
301.748	98.06
301.979	97.06
302.209	120.06
302.439	94.06
302.669	116.06
302.9	94.06
303.13	92.06
303.36	100.06
303.59	118.06
303.82	130.06
304.051	101.06
304.281	97.06
304.511	88.06
304.741	81.06
304.971	89.06
305.201	103.06
305.431	95.06
305.661	103.06
305.891	99.06
306.121	110.06
306.352	121.06
306.582	114.06
306.812	106.06
307.042	116.06
307.272	143.06
307.502	154.06
307.731	145.06
307.961	122.06
308.191	101.06
308.421	102.06
308.651	104.06
308.881	100.06
309.111	101.06
309.341	91.06
309.571	88.06
309.8	113.06
310.03	115.06
310.26	115.06
310.49	102.06
310.72	114.06
310.949	126.06
311.179	111.06
311.409	101.06
311.639	96.06
311.868	109.06
312.098	103.06
312.328	109.06
312.557	115.06
312.787	127.06
313.017	106.06
313.246	102.06
313.476	85.06
313.706	95.06
313.935	112.06
314.165	117.06
314.394	131.06
314.624	122.06
314.853	100.06
315.083	115.06
315.312	105.06
315.542	94.06
315.771	91.06
316.001	93.06
316.23	91.06
316.46	98.06
316.689	98.06
316.919	94.06
317.148	103.06
317.377	95.06
317.607	108.06
317.836	95.06
318.065	93.06
318.295	91.06
318.524	79.06
318.753	100.06
318.983	95.06
319.212	112.06
319.441	118.06
319.67	127.06
319.9	95.06
320.129	111.06
320.358	98.06
320.587	98.06
320.816	113.06
321.046	106.06
321.275	96.06
321.504	106.06
321.733	104.06
321.962	111.06
322.191	99.06
322.42	99.06
322.649	124.06
322.878	125.06
323.108	142.06
323.337	139.06
323.566	159.06
323.795	195.06
324.024	266.06
324.253	526.06
324.482	1110.06
324.71	2324.06
324.939	3053.06
325.168	1142.06
325.397	318.06
325.626	171.06
325.855	150.06
326.084	150.06
326.313	166.06
326.542	173.06
326.77	281.06
326.999	566.06
327.228	1235.06
327.457	2243.06
327.686	1777.06
327.914	564.06
328.143	451.06
328.372	516.06
328.6	289.06
328.829	177.06
329.058	180.06
329.287	206.06
329.515	180.06
329.744	215.06
329.972	373.06
330.201	709.06
330.43	1047.06
330.658	514.06
330.887	264.06
331.115	176.06
331.344	146.06
331.572	115.06
331.801	128.06
332.03	123.06
332.258	113.06
332.486	99.06
332.715	111.06
332.943	114.06
333.172	124.06
333.4	134.06
333.629	158.06
333.857	203.06
334.085	355.06
334.314	691.06
334.542	1294.06
334.771	1247.06
334.999	354.06
335.227	164.06
335.455	117.06
335.684	117.06
335.912	95.06
336.14	114.06
336.369	119.06
336.597	109.06
336.825	114.06
337.053	99.06
337.281	97.06
337.51	98.06
337.738	106.06
337.966	93.06
338.194	100.06
338.422	134.06
338.65	93.06
338.878	84.06
339.106	92.06
339.334	85.06
339.562	98.06
339.79	89.06
340.018	90.06
340.246	103.06
340.474	98.06
340.702	115.06
340.93	97.06
341.158	100.06
341.386	112.06
341.614	105.06
341.842	113.06
342.07	127.06
342.298	92.06
342.526	96.06
342.754	98.06
342.981	84.06
343.209	108.06
343.437	124.06
343.665	87.06
343.893	99.06
344.12	89.06
344.348	106.06
344.576	102.06
344.804	104.06
345.031	109.06
345.259	113.06
345.487	107.06
345.714	98.06
345.942	100.06
346.17	99.06
346.397	86.06
346.625	103.06
346.853	92.06
347.08	98.06
347.308	116.06
347.535	110.06
347.763	102.06
347.99	106.06
348.218	106.06
348.445	112.06
348.673	125.06
348.9	107.06
349.128	112.06
349.355	85.06
349.583	98.06
349.81	105.06
350.037	109.06
350.265	103.06
350.492	83.06
350.72	101.06
350.947	107.06
351.174	131.06
351.402	125.06
351.629	124.06
351.856	116.06
352.083	106.06
352.311	117.06
352.538	139.06
352.765	127.06
352.992	129.06
353.22	127.06
353.447	109.06
353.674	109.06
353.901	106.06
354.128	99.06
354.355	105.06
354.583	96.06
354.81	114.06
355.037	90.06
355.264	97.06
355.491	108.06
355.718	91.06
355.945	104.06
356.172	103.06
356.399	102.06
356.626	88.06
356.853	101.06
357.08	87.06
357.307	91.06
357.534	88.06
357.761	83.06
357.988	94.06
358.215	95.06
358.441	86.06
358.668	91.06
358.895	95.06
359.122	103.06
359.349	87.06
359.576	103.06
359.802	111.06
360.029	151.06
360.256	127.06
360.483	119.06
360.709	93.06
360.936	86.06
361.163	82.06
361.39	116.06
361.616	107.06
361.843	98.06
362.07	112.06
362.296	96.06
362.523	94.06
362.749	124.06
362.976	103.06
363.203	101.06
363.429	96.06
363.656	98.06
363.882	99.06
364.109	99.06
364.335	100.06
364.562	113.06
364.788	93.06
365.015	100.06
365.241	111.06
365.468	120.06
365.694	123.06
365.92	89.06
366.147	98.06
366.373	86.06
366.599	97.06
366.826	105.06
367.052	102.06
367.278	101.06
367.505	94.06
367.731	106.06
367.957	106.06
368.184	107.06
368.41	114.06
368.636	115.06
368.862	132.06
369.089	126.06
369.315	110.06
369.541	107.06
369.767	100.06
369.993	106.06
370.219	98.06
370.445	91.06
370.672	82.06
370.898	85.06
371.124	92.06
371.35	88.06
371.576	87.06
371.802	75.06
372.028	86.06
372.254	76.06
372.48	87.06
372.706	103.06
372.932	95.06
373.158	104.06
373.384	108.06
373.61	96.06
373.835	87.06
374.061	92.06
374.287	105.06
374.513	97.06
374.739	96.06
374.965	99.06
375.191	98.06
375.416	93.06
375.642	96.06
375.868	90.06
376.094	92.06
376.319	86.06
376.545	105.06
376.771	92.06
376.997	96.06
377.222	91.06
377.448	100.06
377.674	91.06
377.899	80.06
378.125	81.06
378.35	90.06
378.576	93.06
378.802	92.06
379.027	80.06
379.253	93.06
379.478	92.06
379.704	96.06
379.929	80.06
380.155	93.06
380.38	88.06
380.606	99.06
380.831	105.06
381.057	94.06
381.282	86.06
381.507	87.06
381.733	103.06
381.958	99.06
382.184	97.06
382.409	111.06
382.634	104.06
382.86	106.06
383.085	104.06
383.31	91.06
383.535	106.06
383.761	104.06
383.986	90.06
384.211	97.06
384.436	104.06
384.662	103.06
384.887	114.06
385.112	114.06
385.337	98.06
385.562	104.06
385.787	103.06
386.013	123.06
386.238	123.06
386.463	102.06
386.688	96.06
386.913	104.06
387.138	105.06
387.363	97.06
387.588	102.06
387.813	99.06
388.038	88.06
388.263	116.06
388.488	112.06
388.713	100.06
388.938	94.06
389.163	102.06
389.387	98.06
389.612	94.06
389.837	90.06
390.062	86.06
390.287	93.06
390.512	82.06
390.736	94.06
390.961	99.06
391.186	89.06
391.411	102.06
391.636	89.06
391.86	86.06
392.085	91.06
392.31	97.06
392.534	107.06
392.759	95.06
392.984	84.06
393.208	93.06
393.433	92.06
393.658	90.06
393.882	97.06
394.107	102.06
394.331	95.06
394.556	89.06
394.78	98.06
395.005	89.06
395.229	92.06
395.454	83.06
395.678	95.06
395.903	107.06
396.127	96.06
396.352	86.06
396.576	86.06
396.801	88.06
397.025	83.06
397.249	95.06
397.474	97.06
397.698	79.06
397.922	97.06
398.147	96.06
398.371	98.06
398.595	85.06
398.82	88.06
399.044	92.06
399.268	90.06
399.492	96.06
399.717	90.06
399.941	93.06
400.165	87.06
400.389	91.06
400.613	85.06
400.837	87.06
401.062	100.06
401.286	109.06
401.51	108.06
401.734	122.06
401.958	121.06
402.182	140.06
402.406	209.06
402.63	160.06
402.854	106.06
403.078	99.06
403.302	98.06
403.526	81.06
403.75	90.06
403.974	86.06
404.198	92.06
404.422	96.06
404.645	90.06
404.869	97.06
405.093	113.06
405.317	139.06
405.541	132.06
405.765	124.06
405.988	142.06
406.212	216.06
406.436	335.06
406.66	214.06
406.883	131.06
407.107	112.06
407.331	91.06
407.555	119.06
407.778	123.06
408.002	103.06
408.226	102.06
408.449	104.06
408.673	88.06
408.896	91.06
409.12	102.06
409.344	96.06
409.567	95.06
409.791	93.06
410.014	96.06
410.238	116.06
410.461	91.06
410.685	106.06
410.908	109.06
411.132	95.06
411.355	114.06
411.578	116.06
411.802	92.06
412.025	88.06
412.249	100.06
412.472	116.06
412.695	130.06
412.919	116.06
413.142	88.06
413.365	102.06
413.589	98.06
413.812	88.06
414.035	83.06
414.258	84.06
414.482	89.06
414.705	94.06
414.928	93.06
415.151	103.06
415.374	110.06
415.597	84.06
415.821	89.06
416.044	95.06
416.267	88.06
416.49	82.06
416.713	98.06
416.936	79.06
417.159	100.06
417.382	97.06
417.605	109.06
417.828	101.06
418.051	112.06
418.274	82.06
418.497	98.06
418.72	88.06
418.943	100.06
419.166	107.06
419.389	88.06
419.611	79.06
419.834	95.06
420.057	88.06
420.28	105.06
420.503	100.06
420.726	97.06
420.948	98.06
421.171	119.06
421.394	102.06
421.617	94.06
421.839	101.06
422.062	92.06
422.285	82.06
422.507	106.06
422.73	109.06
422.953	116.06
423.175	88.06
423.398	88.06
423.621	96.06
423.843	78.06
424.066	92.06
424.288	95.06
424.511	106.06
424.733	98.06
424.956	135.06
425.178	109.06
425.401	103.06
425.623	115.06
425.846	99.06
426.068	108.06
426.291	94.06
426.513	110.06
426.735	95.06
426.958	97.06
427.18	116.06
427.402	189.06
427.625	269.06
427.847	235.06
428.069	203.06
428.292	139.06
428.514	104.06
428.736	81.06
428.958	84.06
429.181	93.06
429.403	95.06
429.625	94.06
429.847	108.06
430.069	127.06
430.292	111.06
430.514	83.06
430.736	87.06
430.958	90.06
431.18	98.06
431.402	100.06
431.624	77.06
431.846	77.06
432.068	92.06
432.29	81.06
432.512	94.06
432.734	90.06
432.956	94.06
433.178	94.06
433.4	110.06
433.622	93.06
433.844	96.06
434.066	85.06
434.287	96.06
434.509	82.06
434.731	79.06
434.953	88.06
435.175	100.06
435.397	116.06
435.618	104.06
435.84	119.06
436.062	139.06
436.284	145.06
436.505	115.06
436.727	106.06
436.949	93.06
437.17	97.06
437.392	83.06
437.614	101.06
437.835	143.06
438.057	167.06
438.278	147.06
438.5	123.06
438.721	149.06
438.943	110.06
439.165	99.06
439.386	94.06
439.608	84.06
439.829	124.06
440.05	165.06
440.272	211.06
440.493	113.06
440.715	97.06
440.936	92.06
441.158	94.06
441.379	93.06
441.6	118.06
441.822	102.06
442.043	102.06
442.264	130.06
442.486	128.06
442.707	106.06
442.928	130.06
443.149	176.06
443.371	172.06
443.592	147.06
443.813	146.06
444.034	121.06
444.255	90.06
444.476	94.06
444.698	84.06
444.919	91.06
445.14	154.06
445.361	142.06
445.582	151.06
445.803	190.06
446.024	195.06
446.245	180.06
446.466	142.06
446.687	81.06
446.908	100.06
447.129	105.06
447.35	98.06
447.571	90.06
447.792	112.06
448.013	107.06
448.234	112.06
448.455	111.06
448.675	139.06
448.896	158.06
449.117	111.06
449.338	122.06
449.559	156.06
449.779	166.06
450	118.06
450.221	109.06
450.442	105.06
450.662	107.06
450.883	122.06
451.104	143.06
451.324	111.06
451.545	95.06
451.766	82.06
451.986	86.06
452.207	90.06
452.428	105.06
452.648	105.06
452.869	123.06
453.089	136.06
453.31	150.06
453.53	98.06
453.751	105.06
453.971	122.06
454.192	128.06
454.412	122.06
454.633	103.06
454.853	92.06
455.073	94.06
455.294	110.06
455.514	118.06
455.734	86.06
455.955	94.06
456.175	92.06
456.395	83.06
456.616	88.06
456.836	92.06
457.056	81.06
457.276	85.06
457.497	85.06
457.717	97.06
457.937	86.06
458.157	92.06
458.377	102.06
458.598	135.06
458.818	216.06
459.038	235.06
459.258	142.06
459.478	101.06
459.698	94.06
459.918	85.06
460.138	100.06
460.358	88.06
460.578	90.06
460.798	99.06
461.018	96.06
461.238	80.06
461.458	91.06
461.678	91.06
461.898	82.06
462.118	85.06
462.338	97.06
462.558	94.06
462.777	99.06
462.997	90.06
463.217	99.06
463.437	103.06
463.657	92.06
463.876	88.06
464.096	98.06
464.316	99.06
464.536	105.06
464.755	110.06
464.975	120.06
465.195	236.06
465.414	232.06
465.634	121.06
465.854	90.06
466.073	90.06
466.293	92.06
466.512	93.06
466.732	96.06
466.951	96.06
467.171	101.06
467.391	111.06
467.61	144.06
467.829	173.06
468.049	391.06
468.268	589.06
468.488	178.06
468.707	102.06
468.927	81.06
469.146	95.06
469.365	96.06
469.585	95.06
469.804	103.06
470.023	109.06
470.243	107.06
470.462	129.06
470.681	140.06
470.901	115.06
471.12	93.06
471.339	117.06
471.558	104.06
471.777	128.06
471.997	227.06
472.216	768.06
472.435	1678.06
472.654	435.06
472.873	152.06
473.092	100.06
473.311	97.06
473.53	101.06
473.749	88.06
473.968	102.06
474.187	129.06
474.406	113.06
474.625	110.06
474.844	98.06
475.063	89.06
475.282	97.06
475.501	98.06
475.72	96.06
475.939	107.06
476.158	96.06
476.377	83.06
476.596	93.06
476.814	99.06
477.033	104.06
477.252	104.06
477.471	81.06
477.69	106.06
477.908	96.06
478.127	99.06
478.346	108.06
478.564	111.06
478.783	118.06
479.002	115.06
479.22	108.06
479.439	141.06
479.658	146.06
479.876	110.06
480.095	104.06
480.313	124.06
480.532	135.06
480.751	227.06
480.969	707.06
481.188	2950.06
481.406	1812.06
481.624	286.06
481.843	130.06
482.061	112.06
482.28	112.06
482.498	104.06
482.717	95.06
482.935	90.06
483.153	83.06
483.372	91.06
483.59	93.06
483.808	92.06
484.027	87.06
484.245	97.06
484.463	106.06
484.681	105.06
484.9	92.06
485.118	86.06
485.336	103.06
485.554	90.06
485.772	97.06
485.99	96.06
486.209	99.06
486.427	104.06
486.645	127.06
486.863	131.06
487.081	114.06
487.299	110.06
487.517	104.06
487.735	93.06
487.953	102.06
488.171	109.06
488.389	108.06
488.607	101.06
488.825	88.06
489.043	97.06
489.261	92.06
489.479	88.06
489.696	104.06
489.914	99.06
490.132	87.06
490.35	87.06
490.568	91.06
490.786	87.06
491.003	99.06
491.221	94.06
491.439	109.06
491.657	98.06
491.874	102.06
492.092	96.06
492.31	107.06
492.527	95.06
492.745	106.06
492.963	100.06
493.18	96.06
493.398	111.06
493.615	107.06
493.833	88.06
494.05	83.06
494.268	94.06
494.485	92.06
494.703	88.06
494.92	88.06
495.138	83.06
495.355	98.06
495.573	100.06
495.79	97.06
496.008	95.06
496.225	95.06
496.442	85.06
496.66	93.06
496.877	95.06
497.094	112.06
497.312	101.06
497.529	90.06
497.746	97.06
497.963	95.06
498.181	108.06
498.398	101.06
498.615	134.06
498.832	123.06
499.049	98.06
499.267	100.06
499.484	104.06
499.701	94.06
499.918	90.06
500.135	83.06
500.352	101.06
500.569	100.06
500.786	110.06
501.003	96.06
501.22	106.06
501.437	116.06
501.654	112.06
501.871	130.06
502.088	102.06
502.305	78.06
502.522	96.06
502.739	99.06
502.956	83.06
503.172	96.06
503.389	105.06
503.606	126.06
503.823	117.06
504.04	113.06
504.256	85.06
504.473	108.06
504.69	91.06
504.907	88.06
505.123	98.06
505.34	100.06
505.557	93.06
505.773	94.06
505.99	95.06
506.207	86.06
506.423	91.06
506.64	92.06
506.856	91.06
507.073	98.06
507.289	107.06
507.506	115.06
507.722	134.06
507.939	127.06
508.155	108.06
508.372	108.06
508.588	104.06
508.805	97.06
509.021	105.06
509.238	94.06
509.454	102.06
509.67	109.06
509.887	128.06
510.103	149.06
510.319	254.06
510.536	977.06
510.752	3370.06
510.968	926.06
511.184	188.06
511.401	134.06
511.617	104.06
511.833	100.06
512.049	112.06
512.265	101.06
512.481	92.06
512.698	99.06
512.914	95.06
513.13	96.06
513.346	111.06
513.562	96.06
513.778	107.06
513.994	116.06
514.21	135.06
514.426	141.06
514.642	179.06
514.858	164.06
515.074	247.06
515.29	733.06
515.506	2701.06
515.721	972.06
515.937	240.06
516.153	150.06
516.369	108.06
516.585	105.06
516.801	111.06
517.016	119.06
517.232	109.06
517.448	104.06
517.664	106.06
517.879	100.06
518.095	103.06
518.311	99.06
518.527	108.06
518.742	93.06
518.958	100.06
519.173	115.06
519.389	109.06
519.605	98.06
519.82	110.06
520.036	124.06
520.251	142.06
520.467	130.06
520.682	114.06
520.898	130.06
521.113	133.06
521.329	199.06
521.544	304.06
521.76	965.06
521.975	4510.06
522.19	2710.06
522.406	539.06
522.621	167.06
522.836	122.06
523.052	117.06
523.267	101.06
523.482	103.06
523.698	115.06
523.913	144.06
524.128	122.06
524.343	92.06
524.559	101.06
524.774	91.06
524.989	111.06
525.204	134.06
525.419	118.06
525.634	100.06
525.849	81.06
526.064	101.06
526.28	97.06
526.495	97.06
526.71	103.06
526.925	85.06
527.14	75.06
527.355	96.06
527.57	87.06
527.785	78.06
527.999	84.06
528.214	94.06
528.429	98.06
528.644	97.06
528.859	86.06
529.074	110.06
529.289	149.06
529.503	288.06
529.718	118.06
529.933	95.06
530.148	103.06
530.363	97.06
530.577	108.06
530.792	91.06
531.007	97.06
531.221	101.06
531.436	93.06
531.651	98.06
531.865	93.06
532.08	91.06
532.295	91.06
532.509	90.06
532.724	101.06
532.938	88.06
533.153	115.06
533.367	103.06
533.582	91.06
533.796	91.06
534.011	104.06
534.225	98.06
534.44	89.06
534.654	97.06
534.868	83.06
535.083	96.06
535.297	102.06
535.511	115.06
535.726	121.06
535.94	112.06
536.154	110.06
536.369	119.06
536.583	103.06
536.797	101.06
537.011	106.06
537.225	93.06
537.44	107.06
537.654	100.06
537.868	86.06
538.082	100.06
538.296	85.06
538.51	103.06
538.724	88.06
538.938	91.06
539.153	104.06
539.367	127.06
539.581	101.06
539.795	100.06
540.009	95.06
540.222	99.06
540.436	105.06
540.65	93.06
540.864	109.06
541.078	107.06
541.292	95.06
541.506	92.06
541.72	86.06
541.934	91.06
542.147	90.06
542.361	94.06
542.575	98.06
542.789	88.06
543.002	97.06
543.216	95.06
543.43	117.06
543.644	88.06
543.857	87.06
544.071	95.06
544.285	102.06
544.498	106.06
544.712	104.06
544.925	94.06
545.139	94.06
545.352	102.06
545.566	82.06
545.779	75.06
545.993	95.06
546.206	94.06
546.42	110.06
546.633	99.06
546.847	102.06
547.06	102.06
547.274	96.06
547.487	94.06
547.7	104.06
547.914	92.06
548.127	98.06
548.34	98.06
548.554	97.06
548.767	85.06
548.98	94.06
549.193	99.06
549.407	104.06
549.62	94.06
549.833	100.06
550.046	94.06
550.259	96.06
550.473	94.06
550.686	83.06
550.899	103.06
551.112	98.06
551.325	96.06
551.538	103.06
551.751	104.06
551.964	70.06
552.177	88.06
552.39	92.06
552.603	90.06
552.816	101.06
553.029	89.06
553.242	94.06
553.455	111.06
553.667	124.06
553.88	118.06
554.093	111.06
554.306	81.06
554.519	107.06
554.732	102.06
554.944	93.06
555.157	103.06
555.37	104.06
555.583	92.06
555.795	95.06
556.008	95.06
556.221	97.06
556.433	95.06
556.646	111.06
556.859	87.06
557.071	80.06
557.284	94.06
557.496	102.06
557.709	80.06
557.921	91.06
558.134	82.06
558.346	80.06
558.559	90.06
558.771	99.06
558.984	90.06
559.196	89.06
559.409	88.06
559.621	98.06
559.833	91.06
560.046	95.06
560.258	105.06
560.47	114.06
560.683	96.06
560.895	95.06
561.107	93.06
561.32	84.06
561.532	91.06
561.744	79.06
561.956	86.06
562.168	90.06
562.381	91.06
562.593	93.06
562.805	106.06
563.017	92.06
563.229	89.06
563.441	99.06
563.653	85.06
563.865	91.06
564.077	90.06
564.289	104.06
564.501	68.06
564.713	93.06
564.925	99.06
565.137	115.06
565.349	92.06
565.561	90.06
565.773	91.06
565.985	89.06
566.197	69.06
566.408	107.06
566.62	98.06
566.832	93.06
567.044	86.06
567.255	86.06
567.467	86.06
567.679	95.06
567.891	99.06
568.102	94.06
568.314	91.06
568.526	95.06
568.737	98.06
568.949	94.06
569.161	90.06
569.372	98.06
569.584	92.06
569.795	92.06
570.007	125.06
570.218	299.06
570.43	179.06
570.641	95.06
570.853	90.06
571.064	92.06
571.276	77.06
571.487	94.06
571.698	90.06
571.91	99.06
572.121	103.06
572.333	90.06
572.544	84.06
572.755	85.06
572.966	94.06
573.178	86.06
573.389	92.06
573.6	109.06
573.811	94.06
574.023	93.06
574.234	88.06
574.445	95.06
574.656	94.06
574.867	108.06
575.078	106.06
575.289	102.06
575.501	87.06
575.712	85.06
575.923	84.06
576.134	88.06
576.345	98.06
576.556	96.06
576.767	88.06
576.978	92.06
577.188	88.06
577.399	89.06
577.61	104.06
577.821	99.06
578.032	132.06
578.243	332.06
578.454	1072.06
578.665	262.06
578.875	110.06
579.086	106.06
579.297	107.06
579.508	96.06
579.718	97.06
579.929	92.06
580.14	88.06
580.35	96.06
580.561	114.06
580.772	94.06
580.982	87.06
581.193	84.06
581.403	93.06
581.614	96.06
581.825	80.06
582.035	96.06
582.246	113.06
582.456	83.06
582.667	96.06
582.877	90.06
583.087	71.06
583.298	86.06
583.508	81.06
583.719	96.06
583.929	89.06
584.139	88.06
584.35	78.06
584.56	83.06
584.77	91.06
584.981	83.06
585.191	95.06
585.401	103.06
585.611	93.06
585.821	82.06
586.032	100.06
586.242	88.06
586.452	101.06
586.662	85.06
586.872	92.06
587.082	96.06
587.292	88.06
587.502	91.06
587.713	100.06
587.923	87.06
588.133	85.06
588.343	80.06
588.553	93.06
588.762	95.06
588.972	96.06
589.182	110.06
589.392	92.06
589.602	85.06
589.812	91.06
590.022	85.06
590.232	103.06
590.441	96.06
590.651	101.06
590.861	88.06
591.071	90.06
591.281	77.06
591.49	98.06
591.7	83.06
591.91	86.06
592.119	81.06
592.329	107.06
592.539	100.06
592.748	90.06
592.958	88.06
593.167	79.06
593.377	92.06
593.587	98.06
593.796	85.06
594.006	106.06
594.215	71.06
594.424	81.06
594.634	80.06
594.843	90.06
595.053	92.06
595.262	80.06
595.472	97.06
595.681	95.06
595.89	83.06
596.1	77.06
596.309	97.06
596.518	82.06
596.727	107.06
596.937	94.06
597.146	95.06
597.355	86.06
597.564	89.06
597.774	92.06
597.983	95.06
598.192	88.06
598.401	77.06
598.61	92.06
598.819	98.06
599.028	106.06
599.237	87.06
599.446	98.06
599.655	78.06
599.864	97.06
600.073	98.06
600.282	94.06
600.491	85.06
600.7	95.06
600.909	85.06
601.118	99.06
601.327	95.06
601.536	99.06
601.745	95.06
601.953	101.06
602.162	90.06
602.371	97.06
602.58	95.06
602.789	89.06
602.997	96.06
603.206	78.06
603.415	91.06
603.623	93.06
603.832	95.06
604.041	98.06
604.249	85.06
604.458	89.06
604.666	88.06
604.875	83.06
605.084	78.06
605.292	80.06
605.501	85.06
605.709	84.06
605.918	92.06
606.126	73.06
606.334	92.06
606.543	83.06
606.751	104.06
606.96	88.06
607.168	88.06
607.376	90.06
607.585	85.06
607.793	86.06
608.001	96.06
608.21	80.06
608.418	81.06
608.626	77.06
608.834	95.06
609.043	86.06
609.251	80.06
609.459	86.06
609.667	109.06
609.875	85.06
610.083	96.06
610.291	94.06
610.499	92.06
610.707	95.06
610.916	90.06
611.124	86.06
611.332	111.06
611.54	91.06
611.748	83.06
611.955	82.06
612.163	88.06
612.371	99.06
612.579	90.06
612.787	105.06
612.995	107.06
613.203	86.06
613.411	87.06
613.618	87.06
613.826	73.06
614.034	86.06
614.242	96.06
614.449	95.06
614.657	106.06
614.865	92.06
615.072	87.06
615.28	93.06
615.488	75.06
615.695	96.06
615.903	87.06
616.111	108.06
616.318	85.06
616.526	83.06
616.733	87.06
616.941	88.06
617.148	102.06
617.356	95.06
617.563	104.06
617.771	97.06
617.978	76.06
618.185	90.06
618.393	92.06
618.6	80.06
618.807	100.06
619.015	84.06
619.222	78.06
619.429	74.06
619.637	91.06
619.844	88.06
620.051	100.06
620.258	98.06
620.466	86.06
620.673	95.06
620.88	75.06
621.087	85.06
621.294	78.06
621.501	92.06
621.708	87.06
621.915	101.06
622.122	86.06
622.329	74.06
622.536	95.06
622.743	88.06
622.95	80.06
623.157	86.06
623.364	106.06
623.571	87.06
623.778	86.06
623.985	76.06
624.192	85.06
624.399	81.06
624.606	84.06
624.812	85.06
625.019	91.06
625.226	83.06
625.433	84.06
625.639	94.06
625.846	97.06
626.053	83.06
626.259	93.06
626.466	86.06
626.673	88.06
626.879	92.06
627.086	92.06
627.293	109.06
627.499	94.06
627.706	97.06
627.912	91.06
628.119	87.06
628.325	72.06
628.532	70.06
628.738	95.06
628.945	91.06
629.151	99.06
629.357	77.06
629.564	85.06
629.77	90.06
629.976	86.06
630.183	98.06
630.389	84.06
630.595	88.06
630.802	83.06
631.008	100.06
631.214	96.06
631.42	70.06
631.627	66.06
631.833	86.06
632.039	87.06
632.245	82.06
632.451	88.06
632.657	102.06
632.863	92.06
633.069	81.06
633.275	101.06
633.481	94.06
633.688	88.06
633.893	73.06
634.099	97.06
634.305	81.06
634.511	86.06
634.717	86.06
634.923	95.06
635.129	96.06
635.335	103.06
635.541	84.06
635.747	91.06
635.952	87.06
636.158	129.06
636.364	300.06
636.57	246.06
636.775	105.06
636.981	83.06
637.187	93.06
637.392	108.06
637.598	76.06
637.804	85.06
638.009	80.06
638.215	86.06
638.421	95.06
638.626	85.06
638.832	92.06
639.037	90.06
639.243	87.06
639.448	82.06
639.654	87.06
639.859	94.06
640.065	95.06
640.27	84.06
640.475	78.06
640.681	91.06
640.886	85.06
641.091	93.06
641.297	91.06
641.502	97.06
641.707	91.06
641.913	98.06
642.118	94.06
642.323	87.06
642.528	91.06
642.733	91.06
642.939	91.06
643.144	81.06
643.349	90.06
643.554	81.06
643.759	94.06
643.964	81.06
644.169	84.06
644.374	88.06
644.579	86.06
644.784	88.06
644.989	82.06
645.194	88.06
645.399	78.06
645.604	96.06
645.809	88.06
646.014	75.06
646.219	83.06
646.423	100.06
646.628	106.06
646.833	96.06
647.038	95.06
647.243	80.06
647.447	85.06
647.652	96.06
647.857	80.06
648.062	83.06
648.266	84.06
648.471	100.06
648.676	103.06
648.88	102.06
649.085	87.06
649.289	95.06
649.494	113.06
649.698	148.06
649.903	108.06
650.107	104.06
650.312	96.06
650.516	79.06
650.721	84.06
650.925	90.06
651.13	87.06
651.334	77.06
651.539	82.06
651.743	73.06
651.947	88.06
652.152	84.06
652.356	84.06
652.56	79.06
652.764	82.06
652.969	87.06
653.173	87.06
653.377	88.06
653.581	88.06
653.785	85.06
653.99	80.06
654.194	79.06
654.398	81.06
654.602	82.06
654.806	99.06
655.01	110.06
655.214	98.06
655.418	93.06
655.622	97.06
655.826	80.06
656.03	89.06
656.234	84.06
656.438	109.06
656.642	97.06
656.846	87.06
657.049	92.06
657.253	81.06
657.457	84.06
657.661	80.06
657.865	87.06
658.068	82.06
658.272	85.06
658.476	81.06
658.68	92.06
658.883	76.06
659.087	83.06
659.291	98.06
659.494	88.06
659.698	91.06
659.901	85.06
660.105	85.06
660.309	97.06
660.512	93.06
660.716	82.06
660.919	86.06
661.123	89.06
661.326	85.06
661.53	93.06
661.733	90.06
661.936	93.06
662.14	80.06
662.343	89.06
662.546	88.06
662.75	96.06
662.953	83.06
663.156	76.06
663.36	85.06
663.563	81.06
663.766	86.06
663.969	78.06
664.173	85.06
664.376	75.06
664.579	90.06
664.782	101.06
664.985	91.06
665.188	85.06
665.391	86.06
665.594	78.06
665.797	71.06
666	82.06
666.203	78.06
666.406	92.06
666.609	95.06
666.812	96.06
667.015	96.06
667.218	79.06
667.421	83.06
667.624	94.06
667.827	80.06
668.03	75.06
668.232	91.06
668.435	66.06
668.638	74.06
668.841	77.06
669.043	68.06
669.246	88.06
669.449	82.06
669.651	92.06
669.854	82.06
670.057	97.06
670.259	86.06
670.462	86.06
670.665	77.06
670.867	86.06
671.07	90.06
671.272	100.06
671.475	92.06
671.677	75.06
671.88	85.06
672.082	85.06
672.284	103.06
672.487	85.06
672.689	75.06
672.892	70.06
