Data from Circ_2007_H10_HRD10591_00020.txt Node
Date: Wed Jan 03 10:22:01 EST 2024
User: Yrep
Spectrometer: HR+D1059
Trigger mode: 1
Integration Time (sec): 1.000000E-1
Scans to average: 1
Electric dark correction enabled: true
Nonlinearity correction enabled: false
Boxcar width: 0
XAxis mode: Wavelengths
Number of Pixels in Spectrum: 2048
>>>>>Begin Spectral Data<<<<<
223.165	-20.94
223.4	-20.94
223.635	-20.94
223.869	-15.94
224.104	-31.94
224.338	-11.94
224.573	-1.94
224.808	-19.94
225.042	-8.94
225.277	-4.94
225.511	6.06
225.746	7.06
225.98	3.06
226.215	14.06
226.449	21.06
226.683	18.06
226.918	22.06
227.152	25.06
227.387	32.06
227.621	34.06
227.856	38.06
228.09	27.06
228.324	41.06
228.559	59.06
228.793	58.06
229.027	69.06
229.262	73.06
229.496	80.06
229.73	94.06
229.964	94.06
230.199	76.06
230.433	69.06
230.667	74.06
230.901	74.06
231.136	95.06
231.37	81.06
231.604	71.06
231.838	84.06
232.072	83.06
232.306	86.06
232.541	85.06
232.775	75.06
233.009	75.06
233.243	85.06
233.477	77.06
233.711	91.06
233.945	95.06
234.179	78.06
234.413	84.06
234.647	73.06
234.881	63.06
235.115	85.06
235.349	83.06
235.583	74.06
235.817	97.06
236.051	81.06
236.285	75.06
236.519	80.06
236.753	81.06
236.987	78.06
237.221	99.06
237.455	82.06
237.689	81.06
237.922	74.06
238.156	94.06
238.39	65.06
238.624	72.06
238.858	67.06
239.091	78.06
239.325	59.06
239.559	75.06
239.793	87.06
240.027	75.06
240.26	81.06
240.494	63.06
240.728	82.06
240.961	67.06
241.195	71.06
241.429	78.06
241.662	78.06
241.896	85.06
242.13	72.06
242.363	77.06
242.597	73.06
242.83	90.06
243.064	79.06
243.298	59.06
243.531	89.06
243.765	76.06
243.998	89.06
244.232	90.06
244.465	81.06
244.699	71.06
244.932	80.06
245.166	70.06
245.399	75.06
245.633	78.06
245.866	78.06
246.099	76.06
246.333	76.06
246.566	81.06
246.8	80.06
247.033	83.06
247.266	89.06
247.5	80.06
247.733	78.06
247.966	83.06
248.2	70.06
248.433	68.06
248.666	80.06
248.899	81.06
249.133	99.06
249.366	94.06
249.599	97.06
249.832	90.06
250.066	95.06
250.299	89.06
250.532	88.06
250.765	84.06
250.998	87.06
251.231	79.06
251.465	75.06
251.698	89.06
251.931	85.06
252.164	76.06
252.397	77.06
252.63	78.06
252.863	82.06
253.096	71.06
253.329	83.06
253.562	82.06
253.795	73.06
254.028	89.06
254.261	90.06
254.494	83.06
254.727	90.06
254.96	79.06
255.193	101.06
255.426	95.06
255.659	91.06
255.892	71.06
256.124	91.06
256.357	78.06
256.59	85.06
256.823	92.06
257.056	87.06
257.289	96.06
257.521	79.06
257.754	72.06
257.987	69.06
258.22	85.06
258.452	84.06
258.685	81.06
258.918	80.06
259.151	78.06
259.383	81.06
259.616	79.06
259.849	76.06
260.081	91.06
260.314	79.06
260.547	76.06
260.779	79.06
261.012	90.06
261.244	88.06
261.477	96.06
261.71	79.06
261.942	118.06
262.175	133.06
262.407	96.06
262.64	79.06
262.872	83.06
263.105	98.06
263.337	92.06
263.57	83.06
263.802	85.06
264.035	84.06
264.267	82.06
264.499	80.06
264.732	77.06
264.964	85.06
265.197	98.06
265.429	75.06
265.661	78.06
265.894	83.06
266.126	78.06
266.358	94.06
266.591	85.06
266.823	79.06
267.055	93.06
267.287	95.06
267.52	81.06
267.752	77.06
267.984	87.06
268.216	75.06
268.448	83.06
268.681	78.06
268.913	60.06
269.145	73.06
269.377	90.06
269.609	76.06
269.841	81.06
270.073	74.06
270.306	63.06
270.538	84.06
270.77	84.06
271.002	79.06
271.234	75.06
271.466	77.06
271.698	85.06
271.93	69.06
272.162	86.06
272.394	70.06
272.626	83.06
272.858	89.06
273.09	74.06
273.322	92.06
273.553	79.06
273.785	90.06
274.017	87.06
274.249	77.06
274.481	84.06
274.713	91.06
274.945	94.06
275.176	81.06
275.408	90.06
275.64	90.06
275.872	92.06
276.104	91.06
276.335	96.06
276.567	91.06
276.799	112.06
277.031	107.06
277.262	120.06
277.494	96.06
277.726	81.06
277.957	71.06
278.189	95.06
278.421	95.06
278.652	85.06
278.884	103.06
279.115	88.06
279.347	92.06
279.579	97.06
279.81	110.06
280.042	106.06
280.273	133.06
280.505	122.06
280.736	100.06
280.968	88.06
281.199	96.06
281.431	79.06
281.662	91.06
281.894	85.06
282.125	93.06
282.356	109.06
282.588	144.06
282.819	133.06
283.051	93.06
283.282	87.06
283.513	83.06
283.745	80.06
283.976	91.06
284.207	85.06
284.439	83.06
284.67	83.06
284.901	97.06
285.132	86.06
285.364	88.06
285.595	98.06
285.826	88.06
286.057	81.06
286.288	83.06
286.52	94.06
286.751	81.06
286.982	85.06
287.213	79.06
287.444	81.06
287.675	96.06
287.906	88.06
288.138	95.06
288.369	101.06
288.6	87.06
288.831	74.06
289.062	88.06
289.293	78.06
289.524	81.06
289.755	96.06
289.986	69.06
290.217	77.06
290.448	98.06
290.679	99.06
290.91	104.06
291.141	76.06
291.371	84.06
291.602	82.06
291.833	80.06
292.064	96.06
292.295	93.06
292.526	83.06
292.757	79.06
292.987	88.06
293.218	87.06
293.449	89.06
293.68	83.06
293.91	92.06
294.141	85.06
294.372	91.06
294.603	87.06
294.833	90.06
295.064	90.06
295.295	84.06
295.525	79.06
295.756	84.06
295.987	114.06
296.217	139.06
296.448	132.06
296.679	100.06
296.909	87.06
297.14	90.06
297.37	88.06
297.601	89.06
297.831	86.06
298.062	94.06
298.292	99.06
298.523	89.06
298.753	95.06
298.984	82.06
299.214	79.06
299.445	89.06
299.675	85.06
299.905	102.06
300.136	104.06
300.366	106.06
300.597	87.06
300.827	94.06
301.057	100.06
301.288	96.06
301.518	103.06
301.748	95.06
301.979	101.06
302.209	92.06
302.439	106.06
302.669	95.06
302.9	95.06
303.13	83.06
303.36	91.06
303.59	123.06
303.82	114.06
304.051	91.06
304.281	90.06
304.511	82.06
304.741	77.06
304.971	75.06
305.201	92.06
305.431	93.06
305.661	72.06
305.891	93.06
306.121	105.06
306.352	99.06
306.582	98.06
306.812	88.06
307.042	95.06
307.272	104.06
307.502	113.06
307.731	101.06
307.961	104.06
308.191	98.06
308.421	85.06
308.651	72.06
308.881	103.06
309.111	88.06
309.341	88.06
309.571	95.06
309.8	108.06
310.03	110.06
310.26	104.06
310.49	98.06
310.72	92.06
310.949	99.06
311.179	108.06
311.409	96.06
311.639	100.06
311.868	107.06
312.098	104.06
312.328	100.06
312.557	99.06
312.787	107.06
313.017	105.06
313.246	91.06
313.476	100.06
313.706	92.06
313.935	104.06
314.165	98.06
314.394	104.06
314.624	90.06
314.853	100.06
315.083	89.06
315.312	87.06
315.542	87.06
315.771	91.06
316.001	92.06
316.23	90.06
316.46	81.06
316.689	85.06
316.919	99.06
317.148	94.06
317.377	87.06
317.607	91.06
317.836	97.06
318.065	93.06
318.295	88.06
318.524	89.06
318.753	95.06
318.983	96.06
319.212	107.06
319.441	109.06
319.67	109.06
319.9	98.06
320.129	93.06
320.358	94.06
320.587	86.06
320.816	103.06
321.046	103.06
321.275	96.06
321.504	90.06
321.733	80.06
321.962	90.06
322.191	92.06
322.42	100.06
322.649	111.06
322.878	105.06
323.108	121.06
323.337	115.06
323.566	138.06
323.795	157.06
324.024	202.06
324.253	416.06
324.482	871.06
324.71	1827.06
324.939	2532.06
325.168	922.06
325.397	259.06
325.626	162.06
325.855	132.06
326.084	111.06
326.313	129.06
326.542	152.06
326.77	228.06
326.999	467.06
327.228	1030.06
327.457	1887.06
327.686	1547.06
327.914	454.06
328.143	285.06
328.372	277.06
328.6	193.06
328.829	124.06
329.058	129.06
329.287	148.06
329.515	128.06
329.744	141.06
329.972	205.06
330.201	348.06
330.43	503.06
330.658	294.06
330.887	183.06
331.115	147.06
331.344	111.06
331.572	110.06
331.801	106.06
332.03	119.06
332.258	84.06
332.486	86.06
332.715	88.06
332.943	93.06
333.172	103.06
333.4	124.06
333.629	121.06
333.857	131.06
334.085	190.06
334.314	345.06
334.542	611.06
334.771	599.06
334.999	196.06
335.227	113.06
335.455	100.06
335.684	112.06
335.912	99.06
336.14	101.06
336.369	97.06
336.597	100.06
336.825	102.06
337.053	98.06
337.281	96.06
337.51	95.06
337.738	106.06
337.966	103.06
338.194	107.06
338.422	99.06
338.65	91.06
338.878	90.06
339.106	104.06
339.334	96.06
339.562	88.06
339.79	82.06
340.018	90.06
340.246	103.06
340.474	104.06
340.702	99.06
340.93	88.06
341.158	110.06
341.386	109.06
341.614	101.06
341.842	102.06
342.07	96.06
342.298	72.06
342.526	88.06
342.754	89.06
342.981	89.06
343.209	85.06
343.437	90.06
343.665	87.06
343.893	84.06
344.12	96.06
344.348	90.06
344.576	92.06
344.804	98.06
345.031	95.06
345.259	104.06
345.487	99.06
345.714	101.06
345.942	94.06
346.17	97.06
346.397	88.06
346.625	91.06
346.853	103.06
347.08	96.06
347.308	101.06
347.535	105.06
347.763	91.06
347.99	89.06
348.218	107.06
348.445	104.06
348.673	109.06
348.9	101.06
349.128	95.06
349.355	97.06
349.583	82.06
349.81	95.06
350.037	83.06
350.265	88.06
350.492	87.06
350.72	94.06
350.947	116.06
351.174	108.06
351.402	116.06
351.629	104.06
351.856	95.06
352.083	99.06
352.311	98.06
352.538	103.06
352.765	109.06
352.992	113.06
353.22	114.06
353.447	96.06
353.674	99.06
353.901	102.06
354.128	89.06
354.355	91.06
354.583	96.06
354.81	106.06
355.037	92.06
355.264	113.06
355.491	93.06
355.718	80.06
355.945	96.06
356.172	80.06
356.399	79.06
356.626	81.06
356.853	100.06
357.08	77.06
357.307	73.06
357.534	84.06
357.761	92.06
357.988	94.06
358.215	109.06
358.441	89.06
358.668	94.06
358.895	108.06
359.122	92.06
359.349	95.06
359.576	101.06
359.802	100.06
360.029	122.06
360.256	108.06
360.483	103.06
360.709	104.06
360.936	90.06
361.163	108.06
361.39	86.06
361.616	93.06
361.843	83.06
362.07	96.06
362.296	101.06
362.523	93.06
362.749	94.06
362.976	98.06
363.203	89.06
363.429	91.06
363.656	96.06
363.882	71.06
364.109	84.06
364.335	94.06
364.562	108.06
364.788	94.06
365.015	84.06
365.241	104.06
365.468	120.06
365.694	106.06
365.92	103.06
366.147	83.06
366.373	86.06
366.599	84.06
366.826	95.06
367.052	90.06
367.278	83.06
367.505	101.06
367.731	82.06
367.957	86.06
368.184	100.06
368.41	95.06
368.636	108.06
368.862	119.06
369.089	109.06
369.315	91.06
369.541	90.06
369.767	97.06
369.993	85.06
370.219	95.06
370.445	92.06
370.672	91.06
370.898	83.06
371.124	80.06
371.35	89.06
371.576	91.06
371.802	83.06
372.028	70.06
372.254	99.06
372.48	92.06
372.706	84.06
372.932	90.06
373.158	101.06
373.384	92.06
373.61	81.06
373.835	85.06
374.061	88.06
374.287	85.06
374.513	93.06
374.739	93.06
374.965	84.06
375.191	91.06
375.416	94.06
375.642	91.06
375.868	98.06
376.094	84.06
376.319	96.06
376.545	87.06
376.771	91.06
376.997	84.06
377.222	91.06
377.448	86.06
377.674	85.06
377.899	93.06
378.125	86.06
378.35	92.06
378.576	93.06
378.802	92.06
379.027	90.06
379.253	88.06
379.478	92.06
379.704	87.06
379.929	87.06
380.155	98.06
380.38	104.06
380.606	99.06
380.831	97.06
381.057	107.06
381.282	94.06
381.507	95.06
381.733	87.06
381.958	93.06
382.184	96.06
382.409	99.06
382.634	100.06
382.86	113.06
383.085	112.06
383.31	99.06
383.535	105.06
383.761	117.06
383.986	112.06
384.211	105.06
384.436	94.06
384.662	96.06
384.887	97.06
385.112	93.06
385.337	105.06
385.562	115.06
385.787	100.06
386.013	102.06
386.238	138.06
386.463	116.06
386.688	115.06
386.913	95.06
387.138	124.06
387.363	110.06
387.588	108.06
387.813	100.06
388.038	92.06
388.263	118.06
388.488	109.06
388.713	99.06
388.938	95.06
389.163	107.06
389.387	103.06
389.612	92.06
389.837	78.06
390.062	77.06
390.287	105.06
390.512	105.06
390.736	89.06
390.961	79.06
391.186	92.06
391.411	89.06
391.636	88.06
391.86	99.06
392.085	93.06
392.31	85.06
392.534	88.06
392.759	96.06
392.984	91.06
393.208	91.06
393.433	107.06
393.658	96.06
393.882	94.06
394.107	83.06
394.331	83.06
394.556	95.06
394.78	80.06
395.005	62.06
395.229	92.06
395.454	76.06
395.678	76.06
395.903	82.06
396.127	94.06
396.352	91.06
396.576	91.06
396.801	96.06
397.025	84.06
397.249	83.06
397.474	79.06
397.698	87.06
397.922	79.06
398.147	91.06
398.371	80.06
398.595	84.06
398.82	81.06
399.044	84.06
399.268	75.06
399.492	86.06
399.717	95.06
399.941	78.06
400.165	79.06
400.389	90.06
400.613	87.06
400.837	88.06
401.062	83.06
401.286	97.06
401.51	94.06
401.734	84.06
401.958	93.06
402.182	123.06
402.406	145.06
402.63	124.06
402.854	88.06
403.078	98.06
403.302	89.06
403.526	88.06
403.75	80.06
403.974	90.06
404.198	89.06
404.422	84.06
404.645	88.06
404.869	88.06
405.093	107.06
405.317	136.06
405.541	118.06
405.765	112.06
405.988	118.06
406.212	176.06
406.436	236.06
406.66	151.06
406.883	106.06
407.107	115.06
407.331	111.06
407.555	109.06
407.778	100.06
408.002	89.06
408.226	83.06
408.449	97.06
408.673	106.06
408.896	95.06
409.12	93.06
409.344	80.06
409.567	96.06
409.791	109.06
410.014	89.06
410.238	91.06
410.461	89.06
410.685	85.06
410.908	87.06
411.132	102.06
411.355	113.06
411.578	97.06
411.802	91.06
412.025	86.06
412.249	91.06
412.472	99.06
412.695	119.06
412.919	95.06
413.142	109.06
413.365	113.06
413.589	90.06
413.812	88.06
414.035	88.06
414.258	81.06
414.482	92.06
414.705	104.06
414.928	77.06
415.151	92.06
415.374	98.06
415.597	92.06
415.821	92.06
416.044	94.06
416.267	93.06
416.49	78.06
416.713	98.06
416.936	98.06
417.159	95.06
417.382	90.06
417.605	107.06
417.828	91.06
418.051	92.06
418.274	81.06
418.497	92.06
418.72	89.06
418.943	104.06
419.166	91.06
419.389	96.06
419.611	98.06
419.834	101.06
420.057	97.06
420.28	91.06
420.503	92.06
420.726	74.06
420.948	91.06
421.171	99.06
421.394	99.06
421.617	74.06
421.839	93.06
422.062	90.06
422.285	96.06
422.507	87.06
422.73	96.06
422.953	100.06
423.175	79.06
423.398	82.06
423.621	84.06
423.843	77.06
424.066	96.06
424.288	75.06
424.511	92.06
424.733	107.06
424.956	125.06
425.178	93.06
425.401	100.06
425.623	92.06
425.846	93.06
426.068	100.06
426.291	91.06
426.513	93.06
426.735	99.06
426.958	81.06
427.18	105.06
427.402	133.06
427.625	195.06
427.847	185.06
428.069	149.06
428.292	100.06
428.514	89.06
428.736	102.06
428.958	95.06
429.181	83.06
429.403	66.06
429.625	90.06
429.847	105.06
430.069	102.06
430.292	94.06
430.514	83.06
430.736	77.06
430.958	83.06
431.18	81.06
431.402	80.06
431.624	80.06
431.846	78.06
432.068	77.06
432.29	90.06
432.512	83.06
432.734	85.06
432.956	77.06
433.178	91.06
433.4	95.06
433.622	88.06
433.844	97.06
434.066	96.06
434.287	87.06
434.509	101.06
434.731	90.06
434.953	83.06
435.175	80.06
435.397	78.06
435.618	107.06
435.84	100.06
436.062	131.06
436.284	128.06
436.505	110.06
436.727	96.06
436.949	96.06
437.17	89.06
437.392	73.06
437.614	85.06
437.835	106.06
438.057	121.06
438.278	109.06
438.5	105.06
438.721	127.06
438.943	101.06
439.165	104.06
439.386	80.06
439.608	79.06
439.829	104.06
440.05	139.06
440.272	156.06
440.493	105.06
440.715	88.06
440.936	86.06
441.158	92.06
441.379	82.06
441.6	79.06
441.822	87.06
442.043	85.06
442.264	108.06
442.486	106.06
442.707	84.06
442.928	113.06
443.149	154.06
443.371	136.06
443.592	112.06
443.813	127.06
444.034	99.06
444.255	97.06
444.476	92.06
444.698	84.06
444.919	90.06
445.14	121.06
445.361	136.06
445.582	123.06
445.803	157.06
446.024	141.06
446.245	155.06
446.466	118.06
446.687	101.06
446.908	77.06
447.129	92.06
447.35	97.06
447.571	85.06
447.792	90.06
448.013	89.06
448.234	108.06
448.455	101.06
448.675	107.06
448.896	113.06
449.117	90.06
449.338	119.06
449.559	128.06
449.779	125.06
450	97.06
450.221	105.06
450.442	83.06
450.662	97.06
450.883	109.06
451.104	113.06
451.324	104.06
451.545	84.06
451.766	83.06
451.986	90.06
452.207	83.06
452.428	94.06
452.648	100.06
452.869	133.06
453.089	116.06
453.31	137.06
453.53	87.06
453.751	102.06
453.971	94.06
454.192	104.06
454.412	95.06
454.633	84.06
454.853	83.06
455.073	82.06
455.294	90.06
455.514	107.06
455.734	91.06
455.955	79.06
456.175	94.06
456.395	84.06
456.616	73.06
456.836	74.06
457.056	79.06
457.276	74.06
457.497	85.06
457.717	82.06
457.937	84.06
458.157	94.06
458.377	96.06
458.598	104.06
458.818	160.06
459.038	177.06
459.258	123.06
459.478	98.06
459.698	97.06
459.918	93.06
460.138	83.06
460.358	80.06
460.578	83.06
460.798	92.06
461.018	81.06
461.238	86.06
461.458	96.06
461.678	83.06
461.898	72.06
462.118	87.06
462.338	80.06
462.558	92.06
462.777	76.06
462.997	83.06
463.217	83.06
463.437	93.06
463.657	89.06
463.876	90.06
464.096	92.06
464.316	97.06
464.536	86.06
464.755	100.06
464.975	111.06
465.195	168.06
465.414	185.06
465.634	89.06
465.854	83.06
466.073	78.06
466.293	80.06
466.512	72.06
466.732	91.06
466.951	91.06
467.171	81.06
467.391	84.06
467.61	108.06
467.829	122.06
468.049	209.06
468.268	272.06
468.488	103.06
468.707	90.06
468.927	92.06
469.146	102.06
469.365	94.06
469.585	96.06
469.804	99.06
470.023	99.06
470.243	95.06
470.462	107.06
470.681	119.06
470.901	97.06
471.12	91.06
471.339	88.06
471.558	107.06
471.777	119.06
471.997	135.06
472.216	350.06
472.435	765.06
472.654	237.06
472.873	100.06
473.092	90.06
473.311	94.06
473.53	93.06
473.749	79.06
473.968	92.06
474.187	119.06
474.406	91.06
474.625	85.06
474.844	82.06
475.063	89.06
475.282	86.06
475.501	93.06
475.72	99.06
475.939	85.06
476.158	86.06
476.377	94.06
476.596	72.06
476.814	88.06
477.033	86.06
477.252	84.06
477.471	71.06
477.69	92.06
477.908	93.06
478.127	97.06
478.346	91.06
478.564	85.06
478.783	87.06
479.002	84.06
479.22	86.06
479.439	79.06
479.658	107.06
479.876	118.06
480.095	89.06
480.313	116.06
480.532	102.06
480.751	144.06
480.969	363.06
481.188	1281.06
481.406	833.06
481.624	172.06
481.843	97.06
482.061	103.06
482.28	99.06
482.498	95.06
482.717	82.06
482.935	76.06
483.153	92.06
483.372	94.06
483.59	95.06
483.808	95.06
484.027	88.06
484.245	99.06
484.463	91.06
484.681	76.06
484.9	89.06
485.118	83.06
485.336	79.06
485.554	84.06
485.772	112.06
485.99	103.06
486.209	105.06
486.427	99.06
486.645	114.06
486.863	132.06
487.081	100.06
487.299	92.06
487.517	100.06
487.735	104.06
487.953	78.06
488.171	86.06
488.389	99.06
488.607	100.06
488.825	68.06
489.043	77.06
489.261	89.06
489.479	81.06
489.696	80.06
489.914	95.06
490.132	91.06
490.35	85.06
490.568	82.06
490.786	91.06
491.003	76.06
491.221	84.06
491.439	96.06
491.657	80.06
491.874	95.06
492.092	87.06
492.31	89.06
492.527	68.06
492.745	95.06
492.963	100.06
493.18	101.06
493.398	97.06
493.615	100.06
493.833	84.06
494.05	85.06
494.268	100.06
494.485	88.06
494.703	80.06
494.92	102.06
495.138	91.06
495.355	72.06
495.573	79.06
495.79	91.06
496.008	96.06
496.225	85.06
496.442	87.06
496.66	95.06
496.877	92.06
497.094	87.06
497.312	93.06
497.529	87.06
497.746	100.06
497.963	95.06
498.181	86.06
498.398	92.06
498.615	124.06
498.832	113.06
499.049	89.06
499.267	102.06
499.484	98.06
499.701	85.06
499.918	95.06
500.135	80.06
500.352	81.06
500.569	85.06
500.786	81.06
501.003	88.06
501.22	91.06
501.437	84.06
501.654	89.06
501.871	131.06
502.088	91.06
502.305	100.06
502.522	80.06
502.739	84.06
502.956	92.06
503.172	82.06
503.389	79.06
503.606	104.06
503.823	113.06
504.04	100.06
504.256	92.06
504.473	90.06
504.69	82.06
504.907	85.06
505.123	93.06
505.34	94.06
505.557	75.06
505.773	91.06
505.99	96.06
506.207	84.06
506.423	81.06
506.64	88.06
506.856	82.06
507.073	98.06
507.289	91.06
507.506	99.06
507.722	115.06
507.939	109.06
508.155	99.06
508.372	103.06
508.588	93.06
508.805	87.06
509.021	99.06
509.238	90.06
509.454	90.06
509.67	101.06
509.887	111.06
510.103	131.06
510.319	208.06
510.536	738.06
510.752	2445.06
510.968	696.06
511.184	160.06
511.401	113.06
511.617	102.06
511.833	95.06
512.049	99.06
512.265	92.06
512.481	91.06
512.698	92.06
512.914	85.06
513.13	89.06
513.346	87.06
513.562	86.06
513.778	93.06
513.994	110.06
514.21	112.06
514.426	113.06
514.642	147.06
514.858	129.06
515.074	172.06
515.29	484.06
515.506	1755.06
515.721	664.06
515.937	183.06
516.153	109.06
516.369	97.06
516.585	88.06
516.801	97.06
517.016	102.06
517.232	86.06
517.448	98.06
517.664	98.06
517.879	79.06
518.095	90.06
518.311	82.06
518.527	91.06
518.742	91.06
518.958	79.06
519.173	104.06
519.389	79.06
519.605	101.06
519.82	96.06
520.036	103.06
520.251	121.06
520.467	115.06
520.682	104.06
520.898	105.06
521.113	132.06
521.329	147.06
521.544	236.06
521.76	643.06
521.975	2848.06
522.19	1771.06
522.406	366.06
522.621	126.06
522.836	95.06
523.052	99.06
523.267	109.06
523.482	116.06
523.698	100.06
523.913	117.06
524.128	109.06
524.343	81.06
524.559	101.06
524.774	89.06
524.989	91.06
525.204	109.06
525.419	96.06
525.634	88.06
525.849	67.06
526.064	101.06
526.28	92.06
526.495	94.06
526.71	84.06
526.925	86.06
527.14	97.06
527.355	99.06
527.57	84.06
527.785	87.06
527.999	89.06
528.214	90.06
528.429	97.06
528.644	85.06
528.859	94.06
529.074	96.06
529.289	126.06
529.503	188.06
529.718	109.06
529.933	89.06
530.148	88.06
530.363	99.06
530.577	81.06
530.792	85.06
531.007	84.06
531.221	101.06
531.436	88.06
531.651	94.06
531.865	84.06
532.08	82.06
532.295	90.06
532.509	91.06
532.724	83.06
532.938	98.06
533.153	102.06
533.367	96.06
533.582	81.06
533.796	108.06
534.011	97.06
534.225	89.06
534.44	95.06
534.654	78.06
534.868	99.06
535.083	79.06
535.297	87.06
535.511	89.06
535.726	124.06
535.94	123.06
536.154	101.06
536.369	93.06
536.583	78.06
536.797	82.06
537.011	79.06
537.225	71.06
537.44	93.06
537.654	80.06
537.868	80.06
538.082	94.06
538.296	86.06
538.51	73.06
538.724	96.06
538.938	91.06
539.153	101.06
539.367	101.06
539.581	96.06
539.795	97.06
540.009	91.06
540.222	84.06
540.436	96.06
540.65	83.06
540.864	96.06
541.078	113.06
541.292	100.06
541.506	95.06
541.72	80.06
541.934	92.06
542.147	67.06
542.361	93.06
542.575	101.06
542.789	90.06
543.002	84.06
543.216	99.06
543.43	85.06
543.644	91.06
543.857	84.06
544.071	81.06
544.285	84.06
544.498	79.06
544.712	77.06
544.925	76.06
545.139	79.06
545.352	77.06
545.566	76.06
545.779	85.06
545.993	78.06
546.206	105.06
546.42	92.06
546.633	104.06
546.847	95.06
547.06	85.06
547.274	75.06
547.487	99.06
547.7	88.06
547.914	100.06
548.127	83.06
548.34	102.06
548.554	87.06
548.767	82.06
548.98	89.06
549.193	89.06
549.407	80.06
549.62	87.06
549.833	84.06
550.046	89.06
550.259	81.06
550.473	95.06
550.686	88.06
550.899	83.06
551.112	94.06
551.325	100.06
551.538	99.06
551.751	90.06
551.964	97.06
552.177	86.06
552.39	95.06
552.603	96.06
552.816	90.06
553.029	88.06
553.242	94.06
553.455	80.06
553.667	99.06
553.88	102.06
554.093	96.06
554.306	99.06
554.519	99.06
554.732	98.06
554.944	101.06
555.157	98.06
555.37	88.06
555.583	92.06
555.795	100.06
556.008	95.06
556.221	99.06
556.433	101.06
556.646	87.06
556.859	95.06
557.071	92.06
557.284	86.06
557.496	97.06
557.709	87.06
557.921	79.06
558.134	84.06
558.346	86.06
558.559	80.06
558.771	76.06
558.984	65.06
559.196	84.06
559.409	83.06
559.621	99.06
559.833	92.06
560.046	92.06
560.258	88.06
560.47	89.06
560.683	85.06
560.895	93.06
561.107	73.06
561.32	91.06
561.532	99.06
561.744	91.06
561.956	92.06
562.168	86.06
562.381	85.06
562.593	93.06
562.805	85.06
563.017	91.06
563.229	90.06
563.441	94.06
563.653	88.06
563.865	88.06
564.077	92.06
564.289	84.06
564.501	89.06
564.713	104.06
564.925	83.06
565.137	109.06
565.349	88.06
565.561	86.06
565.773	100.06
565.985	87.06
566.197	99.06
566.408	68.06
566.62	103.06
566.832	87.06
567.044	84.06
567.255	79.06
567.467	93.06
567.679	84.06
567.891	101.06
568.102	99.06
568.314	80.06
568.526	92.06
568.737	94.06
568.949	87.06
569.161	84.06
569.372	95.06
569.584	89.06
569.795	89.06
570.007	106.06
570.218	257.06
570.43	135.06
570.641	94.06
570.853	77.06
571.064	73.06
571.276	67.06
571.487	91.06
571.698	83.06
571.91	105.06
572.121	81.06
572.333	83.06
572.544	80.06
572.755	84.06
572.966	90.06
573.178	95.06
573.389	100.06
573.6	94.06
573.811	99.06
574.023	88.06
574.234	88.06
574.445	83.06
574.656	97.06
574.867	103.06
575.078	84.06
575.289	86.06
575.501	82.06
575.712	81.06
575.923	80.06
576.134	91.06
576.345	81.06
576.556	76.06
576.767	80.06
576.978	81.06
577.188	89.06
577.399	81.06
577.61	100.06
577.821	106.06
578.032	129.06
578.243	280.06
578.454	789.06
578.665	222.06
578.875	116.06
579.086	97.06
579.297	85.06
579.508	93.06
579.718	80.06
579.929	90.06
580.14	90.06
580.35	87.06
580.561	91.06
580.772	92.06
580.982	102.06
581.193	90.06
581.403	100.06
581.614	85.06
581.825	87.06
582.035	84.06
582.246	83.06
582.456	79.06
582.667	79.06
582.877	94.06
583.087	72.06
583.298	88.06
583.508	86.06
583.719	79.06
583.929	93.06
584.139	90.06
584.35	86.06
584.56	81.06
584.77	83.06
584.981	88.06
585.191	96.06
585.401	88.06
585.611	89.06
585.821	66.06
586.032	83.06
586.242	85.06
586.452	84.06
586.662	89.06
586.872	86.06
587.082	74.06
587.292	96.06
587.502	92.06
587.713	89.06
587.923	83.06
588.133	94.06
588.343	97.06
588.553	76.06
588.762	95.06
588.972	88.06
589.182	135.06
589.392	92.06
589.602	85.06
589.812	115.06
590.022	96.06
590.232	85.06
590.441	88.06
590.651	80.06
590.861	96.06
591.071	93.06
591.281	83.06
591.49	81.06
591.7	82.06
591.91	81.06
592.119	84.06
592.329	89.06
592.539	98.06
592.748	91.06
592.958	69.06
593.167	84.06
593.377	83.06
593.587	79.06
593.796	82.06
594.006	70.06
594.215	96.06
594.424	86.06
594.634	96.06
594.843	84.06
595.053	95.06
595.262	96.06
595.472	85.06
595.681	84.06
595.89	74.06
596.1	80.06
596.309	78.06
596.518	79.06
596.727	85.06
596.937	80.06
597.146	94.06
597.355	79.06
597.564	92.06
597.774	82.06
597.983	70.06
598.192	81.06
598.401	92.06
598.61	80.06
598.819	81.06
599.028	85.06
599.237	76.06
599.446	86.06
599.655	71.06
599.864	79.06
600.073	81.06
600.282	85.06
600.491	81.06
600.7	88.06
600.909	84.06
601.118	84.06
601.327	88.06
601.536	100.06
601.745	83.06
601.953	92.06
602.162	82.06
602.371	75.06
602.58	89.06
602.789	85.06
602.997	84.06
603.206	85.06
603.415	90.06
603.623	81.06
603.832	77.06
604.041	88.06
604.249	83.06
604.458	81.06
604.666	88.06
604.875	99.06
605.084	95.06
605.292	79.06
605.501	90.06
605.709	83.06
605.918	79.06
606.126	86.06
606.334	80.06
606.543	83.06
606.751	79.06
606.96	73.06
607.168	86.06
607.376	91.06
607.585	91.06
607.793	82.06
608.001	85.06
608.21	82.06
608.418	72.06
608.626	71.06
608.834	93.06
609.043	81.06
609.251	89.06
609.459	76.06
609.667	83.06
609.875	78.06
610.083	90.06
610.291	84.06
610.499	76.06
610.707	84.06
610.916	84.06
611.124	91.06
611.332	72.06
611.54	92.06
611.748	82.06
611.955	85.06
612.163	87.06
612.371	91.06
612.579	94.06
612.787	89.06
612.995	89.06
613.203	80.06
613.411	75.06
613.618	100.06
613.826	88.06
614.034	97.06
614.242	85.06
614.449	91.06
614.657	88.06
614.865	93.06
615.072	90.06
615.28	76.06
615.488	87.06
615.695	82.06
615.903	83.06
616.111	95.06
616.318	116.06
616.526	85.06
616.733	107.06
616.941	85.06
617.148	85.06
617.356	84.06
617.563	88.06
617.771	97.06
617.978	85.06
618.185	92.06
618.393	75.06
618.6	78.06
618.807	95.06
619.015	75.06
619.222	79.06
619.429	80.06
619.637	73.06
619.844	71.06
620.051	93.06
620.258	89.06
620.466	81.06
620.673	75.06
620.88	80.06
621.087	74.06
621.294	83.06
621.501	96.06
621.708	87.06
621.915	83.06
622.122	98.06
622.329	77.06
622.536	79.06
622.743	93.06
622.95	92.06
623.157	91.06
623.364	84.06
623.571	84.06
623.778	60.06
623.985	77.06
624.192	84.06
624.399	81.06
624.606	85.06
624.812	93.06
625.019	100.06
625.226	85.06
625.433	89.06
625.639	83.06
625.846	82.06
626.053	79.06
626.259	84.06
626.466	95.06
626.673	77.06
626.879	87.06
627.086	103.06
627.293	76.06
627.499	89.06
627.706	100.06
627.912	93.06
628.119	70.06
628.325	74.06
628.532	85.06
628.738	71.06
628.945	79.06
629.151	68.06
629.357	86.06
629.564	90.06
629.77	91.06
629.976	87.06
630.183	84.06
630.389	71.06
630.595	83.06
630.802	82.06
631.008	84.06
631.214	85.06
631.42	81.06
631.627	83.06
631.833	94.06
632.039	88.06
632.245	83.06
632.451	89.06
632.657	99.06
632.863	79.06
633.069	91.06
633.275	80.06
633.481	91.06
633.688	73.06
633.893	90.06
634.099	76.06
634.305	81.06
634.511	91.06
634.717	87.06
634.923	73.06
635.129	88.06
635.335	65.06
635.541	71.06
635.747	78.06
635.952	81.06
636.158	92.06
636.364	162.06
636.57	138.06
636.775	95.06
636.981	88.06
637.187	90.06
637.392	103.06
637.598	87.06
637.804	84.06
638.009	89.06
638.215	76.06
638.421	85.06
638.626	88.06
638.832	78.06
639.037	84.06
639.243	82.06
639.448	67.06
639.654	78.06
639.859	93.06
640.065	89.06
640.27	94.06
640.475	73.06
640.681	89.06
640.886	100.06
641.091	82.06
641.297	84.06
641.502	86.06
641.707	74.06
641.913	88.06
642.118	73.06
642.323	82.06
642.528	74.06
642.733	91.06
642.939	85.06
643.144	87.06
643.349	84.06
643.554	76.06
643.759	90.06
643.964	81.06
644.169	88.06
644.374	80.06
644.579	86.06
644.784	85.06
644.989	92.06
645.194	85.06
645.399	75.06
645.604	58.06
645.809	82.06
646.014	85.06
646.219	88.06
646.423	84.06
646.628	90.06
646.833	87.06
647.038	80.06
647.243	87.06
647.447	83.06
647.652	80.06
647.857	77.06
648.062	95.06
648.266	81.06
648.471	93.06
648.676	92.06
648.88	78.06
649.085	96.06
649.289	91.06
649.494	105.06
649.698	150.06
649.903	95.06
650.107	94.06
650.312	88.06
650.516	85.06
650.721	74.06
650.925	76.06
651.13	78.06
651.334	80.06
651.539	82.06
651.743	81.06
651.947	101.06
652.152	78.06
652.356	90.06
652.56	77.06
652.764	81.06
652.969	87.06
653.173	85.06
653.377	95.06
653.581	80.06
653.785	89.06
653.99	97.06
654.194	93.06
654.398	90.06
654.602	89.06
654.806	94.06
655.01	112.06
655.214	105.06
655.418	76.06
655.622	93.06
655.826	81.06
656.03	88.06
656.234	79.06
656.438	105.06
656.642	94.06
656.846	83.06
657.049	93.06
657.253	100.06
657.457	85.06
657.661	87.06
657.865	72.06
658.068	88.06
658.272	98.06
658.476	73.06
658.68	77.06
658.883	61.06
659.087	83.06
659.291	77.06
659.494	72.06
659.698	76.06
659.901	71.06
660.105	81.06
660.309	72.06
660.512	91.06
660.716	77.06
660.919	97.06
661.123	83.06
661.326	90.06
661.53	77.06
661.733	83.06
661.936	73.06
662.14	96.06
662.343	83.06
662.546	80.06
662.75	67.06
662.953	92.06
663.156	72.06
663.36	92.06
663.563	84.06
663.766	68.06
663.969	85.06
664.173	75.06
664.376	76.06
664.579	64.06
664.782	74.06
664.985	78.06
665.188	75.06
665.391	73.06
665.594	80.06
665.797	81.06
666	81.06
666.203	75.06
666.406	83.06
666.609	77.06
666.812	73.06
667.015	65.06
667.218	76.06
667.421	74.06
667.624	74.06
667.827	92.06
668.03	77.06
668.232	77.06
668.435	87.06
668.638	83.06
668.841	85.06
669.043	85.06
669.246	88.06
669.449	82.06
669.651	80.06
669.854	75.06
670.057	87.06
670.259	74.06
670.462	84.06
670.665	76.06
670.867	73.06
671.07	90.06
671.272	81.06
671.475	66.06
671.677	79.06
671.88	74.06
672.082	88.06
672.284	74.06
672.487	81.06
672.689	75.06
672.892	91.06
