Data from Circ_2007_H10_HRD10591_00091.txt Node
Date: Wed Jan 03 10:22:15 EST 2024
User: Yrep
Spectrometer: HR+D1059
Trigger mode: 1
Integration Time (sec): 1.000000E-1
Scans to average: 1
Electric dark correction enabled: true
Nonlinearity correction enabled: false
Boxcar width: 0
XAxis mode: Wavelengths
Number of Pixels in Spectrum: 2048
>>>>>Begin Spectral Data<<<<<
223.165	-14.81
223.4	-14.81
223.635	-14.81
223.869	-13.81
224.104	-4.81
224.338	-23.81
224.573	-22.81
224.808	-6.81
225.042	-11.81
225.277	-9.81
225.511	0.19
225.746	-6.81
225.98	3.19
226.215	15.19
226.449	17.19
226.683	26.19
226.918	22.19
227.152	31.19
227.387	36.19
227.621	41.19
227.856	31.19
228.09	52.19
228.324	48.19
228.559	58.19
228.793	62.19
229.027	50.19
229.262	70.19
229.496	70.19
229.73	97.19
229.964	104.19
230.199	86.19
230.433	78.19
230.667	71.19
230.901	76.19
231.136	67.19
231.37	67.19
231.604	72.19
231.838	73.19
232.072	76.19
232.306	80.19
232.541	64.19
232.775	81.19
233.009	61.19
233.243	85.19
233.477	91.19
233.711	85.19
233.945	83.19
234.179	73.19
234.413	75.19
234.647	94.19
234.881	72.19
235.115	84.19
235.349	85.19
235.583	85.19
235.817	63.19
236.051	87.19
236.285	77.19
236.519	73.19
236.753	77.19
236.987	89.19
237.221	84.19
237.455	91.19
237.689	71.19
237.922	79.19
238.156	65.19
238.39	84.19
238.624	72.19
238.858	74.19
239.091	74.19
239.325	72.19
239.559	80.19
239.793	87.19
240.027	88.19
240.26	73.19
240.494	71.19
240.728	66.19
240.961	66.19
241.195	68.19
241.429	65.19
241.662	69.19
241.896	69.19
242.13	71.19
242.363	79.19
242.597	80.19
242.83	76.19
243.064	82.19
243.298	82.19
243.531	77.19
243.765	92.19
243.998	81.19
244.232	83.19
244.465	89.19
244.699	87.19
244.932	85.19
245.166	75.19
245.399	83.19
245.633	75.19
245.866	70.19
246.099	63.19
246.333	79.19
246.566	92.19
246.8	85.19
247.033	73.19
247.266	69.19
247.5	75.19
247.733	75.19
247.966	79.19
248.2	79.19
248.433	82.19
248.666	70.19
248.899	80.19
249.133	83.19
249.366	94.19
249.599	108.19
249.832	83.19
250.066	74.19
250.299	79.19
250.532	81.19
250.765	89.19
250.998	77.19
251.231	84.19
251.465	72.19
251.698	77.19
251.931	95.19
252.164	81.19
252.397	82.19
252.63	91.19
252.863	70.19
253.096	68.19
253.329	84.19
253.562	71.19
253.795	70.19
254.028	92.19
254.261	75.19
254.494	75.19
254.727	97.19
254.96	85.19
255.193	72.19
255.426	68.19
255.659	82.19
255.892	95.19
256.124	87.19
256.357	82.19
256.59	88.19
256.823	89.19
257.056	90.19
257.289	82.19
257.521	89.19
257.754	77.19
257.987	72.19
258.22	103.19
258.452	91.19
258.685	99.19
258.918	81.19
259.151	84.19
259.383	86.19
259.616	92.19
259.849	91.19
260.081	78.19
260.314	80.19
260.547	83.19
260.779	87.19
261.012	97.19
261.244	95.19
261.477	99.19
261.71	105.19
261.942	120.19
262.175	136.19
262.407	102.19
262.64	94.19
262.872	89.19
263.105	73.19
263.337	77.19
263.57	72.19
263.802	70.19
264.035	81.19
264.267	89.19
264.499	90.19
264.732	80.19
264.964	89.19
265.197	85.19
265.429	67.19
265.661	79.19
265.894	84.19
266.126	90.19
266.358	74.19
266.591	80.19
266.823	88.19
267.055	87.19
267.287	83.19
267.52	79.19
267.752	68.19
267.984	84.19
268.216	75.19
268.448	75.19
268.681	88.19
268.913	84.19
269.145	88.19
269.377	75.19
269.609	80.19
269.841	72.19
270.073	63.19
270.306	93.19
270.538	90.19
270.77	95.19
271.002	84.19
271.234	87.19
271.466	92.19
271.698	91.19
271.93	88.19
272.162	91.19
272.394	100.19
272.626	79.19
272.858	81.19
273.09	79.19
273.322	82.19
273.553	76.19
273.785	93.19
274.017	87.19
274.249	79.19
274.481	88.19
274.713	94.19
274.945	91.19
275.176	91.19
275.408	94.19
275.64	104.19
275.872	102.19
276.104	96.19
276.335	103.19
276.567	107.19
276.799	130.19
277.031	148.19
277.262	165.19
277.494	142.19
277.726	104.19
277.957	89.19
278.189	90.19
278.421	83.19
278.652	96.19
278.884	97.19
279.115	89.19
279.347	90.19
279.579	97.19
279.81	127.19
280.042	166.19
280.273	222.19
280.505	152.19
280.736	91.19
280.968	88.19
281.199	93.19
281.431	74.19
281.662	86.19
281.894	88.19
282.125	105.19
282.356	132.19
282.588	159.19
282.819	129.19
283.051	90.19
283.282	81.19
283.513	87.19
283.745	86.19
283.976	103.19
284.207	88.19
284.439	76.19
284.67	79.19
284.901	80.19
285.132	95.19
285.364	83.19
285.595	95.19
285.826	78.19
286.057	94.19
286.288	81.19
286.52	81.19
286.751	80.19
286.982	91.19
287.213	75.19
287.444	89.19
287.675	81.19
287.906	87.19
288.138	77.19
288.369	91.19
288.6	88.19
288.831	95.19
289.062	95.19
289.293	81.19
289.524	93.19
289.755	80.19
289.986	68.19
290.217	86.19
290.448	79.19
290.679	81.19
290.91	84.19
291.141	98.19
291.371	73.19
291.602	81.19
291.833	99.19
292.064	85.19
292.295	82.19
292.526	95.19
292.757	90.19
292.987	81.19
293.218	80.19
293.449	89.19
293.68	86.19
293.91	88.19
294.141	90.19
294.372	91.19
294.603	84.19
294.833	89.19
295.064	89.19
295.295	97.19
295.525	107.19
295.756	114.19
295.987	114.19
296.217	156.19
296.448	158.19
296.679	88.19
296.909	82.19
297.14	83.19
297.37	87.19
297.601	99.19
297.831	78.19
298.062	108.19
298.292	100.19
298.523	87.19
298.753	97.19
298.984	88.19
299.214	97.19
299.445	95.19
299.675	102.19
299.905	82.19
300.136	99.19
300.366	91.19
300.597	78.19
300.827	98.19
301.057	99.19
301.288	99.19
301.518	98.19
301.748	81.19
301.979	106.19
302.209	97.19
302.439	89.19
302.669	91.19
302.9	91.19
303.13	89.19
303.36	88.19
303.59	104.19
303.82	140.19
304.051	105.19
304.281	104.19
304.511	82.19
304.741	81.19
304.971	82.19
305.201	88.19
305.431	92.19
305.661	101.19
305.891	90.19
306.121	92.19
306.352	105.19
306.582	107.19
306.812	105.19
307.042	97.19
307.272	138.19
307.502	141.19
307.731	155.19
307.961	120.19
308.191	103.19
308.421	98.19
308.651	83.19
308.881	85.19
309.111	99.19
309.341	80.19
309.571	96.19
309.8	106.19
310.03	109.19
310.26	103.19
310.49	108.19
310.72	96.19
310.949	105.19
311.179	107.19
311.409	102.19
311.639	99.19
311.868	105.19
312.098	84.19
312.328	80.19
312.557	116.19
312.787	136.19
313.017	126.19
313.246	110.19
313.476	88.19
313.706	82.19
313.935	91.19
314.165	113.19
314.394	105.19
314.624	108.19
314.853	97.19
315.083	106.19
315.312	96.19
315.542	99.19
315.771	98.19
316.001	94.19
316.23	79.19
316.46	96.19
316.689	81.19
316.919	100.19
317.148	113.19
317.377	102.19
317.607	105.19
317.836	102.19
318.065	84.19
318.295	82.19
318.524	89.19
318.753	73.19
318.983	92.19
319.212	103.19
319.441	106.19
319.67	114.19
319.9	92.19
320.129	87.19
320.358	99.19
320.587	103.19
320.816	111.19
321.046	102.19
321.275	108.19
321.504	94.19
321.733	100.19
321.962	98.19
322.191	100.19
322.42	98.19
322.649	144.19
322.878	121.19
323.108	123.19
323.337	146.19
323.566	146.19
323.795	179.19
324.024	235.19
324.253	473.19
324.482	1027.19
324.71	2146.19
324.939	2905.19
325.168	1048.19
325.397	318.19
325.626	176.19
325.855	146.19
326.084	124.19
326.313	156.19
326.542	169.19
326.77	276.19
326.999	516.19
327.228	1103.19
327.457	2110.19
327.686	1723.19
327.914	545.19
328.143	459.19
328.372	572.19
328.6	335.19
328.829	171.19
329.058	184.19
329.287	191.19
329.515	151.19
329.744	208.19
329.972	366.19
330.201	778.19
330.43	1159.19
330.658	518.19
330.887	278.19
331.115	179.19
331.344	124.19
331.572	119.19
331.801	124.19
332.03	132.19
332.258	114.19
332.486	93.19
332.715	115.19
332.943	133.19
333.172	116.19
333.4	123.19
333.629	138.19
333.857	197.19
334.085	333.19
334.314	671.19
334.542	1349.19
334.771	1395.19
334.999	390.19
335.227	162.19
335.455	129.19
335.684	109.19
335.912	115.19
336.14	100.19
336.369	103.19
336.597	98.19
336.825	97.19
337.053	96.19
337.281	106.19
337.51	104.19
337.738	75.19
337.966	102.19
338.194	104.19
338.422	96.19
338.65	88.19
338.878	104.19
339.106	94.19
339.334	95.19
339.562	99.19
339.79	99.19
340.018	96.19
340.246	89.19
340.474	88.19
340.702	88.19
340.93	99.19
341.158	87.19
341.386	97.19
341.614	106.19
341.842	98.19
342.07	108.19
342.298	98.19
342.526	99.19
342.754	91.19
342.981	90.19
343.209	90.19
343.437	83.19
343.665	98.19
343.893	84.19
344.12	99.19
344.348	91.19
344.576	88.19
344.804	108.19
345.031	108.19
345.259	110.19
345.487	111.19
345.714	87.19
345.942	103.19
346.17	90.19
346.397	82.19
346.625	111.19
346.853	89.19
347.08	100.19
347.308	98.19
347.535	94.19
347.763	101.19
347.99	88.19
348.218	105.19
348.445	118.19
348.673	99.19
348.9	104.19
349.128	102.19
349.355	84.19
349.583	94.19
349.81	107.19
350.037	94.19
350.265	106.19
350.492	102.19
350.72	89.19
350.947	101.19
351.174	121.19
351.402	114.19
351.629	101.19
351.856	123.19
352.083	95.19
352.311	108.19
352.538	127.19
352.765	120.19
352.992	110.19
353.22	119.19
353.447	102.19
353.674	97.19
353.901	98.19
354.128	108.19
354.355	98.19
354.583	100.19
354.81	105.19
355.037	103.19
355.264	92.19
355.491	105.19
355.718	98.19
355.945	106.19
356.172	96.19
356.399	99.19
356.626	99.19
356.853	93.19
357.08	93.19
357.307	84.19
357.534	87.19
357.761	84.19
357.988	94.19
358.215	84.19
358.441	86.19
358.668	98.19
358.895	94.19
359.122	89.19
359.349	92.19
359.576	91.19
359.802	110.19
360.029	148.19
360.256	136.19
360.483	122.19
360.709	101.19
360.936	89.19
361.163	88.19
361.39	111.19
361.616	103.19
361.843	98.19
362.07	113.19
362.296	104.19
362.523	100.19
362.749	100.19
362.976	92.19
363.203	84.19
363.429	96.19
363.656	88.19
363.882	93.19
364.109	88.19
364.335	101.19
364.562	99.19
364.788	101.19
365.015	106.19
365.241	114.19
365.468	122.19
365.694	115.19
365.92	115.19
366.147	95.19
366.373	86.19
366.599	87.19
366.826	80.19
367.052	82.19
367.278	98.19
367.505	94.19
367.731	93.19
367.957	105.19
368.184	100.19
368.41	116.19
368.636	114.19
368.862	131.19
369.089	117.19
369.315	106.19
369.541	90.19
369.767	87.19
369.993	90.19
370.219	97.19
370.445	91.19
370.672	96.19
370.898	85.19
371.124	93.19
371.35	90.19
371.576	87.19
371.802	88.19
372.028	87.19
372.254	96.19
372.48	94.19
372.706	75.19
372.932	87.19
373.158	78.19
373.384	84.19
373.61	82.19
373.835	81.19
374.061	104.19
374.287	92.19
374.513	88.19
374.739	94.19
374.965	89.19
375.191	84.19
375.416	88.19
375.642	86.19
375.868	92.19
376.094	94.19
376.319	90.19
376.545	75.19
376.771	92.19
376.997	98.19
377.222	101.19
377.448	72.19
377.674	78.19
377.899	80.19
378.125	85.19
378.35	91.19
378.576	79.19
378.802	76.19
379.027	95.19
379.253	92.19
379.478	95.19
379.704	85.19
379.929	92.19
380.155	83.19
380.38	91.19
380.606	88.19
380.831	91.19
381.057	97.19
381.282	95.19
381.507	89.19
381.733	96.19
381.958	98.19
382.184	84.19
382.409	98.19
382.634	94.19
382.86	91.19
383.085	90.19
383.31	87.19
383.535	98.19
383.761	91.19
383.986	96.19
384.211	86.19
384.436	105.19
384.662	102.19
384.887	90.19
385.112	107.19
385.337	100.19
385.562	107.19
385.787	104.19
386.013	102.19
386.238	120.19
386.463	99.19
386.688	114.19
386.913	87.19
387.138	95.19
387.363	105.19
387.588	95.19
387.813	88.19
388.038	105.19
388.263	107.19
388.488	104.19
388.713	91.19
388.938	104.19
389.163	102.19
389.387	90.19
389.612	89.19
389.837	102.19
390.062	95.19
390.287	83.19
390.512	71.19
390.736	101.19
390.961	95.19
391.186	89.19
391.411	91.19
391.636	82.19
391.86	103.19
392.085	83.19
392.31	91.19
392.534	79.19
392.759	86.19
392.984	86.19
393.208	105.19
393.433	97.19
393.658	90.19
393.882	83.19
394.107	77.19
394.331	84.19
394.556	87.19
394.78	94.19
395.005	93.19
395.229	81.19
395.454	87.19
395.678	82.19
395.903	88.19
396.127	91.19
396.352	88.19
396.576	81.19
396.801	92.19
397.025	95.19
397.249	86.19
397.474	91.19
397.698	77.19
397.922	98.19
398.147	87.19
398.371	95.19
398.595	93.19
398.82	84.19
399.044	83.19
399.268	102.19
399.492	81.19
399.717	91.19
399.941	79.19
400.165	81.19
400.389	82.19
400.613	83.19
400.837	95.19
401.062	82.19
401.286	86.19
401.51	94.19
401.734	91.19
401.958	99.19
402.182	142.19
402.406	192.19
402.63	151.19
402.854	111.19
403.078	81.19
403.302	94.19
403.526	74.19
403.75	99.19
403.974	100.19
404.198	86.19
404.422	94.19
404.645	83.19
404.869	87.19
405.093	113.19
405.317	136.19
405.541	146.19
405.765	115.19
405.988	147.19
406.212	216.19
406.436	315.19
406.66	225.19
406.883	114.19
407.107	104.19
407.331	98.19
407.555	102.19
407.778	92.19
408.002	106.19
408.226	84.19
408.449	79.19
408.673	89.19
408.896	95.19
409.12	88.19
409.344	96.19
409.567	83.19
409.791	82.19
410.014	88.19
410.238	96.19
410.461	86.19
410.685	92.19
410.908	110.19
411.132	116.19
411.355	97.19
411.578	85.19
411.802	101.19
412.025	84.19
412.249	91.19
412.472	104.19
412.695	133.19
412.919	91.19
413.142	114.19
413.365	85.19
413.589	76.19
413.812	87.19
414.035	88.19
414.258	92.19
414.482	92.19
414.705	76.19
414.928	89.19
415.151	98.19
415.374	83.19
415.597	72.19
415.821	86.19
416.044	92.19
416.267	91.19
416.49	90.19
416.713	84.19
416.936	94.19
417.159	84.19
417.382	75.19
417.605	94.19
417.828	114.19
418.051	93.19
418.274	87.19
418.497	74.19
418.72	93.19
418.943	70.19
419.166	86.19
419.389	83.19
419.611	85.19
419.834	84.19
420.057	89.19
420.28	94.19
420.503	94.19
420.726	96.19
420.948	90.19
421.171	110.19
421.394	102.19
421.617	82.19
421.839	88.19
422.062	100.19
422.285	89.19
422.507	97.19
422.73	110.19
422.953	95.19
423.175	80.19
423.398	91.19
423.621	81.19
423.843	81.19
424.066	98.19
424.288	88.19
424.511	107.19
424.733	105.19
424.956	114.19
425.178	105.19
425.401	109.19
425.623	99.19
425.846	101.19
426.068	101.19
426.291	98.19
426.513	86.19
426.735	75.19
426.958	100.19
427.18	128.19
427.402	155.19
427.625	251.19
427.847	226.19
428.069	188.19
428.292	120.19
428.514	87.19
428.736	88.19
428.958	90.19
429.181	83.19
429.403	97.19
429.625	89.19
429.847	101.19
430.069	105.19
430.292	93.19
430.514	92.19
430.736	83.19
430.958	83.19
431.18	80.19
431.402	83.19
431.624	82.19
431.846	80.19
432.068	76.19
432.29	90.19
432.512	90.19
432.734	96.19
432.956	95.19
433.178	91.19
433.4	98.19
433.622	93.19
433.844	81.19
434.066	101.19
434.287	88.19
434.509	80.19
434.731	75.19
434.953	90.19
435.175	88.19
435.397	98.19
435.618	111.19
435.84	111.19
436.062	126.19
436.284	101.19
436.505	95.19
436.727	120.19
436.949	101.19
437.17	87.19
437.392	87.19
437.614	94.19
437.835	131.19
438.057	157.19
438.278	119.19
438.5	107.19
438.721	142.19
438.943	106.19
439.165	95.19
439.386	103.19
439.608	102.19
439.829	106.19
440.05	155.19
440.272	190.19
440.493	104.19
440.715	83.19
440.936	97.19
441.158	90.19
441.379	91.19
441.6	105.19
441.822	109.19
442.043	98.19
442.264	104.19
442.486	103.19
442.707	92.19
442.928	112.19
443.149	162.19
443.371	173.19
443.592	119.19
443.813	127.19
444.034	105.19
444.255	84.19
444.476	79.19
444.698	80.19
444.919	92.19
445.14	130.19
445.361	119.19
445.582	115.19
445.803	192.19
446.024	164.19
446.245	162.19
446.466	128.19
446.687	79.19
446.908	86.19
447.129	83.19
447.35	82.19
447.571	104.19
447.792	88.19
448.013	100.19
448.234	115.19
448.455	101.19
448.675	118.19
448.896	111.19
449.117	105.19
449.338	97.19
449.559	142.19
449.779	146.19
450	102.19
450.221	85.19
450.442	96.19
450.662	105.19
450.883	126.19
451.104	136.19
451.324	104.19
451.545	90.19
451.766	93.19
451.986	73.19
452.207	89.19
452.428	88.19
452.648	124.19
452.869	143.19
453.089	141.19
453.31	139.19
453.53	104.19
453.751	97.19
453.971	121.19
454.192	145.19
454.412	98.19
454.633	84.19
454.853	73.19
455.073	83.19
455.294	88.19
455.514	112.19
455.734	96.19
455.955	81.19
456.175	76.19
456.395	88.19
456.616	85.19
456.836	91.19
457.056	78.19
457.276	85.19
457.497	94.19
457.717	70.19
457.937	85.19
458.157	79.19
458.377	102.19
458.598	127.19
458.818	210.19
459.038	245.19
459.258	143.19
459.478	98.19
459.698	80.19
459.918	106.19
460.138	95.19
460.358	94.19
460.578	80.19
460.798	89.19
461.018	92.19
461.238	89.19
461.458	75.19
461.678	91.19
461.898	96.19
462.118	102.19
462.338	81.19
462.558	78.19
462.777	86.19
462.997	92.19
463.217	93.19
463.437	82.19
463.657	97.19
463.876	90.19
464.096	100.19
464.316	101.19
464.536	107.19
464.755	102.19
464.975	131.19
465.195	236.19
465.414	250.19
465.634	106.19
465.854	84.19
466.073	97.19
466.293	97.19
466.512	97.19
466.732	99.19
466.951	78.19
467.171	107.19
467.391	101.19
467.61	136.19
467.829	175.19
468.049	419.19
468.268	666.19
468.488	187.19
468.707	102.19
468.927	86.19
469.146	84.19
469.365	97.19
469.585	96.19
469.804	112.19
470.023	109.19
470.243	95.19
470.462	121.19
470.681	145.19
470.901	123.19
471.12	119.19
471.339	106.19
471.558	107.19
471.777	128.19
471.997	243.19
472.216	808.19
472.435	1933.19
472.654	479.19
472.873	150.19
473.092	95.19
473.311	102.19
473.53	90.19
473.749	105.19
473.968	98.19
474.187	132.19
474.406	108.19
474.625	102.19
474.844	84.19
475.063	87.19
475.282	89.19
475.501	83.19
475.72	92.19
475.939	79.19
476.158	82.19
476.377	91.19
476.596	86.19
476.814	99.19
477.033	111.19
477.252	105.19
477.471	91.19
477.69	82.19
477.908	99.19
478.127	84.19
478.346	105.19
478.564	108.19
478.783	115.19
479.002	95.19
479.22	118.19
479.439	120.19
479.658	130.19
479.876	106.19
480.095	97.19
480.313	130.19
480.532	146.19
480.751	228.19
480.969	743.19
481.188	3193.19
481.406	2004.19
481.624	301.19
481.843	122.19
482.061	104.19
482.28	84.19
482.498	100.19
482.717	94.19
482.935	80.19
483.153	85.19
483.372	80.19
483.59	92.19
483.808	90.19
484.027	106.19
484.245	88.19
484.463	86.19
484.681	91.19
484.9	101.19
485.118	94.19
485.336	97.19
485.554	100.19
485.772	114.19
485.99	91.19
486.209	91.19
486.427	95.19
486.645	117.19
486.863	136.19
487.081	110.19
487.299	93.19
487.517	97.19
487.735	103.19
487.953	95.19
488.171	78.19
488.389	88.19
488.607	94.19
488.825	90.19
489.043	100.19
489.261	92.19
489.479	89.19
489.696	79.19
489.914	97.19
490.132	93.19
490.35	84.19
490.568	81.19
490.786	102.19
491.003	88.19
491.221	103.19
491.439	101.19
491.657	87.19
491.874	102.19
492.092	109.19
492.31	101.19
492.527	105.19
492.745	96.19
492.963	97.19
493.18	96.19
493.398	82.19
493.615	92.19
493.833	102.19
494.05	98.19
494.268	92.19
494.485	101.19
494.703	77.19
494.92	101.19
495.138	95.19
495.355	95.19
495.573	78.19
495.79	79.19
496.008	81.19
496.225	99.19
496.442	80.19
496.66	92.19
496.877	88.19
497.094	91.19
497.312	86.19
497.529	92.19
497.746	82.19
497.963	86.19
498.181	98.19
498.398	101.19
498.615	128.19
498.832	109.19
499.049	83.19
499.267	84.19
499.484	82.19
499.701	90.19
499.918	75.19
500.135	96.19
500.352	83.19
500.569	103.19
500.786	98.19
501.003	97.19
501.22	77.19
501.437	86.19
501.654	102.19
501.871	146.19
502.088	85.19
502.305	80.19
502.522	86.19
502.739	98.19
502.956	82.19
503.172	98.19
503.389	106.19
503.606	127.19
503.823	109.19
504.04	103.19
504.256	90.19
504.473	81.19
504.69	92.19
504.907	94.19
505.123	97.19
505.34	84.19
505.557	81.19
505.773	90.19
505.99	97.19
506.207	87.19
506.423	88.19
506.64	88.19
506.856	80.19
507.073	94.19
507.289	100.19
507.506	100.19
507.722	127.19
507.939	140.19
508.155	110.19
508.372	93.19
508.588	104.19
508.805	100.19
509.021	92.19
509.238	84.19
509.454	100.19
509.67	87.19
509.887	114.19
510.103	143.19
510.319	235.19
510.536	867.19
510.752	3198.19
510.968	883.19
511.184	193.19
511.401	134.19
511.617	124.19
511.833	118.19
512.049	103.19
512.265	88.19
512.481	105.19
512.698	87.19
512.914	83.19
513.13	105.19
513.346	94.19
513.562	95.19
513.778	106.19
513.994	110.19
514.21	112.19
514.426	128.19
514.642	182.19
514.858	156.19
515.074	221.19
515.29	711.19
515.506	2639.19
515.721	963.19
515.937	227.19
516.153	125.19
516.369	109.19
516.585	95.19
516.801	91.19
517.016	93.19
517.232	96.19
517.448	92.19
517.664	103.19
517.879	103.19
518.095	89.19
518.311	106.19
518.527	106.19
518.742	94.19
518.958	92.19
519.173	86.19
519.389	111.19
519.605	93.19
519.82	121.19
520.036	107.19
520.251	150.19
520.467	140.19
520.682	126.19
520.898	135.19
521.113	157.19
521.329	183.19
521.544	300.19
521.76	908.19
521.975	4269.19
522.19	2674.19
522.406	528.19
522.621	179.19
522.836	122.19
523.052	111.19
523.267	116.19
523.482	98.19
523.698	119.19
523.913	138.19
524.128	115.19
524.343	99.19
524.559	106.19
524.774	103.19
524.989	103.19
525.204	124.19
525.419	109.19
525.634	99.19
525.849	92.19
526.064	89.19
526.28	88.19
526.495	101.19
526.71	88.19
526.925	89.19
527.14	92.19
527.355	90.19
527.57	94.19
527.785	93.19
527.999	90.19
528.214	86.19
528.429	105.19
528.644	97.19
528.859	88.19
529.074	111.19
529.289	163.19
529.503	284.19
529.718	125.19
529.933	93.19
530.148	94.19
530.363	88.19
530.577	100.19
530.792	90.19
531.007	81.19
531.221	92.19
531.436	82.19
531.651	94.19
531.865	82.19
532.08	89.19
532.295	103.19
532.509	94.19
532.724	90.19
532.938	86.19
533.153	92.19
533.367	90.19
533.582	82.19
533.796	87.19
534.011	90.19
534.225	94.19
534.44	90.19
534.654	78.19
534.868	97.19
535.083	91.19
535.297	102.19
535.511	115.19
535.726	114.19
535.94	114.19
536.154	101.19
536.369	84.19
536.583	90.19
536.797	92.19
537.011	86.19
537.225	85.19
537.44	88.19
537.654	83.19
537.868	97.19
538.082	99.19
538.296	98.19
538.51	99.19
538.724	86.19
538.938	90.19
539.153	97.19
539.367	124.19
539.581	92.19
539.795	85.19
540.009	78.19
540.222	91.19
540.436	83.19
540.65	95.19
540.864	90.19
541.078	96.19
541.292	92.19
541.506	109.19
541.72	96.19
541.934	91.19
542.147	78.19
542.361	83.19
542.575	86.19
542.789	94.19
543.002	83.19
543.216	109.19
543.43	107.19
543.644	88.19
543.857	87.19
544.071	88.19
544.285	86.19
544.498	85.19
544.712	86.19
544.925	81.19
545.139	92.19
545.352	96.19
545.566	94.19
545.779	89.19
545.993	93.19
546.206	59.19
546.42	84.19
546.633	93.19
546.847	98.19
547.06	91.19
547.274	82.19
547.487	89.19
547.7	88.19
547.914	98.19
548.127	97.19
548.34	94.19
548.554	93.19
548.767	96.19
548.98	83.19
549.193	74.19
549.407	94.19
549.62	86.19
549.833	94.19
550.046	90.19
550.259	85.19
550.473	73.19
550.686	120.19
550.899	90.19
551.112	95.19
551.325	96.19
551.538	94.19
551.751	90.19
551.964	94.19
552.177	92.19
552.39	77.19
552.603	87.19
552.816	87.19
553.029	81.19
553.242	85.19
553.455	96.19
553.667	105.19
553.88	107.19
554.093	101.19
554.306	96.19
554.519	92.19
554.732	91.19
554.944	104.19
555.157	98.19
555.37	96.19
555.583	84.19
555.795	95.19
556.008	79.19
556.221	87.19
556.433	78.19
556.646	94.19
556.859	74.19
557.071	87.19
557.284	96.19
557.496	102.19
557.709	75.19
557.921	90.19
558.134	84.19
558.346	87.19
558.559	94.19
558.771	95.19
558.984	87.19
559.196	105.19
559.409	87.19
559.621	90.19
559.833	87.19
560.046	94.19
560.258	120.19
560.47	136.19
560.683	94.19
560.895	90.19
561.107	87.19
561.32	93.19
561.532	89.19
561.744	86.19
561.956	87.19
562.168	91.19
562.381	100.19
562.593	93.19
562.805	107.19
563.017	94.19
563.229	84.19
563.441	75.19
563.653	95.19
563.865	97.19
564.077	97.19
564.289	91.19
564.501	90.19
564.713	98.19
564.925	98.19
565.137	116.19
565.349	93.19
565.561	88.19
565.773	93.19
565.985	80.19
566.197	89.19
566.408	79.19
566.62	90.19
566.832	86.19
567.044	79.19
567.255	80.19
567.467	84.19
567.679	90.19
567.891	75.19
568.102	74.19
568.314	79.19
568.526	80.19
568.737	75.19
568.949	92.19
569.161	102.19
569.372	96.19
569.584	94.19
569.795	97.19
570.007	119.19
570.218	285.19
570.43	157.19
570.641	93.19
570.853	81.19
571.064	95.19
571.276	79.19
571.487	77.19
571.698	75.19
571.91	86.19
572.121	87.19
572.333	79.19
572.544	90.19
572.755	87.19
572.966	91.19
573.178	87.19
573.389	93.19
573.6	90.19
573.811	78.19
574.023	97.19
574.234	82.19
574.445	88.19
574.656	90.19
574.867	90.19
575.078	87.19
575.289	91.19
575.501	94.19
575.712	79.19
575.923	80.19
576.134	87.19
576.345	79.19
576.556	80.19
576.767	87.19
576.978	95.19
577.188	97.19
577.399	82.19
577.61	86.19
577.821	90.19
578.032	114.19
578.243	307.19
578.454	991.19
578.665	256.19
578.875	111.19
579.086	102.19
579.297	87.19
579.508	78.19
579.718	85.19
579.929	84.19
580.14	99.19
580.35	93.19
580.561	93.19
580.772	88.19
580.982	89.19
581.193	84.19
581.403	81.19
581.614	80.19
581.825	92.19
582.035	82.19
582.246	86.19
582.456	81.19
582.667	81.19
582.877	88.19
583.087	96.19
583.298	101.19
583.508	87.19
583.719	97.19
583.929	87.19
584.139	62.19
584.35	88.19
584.56	93.19
584.77	83.19
584.981	81.19
585.191	76.19
585.401	80.19
585.611	76.19
585.821	88.19
586.032	99.19
586.242	78.19
586.452	79.19
586.662	88.19
586.872	102.19
587.082	86.19
587.292	85.19
587.502	93.19
587.713	100.19
587.923	79.19
588.133	85.19
588.343	87.19
588.553	71.19
588.762	90.19
588.972	104.19
589.182	100.19
589.392	90.19
589.602	94.19
589.812	95.19
590.022	96.19
590.232	97.19
590.441	99.19
590.651	83.19
590.861	73.19
591.071	92.19
591.281	86.19
591.49	89.19
591.7	82.19
591.91	82.19
592.119	96.19
592.329	97.19
592.539	103.19
592.748	89.19
592.958	91.19
593.167	73.19
593.377	79.19
593.587	107.19
593.796	94.19
594.006	87.19
594.215	76.19
594.424	92.19
594.634	85.19
594.843	83.19
595.053	85.19
595.262	82.19
595.472	90.19
595.681	88.19
595.89	100.19
596.1	95.19
596.309	108.19
596.518	83.19
596.727	85.19
596.937	70.19
597.146	81.19
597.355	84.19
597.564	84.19
597.774	92.19
597.983	98.19
598.192	90.19
598.401	76.19
598.61	78.19
598.819	67.19
599.028	80.19
599.237	93.19
599.446	85.19
599.655	81.19
599.864	92.19
600.073	79.19
600.282	86.19
600.491	78.19
600.7	81.19
600.909	82.19
601.118	84.19
601.327	93.19
601.536	90.19
601.745	84.19
601.953	85.19
602.162	94.19
602.371	86.19
602.58	73.19
602.789	79.19
602.997	77.19
603.206	83.19
603.415	84.19
603.623	104.19
603.832	82.19
604.041	82.19
604.249	95.19
604.458	96.19
604.666	79.19
604.875	78.19
605.084	94.19
605.292	91.19
605.501	92.19
605.709	82.19
605.918	83.19
606.126	76.19
606.334	92.19
606.543	98.19
606.751	91.19
606.96	84.19
607.168	81.19
607.376	100.19
607.585	90.19
607.793	94.19
608.001	83.19
608.21	80.19
608.418	85.19
608.626	75.19
608.834	88.19
609.043	91.19
609.251	81.19
609.459	94.19
609.667	77.19
609.875	81.19
610.083	82.19
610.291	86.19
610.499	94.19
610.707	98.19
610.916	83.19
611.124	75.19
611.332	75.19
611.54	85.19
611.748	86.19
611.955	81.19
612.163	86.19
612.371	78.19
612.579	90.19
612.787	68.19
612.995	84.19
613.203	82.19
613.411	80.19
613.618	66.19
613.826	90.19
614.034	90.19
614.242	87.19
614.449	76.19
614.657	77.19
614.865	73.19
615.072	90.19
615.28	84.19
615.488	79.19
615.695	85.19
615.903	85.19
616.111	97.19
616.318	100.19
616.526	89.19
616.733	96.19
616.941	90.19
617.148	82.19
617.356	74.19
617.563	95.19
617.771	79.19
617.978	88.19
618.185	88.19
618.393	68.19
618.6	80.19
618.807	93.19
619.015	90.19
619.222	79.19
619.429	86.19
619.637	84.19
619.844	72.19
620.051	62.19
620.258	88.19
620.466	79.19
620.673	81.19
620.88	75.19
621.087	76.19
621.294	80.19
621.501	82.19
621.708	73.19
621.915	85.19
622.122	97.19
622.329	79.19
622.536	82.19
622.743	88.19
622.95	74.19
623.157	73.19
623.364	99.19
623.571	90.19
623.778	80.19
623.985	89.19
624.192	72.19
624.399	84.19
624.606	72.19
624.812	81.19
625.019	75.19
625.226	78.19
625.433	92.19
625.639	95.19
625.846	81.19
626.053	93.19
626.259	88.19
626.466	83.19
626.673	83.19
626.879	82.19
627.086	88.19
627.293	83.19
627.499	78.19
627.706	90.19
627.912	83.19
628.119	77.19
628.325	72.19
628.532	75.19
628.738	93.19
628.945	80.19
629.151	79.19
629.357	73.19
629.564	82.19
629.77	72.19
629.976	82.19
630.183	74.19
630.389	89.19
630.595	83.19
630.802	91.19
631.008	87.19
631.214	75.19
631.42	80.19
631.627	82.19
631.833	88.19
632.039	87.19
632.245	87.19
632.451	77.19
632.657	99.19
632.863	78.19
633.069	78.19
633.275	81.19
633.481	84.19
633.688	89.19
633.893	87.19
634.099	88.19
634.305	87.19
634.511	76.19
634.717	79.19
634.923	93.19
635.129	76.19
635.335	74.19
635.541	90.19
635.747	86.19
635.952	95.19
636.158	124.19
636.364	312.19
636.57	267.19
636.775	128.19
636.981	105.19
637.187	94.19
637.392	79.19
637.598	88.19
637.804	87.19
638.009	88.19
638.215	82.19
638.421	75.19
638.626	78.19
638.832	78.19
639.037	86.19
639.243	81.19
639.448	78.19
639.654	81.19
639.859	70.19
640.065	79.19
640.27	83.19
640.475	75.19
640.681	85.19
640.886	88.19
641.091	80.19
641.297	91.19
641.502	104.19
641.707	81.19
641.913	78.19
642.118	78.19
642.323	79.19
642.528	80.19
642.733	91.19
642.939	100.19
643.144	115.19
643.349	81.19
643.554	83.19
643.759	80.19
643.964	78.19
644.169	81.19
644.374	81.19
644.579	83.19
644.784	77.19
644.989	89.19
645.194	74.19
645.399	86.19
645.604	76.19
645.809	89.19
646.014	87.19
646.219	84.19
646.423	77.19
646.628	89.19
646.833	86.19
647.038	79.19
647.243	96.19
647.447	90.19
647.652	88.19
647.857	82.19
648.062	93.19
648.266	107.19
648.471	82.19
648.676	93.19
648.88	87.19
649.085	93.19
649.289	96.19
649.494	113.19
649.698	137.19
649.903	102.19
650.107	93.19
650.312	81.19
650.516	84.19
650.721	78.19
650.925	90.19
651.13	87.19
651.334	78.19
651.539	90.19
651.743	86.19
651.947	87.19
652.152	91.19
652.356	76.19
652.56	78.19
652.764	90.19
652.969	82.19
653.173	77.19
653.377	62.19
653.581	74.19
653.785	72.19
653.99	85.19
654.194	76.19
654.398	78.19
654.602	85.19
654.806	102.19
655.01	110.19
655.214	85.19
655.418	90.19
655.622	100.19
655.826	78.19
656.03	85.19
656.234	87.19
656.438	89.19
656.642	80.19
656.846	91.19
657.049	73.19
657.253	74.19
657.457	82.19
657.661	70.19
657.865	84.19
658.068	81.19
658.272	76.19
658.476	76.19
658.68	80.19
658.883	76.19
659.087	62.19
659.291	64.19
659.494	80.19
659.698	93.19
659.901	94.19
660.105	84.19
660.309	74.19
660.512	78.19
660.716	83.19
660.919	85.19
661.123	89.19
661.326	81.19
661.53	74.19
661.733	97.19
661.936	90.19
662.14	77.19
662.343	96.19
662.546	80.19
662.75	72.19
662.953	83.19
663.156	70.19
663.36	72.19
663.563	84.19
663.766	88.19
663.969	100.19
664.173	83.19
664.376	71.19
664.579	78.19
664.782	84.19
664.985	70.19
665.188	74.19
665.391	83.19
665.594	82.19
665.797	77.19
666	71.19
666.203	84.19
666.406	68.19
666.609	78.19
666.812	88.19
667.015	86.19
667.218	83.19
667.421	85.19
667.624	83.19
667.827	73.19
668.03	81.19
668.232	62.19
668.435	91.19
668.638	80.19
668.841	73.19
669.043	91.19
669.246	62.19
669.449	83.19
669.651	72.19
669.854	81.19
670.057	80.19
670.259	82.19
670.462	75.19
670.665	76.19
670.867	71.19
671.07	77.19
671.272	88.19
671.475	77.19
671.677	89.19
671.88	76.19
672.082	72.19
672.284	81.19
672.487	74.19
672.689	71.19
672.892	76.19
