Data from StdC_HRD10591_001.txt Node
Date: Fri May 16 15:28:41 EDT 2025
User: Yrep
Spectrometer: HR+D1059
Trigger mode: 1
Integration Time (sec): 1.000000E-1
Scans to average: 1
Electric dark correction enabled: true
Nonlinearity correction enabled: false
Boxcar width: 0
XAxis mode: Wavelengths
Number of Pixels in Spectrum: 2048
>>>>>Begin Spectral Data<<<<<
223.165	-22.12
223.4	-22.12
223.635	-22.12
223.869	-18.12
224.104	-14.12
224.338	-23.12
224.573	-17.12
224.808	-16.12
225.042	-14.12
225.277	-14.12
225.511	-13.12
225.746	0.88
225.98	18.88
226.215	23.88
226.449	18.88
226.683	33.88
226.918	19.88
227.152	35.88
227.387	24.88
227.621	37.88
227.856	37.88
228.09	46.88
228.324	44.88
228.559	53.88
228.793	60.88
229.027	56.88
229.262	82.88
229.496	67.88
229.73	68.88
229.964	66.88
230.199	71.88
230.433	62.88
230.667	86.88
230.901	69.88
231.136	85.88
231.37	81.88
231.604	79.88
231.838	75.88
232.072	70.88
232.306	69.88
232.541	80.88
232.775	79.88
233.009	75.88
233.243	79.88
233.477	79.88
233.711	76.88
233.945	78.88
234.179	75.88
234.413	84.88
234.647	79.88
234.881	77.88
235.115	89.88
235.349	69.88
235.583	75.88
235.817	69.88
236.051	81.88
236.285	78.88
236.519	79.88
236.753	75.88
236.987	70.88
237.221	69.88
237.455	83.88
237.689	68.88
237.922	61.88
238.156	69.88
238.39	66.88
238.624	73.88
238.858	69.88
239.091	59.88
239.325	69.88
239.559	75.88
239.793	98.88
240.027	78.88
240.26	75.88
240.494	79.88
240.728	78.88
240.961	83.88
241.195	87.88
241.429	77.88
241.662	74.88
241.896	66.88
242.13	69.88
242.363	87.88
242.597	82.88
242.83	69.88
243.064	73.88
243.298	82.88
243.531	79.88
243.765	79.88
243.998	78.88
244.232	71.88
244.465	81.88
244.699	66.88
244.932	75.88
245.166	75.88
245.399	71.88
245.633	69.88
245.866	72.88
246.099	51.88
246.333	78.88
246.566	77.88
246.8	76.88
247.033	62.88
247.266	85.88
247.5	76.88
247.733	68.88
247.966	74.88
248.2	89.88
248.433	74.88
248.666	73.88
248.899	87.88
249.133	83.88
249.366	87.88
249.599	90.88
249.832	78.88
250.066	84.88
250.299	61.88
250.532	75.88
250.765	70.88
250.998	79.88
251.231	73.88
251.465	84.88
251.698	74.88
251.931	77.88
252.164	61.88
252.397	83.88
252.63	79.88
252.863	69.88
253.096	79.88
253.329	84.88
253.562	71.88
253.795	63.88
254.028	61.88
254.261	87.88
254.494	79.88
254.727	79.88
254.96	66.88
255.193	70.88
255.426	79.88
255.659	75.88
255.892	78.88
256.124	80.88
256.357	85.88
256.59	77.88
256.823	75.88
257.056	90.88
257.289	84.88
257.521	73.88
257.754	73.88
257.987	63.88
258.22	73.88
258.452	80.88
258.685	76.88
258.918	69.88
259.151	80.88
259.383	84.88
259.616	84.88
259.849	82.88
260.081	78.88
260.314	82.88
260.547	67.88
260.779	78.88
261.012	75.88
261.244	75.88
261.477	82.88
261.71	75.88
261.942	79.88
262.175	86.88
262.407	81.88
262.64	73.88
262.872	73.88
263.105	67.88
263.337	65.88
263.57	66.88
263.802	77.88
264.035	71.88
264.267	75.88
264.499	77.88
264.732	85.88
264.964	83.88
265.197	67.88
265.429	83.88
265.661	78.88
265.894	81.88
266.126	83.88
266.358	92.88
266.591	85.88
266.823	84.88
267.055	76.88
267.287	79.88
267.52	62.88
267.752	89.88
267.984	84.88
268.216	83.88
268.448	82.88
268.681	75.88
268.913	83.88
269.145	76.88
269.377	85.88
269.609	84.88
269.841	82.88
270.073	81.88
270.306	89.88
270.538	86.88
270.77	80.88
271.002	82.88
271.234	72.88
271.466	87.88
271.698	87.88
271.93	79.88
272.162	92.88
272.394	95.88
272.626	82.88
272.858	69.88
273.09	101.88
273.322	84.88
273.553	87.88
273.785	82.88
274.017	83.88
274.249	82.88
274.481	82.88
274.713	83.88
274.945	80.88
275.176	66.88
275.408	87.88
275.64	89.88
275.872	84.88
276.104	76.88
276.335	81.88
276.567	93.88
276.799	81.88
277.031	79.88
277.262	81.88
277.494	89.88
277.726	90.88
277.957	90.88
278.189	82.88
278.421	73.88
278.652	79.88
278.884	83.88
279.115	84.88
279.347	105.88
279.579	69.88
279.81	85.88
280.042	106.88
280.273	93.88
280.505	83.88
280.736	79.88
280.968	79.88
281.199	80.88
281.431	81.88
281.662	72.88
281.894	84.88
282.125	92.88
282.356	87.88
282.588	77.88
282.819	99.88
283.051	87.88
283.282	69.88
283.513	97.88
283.745	78.88
283.976	78.88
284.207	90.88
284.439	81.88
284.67	87.88
284.901	90.88
285.132	87.88
285.364	81.88
285.595	75.88
285.826	84.88
286.057	83.88
286.288	71.88
286.52	83.88
286.751	80.88
286.982	87.88
287.213	78.88
287.444	75.88
287.675	80.88
287.906	89.88
288.138	85.88
288.369	91.88
288.6	85.88
288.831	89.88
289.062	85.88
289.293	75.88
289.524	86.88
289.755	80.88
289.986	85.88
290.217	74.88
290.448	75.88
290.679	76.88
290.91	82.88
291.141	71.88
291.371	88.88
291.602	64.88
291.833	82.88
292.064	86.88
292.295	83.88
292.526	87.88
292.757	93.88
292.987	88.88
293.218	87.88
293.449	77.88
293.68	87.88
293.91	78.88
294.141	86.88
294.372	85.88
294.603	72.88
294.833	79.88
295.064	85.88
295.295	67.88
295.525	81.88
295.756	83.88
295.987	78.88
296.217	86.88
296.448	82.88
296.679	85.88
296.909	83.88
297.14	71.88
297.37	85.88
297.601	81.88
297.831	65.88
298.062	75.88
298.292	79.88
298.523	86.88
298.753	78.88
298.984	91.88
299.214	85.88
299.445	83.88
299.675	78.88
299.905	83.88
300.136	87.88
300.366	78.88
300.597	71.88
300.827	94.88
301.057	84.88
301.288	79.88
301.518	71.88
301.748	78.88
301.979	85.88
302.209	86.88
302.439	80.88
302.669	62.88
302.9	76.88
303.13	81.88
303.36	80.88
303.59	91.88
303.82	87.88
304.051	80.88
304.281	98.88
304.511	76.88
304.741	83.88
304.971	84.88
305.201	83.88
305.431	85.88
305.661	83.88
305.891	81.88
306.121	90.88
306.352	87.88
306.582	95.88
306.812	81.88
307.042	83.88
307.272	93.88
307.502	94.88
307.731	95.88
307.961	91.88
308.191	81.88
308.421	97.88
308.651	99.88
308.881	87.88
309.111	77.88
309.341	106.88
309.571	86.88
309.8	86.88
310.03	79.88
310.26	89.88
310.49	82.88
310.72	78.88
310.949	87.88
311.179	83.88
311.409	86.88
311.639	67.88
311.868	79.88
312.098	79.88
312.328	78.88
312.557	93.88
312.787	77.88
313.017	80.88
313.246	83.88
313.476	83.88
313.706	72.88
313.935	91.88
314.165	77.88
314.394	81.88
314.624	78.88
314.853	82.88
315.083	73.88
315.312	80.88
315.542	72.88
315.771	85.88
316.001	81.88
316.23	78.88
316.46	92.88
316.689	76.88
316.919	77.88
317.148	90.88
317.377	73.88
317.607	81.88
317.836	85.88
318.065	91.88
318.295	87.88
318.524	79.88
318.753	79.88
318.983	94.88
319.212	88.88
319.441	77.88
319.67	81.88
319.9	83.88
320.129	75.88
320.358	74.88
320.587	84.88
320.816	98.88
321.046	86.88
321.275	87.88
321.504	67.88
321.733	84.88
321.962	76.88
322.191	77.88
322.42	69.88
322.649	77.88
322.878	74.88
323.108	76.88
323.337	84.88
323.566	74.88
323.795	85.88
324.024	73.88
324.253	85.88
324.482	81.88
324.71	77.88
324.939	90.88
325.168	78.88
325.397	89.88
325.626	77.88
325.855	90.88
326.084	85.88
326.313	75.88
326.542	89.88
326.77	80.88
326.999	80.88
327.228	88.88
327.457	90.88
327.686	89.88
327.914	105.88
328.143	130.88
328.372	129.88
328.6	102.88
328.829	89.88
329.058	82.88
329.287	87.88
329.515	90.88
329.744	110.88
329.972	132.88
330.201	179.88
330.43	211.88
330.658	129.88
330.887	82.88
331.115	77.88
331.344	79.88
331.572	82.88
331.801	71.88
332.03	69.88
332.258	97.88
332.486	78.88
332.715	74.88
332.943	103.88
333.172	90.88
333.4	84.88
333.629	88.88
333.857	100.88
334.085	125.88
334.314	183.88
334.542	237.88
334.771	205.88
334.999	108.88
335.227	81.88
335.455	87.88
335.684	84.88
335.912	89.88
336.14	80.88
336.369	73.88
336.597	75.88
336.825	85.88
337.053	68.88
337.281	67.88
337.51	91.88
337.738	84.88
337.966	72.88
338.194	70.88
338.422	79.88
338.65	74.88
338.878	74.88
339.106	75.88
339.334	90.88
339.562	82.88
339.79	90.88
340.018	78.88
340.246	78.88
340.474	82.88
340.702	79.88
340.93	78.88
341.158	86.88
341.386	80.88
341.614	89.88
341.842	67.88
342.07	82.88
342.298	78.88
342.526	85.88
342.754	89.88
342.981	102.88
343.209	80.88
343.437	92.88
343.665	83.88
343.893	85.88
344.12	93.88
344.348	87.88
344.576	84.88
344.804	85.88
345.031	75.88
345.259	83.88
345.487	72.88
345.714	81.88
345.942	88.88
346.17	88.88
346.397	89.88
346.625	86.88
346.853	75.88
347.08	85.88
347.308	82.88
347.535	68.88
347.763	60.88
347.99	66.88
348.218	85.88
348.445	91.88
348.673	90.88
348.9	73.88
349.128	76.88
349.355	71.88
349.583	94.88
349.81	81.88
350.037	81.88
350.265	63.88
350.492	83.88
350.72	73.88
350.947	82.88
351.174	84.88
351.402	90.88
351.629	77.88
351.856	69.88
352.083	79.88
352.311	86.88
352.538	86.88
352.765	90.88
352.992	86.88
353.22	78.88
353.447	77.88
353.674	78.88
353.901	91.88
354.128	77.88
354.355	89.88
354.583	71.88
354.81	72.88
355.037	82.88
355.264	84.88
355.491	85.88
355.718	75.88
355.945	87.88
356.172	85.88
356.399	70.88
356.626	77.88
356.853	80.88
357.08	83.88
357.307	70.88
357.534	80.88
357.761	81.88
357.988	77.88
358.215	78.88
358.441	78.88
358.668	82.88
358.895	84.88
359.122	88.88
359.349	78.88
359.576	74.88
359.802	69.88
360.029	78.88
360.256	81.88
360.483	95.88
360.709	84.88
360.936	78.88
361.163	82.88
361.39	80.88
361.616	83.88
361.843	87.88
362.07	75.88
362.296	90.88
362.523	70.88
362.749	82.88
362.976	63.88
363.203	77.88
363.429	83.88
363.656	70.88
363.882	71.88
364.109	78.88
364.335	89.88
364.562	74.88
364.788	72.88
365.015	76.88
365.241	76.88
365.468	74.88
365.694	68.88
365.92	91.88
366.147	73.88
366.373	73.88
366.599	74.88
366.826	81.88
367.052	76.88
367.278	71.88
367.505	78.88
367.731	79.88
367.957	78.88
368.184	85.88
368.41	63.88
368.636	85.88
368.862	84.88
369.089	73.88
369.315	67.88
369.541	72.88
369.767	85.88
369.993	83.88
370.219	89.88
370.445	93.88
370.672	74.88
370.898	70.88
371.124	71.88
371.35	67.88
371.576	86.88
371.802	90.88
372.028	89.88
372.254	88.88
372.48	89.88
372.706	92.88
372.932	74.88
373.158	81.88
373.384	73.88
373.61	88.88
373.835	81.88
374.061	72.88
374.287	77.88
374.513	69.88
374.739	74.88
374.965	67.88
375.191	77.88
375.416	72.88
375.642	85.88
375.868	81.88
376.094	67.88
376.319	77.88
376.545	67.88
376.771	71.88
376.997	70.88
377.222	81.88
377.448	66.88
377.674	83.88
377.899	77.88
378.125	79.88
378.35	68.88
378.576	77.88
378.802	88.88
379.027	90.88
379.253	94.88
379.478	90.88
379.704	76.88
379.929	89.88
380.155	70.88
380.38	81.88
380.606	77.88
380.831	75.88
381.057	89.88
381.282	83.88
381.507	74.88
381.733	86.88
381.958	72.88
382.184	82.88
382.409	96.88
382.634	84.88
382.86	87.88
383.085	70.88
383.31	67.88
383.535	91.88
383.761	85.88
383.986	77.88
384.211	80.88
384.436	75.88
384.662	85.88
384.887	94.88
385.112	73.88
385.337	71.88
385.562	77.88
385.787	78.88
386.013	87.88
386.238	89.88
386.463	77.88
386.688	83.88
386.913	79.88
387.138	81.88
387.363	72.88
387.588	77.88
387.813	77.88
388.038	100.88
388.263	83.88
388.488	94.88
388.713	75.88
388.938	89.88
389.163	73.88
389.387	87.88
389.612	74.88
389.837	85.88
390.062	82.88
390.287	72.88
390.512	67.88
390.736	89.88
390.961	61.88
391.186	81.88
391.411	86.88
391.636	75.88
391.86	79.88
392.085	71.88
392.31	68.88
392.534	73.88
392.759	84.88
392.984	86.88
393.208	85.88
393.433	82.88
393.658	88.88
393.882	85.88
394.107	87.88
394.331	71.88
394.556	77.88
394.78	79.88
395.005	90.88
395.229	77.88
395.454	76.88
395.678	68.88
395.903	86.88
396.127	75.88
396.352	83.88
396.576	77.88
396.801	70.88
397.025	69.88
397.249	79.88
397.474	89.88
397.698	75.88
397.922	73.88
398.147	69.88
398.371	75.88
398.595	85.88
398.82	75.88
399.044	80.88
399.268	85.88
399.492	69.88
399.717	89.88
399.941	81.88
400.165	89.88
400.389	75.88
400.613	82.88
400.837	74.88
401.062	82.88
401.286	70.88
401.51	82.88
401.734	69.88
401.958	60.88
402.182	83.88
402.406	85.88
402.63	75.88
402.854	90.88
403.078	78.88
403.302	73.88
403.526	68.88
403.75	75.88
403.974	90.88
404.198	86.88
404.422	86.88
404.645	79.88
404.869	68.88
405.093	66.88
405.317	83.88
405.541	70.88
405.765	87.88
405.988	69.88
406.212	86.88
406.436	75.88
406.66	75.88
406.883	78.88
407.107	85.88
407.331	81.88
407.555	70.88
407.778	79.88
408.002	74.88
408.226	86.88
408.449	89.88
408.673	84.88
408.896	85.88
409.12	78.88
409.344	84.88
409.567	67.88
409.791	102.88
410.014	88.88
410.238	82.88
410.461	78.88
410.685	83.88
410.908	85.88
411.132	69.88
411.355	79.88
411.578	85.88
411.802	65.88
412.025	82.88
412.249	74.88
412.472	78.88
412.695	79.88
412.919	86.88
413.142	89.88
413.365	84.88
413.589	80.88
413.812	70.88
414.035	95.88
414.258	71.88
414.482	66.88
414.705	93.88
414.928	90.88
415.151	73.88
415.374	70.88
415.597	73.88
415.821	73.88
416.044	85.88
416.267	88.88
416.49	82.88
416.713	63.88
416.936	74.88
417.159	72.88
417.382	75.88
417.605	69.88
417.828	80.88
418.051	77.88
418.274	77.88
418.497	84.88
418.72	88.88
418.943	66.88
419.166	80.88
419.389	80.88
419.611	73.88
419.834	79.88
420.057	88.88
420.28	75.88
420.503	77.88
420.726	72.88
420.948	75.88
421.171	65.88
421.394	84.88
421.617	82.88
421.839	90.88
422.062	78.88
422.285	83.88
422.507	78.88
422.73	84.88
422.953	69.88
423.175	72.88
423.398	77.88
423.621	67.88
423.843	92.88
424.066	76.88
424.288	80.88
424.511	92.88
424.733	72.88
424.956	74.88
425.178	78.88
425.401	87.88
425.623	74.88
425.846	90.88
426.068	71.88
426.291	70.88
426.513	91.88
426.735	92.88
426.958	83.88
427.18	81.88
427.402	66.88
427.625	87.88
427.847	93.88
428.069	89.88
428.292	82.88
428.514	82.88
428.736	88.88
428.958	79.88
429.181	83.88
429.403	74.88
429.625	99.88
429.847	87.88
430.069	74.88
430.292	77.88
430.514	75.88
430.736	83.88
430.958	77.88
431.18	79.88
431.402	84.88
431.624	71.88
431.846	67.88
432.068	76.88
432.29	83.88
432.512	82.88
432.734	82.88
432.956	71.88
433.178	87.88
433.4	80.88
433.622	78.88
433.844	89.88
434.066	77.88
434.287	79.88
434.509	83.88
434.731	83.88
434.953	97.88
435.175	88.88
435.397	86.88
435.618	64.88
435.84	66.88
436.062	95.88
436.284	87.88
436.505	77.88
436.727	78.88
436.949	80.88
437.17	77.88
437.392	69.88
437.614	85.88
437.835	62.88
438.057	86.88
438.278	74.88
438.5	83.88
438.721	82.88
438.943	80.88
439.165	78.88
439.386	89.88
439.608	83.88
439.829	76.88
440.05	103.88
440.272	83.88
440.493	85.88
440.715	75.88
440.936	81.88
441.158	81.88
441.379	76.88
441.6	85.88
441.822	82.88
442.043	71.88
442.264	83.88
442.486	83.88
442.707	98.88
442.928	81.88
443.149	93.88
443.371	93.88
443.592	87.88
443.813	78.88
444.034	77.88
444.255	84.88
444.476	88.88
444.698	77.88
444.919	69.88
445.14	165.88
445.361	119.88
445.582	86.88
445.803	84.88
446.024	84.88
446.245	75.88
446.466	83.88
446.687	71.88
446.908	98.88
447.129	94.88
447.35	85.88
447.571	80.88
447.792	88.88
448.013	88.88
448.234	83.88
448.455	86.88
448.675	92.88
448.896	69.88
449.117	80.88
449.338	69.88
449.559	81.88
449.779	81.88
450	90.88
450.221	74.88
450.442	86.88
450.662	78.88
450.883	74.88
451.104	86.88
451.324	71.88
451.545	79.88
451.766	76.88
451.986	81.88
452.207	63.88
452.428	71.88
452.648	73.88
452.869	74.88
453.089	81.88
453.31	89.88
453.53	74.88
453.751	85.88
453.971	83.88
454.192	74.88
454.412	78.88
454.633	67.88
454.853	70.88
455.073	88.88
455.294	88.88
455.514	89.88
455.734	86.88
455.955	67.88
456.175	67.88
456.395	69.88
456.616	73.88
456.836	67.88
457.056	86.88
457.276	88.88
457.497	93.88
457.717	82.88
457.937	69.88
458.157	83.88
458.377	83.88
458.598	81.88
458.818	67.88
459.038	81.88
459.258	91.88
459.478	85.88
459.698	85.88
459.918	74.88
460.138	71.88
460.358	79.88
460.578	75.88
460.798	78.88
461.018	85.88
461.238	75.88
461.458	83.88
461.678	88.88
461.898	87.88
462.118	78.88
462.338	75.88
462.558	66.88
462.777	74.88
462.997	93.88
463.217	83.88
463.437	86.88
463.657	79.88
463.876	68.88
464.096	72.88
464.316	91.88
464.536	94.88
464.755	84.88
464.975	73.88
465.195	86.88
465.414	71.88
465.634	78.88
465.854	76.88
466.073	75.88
466.293	91.88
466.512	91.88
466.732	83.88
466.951	94.88
467.171	77.88
467.391	78.88
467.61	83.88
467.829	113.88
468.049	182.88
468.268	180.88
468.488	93.88
468.707	94.88
468.927	76.88
469.146	92.88
469.365	78.88
469.585	90.88
469.804	84.88
470.023	76.88
470.243	79.88
470.462	82.88
470.681	89.88
470.901	80.88
471.12	84.88
471.339	90.88
471.558	97.88
471.777	91.88
471.997	122.88
472.216	243.88
472.435	319.88
472.654	121.88
472.873	93.88
473.092	101.88
473.311	73.88
473.53	89.88
473.749	71.88
473.968	83.88
474.187	83.88
474.406	75.88
474.625	80.88
474.844	89.88
475.063	81.88
475.282	81.88
475.501	82.88
475.72	80.88
475.939	84.88
476.158	83.88
476.377	79.88
476.596	82.88
476.814	81.88
477.033	89.88
477.252	78.88
477.471	87.88
477.69	87.88
477.908	89.88
478.127	90.88
478.346	82.88
478.564	73.88
478.783	99.88
479.002	70.88
479.22	82.88
479.439	75.88
479.658	77.88
479.876	90.88
480.095	72.88
480.313	83.88
480.532	86.88
480.751	117.88
480.969	229.88
481.188	549.88
481.406	278.88
481.624	85.88
481.843	85.88
482.061	94.88
482.28	90.88
482.498	74.88
482.717	80.88
482.935	91.88
483.153	78.88
483.372	72.88
483.59	75.88
483.808	77.88
484.027	93.88
484.245	65.88
484.463	87.88
484.681	94.88
484.9	77.88
485.118	86.88
485.336	83.88
485.554	83.88
485.772	89.88
485.99	80.88
486.209	88.88
486.427	75.88
486.645	85.88
486.863	92.88
487.081	102.88
487.299	80.88
487.517	92.88
487.735	72.88
487.953	86.88
488.171	89.88
488.389	90.88
488.607	90.88
488.825	78.88
489.043	88.88
489.261	75.88
489.479	75.88
489.696	99.88
489.914	78.88
490.132	87.88
490.35	82.88
490.568	71.88
490.786	82.88
491.003	103.88
491.221	78.88
491.439	85.88
491.657	92.88
491.874	70.88
492.092	87.88
492.31	82.88
492.527	90.88
492.745	76.88
492.963	78.88
493.18	98.88
493.398	98.88
493.615	98.88
493.833	83.88
494.05	85.88
494.268	84.88
494.485	86.88
494.703	86.88
494.92	98.88
495.138	93.88
495.355	74.88
495.573	76.88
495.79	78.88
496.008	87.88
496.225	89.88
496.442	80.88
496.66	74.88
496.877	77.88
497.094	87.88
497.312	82.88
497.529	90.88
497.746	77.88
497.963	81.88
498.181	84.88
498.398	77.88
498.615	99.88
498.832	71.88
499.049	81.88
499.267	63.88
499.484	91.88
499.701	79.88
499.918	89.88
500.135	84.88
500.352	90.88
500.569	83.88
500.786	98.88
501.003	81.88
501.22	57.88
501.437	79.88
501.654	81.88
501.871	77.88
502.088	76.88
502.305	91.88
502.522	70.88
502.739	79.88
502.956	74.88
503.172	76.88
503.389	77.88
503.606	85.88
503.823	83.88
504.04	84.88
504.256	87.88
504.473	77.88
504.69	85.88
504.907	93.88
505.123	66.88
505.34	81.88
505.557	91.88
505.773	90.88
505.99	83.88
506.207	82.88
506.423	100.88
506.64	97.88
506.856	80.88
507.073	77.88
507.289	77.88
507.506	78.88
507.722	97.88
507.939	77.88
508.155	78.88
508.372	90.88
508.588	75.88
508.805	85.88
509.021	79.88
509.238	88.88
509.454	89.88
509.67	90.88
509.887	85.88
510.103	86.88
510.319	73.88
510.536	69.88
510.752	80.88
510.968	75.88
511.184	70.88
511.401	73.88
511.617	91.88
511.833	84.88
512.049	63.88
512.265	79.88
512.481	81.88
512.698	83.88
512.914	80.88
513.13	76.88
513.346	59.88
513.562	80.88
513.778	90.88
513.994	84.88
514.21	75.88
514.426	81.88
514.642	88.88
514.858	67.88
515.074	74.88
515.29	74.88
515.506	78.88
515.721	82.88
515.937	78.88
516.153	82.88
516.369	83.88
516.585	82.88
516.801	71.88
517.016	77.88
517.232	75.88
517.448	79.88
517.664	88.88
517.879	94.88
518.095	75.88
518.311	78.88
518.527	91.88
518.742	69.88
518.958	75.88
519.173	90.88
519.389	73.88
519.605	81.88
519.82	80.88
520.036	92.88
520.251	84.88
520.467	93.88
520.682	77.88
520.898	76.88
521.113	68.88
521.329	86.88
521.544	82.88
521.76	87.88
521.975	92.88
522.19	85.88
522.406	80.88
522.621	62.88
522.836	82.88
523.052	80.88
523.267	83.88
523.482	82.88
523.698	82.88
523.913	74.88
524.128	90.88
524.343	75.88
524.559	73.88
524.774	85.88
524.989	89.88
525.204	89.88
525.419	83.88
525.634	92.88
525.849	100.88
526.064	80.88
526.28	77.88
526.495	85.88
526.71	83.88
526.925	92.88
527.14	76.88
527.355	68.88
527.57	85.88
527.785	71.88
527.999	85.88
528.214	91.88
528.429	73.88
528.644	89.88
528.859	78.88
529.074	77.88
529.289	89.88
529.503	98.88
529.718	77.88
529.933	68.88
530.148	96.88
530.363	91.88
530.577	73.88
530.792	73.88
531.007	86.88
531.221	85.88
531.436	101.88
531.651	87.88
531.865	71.88
532.08	81.88
532.295	71.88
532.509	70.88
532.724	83.88
532.938	84.88
533.153	90.88
533.367	87.88
533.582	84.88
533.796	80.88
534.011	74.88
534.225	77.88
534.44	82.88
534.654	91.88
534.868	81.88
535.083	84.88
535.297	87.88
535.511	77.88
535.726	84.88
535.94	89.88
536.154	77.88
536.369	84.88
536.583	74.88
536.797	94.88
537.011	73.88
537.225	82.88
537.44	83.88
537.654	79.88
537.868	80.88
538.082	89.88
538.296	68.88
538.51	79.88
538.724	87.88
538.938	98.88
539.153	88.88
539.367	75.88
539.581	88.88
539.795	91.88
540.009	91.88
540.222	79.88
540.436	91.88
540.65	89.88
540.864	83.88
541.078	94.88
541.292	83.88
541.506	87.88
541.72	87.88
541.934	91.88
542.147	97.88
542.361	80.88
542.575	92.88
542.789	77.88
543.002	81.88
543.216	84.88
543.43	87.88
543.644	71.88
543.857	90.88
544.071	66.88
544.285	100.88
544.498	94.88
544.712	83.88
544.925	83.88
545.139	86.88
545.352	84.88
545.566	98.88
545.779	87.88
545.993	77.88
546.206	82.88
546.42	82.88
546.633	95.88
546.847	91.88
547.06	81.88
547.274	79.88
547.487	80.88
547.7	99.88
547.914	91.88
548.127	90.88
548.34	82.88
548.554	84.88
548.767	93.88
548.98	93.88
549.193	92.88
549.407	78.88
549.62	89.88
549.833	86.88
550.046	94.88
550.259	85.88
550.473	90.88
550.686	83.88
550.899	82.88
551.112	89.88
551.325	85.88
551.538	84.88
551.751	82.88
551.964	86.88
552.177	101.88
552.39	97.88
552.603	88.88
552.816	84.88
553.029	75.88
553.242	97.88
553.455	89.88
553.667	90.88
553.88	92.88
554.093	88.88
554.306	105.88
554.519	89.88
554.732	87.88
554.944	83.88
555.157	78.88
555.37	85.88
555.583	102.88
555.795	71.88
556.008	91.88
556.221	94.88
556.433	79.88
556.646	86.88
556.859	77.88
557.071	79.88
557.284	94.88
557.496	79.88
557.709	87.88
557.921	101.88
558.134	85.88
558.346	86.88
558.559	89.88
558.771	81.88
558.984	80.88
559.196	79.88
559.409	99.88
559.621	83.88
559.833	86.88
560.046	71.88
560.258	89.88
560.47	93.88
560.683	79.88
560.895	90.88
561.107	86.88
561.32	97.88
561.532	101.88
561.744	94.88
561.956	85.88
562.168	85.88
562.381	87.88
562.593	77.88
562.805	94.88
563.017	93.88
563.229	88.88
563.441	91.88
563.653	90.88
563.865	73.88
564.077	69.88
564.289	92.88
564.501	91.88
564.713	84.88
564.925	94.88
565.137	79.88
565.349	78.88
565.561	92.88
565.773	93.88
565.985	72.88
566.197	71.88
566.408	55.88
566.62	84.88
566.832	76.88
567.044	81.88
567.255	85.88
567.467	98.88
567.679	91.88
567.891	89.88
568.102	90.88
568.314	74.88
568.526	66.88
568.737	78.88
568.949	75.88
569.161	72.88
569.372	82.88
569.584	79.88
569.795	88.88
570.007	90.88
570.218	77.88
570.43	85.88
570.641	88.88
570.853	77.88
571.064	82.88
571.276	83.88
571.487	80.88
571.698	60.88
571.91	89.88
572.121	69.88
572.333	90.88
572.544	67.88
572.755	90.88
572.966	81.88
573.178	85.88
573.389	94.88
573.6	81.88
573.811	74.88
574.023	69.88
574.234	77.88
574.445	79.88
574.656	77.88
574.867	61.88
575.078	73.88
575.289	88.88
575.501	85.88
575.712	81.88
575.923	89.88
576.134	85.88
576.345	80.88
576.556	86.88
576.767	90.88
576.978	74.88
577.188	79.88
577.399	73.88
577.61	81.88
577.821	75.88
578.032	71.88
578.243	71.88
578.454	86.88
578.665	86.88
578.875	84.88
579.086	82.88
579.297	74.88
579.508	75.88
579.718	86.88
579.929	81.88
580.14	70.88
580.35	67.88
580.561	77.88
580.772	90.88
580.982	84.88
581.193	77.88
581.403	79.88
581.614	73.88
581.825	79.88
582.035	82.88
582.246	90.88
582.456	86.88
582.667	87.88
582.877	86.88
583.087	86.88
583.298	75.88
583.508	69.88
583.719	66.88
583.929	86.88
584.139	82.88
584.35	78.88
584.56	84.88
584.77	76.88
584.981	83.88
585.191	79.88
585.401	85.88
585.611	78.88
585.821	79.88
586.032	92.88
586.242	77.88
586.452	77.88
586.662	79.88
586.872	76.88
587.082	81.88
587.292	82.88
587.502	91.88
587.713	81.88
587.923	82.88
588.133	77.88
588.343	78.88
588.553	82.88
588.762	85.88
588.972	77.88
589.182	65.88
589.392	77.88
589.602	86.88
589.812	87.88
590.022	90.88
590.232	80.88
590.441	87.88
590.651	78.88
590.861	88.88
591.071	73.88
591.281	71.88
591.49	80.88
591.7	68.88
591.91	78.88
592.119	98.88
592.329	72.88
592.539	88.88
592.748	82.88
592.958	67.88
593.167	70.88
593.377	82.88
593.587	94.88
593.796	67.88
594.006	67.88
594.215	69.88
594.424	68.88
594.634	84.88
594.843	81.88
595.053	86.88
595.262	86.88
595.472	98.88
595.681	83.88
595.89	79.88
596.1	73.88
596.309	93.88
596.518	95.88
596.727	86.88
596.937	92.88
597.146	93.88
597.355	79.88
597.564	76.88
597.774	95.88
597.983	82.88
598.192	87.88
598.401	77.88
598.61	83.88
598.819	73.88
599.028	86.88
599.237	83.88
599.446	91.88
599.655	83.88
599.864	87.88
600.073	78.88
600.282	81.88
600.491	86.88
600.7	92.88
600.909	89.88
601.118	87.88
601.327	75.88
601.536	82.88
601.745	86.88
601.953	78.88
602.162	87.88
602.371	83.88
602.58	85.88
602.789	81.88
602.997	91.88
603.206	76.88
603.415	94.88
603.623	83.88
603.832	92.88
604.041	86.88
604.249	90.88
604.458	71.88
604.666	86.88
604.875	87.88
605.084	85.88
605.292	84.88
605.501	71.88
605.709	62.88
605.918	77.88
606.126	88.88
606.334	93.88
606.543	79.88
606.751	92.88
606.96	94.88
607.168	87.88
607.376	90.88
607.585	77.88
607.793	87.88
608.001	77.88
608.21	80.88
608.418	89.88
608.626	83.88
608.834	73.88
609.043	69.88
609.251	90.88
609.459	87.88
609.667	78.88
609.875	76.88
610.083	74.88
610.291	78.88
610.499	76.88
610.707	74.88
610.916	86.88
611.124	79.88
611.332	88.88
611.54	86.88
611.748	87.88
611.955	87.88
612.163	70.88
612.371	81.88
612.579	75.88
612.787	83.88
612.995	77.88
613.203	94.88
613.411	78.88
613.618	73.88
613.826	91.88
614.034	89.88
614.242	93.88
614.449	81.88
614.657	82.88
614.865	92.88
615.072	74.88
615.28	77.88
615.488	78.88
615.695	77.88
615.903	90.88
616.111	93.88
616.318	89.88
616.526	73.88
616.733	78.88
616.941	86.88
617.148	87.88
617.356	91.88
617.563	82.88
617.771	79.88
617.978	86.88
618.185	101.88
618.393	95.88
618.6	77.88
618.807	91.88
619.015	79.88
619.222	82.88
619.429	72.88
619.637	70.88
619.844	75.88
620.051	75.88
620.258	69.88
620.466	69.88
620.673	91.88
620.88	92.88
621.087	83.88
621.294	89.88
621.501	90.88
621.708	86.88
621.915	97.88
622.122	87.88
622.329	75.88
622.536	89.88
622.743	81.88
622.95	68.88
623.157	80.88
623.364	102.88
623.571	92.88
623.778	90.88
623.985	74.88
624.192	76.88
624.399	92.88
624.606	94.88
624.812	91.88
625.019	86.88
625.226	86.88
625.433	84.88
625.639	75.88
625.846	74.88
626.053	84.88
626.259	73.88
626.466	81.88
626.673	74.88
626.879	72.88
627.086	84.88
627.293	88.88
627.499	73.88
627.706	83.88
627.912	84.88
628.119	84.88
628.325	87.88
628.532	72.88
628.738	65.88
628.945	73.88
629.151	86.88
629.357	84.88
629.564	86.88
629.77	76.88
629.976	84.88
630.183	76.88
630.389	82.88
630.595	89.88
630.802	74.88
631.008	74.88
631.214	70.88
631.42	77.88
631.627	76.88
631.833	77.88
632.039	76.88
632.245	77.88
632.451	89.88
632.657	83.88
632.863	86.88
633.069	82.88
633.275	81.88
633.481	89.88
633.688	82.88
633.893	91.88
634.099	88.88
634.305	75.88
634.511	72.88
634.717	91.88
634.923	77.88
635.129	71.88
635.335	75.88
635.541	76.88
635.747	86.88
635.952	91.88
636.158	93.88
636.364	148.88
636.57	130.88
636.775	94.88
636.981	77.88
637.187	77.88
637.392	85.88
637.598	82.88
637.804	72.88
638.009	84.88
638.215	65.88
638.421	82.88
638.626	71.88
638.832	76.88
639.037	88.88
639.243	97.88
639.448	73.88
639.654	108.88
639.859	73.88
640.065	79.88
640.27	82.88
640.475	71.88
640.681	65.88
640.886	79.88
641.091	97.88
641.297	87.88
641.502	61.88
641.707	85.88
641.913	83.88
642.118	64.88
642.323	74.88
642.528	86.88
642.733	69.88
642.939	84.88
643.144	92.88
643.349	73.88
643.554	79.88
643.759	81.88
643.964	83.88
644.169	86.88
644.374	76.88
644.579	75.88
644.784	78.88
644.989	79.88
645.194	84.88
645.399	75.88
645.604	83.88
645.809	74.88
646.014	88.88
646.219	74.88
646.423	77.88
646.628	77.88
646.833	88.88
647.038	82.88
647.243	90.88
647.447	65.88
647.652	83.88
647.857	84.88
648.062	89.88
648.266	85.88
648.471	74.88
648.676	91.88
648.88	82.88
649.085	72.88
649.289	81.88
649.494	73.88
649.698	76.88
649.903	81.88
650.107	82.88
650.312	90.88
650.516	85.88
650.721	81.88
650.925	79.88
651.13	68.88
651.334	77.88
651.539	89.88
651.743	74.88
651.947	83.88
652.152	69.88
652.356	76.88
652.56	84.88
652.764	82.88
652.969	64.88
653.173	81.88
653.377	68.88
653.581	69.88
653.785	86.88
653.99	89.88
654.194	62.88
654.398	83.88
654.602	70.88
654.806	83.88
655.01	79.88
655.214	79.88
655.418	75.88
655.622	84.88
655.826	81.88
656.03	66.88
656.234	78.88
656.438	60.88
656.642	73.88
656.846	75.88
657.049	82.88
657.253	75.88
657.457	82.88
657.661	78.88
657.865	72.88
658.068	66.88
658.272	68.88
658.476	71.88
658.68	73.88
658.883	59.88
659.087	73.88
659.291	83.88
659.494	85.88
659.698	87.88
659.901	84.88
660.105	87.88
660.309	83.88
660.512	78.88
660.716	72.88
660.919	79.88
661.123	77.88
661.326	82.88
661.53	85.88
661.733	89.88
661.936	81.88
662.14	62.88
662.343	74.88
662.546	82.88
662.75	78.88
662.953	83.88
663.156	77.88
663.36	90.88
663.563	87.88
663.766	80.88
663.969	86.88
664.173	71.88
664.376	75.88
664.579	61.88
664.782	75.88
664.985	83.88
665.188	69.88
665.391	78.88
665.594	83.88
665.797	72.88
666	77.88
666.203	75.88
666.406	79.88
666.609	71.88
666.812	69.88
667.015	72.88
667.218	90.88
667.421	88.88
667.624	82.88
667.827	71.88
668.03	78.88
668.232	74.88
668.435	61.88
668.638	73.88
668.841	90.88
669.043	64.88
669.246	72.88
669.449	91.88
669.651	65.88
669.854	76.88
670.057	85.88
670.259	72.88
670.462	75.88
670.665	75.88
670.867	86.88
671.07	79.88
671.272	73.88
671.475	77.88
671.677	80.88
671.88	75.88
672.082	76.88
672.284	73.88
672.487	86.88
672.689	69.88
672.892	71.88
