Data from StdC_HRD10591_022.txt Node
Date: Fri May 16 15:28:51 EDT 2025
User: Yrep
Spectrometer: HR+D1059
Trigger mode: 1
Integration Time (sec): 1.000000E-1
Scans to average: 1
Electric dark correction enabled: true
Nonlinearity correction enabled: false
Boxcar width: 0
XAxis mode: Wavelengths
Number of Pixels in Spectrum: 2048
>>>>>Begin Spectral Data<<<<<
223.165	-10.5
223.4	-10.5
223.635	-10.5
223.869	-18.5
224.104	-12.5
224.338	-19.5
224.573	-8.5
224.808	-13.5
225.042	-13.5
225.277	-1.5
225.511	-1.5
225.746	-3.5
225.98	6.5
226.215	12.5
226.449	27.5
226.683	6.5
226.918	29.5
227.152	20.5
227.387	33.5
227.621	40.5
227.856	39.5
228.09	49.5
228.324	44.5
228.559	51.5
228.793	55.5
229.027	69.5
229.262	81.5
229.496	67.5
229.73	71.5
229.964	73.5
230.199	89.5
230.433	83.5
230.667	91.5
230.901	84.5
231.136	75.5
231.37	91.5
231.604	88.5
231.838	79.5
232.072	82.5
232.306	95.5
232.541	80.5
232.775	88.5
233.009	78.5
233.243	93.5
233.477	89.5
233.711	82.5
233.945	77.5
234.179	93.5
234.413	111.5
234.647	89.5
234.881	99.5
235.115	82.5
235.349	54.5
235.583	76.5
235.817	75.5
236.051	84.5
236.285	95.5
236.519	96.5
236.753	85.5
236.987	82.5
237.221	86.5
237.455	89.5
237.689	80.5
237.922	84.5
238.156	94.5
238.39	85.5
238.624	87.5
238.858	95.5
239.091	97.5
239.325	85.5
239.559	74.5
239.793	83.5
240.027	63.5
240.26	83.5
240.494	85.5
240.728	86.5
240.961	83.5
241.195	98.5
241.429	97.5
241.662	81.5
241.896	84.5
242.13	104.5
242.363	97.5
242.597	95.5
242.83	106.5
243.064	97.5
243.298	93.5
243.531	97.5
243.765	82.5
243.998	89.5
244.232	91.5
244.465	108.5
244.699	99.5
244.932	88.5
245.166	101.5
245.399	86.5
245.633	103.5
245.866	105.5
246.099	90.5
246.333	110.5
246.566	79.5
246.8	112.5
247.033	110.5
247.266	99.5
247.5	98.5
247.733	91.5
247.966	105.5
248.2	99.5
248.433	97.5
248.666	116.5
248.899	100.5
249.133	105.5
249.366	110.5
249.599	109.5
249.832	128.5
250.066	134.5
250.299	163.5
250.532	203.5
250.765	172.5
250.998	144.5
251.231	141.5
251.465	131.5
251.698	128.5
251.931	122.5
252.164	113.5
252.397	125.5
252.63	102.5
252.863	121.5
253.096	101.5
253.329	106.5
253.562	105.5
253.795	123.5
254.028	119.5
254.261	118.5
254.494	112.5
254.727	120.5
254.96	137.5
255.193	130.5
255.426	142.5
255.659	193.5
255.892	251.5
256.124	293.5
256.357	241.5
256.59	183.5
256.823	186.5
257.056	144.5
257.289	165.5
257.521	152.5
257.754	135.5
257.987	147.5
258.22	151.5
258.452	124.5
258.685	134.5
258.918	137.5
259.151	143.5
259.383	129.5
259.616	128.5
259.849	123.5
260.081	132.5
260.314	131.5
260.547	128.5
260.779	123.5
261.012	133.5
261.244	137.5
261.477	134.5
261.71	121.5
261.942	125.5
262.175	127.5
262.407	119.5
262.64	131.5
262.872	133.5
263.105	126.5
263.337	115.5
263.57	115.5
263.802	125.5
264.035	132.5
264.267	130.5
264.499	125.5
264.732	117.5
264.964	113.5
265.197	125.5
265.429	125.5
265.661	125.5
265.894	111.5
266.126	121.5
266.358	133.5
266.591	121.5
266.823	127.5
267.055	118.5
267.287	131.5
267.52	133.5
267.752	140.5
267.984	140.5
268.216	125.5
268.448	129.5
268.681	131.5
268.913	129.5
269.145	143.5
269.377	115.5
269.609	132.5
269.841	125.5
270.073	138.5
270.306	128.5
270.538	122.5
270.77	127.5
271.002	118.5
271.234	141.5
271.466	138.5
271.698	131.5
271.93	139.5
272.162	135.5
272.394	145.5
272.626	133.5
272.858	143.5
273.09	129.5
273.322	146.5
273.553	140.5
273.785	152.5
274.017	135.5
274.249	146.5
274.481	146.5
274.713	149.5
274.945	165.5
275.176	152.5
275.408	162.5
275.64	183.5
275.872	175.5
276.104	163.5
276.335	167.5
276.567	175.5
276.799	191.5
277.031	218.5
277.262	229.5
277.494	208.5
277.726	189.5
277.957	180.5
278.189	180.5
278.421	172.5
278.652	172.5
278.884	168.5
279.115	174.5
279.347	185.5
279.579	188.5
279.81	212.5
280.042	259.5
280.273	266.5
280.505	259.5
280.736	220.5
280.968	181.5
281.199	186.5
281.431	183.5
281.662	179.5
281.894	162.5
282.125	167.5
282.356	170.5
282.588	152.5
282.819	157.5
283.051	149.5
283.282	154.5
283.513	165.5
283.745	149.5
283.976	153.5
284.207	157.5
284.439	160.5
284.67	153.5
284.901	156.5
285.132	174.5
285.364	142.5
285.595	145.5
285.826	166.5
286.057	166.5
286.288	174.5
286.52	164.5
286.751	143.5
286.982	164.5
287.213	140.5
287.444	154.5
287.675	145.5
287.906	159.5
288.138	146.5
288.369	139.5
288.6	159.5
288.831	161.5
289.062	153.5
289.293	151.5
289.524	140.5
289.755	159.5
289.986	166.5
290.217	148.5
290.448	165.5
290.679	162.5
290.91	155.5
291.141	163.5
291.371	148.5
291.602	145.5
291.833	156.5
292.064	133.5
292.295	135.5
292.526	155.5
292.757	137.5
292.987	149.5
293.218	141.5
293.449	144.5
293.68	151.5
293.91	149.5
294.141	156.5
294.372	161.5
294.603	152.5
294.833	152.5
295.064	152.5
295.295	138.5
295.525	141.5
295.756	155.5
295.987	144.5
296.217	163.5
296.448	155.5
296.679	148.5
296.909	146.5
297.14	155.5
297.37	152.5
297.601	139.5
297.831	151.5
298.062	151.5
298.292	158.5
298.523	155.5
298.753	143.5
298.984	154.5
299.214	153.5
299.445	140.5
299.675	160.5
299.905	149.5
300.136	162.5
300.366	151.5
300.597	178.5
300.827	176.5
301.057	148.5
301.288	170.5
301.518	163.5
301.748	164.5
301.979	171.5
302.209	191.5
302.439	174.5
302.669	162.5
302.9	178.5
303.13	156.5
303.36	181.5
303.59	189.5
303.82	192.5
304.051	186.5
304.281	169.5
304.511	187.5
304.741	180.5
304.971	174.5
305.201	163.5
305.431	169.5
305.661	153.5
305.891	152.5
306.121	167.5
306.352	153.5
306.582	167.5
306.812	164.5
307.042	197.5
307.272	216.5
307.502	220.5
307.731	221.5
307.961	186.5
308.191	162.5
308.421	177.5
308.651	172.5
308.881	162.5
309.111	180.5
309.341	168.5
309.571	153.5
309.8	175.5
310.03	171.5
310.26	163.5
310.49	176.5
310.72	173.5
310.949	159.5
311.179	185.5
311.409	161.5
311.639	153.5
311.868	179.5
312.098	191.5
312.328	176.5
312.557	188.5
312.787	185.5
313.017	180.5
313.246	175.5
313.476	171.5
313.706	166.5
313.935	175.5
314.165	170.5
314.394	156.5
314.624	179.5
314.853	162.5
315.083	166.5
315.312	179.5
315.542	195.5
315.771	181.5
316.001	175.5
316.23	161.5
316.46	183.5
316.689	180.5
316.919	185.5
317.148	171.5
317.377	167.5
317.607	161.5
317.836	181.5
318.065	179.5
318.295	190.5
318.524	172.5
318.753	170.5
318.983	167.5
319.212	196.5
319.441	175.5
319.67	165.5
319.9	178.5
320.129	191.5
320.358	195.5
320.587	199.5
320.816	182.5
321.046	163.5
321.275	192.5
321.504	195.5
321.733	201.5
321.962	167.5
322.191	171.5
322.42	181.5
322.649	184.5
322.878	216.5
323.108	204.5
323.337	204.5
323.566	217.5
323.795	197.5
324.024	207.5
324.253	208.5
324.482	210.5
324.71	212.5
324.939	221.5
325.168	238.5
325.397	229.5
325.626	229.5
325.855	236.5
326.084	229.5
326.313	259.5
326.542	265.5
326.77	264.5
326.999	265.5
327.228	278.5
327.457	342.5
327.686	404.5
327.914	533.5
328.143	701.5
328.372	739.5
328.6	513.5
328.829	399.5
329.058	381.5
329.287	419.5
329.515	494.5
329.744	689.5
329.972	951.5
330.201	1304.5
330.43	1331.5
330.658	799.5
330.887	492.5
331.115	395.5
331.344	344.5
331.572	310.5
331.801	316.5
332.03	310.5
332.258	329.5
332.486	328.5
332.715	352.5
332.943	357.5
333.172	406.5
333.4	442.5
333.629	524.5
333.857	707.5
334.085	1048.5
334.314	1503.5
334.542	1857.5
334.771	1510.5
334.999	778.5
335.227	503.5
335.455	396.5
335.684	371.5
335.912	322.5
336.14	291.5
336.369	293.5
336.597	277.5
336.825	247.5
337.053	248.5
337.281	231.5
337.51	249.5
337.738	236.5
337.966	232.5
338.194	225.5
338.422	216.5
338.65	203.5
338.878	213.5
339.106	216.5
339.334	203.5
339.562	193.5
339.79	190.5
340.018	204.5
340.246	193.5
340.474	193.5
340.702	217.5
340.93	200.5
341.158	204.5
341.386	195.5
341.614	198.5
341.842	184.5
342.07	192.5
342.298	189.5
342.526	210.5
342.754	197.5
342.981	195.5
343.209	204.5
343.437	197.5
343.665	208.5
343.893	212.5
344.12	189.5
344.348	192.5
344.576	201.5
344.804	196.5
345.031	195.5
345.259	179.5
345.487	183.5
345.714	179.5
345.942	187.5
346.17	190.5
346.397	193.5
346.625	192.5
346.853	193.5
347.08	185.5
347.308	182.5
347.535	180.5
347.763	179.5
347.99	194.5
348.218	182.5
348.445	183.5
348.673	175.5
348.9	175.5
349.128	185.5
349.355	169.5
349.583	178.5
349.81	159.5
350.037	173.5
350.265	175.5
350.492	174.5
350.72	181.5
350.947	176.5
351.174	175.5
351.402	178.5
351.629	179.5
351.856	186.5
352.083	181.5
352.311	199.5
352.538	172.5
352.765	179.5
352.992	185.5
353.22	179.5
353.447	177.5
353.674	184.5
353.901	188.5
354.128	173.5
354.355	170.5
354.583	176.5
354.81	162.5
355.037	185.5
355.264	189.5
355.491	176.5
355.718	175.5
355.945	165.5
356.172	183.5
356.399	182.5
356.626	184.5
356.853	179.5
357.08	173.5
357.307	171.5
357.534	172.5
357.761	193.5
357.988	187.5
358.215	179.5
358.441	186.5
358.668	170.5
358.895	172.5
359.122	180.5
359.349	176.5
359.576	187.5
359.802	164.5
360.029	197.5
360.256	175.5
360.483	177.5
360.709	174.5
360.936	187.5
361.163	163.5
361.39	176.5
361.616	175.5
361.843	177.5
362.07	187.5
362.296	167.5
362.523	163.5
362.749	190.5
362.976	170.5
363.203	168.5
363.429	190.5
363.656	179.5
363.882	196.5
364.109	171.5
364.335	181.5
364.562	167.5
364.788	171.5
365.015	163.5
365.241	186.5
365.468	200.5
365.694	175.5
365.92	179.5
366.147	166.5
366.373	193.5
366.599	169.5
366.826	179.5
367.052	183.5
367.278	173.5
367.505	197.5
367.731	184.5
367.957	167.5
368.184	177.5
368.41	175.5
368.636	169.5
368.862	177.5
369.089	183.5
369.315	203.5
369.541	176.5
369.767	164.5
369.993	177.5
370.219	179.5
370.445	172.5
370.672	171.5
370.898	168.5
371.124	183.5
371.35	193.5
371.576	188.5
371.802	196.5
372.028	171.5
372.254	191.5
372.48	194.5
372.706	186.5
372.932	166.5
373.158	189.5
373.384	182.5
373.61	181.5
373.835	188.5
374.061	176.5
374.287	181.5
374.513	185.5
374.739	185.5
374.965	203.5
375.191	187.5
375.416	185.5
375.642	181.5
375.868	193.5
376.094	184.5
376.319	183.5
376.545	164.5
376.771	195.5
376.997	199.5
377.222	191.5
377.448	193.5
377.674	177.5
377.899	192.5
378.125	175.5
378.35	193.5
378.576	183.5
378.802	182.5
379.027	191.5
379.253	193.5
379.478	196.5
379.704	192.5
379.929	204.5
380.155	181.5
380.38	189.5
380.606	177.5
380.831	184.5
381.057	180.5
381.282	177.5
381.507	194.5
381.733	184.5
381.958	193.5
382.184	188.5
382.409	196.5
382.634	180.5
382.86	189.5
383.085	197.5
383.31	218.5
383.535	202.5
383.761	180.5
383.986	191.5
384.211	188.5
384.436	203.5
384.662	202.5
384.887	199.5
385.112	205.5
385.337	196.5
385.562	207.5
385.787	215.5
386.013	189.5
386.238	196.5
386.463	209.5
386.688	210.5
386.913	201.5
387.138	199.5
387.363	200.5
387.588	188.5
387.813	199.5
388.038	194.5
388.263	201.5
388.488	165.5
388.713	193.5
388.938	208.5
389.163	213.5
389.387	209.5
389.612	201.5
389.837	204.5
390.062	206.5
390.287	214.5
390.512	202.5
390.736	211.5
390.961	217.5
391.186	197.5
391.411	218.5
391.636	207.5
391.86	210.5
392.085	201.5
392.31	223.5
392.534	220.5
392.759	200.5
392.984	220.5
393.208	205.5
393.433	209.5
393.658	190.5
393.882	193.5
394.107	203.5
394.331	210.5
394.556	221.5
394.78	211.5
395.005	225.5
395.229	207.5
395.454	213.5
395.678	216.5
395.903	224.5
396.127	220.5
396.352	200.5
396.576	229.5
396.801	213.5
397.025	223.5
397.249	225.5
397.474	229.5
397.698	241.5
397.922	236.5
398.147	213.5
398.371	220.5
398.595	233.5
398.82	239.5
399.044	250.5
399.268	267.5
399.492	265.5
399.717	290.5
399.941	263.5
400.165	274.5
400.389	251.5
400.613	263.5
400.837	228.5
401.062	245.5
401.286	248.5
401.51	247.5
401.734	237.5
401.958	242.5
402.182	243.5
402.406	217.5
402.63	239.5
402.854	240.5
403.078	262.5
403.302	241.5
403.526	255.5
403.75	234.5
403.974	241.5
404.198	256.5
404.422	267.5
404.645	247.5
404.869	267.5
405.093	294.5
405.317	313.5
405.541	312.5
405.765	283.5
405.988	263.5
406.212	275.5
406.436	253.5
406.66	257.5
406.883	237.5
407.107	253.5
407.331	246.5
407.555	272.5
407.778	275.5
408.002	270.5
408.226	258.5
408.449	268.5
408.673	253.5
408.896	264.5
409.12	243.5
409.344	253.5
409.567	246.5
409.791	243.5
410.014	251.5
410.238	249.5
410.461	252.5
410.685	229.5
410.908	244.5
411.132	238.5
411.355	258.5
411.578	251.5
411.802	255.5
412.025	264.5
412.249	287.5
412.472	318.5
412.695	326.5
412.919	308.5
413.142	291.5
413.365	295.5
413.589	292.5
413.812	251.5
414.035	255.5
414.258	271.5
414.482	249.5
414.705	237.5
414.928	250.5
415.151	253.5
415.374	236.5
415.597	247.5
415.821	245.5
416.044	243.5
416.267	254.5
416.49	239.5
416.713	232.5
416.936	243.5
417.159	242.5
417.382	259.5
417.605	279.5
417.828	275.5
418.051	264.5
418.274	260.5
418.497	232.5
418.72	249.5
418.943	231.5
419.166	247.5
419.389	266.5
419.611	251.5
419.834	275.5
420.057	279.5
420.28	308.5
420.503	297.5
420.726	292.5
420.948	287.5
421.171	268.5
421.394	255.5
421.617	247.5
421.839	232.5
422.062	258.5
422.285	263.5
422.507	249.5
422.73	236.5
422.953	233.5
423.175	241.5
423.398	249.5
423.621	244.5
423.843	245.5
424.066	232.5
424.288	232.5
424.511	240.5
424.733	255.5
424.956	249.5
425.178	239.5
425.401	237.5
425.623	231.5
425.846	249.5
426.068	251.5
426.291	248.5
426.513	241.5
426.735	227.5
426.958	230.5
427.18	231.5
427.402	255.5
427.625	278.5
427.847	338.5
428.069	316.5
428.292	284.5
428.514	258.5
428.736	252.5
428.958	247.5
429.181	227.5
429.403	241.5
429.625	239.5
429.847	227.5
430.069	224.5
430.292	227.5
430.514	215.5
430.736	218.5
430.958	225.5
431.18	224.5
431.402	239.5
431.624	237.5
431.846	217.5
432.068	203.5
432.29	204.5
432.512	211.5
432.734	210.5
432.956	206.5
433.178	226.5
433.4	220.5
433.622	225.5
433.844	230.5
434.066	236.5
434.287	230.5
434.509	209.5
434.731	227.5
434.953	236.5
435.175	219.5
435.397	231.5
435.618	237.5
435.84	217.5
436.062	217.5
436.284	221.5
436.505	209.5
436.727	220.5
436.949	225.5
437.17	231.5
437.392	223.5
437.614	225.5
437.835	226.5
438.057	212.5
438.278	196.5
438.5	211.5
438.721	210.5
438.943	204.5
439.165	223.5
439.386	211.5
439.608	218.5
439.829	242.5
440.05	227.5
440.272	219.5
440.493	215.5
440.715	204.5
440.936	213.5
441.158	228.5
441.379	207.5
441.6	213.5
441.822	228.5
442.043	219.5
442.264	238.5
442.486	233.5
442.707	236.5
442.928	215.5
443.149	223.5
443.371	231.5
443.592	233.5
443.813	241.5
444.034	213.5
444.255	228.5
444.476	252.5
444.698	246.5
444.919	235.5
445.14	323.5
445.361	250.5
445.582	232.5
445.803	231.5
446.024	218.5
446.245	220.5
446.466	218.5
446.687	233.5
446.908	214.5
447.129	215.5
447.35	227.5
447.571	228.5
447.792	204.5
448.013	215.5
448.234	217.5
448.455	208.5
448.675	195.5
448.896	225.5
449.117	212.5
449.338	197.5
449.559	209.5
449.779	215.5
450	206.5
450.221	211.5
450.442	195.5
450.662	216.5
450.883	207.5
451.104	202.5
451.324	200.5
451.545	226.5
451.766	191.5
451.986	213.5
452.207	215.5
452.428	211.5
452.648	210.5
452.869	208.5
453.089	194.5
453.31	200.5
453.53	185.5
453.751	196.5
453.971	197.5
454.192	199.5
454.412	196.5
454.633	208.5
454.853	208.5
455.073	191.5
455.294	189.5
455.514	203.5
455.734	198.5
455.955	196.5
456.175	198.5
456.395	201.5
456.616	190.5
456.836	197.5
457.056	215.5
457.276	199.5
457.497	207.5
457.717	217.5
457.937	217.5
458.157	216.5
458.377	196.5
458.598	211.5
458.818	202.5
459.038	208.5
459.258	206.5
459.478	217.5
459.698	225.5
459.918	226.5
460.138	228.5
460.358	230.5
460.578	234.5
460.798	230.5
461.018	229.5
461.238	235.5
461.458	234.5
461.678	227.5
461.898	232.5
462.118	231.5
462.338	239.5
462.558	248.5
462.777	250.5
462.997	279.5
463.217	262.5
463.437	259.5
463.657	254.5
463.876	266.5
464.096	227.5
464.316	247.5
464.536	256.5
464.755	260.5
464.975	243.5
465.195	247.5
465.414	255.5
465.634	236.5
465.854	236.5
466.073	247.5
466.293	249.5
466.512	221.5
466.732	235.5
466.951	232.5
467.171	261.5
467.391	271.5
467.61	282.5
467.829	364.5
468.049	660.5
468.268	795.5
468.488	479.5
468.707	335.5
468.927	294.5
469.146	282.5
469.365	235.5
469.585	249.5
469.804	252.5
470.023	252.5
470.243	252.5
470.462	256.5
470.681	268.5
470.901	246.5
471.12	295.5
471.339	287.5
471.558	319.5
471.777	355.5
471.997	519.5
472.216	1157.5
472.435	1717.5
472.654	935.5
472.873	567.5
473.092	444.5
473.311	354.5
473.53	317.5
473.749	325.5
473.968	298.5
474.187	297.5
474.406	274.5
474.625	287.5
474.844	277.5
475.063	272.5
475.282	262.5
475.501	257.5
475.72	253.5
475.939	252.5
476.158	250.5
476.377	250.5
476.596	245.5
476.814	261.5
477.033	250.5
477.252	257.5
477.471	264.5
477.69	267.5
477.908	258.5
478.127	267.5
478.346	269.5
478.564	269.5
478.783	282.5
479.002	287.5
479.22	287.5
479.439	299.5
479.658	303.5
479.876	317.5
480.095	334.5
480.313	392.5
480.532	460.5
480.751	606.5
480.969	1233.5
481.188	2731.5
481.406	2147.5
481.624	1060.5
481.843	693.5
482.061	551.5
482.28	475.5
482.498	434.5
482.717	392.5
482.935	382.5
483.153	373.5
483.372	345.5
483.59	334.5
483.808	332.5
484.027	337.5
484.245	309.5
484.463	300.5
484.681	307.5
484.9	315.5
485.118	322.5
485.336	275.5
485.554	283.5
485.772	289.5
485.99	295.5
486.209	291.5
486.427	300.5
486.645	277.5
486.863	311.5
487.081	294.5
487.299	284.5
487.517	289.5
487.735	292.5
487.953	297.5
488.171	307.5
488.389	304.5
488.607	280.5
488.825	311.5
489.043	308.5
489.261	293.5
489.479	308.5
489.696	317.5
489.914	324.5
490.132	354.5
490.35	362.5
490.568	347.5
490.786	373.5
491.003	407.5
491.221	437.5
491.439	484.5
491.657	464.5
491.874	468.5
492.092	463.5
492.31	477.5
492.527	533.5
492.745	549.5
492.963	521.5
493.18	483.5
493.398	476.5
493.615	446.5
493.833	444.5
494.05	425.5
494.268	401.5
494.485	393.5
494.703	382.5
494.92	395.5
495.138	372.5
495.355	377.5
495.573	345.5
495.79	367.5
496.008	365.5
496.225	351.5
496.442	349.5
496.66	367.5
496.877	339.5
497.094	341.5
497.312	349.5
497.529	341.5
497.746	358.5
497.963	346.5
498.181	351.5
498.398	348.5
498.615	342.5
498.832	347.5
499.049	363.5
499.267	391.5
499.484	382.5
499.701	418.5
499.918	418.5
500.135	452.5
500.352	455.5
500.569	507.5
500.786	518.5
501.003	464.5
501.22	445.5
501.437	416.5
501.654	365.5
501.871	368.5
502.088	366.5
502.305	331.5
502.522	335.5
502.739	322.5
502.956	321.5
503.172	320.5
503.389	302.5
503.606	297.5
503.823	287.5
504.04	323.5
504.256	312.5
504.473	291.5
504.69	285.5
504.907	271.5
505.123	280.5
505.34	289.5
505.557	274.5
505.773	266.5
505.99	272.5
506.207	263.5
506.423	267.5
506.64	259.5
506.856	242.5
507.073	263.5
507.289	248.5
507.506	257.5
507.722	273.5
507.939	267.5
508.155	270.5
508.372	253.5
508.588	257.5
508.805	230.5
509.021	252.5
509.238	245.5
509.454	230.5
509.67	249.5
509.887	240.5
510.103	229.5
510.319	246.5
510.536	247.5
510.752	245.5
510.968	258.5
511.184	248.5
511.401	261.5
511.617	284.5
511.833	328.5
512.049	342.5
512.265	282.5
512.481	285.5
512.698	252.5
512.914	243.5
513.13	263.5
513.346	256.5
513.562	219.5
513.778	250.5
513.994	252.5
514.21	238.5
514.426	244.5
514.642	235.5
514.858	233.5
515.074	242.5
515.29	253.5
515.506	254.5
515.721	266.5
515.937	244.5
516.153	233.5
516.369	244.5
516.585	244.5
516.801	258.5
517.016	268.5
517.232	260.5
517.448	273.5
517.664	285.5
517.879	257.5
518.095	258.5
518.311	261.5
518.527	277.5
518.742	255.5
518.958	246.5
519.173	256.5
519.389	235.5
519.605	256.5
519.82	225.5
520.036	234.5
520.251	236.5
520.467	224.5
520.682	237.5
520.898	221.5
521.113	226.5
521.329	231.5
521.544	224.5
521.76	237.5
521.975	233.5
522.19	220.5
522.406	237.5
522.621	231.5
522.836	231.5
523.052	217.5
523.267	235.5
523.482	218.5
523.698	228.5
523.913	242.5
524.128	222.5
524.343	218.5
524.559	230.5
524.774	217.5
524.989	239.5
525.204	213.5
525.419	229.5
525.634	204.5
525.849	215.5
526.064	216.5
526.28	216.5
526.495	225.5
526.71	204.5
526.925	205.5
527.14	196.5
527.355	218.5
527.57	210.5
527.785	212.5
527.999	204.5
528.214	224.5
528.429	218.5
528.644	206.5
528.859	218.5
529.074	213.5
529.289	232.5
529.503	199.5
529.718	210.5
529.933	225.5
530.148	214.5
530.363	219.5
530.577	205.5
530.792	201.5
531.007	208.5
531.221	204.5
531.436	204.5
531.651	207.5
531.865	213.5
532.08	208.5
532.295	200.5
532.509	215.5
532.724	218.5
532.938	206.5
533.153	204.5
533.367	214.5
533.582	199.5
533.796	203.5
534.011	208.5
534.225	207.5
534.44	218.5
534.654	216.5
534.868	218.5
535.083	215.5
535.297	218.5
535.511	220.5
535.726	208.5
535.94	218.5
536.154	200.5
536.369	193.5
536.583	212.5
536.797	215.5
537.011	207.5
537.225	197.5
537.44	208.5
537.654	205.5
537.868	203.5
538.082	217.5
538.296	208.5
538.51	215.5
538.724	210.5
538.938	209.5
539.153	213.5
539.367	220.5
539.581	229.5
539.795	215.5
540.009	200.5
540.222	200.5
540.436	189.5
540.65	207.5
540.864	195.5
541.078	204.5
541.292	212.5
541.506	211.5
541.72	205.5
541.934	205.5
542.147	216.5
542.361	200.5
542.575	223.5
542.789	198.5
543.002	211.5
543.216	208.5
543.43	216.5
543.644	201.5
543.857	209.5
544.071	219.5
544.285	211.5
544.498	198.5
544.712	218.5
544.925	219.5
545.139	210.5
545.352	211.5
545.566	201.5
545.779	211.5
545.993	218.5
546.206	220.5
546.42	214.5
546.633	218.5
546.847	211.5
547.06	218.5
547.274	219.5
547.487	216.5
547.7	188.5
547.914	207.5
548.127	213.5
548.34	217.5
548.554	207.5
548.767	203.5
548.98	211.5
549.193	199.5
549.407	215.5
549.62	200.5
549.833	213.5
550.046	221.5
550.259	218.5
550.473	208.5
550.686	211.5
550.899	209.5
551.112	207.5
551.325	226.5
551.538	209.5
551.751	218.5
551.964	215.5
552.177	207.5
552.39	220.5
552.603	237.5
552.816	204.5
553.029	216.5
553.242	216.5
553.455	241.5
553.667	221.5
553.88	217.5
554.093	227.5
554.306	216.5
554.519	223.5
554.732	211.5
554.944	206.5
555.157	198.5
555.37	205.5
555.583	209.5
555.795	194.5
556.008	201.5
556.221	202.5
556.433	207.5
556.646	183.5
556.859	198.5
557.071	196.5
557.284	200.5
557.496	191.5
557.709	184.5
557.921	199.5
558.134	183.5
558.346	192.5
558.559	199.5
558.771	197.5
558.984	184.5
559.196	164.5
559.409	177.5
559.621	197.5
559.833	191.5
560.046	197.5
560.258	204.5
560.47	211.5
560.683	195.5
560.895	205.5
561.107	190.5
561.32	203.5
561.532	188.5
561.744	182.5
561.956	183.5
562.168	178.5
562.381	200.5
562.593	177.5
562.805	197.5
563.017	175.5
563.229	200.5
563.441	191.5
563.653	209.5
563.865	196.5
564.077	191.5
564.289	179.5
564.501	196.5
564.713	190.5
564.925	187.5
565.137	210.5
565.349	197.5
565.561	224.5
565.773	188.5
565.985	208.5
566.197	213.5
566.408	207.5
566.62	228.5
566.832	219.5
567.044	205.5
567.255	242.5
567.467	240.5
567.679	224.5
567.891	231.5
568.102	241.5
568.314	234.5
568.526	196.5
568.737	216.5
568.949	200.5
569.161	194.5
569.372	165.5
569.584	169.5
569.795	181.5
570.007	179.5
570.218	180.5
570.43	177.5
570.641	180.5
570.853	164.5
571.064	191.5
571.276	181.5
571.487	183.5
571.698	177.5
571.91	179.5
572.121	168.5
572.333	169.5
572.544	160.5
572.755	154.5
572.966	177.5
573.178	171.5
573.389	152.5
573.6	155.5
573.811	160.5
574.023	155.5
574.234	155.5
574.445	165.5
574.656	163.5
574.867	165.5
575.078	151.5
575.289	163.5
575.501	153.5
575.712	162.5
575.923	147.5
576.134	159.5
576.345	162.5
576.556	152.5
576.767	170.5
576.978	174.5
577.188	150.5
577.399	145.5
577.61	135.5
577.821	161.5
578.032	145.5
578.243	143.5
578.454	144.5
578.665	151.5
578.875	151.5
579.086	146.5
579.297	146.5
579.508	153.5
579.718	171.5
579.929	150.5
580.14	143.5
580.35	145.5
580.561	171.5
580.772	137.5
580.982	139.5
581.193	157.5
581.403	159.5
581.614	151.5
581.825	147.5
582.035	160.5
582.246	149.5
582.456	141.5
582.667	152.5
582.877	135.5
583.087	150.5
583.298	148.5
583.508	148.5
583.719	156.5
583.929	146.5
584.139	147.5
584.35	152.5
584.56	154.5
584.77	153.5
584.981	138.5
585.191	142.5
585.401	154.5
585.611	153.5
585.821	140.5
586.032	145.5
586.242	137.5
586.452	141.5
586.662	146.5
586.872	136.5
587.082	141.5
587.292	135.5
587.502	136.5
587.713	144.5
587.923	142.5
588.133	139.5
588.343	134.5
588.553	136.5
588.762	157.5
588.972	151.5
589.182	147.5
589.392	171.5
589.602	179.5
589.812	165.5
590.022	155.5
590.232	145.5
590.441	146.5
590.651	156.5
590.861	153.5
591.071	142.5
591.281	157.5
591.49	145.5
591.7	158.5
591.91	150.5
592.119	147.5
592.329	169.5
592.539	155.5
592.748	154.5
592.958	148.5
593.167	161.5
593.377	169.5
593.587	157.5
593.796	142.5
594.006	161.5
594.215	141.5
594.424	162.5
594.634	156.5
594.843	152.5
595.053	128.5
595.262	150.5
595.472	148.5
595.681	152.5
595.89	157.5
596.1	143.5
596.309	149.5
596.518	141.5
596.727	154.5
596.937	150.5
597.146	145.5
597.355	148.5
597.564	144.5
597.774	145.5
597.983	140.5
598.192	147.5
598.401	138.5
598.61	143.5
598.819	143.5
599.028	143.5
599.237	122.5
599.446	129.5
599.655	141.5
599.864	123.5
600.073	129.5
600.282	133.5
600.491	127.5
600.7	134.5
600.909	145.5
601.118	134.5
601.327	152.5
601.536	148.5
601.745	139.5
601.953	149.5
602.162	149.5
602.371	146.5
602.58	145.5
602.789	148.5
602.997	130.5
603.206	139.5
603.415	133.5
603.623	137.5
603.832	148.5
604.041	138.5
604.249	138.5
604.458	151.5
604.666	135.5
604.875	125.5
605.084	137.5
605.292	134.5
605.501	131.5
605.709	137.5
605.918	137.5
606.126	136.5
606.334	149.5
606.543	137.5
606.751	138.5
606.96	138.5
607.168	141.5
607.376	147.5
607.585	137.5
607.793	140.5
608.001	144.5
608.21	148.5
608.418	141.5
608.626	149.5
608.834	137.5
609.043	129.5
609.251	144.5
609.459	132.5
609.667	146.5
609.875	148.5
610.083	139.5
610.291	135.5
610.499	139.5
610.707	137.5
610.916	144.5
611.124	139.5
611.332	142.5
611.54	142.5
611.748	147.5
611.955	132.5
612.163	150.5
612.371	138.5
612.579	128.5
612.787	150.5
612.995	121.5
613.203	144.5
613.411	136.5
613.618	144.5
613.826	129.5
614.034	139.5
614.242	136.5
614.449	130.5
614.657	137.5
614.865	138.5
615.072	132.5
615.28	146.5
615.488	139.5
615.695	136.5
615.903	129.5
616.111	140.5
616.318	138.5
616.526	130.5
616.733	125.5
616.941	150.5
617.148	142.5
617.356	137.5
617.563	141.5
617.771	138.5
617.978	131.5
618.185	139.5
618.393	132.5
618.6	130.5
618.807	133.5
619.015	141.5
619.222	148.5
619.429	121.5
619.637	130.5
619.844	125.5
620.051	119.5
620.258	123.5
620.466	121.5
620.673	116.5
620.88	127.5
621.087	135.5
621.294	129.5
621.501	135.5
621.708	131.5
621.915	133.5
622.122	122.5
622.329	113.5
622.536	127.5
622.743	133.5
622.95	125.5
623.157	116.5
623.364	125.5
623.571	125.5
623.778	131.5
623.985	121.5
624.192	111.5
624.399	122.5
624.606	110.5
624.812	116.5
625.019	121.5
625.226	134.5
625.433	129.5
625.639	118.5
625.846	121.5
626.053	117.5
626.259	116.5
626.466	121.5
626.673	114.5
626.879	118.5
627.086	123.5
627.293	127.5
627.499	124.5
627.706	124.5
627.912	111.5
628.119	102.5
628.325	110.5
628.532	123.5
628.738	112.5
628.945	119.5
629.151	128.5
629.357	119.5
629.564	122.5
629.77	135.5
629.976	115.5
630.183	112.5
630.389	123.5
630.595	122.5
630.802	119.5
631.008	127.5
631.214	111.5
631.42	107.5
631.627	109.5
631.833	107.5
632.039	108.5
632.245	132.5
632.451	123.5
632.657	119.5
632.863	122.5
633.069	115.5
633.275	125.5
633.481	114.5
633.688	111.5
633.893	130.5
634.099	127.5
634.305	126.5
634.511	123.5
634.717	132.5
634.923	114.5
635.129	137.5
635.335	131.5
635.541	132.5
635.747	162.5
635.952	171.5
636.158	195.5
636.364	328.5
636.57	402.5
636.775	245.5
636.981	213.5
637.187	185.5
637.392	179.5
637.598	159.5
637.804	143.5
638.009	149.5
638.215	133.5
638.421	136.5
638.626	124.5
638.832	124.5
639.037	129.5
639.243	128.5
639.448	122.5
639.654	128.5
639.859	127.5
640.065	124.5
640.27	117.5
640.475	110.5
640.681	121.5
640.886	121.5
641.091	111.5
641.297	115.5
641.502	120.5
641.707	120.5
641.913	112.5
642.118	115.5
642.323	97.5
642.528	102.5
642.733	111.5
642.939	125.5
643.144	105.5
643.349	111.5
643.554	107.5
643.759	111.5
643.964	123.5
644.169	117.5
644.374	122.5
644.579	112.5
644.784	119.5
644.989	101.5
645.194	101.5
645.399	102.5
645.604	107.5
645.809	110.5
646.014	107.5
646.219	107.5
646.423	119.5
646.628	109.5
646.833	120.5
647.038	117.5
647.243	106.5
647.447	102.5
647.652	105.5
647.857	111.5
648.062	115.5
648.266	120.5
648.471	125.5
648.676	117.5
648.88	116.5
649.085	104.5
649.289	109.5
649.494	98.5
649.698	119.5
649.903	118.5
650.107	112.5
650.312	103.5
650.516	104.5
650.721	117.5
650.925	103.5
651.13	92.5
651.334	113.5
651.539	104.5
651.743	107.5
651.947	93.5
652.152	109.5
652.356	101.5
652.56	113.5
652.764	93.5
652.969	102.5
653.173	98.5
653.377	112.5
653.581	103.5
653.785	101.5
653.99	92.5
654.194	104.5
654.398	102.5
654.602	89.5
654.806	100.5
655.01	104.5
655.214	92.5
655.418	95.5
655.622	126.5
655.826	106.5
656.03	106.5
656.234	102.5
656.438	101.5
656.642	92.5
656.846	105.5
657.049	96.5
657.253	111.5
657.457	96.5
657.661	87.5
657.865	110.5
658.068	102.5
658.272	76.5
658.476	81.5
658.68	88.5
658.883	90.5
659.087	85.5
659.291	89.5
659.494	78.5
659.698	89.5
659.901	90.5
660.105	82.5
660.309	90.5
660.512	90.5
660.716	78.5
660.919	83.5
661.123	80.5
661.326	79.5
661.53	68.5
661.733	92.5
661.936	76.5
662.14	75.5
662.343	69.5
662.546	74.5
662.75	85.5
662.953	93.5
663.156	89.5
663.36	62.5
663.563	81.5
663.766	74.5
663.969	81.5
664.173	86.5
664.376	85.5
664.579	80.5
664.782	74.5
664.985	74.5
665.188	72.5
665.391	80.5
665.594	72.5
665.797	88.5
666	76.5
666.203	86.5
666.406	72.5
666.609	79.5
666.812	79.5
667.015	82.5
667.218	84.5
667.421	87.5
667.624	65.5
667.827	77.5
668.03	68.5
668.232	75.5
668.435	77.5
668.638	89.5
668.841	79.5
669.043	89.5
669.246	73.5
669.449	75.5
669.651	89.5
669.854	71.5
670.057	68.5
670.259	72.5
670.462	81.5
670.665	78.5
670.867	88.5
671.07	86.5
671.272	92.5
671.475	67.5
671.677	80.5
671.88	79.5
672.082	70.5
672.284	75.5
672.487	85.5
672.689	92.5
672.892	81.5
