Data from StdC_HRD10591_002.txt Node
Date: Fri May 16 15:28:41 EDT 2025
User: Yrep
Spectrometer: HR+D1059
Trigger mode: 1
Integration Time (sec): 1.000000E-1
Scans to average: 1
Electric dark correction enabled: true
Nonlinearity correction enabled: false
Boxcar width: 0
XAxis mode: Wavelengths
Number of Pixels in Spectrum: 2048
>>>>>Begin Spectral Data<<<<<
223.165	-9.38
223.4	-9.38
223.635	-9.38
223.869	-26.38
224.104	-37.38
224.338	-11.38
224.573	-6.38
224.808	-5.38
225.042	-13.38
225.277	-0.38
225.511	4.62
225.746	7.62
225.98	-1.38
226.215	10.62
226.449	13.62
226.683	26.62
226.918	28.62
227.152	19.62
227.387	21.62
227.621	42.62
227.856	40.62
228.09	28.62
228.324	38.62
228.559	50.62
228.793	54.62
229.027	63.62
229.262	50.62
229.496	53.62
229.73	64.62
229.964	52.62
230.199	70.62
230.433	73.62
230.667	58.62
230.901	70.62
231.136	74.62
231.37	82.62
231.604	81.62
231.838	68.62
232.072	75.62
232.306	84.62
232.541	63.62
232.775	74.62
233.009	70.62
233.243	68.62
233.477	88.62
233.711	69.62
233.945	88.62
234.179	83.62
234.413	78.62
234.647	84.62
234.881	66.62
235.115	79.62
235.349	79.62
235.583	76.62
235.817	74.62
236.051	68.62
236.285	65.62
236.519	68.62
236.753	73.62
236.987	93.62
237.221	70.62
237.455	74.62
237.689	73.62
237.922	61.62
238.156	76.62
238.39	64.62
238.624	67.62
238.858	76.62
239.091	83.62
239.325	76.62
239.559	81.62
239.793	81.62
240.027	76.62
240.26	65.62
240.494	81.62
240.728	80.62
240.961	70.62
241.195	75.62
241.429	86.62
241.662	78.62
241.896	70.62
242.13	72.62
242.363	82.62
242.597	63.62
242.83	81.62
243.064	76.62
243.298	72.62
243.531	72.62
243.765	73.62
243.998	68.62
244.232	88.62
244.465	72.62
244.699	78.62
244.932	74.62
245.166	89.62
245.399	72.62
245.633	74.62
245.866	76.62
246.099	74.62
246.333	92.62
246.566	68.62
246.8	60.62
247.033	77.62
247.266	74.62
247.5	78.62
247.733	77.62
247.966	60.62
248.2	78.62
248.433	76.62
248.666	77.62
248.899	75.62
249.133	70.62
249.366	68.62
249.599	75.62
249.832	84.62
250.066	80.62
250.299	78.62
250.532	66.62
250.765	74.62
250.998	72.62
251.231	77.62
251.465	75.62
251.698	76.62
251.931	77.62
252.164	65.62
252.397	74.62
252.63	72.62
252.863	79.62
253.096	77.62
253.329	84.62
253.562	69.62
253.795	80.62
254.028	85.62
254.261	69.62
254.494	65.62
254.727	84.62
254.96	70.62
255.193	70.62
255.426	90.62
255.659	82.62
255.892	81.62
256.124	93.62
256.357	76.62
256.59	70.62
256.823	71.62
257.056	80.62
257.289	72.62
257.521	66.62
257.754	76.62
257.987	72.62
258.22	89.62
258.452	81.62
258.685	80.62
258.918	71.62
259.151	71.62
259.383	66.62
259.616	73.62
259.849	76.62
260.081	79.62
260.314	72.62
260.547	62.62
260.779	84.62
261.012	78.62
261.244	85.62
261.477	73.62
261.71	66.62
261.942	80.62
262.175	82.62
262.407	70.62
262.64	77.62
262.872	66.62
263.105	84.62
263.337	76.62
263.57	69.62
263.802	83.62
264.035	77.62
264.267	78.62
264.499	91.62
264.732	86.62
264.964	71.62
265.197	86.62
265.429	81.62
265.661	81.62
265.894	71.62
266.126	100.62
266.358	74.62
266.591	84.62
266.823	82.62
267.055	89.62
267.287	80.62
267.52	74.62
267.752	80.62
267.984	91.62
268.216	78.62
268.448	83.62
268.681	77.62
268.913	77.62
269.145	81.62
269.377	77.62
269.609	82.62
269.841	77.62
270.073	62.62
270.306	70.62
270.538	76.62
270.77	74.62
271.002	70.62
271.234	77.62
271.466	72.62
271.698	70.62
271.93	68.62
272.162	81.62
272.394	88.62
272.626	97.62
272.858	88.62
273.09	76.62
273.322	71.62
273.553	72.62
273.785	66.62
274.017	75.62
274.249	85.62
274.481	62.62
274.713	73.62
274.945	86.62
275.176	80.62
275.408	83.62
275.64	86.62
275.872	82.62
276.104	74.62
276.335	64.62
276.567	88.62
276.799	74.62
277.031	78.62
277.262	65.62
277.494	88.62
277.726	72.62
277.957	96.62
278.189	72.62
278.421	77.62
278.652	63.62
278.884	84.62
279.115	87.62
279.347	89.62
279.579	80.62
279.81	91.62
280.042	112.62
280.273	100.62
280.505	88.62
280.736	100.62
280.968	79.62
281.199	79.62
281.431	75.62
281.662	86.62
281.894	79.62
282.125	80.62
282.356	78.62
282.588	69.62
282.819	69.62
283.051	87.62
283.282	68.62
283.513	83.62
283.745	78.62
283.976	92.62
284.207	84.62
284.439	86.62
284.67	93.62
284.901	73.62
285.132	86.62
285.364	78.62
285.595	84.62
285.826	80.62
286.057	89.62
286.288	71.62
286.52	68.62
286.751	76.62
286.982	79.62
287.213	75.62
287.444	95.62
287.675	79.62
287.906	91.62
288.138	85.62
288.369	85.62
288.6	80.62
288.831	79.62
289.062	93.62
289.293	82.62
289.524	90.62
289.755	65.62
289.986	71.62
290.217	73.62
290.448	84.62
290.679	72.62
290.91	72.62
291.141	76.62
291.371	78.62
291.602	75.62
291.833	89.62
292.064	74.62
292.295	86.62
292.526	78.62
292.757	65.62
292.987	84.62
293.218	73.62
293.449	82.62
293.68	84.62
293.91	87.62
294.141	76.62
294.372	79.62
294.603	75.62
294.833	74.62
295.064	79.62
295.295	88.62
295.525	80.62
295.756	83.62
295.987	87.62
296.217	92.62
296.448	83.62
296.679	87.62
296.909	67.62
297.14	83.62
297.37	86.62
297.601	90.62
297.831	75.62
298.062	78.62
298.292	77.62
298.523	81.62
298.753	82.62
298.984	78.62
299.214	93.62
299.445	77.62
299.675	69.62
299.905	81.62
300.136	81.62
300.366	74.62
300.597	91.62
300.827	78.62
301.057	74.62
301.288	81.62
301.518	83.62
301.748	84.62
301.979	103.62
302.209	72.62
302.439	81.62
302.669	92.62
302.9	63.62
303.13	88.62
303.36	78.62
303.59	87.62
303.82	86.62
304.051	92.62
304.281	85.62
304.511	75.62
304.741	69.62
304.971	75.62
305.201	84.62
305.431	84.62
305.661	81.62
305.891	87.62
306.121	65.62
306.352	60.62
306.582	75.62
306.812	82.62
307.042	85.62
307.272	93.62
307.502	102.62
307.731	93.62
307.961	86.62
308.191	77.62
308.421	74.62
308.651	77.62
308.881	80.62
309.111	70.62
309.341	83.62
309.571	78.62
309.8	79.62
310.03	78.62
310.26	85.62
310.49	71.62
310.72	77.62
310.949	78.62
311.179	80.62
311.409	71.62
311.639	84.62
311.868	83.62
312.098	75.62
312.328	74.62
312.557	91.62
312.787	88.62
313.017	86.62
313.246	72.62
313.476	88.62
313.706	79.62
313.935	80.62
314.165	73.62
314.394	76.62
314.624	88.62
314.853	76.62
315.083	61.62
315.312	96.62
315.542	80.62
315.771	91.62
316.001	80.62
316.23	78.62
316.46	72.62
316.689	80.62
316.919	83.62
317.148	73.62
317.377	78.62
317.607	77.62
317.836	80.62
318.065	83.62
318.295	79.62
318.524	92.62
318.753	67.62
318.983	66.62
319.212	80.62
319.441	74.62
319.67	75.62
319.9	79.62
320.129	76.62
320.358	81.62
320.587	70.62
320.816	75.62
321.046	91.62
321.275	84.62
321.504	82.62
321.733	84.62
321.962	72.62
322.191	59.62
322.42	66.62
322.649	90.62
322.878	84.62
323.108	79.62
323.337	90.62
323.566	90.62
323.795	81.62
324.024	91.62
324.253	82.62
324.482	78.62
324.71	75.62
324.939	80.62
325.168	85.62
325.397	78.62
325.626	85.62
325.855	63.62
326.084	76.62
326.313	80.62
326.542	72.62
326.77	104.62
326.999	88.62
327.228	94.62
327.457	81.62
327.686	91.62
327.914	112.62
328.143	117.62
328.372	118.62
328.6	90.62
328.829	75.62
329.058	86.62
329.287	89.62
329.515	90.62
329.744	104.62
329.972	132.62
330.201	184.62
330.43	170.62
330.658	115.62
330.887	88.62
331.115	72.62
331.344	82.62
331.572	83.62
331.801	74.62
332.03	76.62
332.258	88.62
332.486	79.62
332.715	68.62
332.943	81.62
333.172	80.62
333.4	89.62
333.629	92.62
333.857	103.62
334.085	107.62
334.314	176.62
334.542	228.62
334.771	198.62
334.999	109.62
335.227	86.62
335.455	76.62
335.684	92.62
335.912	93.62
336.14	80.62
336.369	70.62
336.597	78.62
336.825	79.62
337.053	75.62
337.281	77.62
337.51	71.62
337.738	63.62
337.966	84.62
338.194	74.62
338.422	89.62
338.65	87.62
338.878	75.62
339.106	74.62
339.334	91.62
339.562	80.62
339.79	70.62
340.018	84.62
340.246	85.62
340.474	82.62
340.702	76.62
340.93	82.62
341.158	91.62
341.386	89.62
341.614	87.62
341.842	74.62
342.07	85.62
342.298	67.62
342.526	93.62
342.754	68.62
342.981	80.62
343.209	73.62
343.437	90.62
343.665	76.62
343.893	74.62
344.12	77.62
344.348	69.62
344.576	81.62
344.804	76.62
345.031	73.62
345.259	74.62
345.487	76.62
345.714	93.62
345.942	70.62
346.17	83.62
346.397	63.62
346.625	77.62
346.853	83.62
347.08	75.62
347.308	83.62
347.535	84.62
347.763	79.62
347.99	67.62
348.218	86.62
348.445	87.62
348.673	74.62
348.9	70.62
349.128	91.62
349.355	82.62
349.583	86.62
349.81	76.62
350.037	76.62
350.265	77.62
350.492	78.62
350.72	72.62
350.947	93.62
351.174	88.62
351.402	100.62
351.629	76.62
351.856	72.62
352.083	79.62
352.311	73.62
352.538	76.62
352.765	90.62
352.992	90.62
353.22	83.62
353.447	76.62
353.674	80.62
353.901	88.62
354.128	86.62
354.355	82.62
354.583	86.62
354.81	73.62
355.037	81.62
355.264	86.62
355.491	81.62
355.718	74.62
355.945	81.62
356.172	78.62
356.399	86.62
356.626	81.62
356.853	86.62
357.08	71.62
357.307	78.62
357.534	70.62
357.761	77.62
357.988	85.62
358.215	90.62
358.441	73.62
358.668	81.62
358.895	75.62
359.122	75.62
359.349	87.62
359.576	69.62
359.802	83.62
360.029	74.62
360.256	72.62
360.483	76.62
360.709	85.62
360.936	82.62
361.163	91.62
361.39	72.62
361.616	84.62
361.843	80.62
362.07	79.62
362.296	75.62
362.523	78.62
362.749	85.62
362.976	89.62
363.203	80.62
363.429	78.62
363.656	70.62
363.882	67.62
364.109	77.62
364.335	70.62
364.562	85.62
364.788	67.62
365.015	77.62
365.241	75.62
365.468	85.62
365.694	74.62
365.92	83.62
366.147	72.62
366.373	74.62
366.599	75.62
366.826	52.62
367.052	96.62
367.278	68.62
367.505	72.62
367.731	76.62
367.957	87.62
368.184	74.62
368.41	86.62
368.636	76.62
368.862	91.62
369.089	80.62
369.315	76.62
369.541	77.62
369.767	75.62
369.993	96.62
370.219	78.62
370.445	74.62
370.672	71.62
370.898	74.62
371.124	70.62
371.35	80.62
371.576	74.62
371.802	73.62
372.028	77.62
372.254	84.62
372.48	72.62
372.706	75.62
372.932	77.62
373.158	77.62
373.384	89.62
373.61	88.62
373.835	85.62
374.061	64.62
374.287	87.62
374.513	81.62
374.739	78.62
374.965	82.62
375.191	80.62
375.416	80.62
375.642	69.62
375.868	85.62
376.094	77.62
376.319	74.62
376.545	64.62
376.771	77.62
376.997	72.62
377.222	63.62
377.448	81.62
377.674	82.62
377.899	81.62
378.125	70.62
378.35	77.62
378.576	74.62
378.802	71.62
379.027	65.62
379.253	76.62
379.478	75.62
379.704	72.62
379.929	72.62
380.155	77.62
380.38	69.62
380.606	73.62
380.831	75.62
381.057	78.62
381.282	77.62
381.507	63.62
381.733	84.62
381.958	74.62
382.184	74.62
382.409	84.62
382.634	89.62
382.86	85.62
383.085	77.62
383.31	65.62
383.535	77.62
383.761	86.62
383.986	84.62
384.211	81.62
384.436	93.62
384.662	74.62
384.887	72.62
385.112	62.62
385.337	68.62
385.562	71.62
385.787	68.62
386.013	74.62
386.238	85.62
386.463	82.62
386.688	83.62
386.913	80.62
387.138	71.62
387.363	78.62
387.588	69.62
387.813	70.62
388.038	68.62
388.263	82.62
388.488	77.62
388.713	76.62
388.938	81.62
389.163	61.62
389.387	65.62
389.612	64.62
389.837	70.62
390.062	86.62
390.287	73.62
390.512	92.62
390.736	89.62
390.961	80.62
391.186	91.62
391.411	81.62
391.636	85.62
391.86	83.62
392.085	62.62
392.31	64.62
392.534	90.62
392.759	82.62
392.984	76.62
393.208	82.62
393.433	80.62
393.658	82.62
393.882	88.62
394.107	64.62
394.331	76.62
394.556	81.62
394.78	76.62
395.005	80.62
395.229	87.62
395.454	65.62
395.678	64.62
395.903	75.62
396.127	87.62
396.352	91.62
396.576	94.62
396.801	72.62
397.025	73.62
397.249	86.62
397.474	85.62
397.698	89.62
397.922	93.62
398.147	72.62
398.371	65.62
398.595	82.62
398.82	67.62
399.044	79.62
399.268	68.62
399.492	80.62
399.717	68.62
399.941	73.62
400.165	82.62
400.389	75.62
400.613	86.62
400.837	89.62
401.062	81.62
401.286	66.62
401.51	63.62
401.734	74.62
401.958	88.62
402.182	82.62
402.406	78.62
402.63	80.62
402.854	75.62
403.078	83.62
403.302	88.62
403.526	80.62
403.75	89.62
403.974	76.62
404.198	90.62
404.422	78.62
404.645	87.62
404.869	70.62
405.093	60.62
405.317	70.62
405.541	75.62
405.765	74.62
405.988	89.62
406.212	68.62
406.436	72.62
406.66	74.62
406.883	78.62
407.107	85.62
407.331	76.62
407.555	67.62
407.778	80.62
408.002	86.62
408.226	90.62
408.449	80.62
408.673	76.62
408.896	73.62
409.12	77.62
409.344	92.62
409.567	77.62
409.791	81.62
410.014	76.62
410.238	84.62
410.461	93.62
410.685	66.62
410.908	79.62
411.132	74.62
411.355	73.62
411.578	74.62
411.802	71.62
412.025	88.62
412.249	86.62
412.472	82.62
412.695	77.62
412.919	81.62
413.142	79.62
413.365	78.62
413.589	81.62
413.812	89.62
414.035	79.62
414.258	91.62
414.482	80.62
414.705	88.62
414.928	83.62
415.151	78.62
415.374	70.62
415.597	89.62
415.821	88.62
416.044	81.62
416.267	85.62
416.49	82.62
416.713	76.62
416.936	86.62
417.159	62.62
417.382	77.62
417.605	76.62
417.828	72.62
418.051	79.62
418.274	76.62
418.497	78.62
418.72	78.62
418.943	69.62
419.166	75.62
419.389	68.62
419.611	73.62
419.834	75.62
420.057	80.62
420.28	73.62
420.503	80.62
420.726	76.62
420.948	61.62
421.171	64.62
421.394	76.62
421.617	72.62
421.839	67.62
422.062	80.62
422.285	84.62
422.507	83.62
422.73	82.62
422.953	82.62
423.175	77.62
423.398	82.62
423.621	81.62
423.843	82.62
424.066	93.62
424.288	79.62
424.511	67.62
424.733	72.62
424.956	77.62
425.178	81.62
425.401	68.62
425.623	74.62
425.846	92.62
426.068	81.62
426.291	88.62
426.513	84.62
426.735	69.62
426.958	84.62
427.18	68.62
427.402	62.62
427.625	80.62
427.847	76.62
428.069	78.62
428.292	74.62
428.514	72.62
428.736	56.62
428.958	83.62
429.181	76.62
429.403	64.62
429.625	72.62
429.847	80.62
430.069	89.62
430.292	68.62
430.514	75.62
430.736	80.62
430.958	86.62
431.18	93.62
431.402	80.62
431.624	86.62
431.846	73.62
432.068	66.62
432.29	85.62
432.512	84.62
432.734	56.62
432.956	73.62
433.178	91.62
433.4	81.62
433.622	68.62
433.844	79.62
434.066	80.62
434.287	80.62
434.509	69.62
434.731	63.62
434.953	89.62
435.175	90.62
435.397	72.62
435.618	91.62
435.84	73.62
436.062	66.62
436.284	86.62
436.505	78.62
436.727	78.62
436.949	98.62
437.17	87.62
437.392	86.62
437.614	80.62
437.835	85.62
438.057	85.62
438.278	77.62
438.5	66.62
438.721	70.62
438.943	79.62
439.165	82.62
439.386	91.62
439.608	77.62
439.829	84.62
440.05	85.62
440.272	93.62
440.493	89.62
440.715	65.62
440.936	69.62
441.158	80.62
441.379	82.62
441.6	77.62
441.822	78.62
442.043	82.62
442.264	76.62
442.486	86.62
442.707	83.62
442.928	71.62
443.149	80.62
443.371	90.62
443.592	86.62
443.813	74.62
444.034	73.62
444.255	86.62
444.476	66.62
444.698	75.62
444.919	84.62
445.14	149.62
445.361	108.62
445.582	73.62
445.803	72.62
446.024	82.62
446.245	71.62
446.466	76.62
446.687	91.62
446.908	79.62
447.129	89.62
447.35	83.62
447.571	89.62
447.792	72.62
448.013	78.62
448.234	93.62
448.455	76.62
448.675	84.62
448.896	73.62
449.117	83.62
449.338	86.62
449.559	78.62
449.779	86.62
450	68.62
450.221	83.62
450.442	74.62
450.662	68.62
450.883	77.62
451.104	77.62
451.324	72.62
451.545	92.62
451.766	83.62
451.986	77.62
452.207	72.62
452.428	76.62
452.648	86.62
452.869	79.62
453.089	68.62
453.31	80.62
453.53	91.62
453.751	83.62
453.971	74.62
454.192	83.62
454.412	75.62
454.633	72.62
454.853	76.62
455.073	74.62
455.294	73.62
455.514	91.62
455.734	81.62
455.955	65.62
456.175	65.62
456.395	75.62
456.616	77.62
456.836	87.62
457.056	76.62
457.276	80.62
457.497	88.62
457.717	85.62
457.937	78.62
458.157	77.62
458.377	74.62
458.598	76.62
458.818	80.62
459.038	82.62
459.258	75.62
459.478	78.62
459.698	90.62
459.918	75.62
460.138	78.62
460.358	76.62
460.578	87.62
460.798	60.62
461.018	73.62
461.238	74.62
461.458	76.62
461.678	93.62
461.898	67.62
462.118	84.62
462.338	80.62
462.558	70.62
462.777	80.62
462.997	96.62
463.217	75.62
463.437	75.62
463.657	84.62
463.876	83.62
464.096	76.62
464.316	72.62
464.536	81.62
464.755	83.62
464.975	85.62
465.195	89.62
465.414	77.62
465.634	85.62
465.854	93.62
466.073	81.62
466.293	85.62
466.512	71.62
466.732	74.62
466.951	86.62
467.171	90.62
467.391	87.62
467.61	82.62
467.829	104.62
468.049	164.62
468.268	190.62
468.488	111.62
468.707	84.62
468.927	89.62
469.146	67.62
469.365	62.62
469.585	77.62
469.804	84.62
470.023	80.62
470.243	78.62
470.462	82.62
470.681	87.62
470.901	82.62
471.12	94.62
471.339	84.62
471.558	91.62
471.777	91.62
471.997	113.62
472.216	226.62
472.435	327.62
472.654	128.62
472.873	93.62
473.092	98.62
473.311	80.62
473.53	81.62
473.749	84.62
473.968	90.62
474.187	86.62
474.406	81.62
474.625	83.62
474.844	72.62
475.063	63.62
475.282	80.62
475.501	92.62
475.72	85.62
475.939	93.62
476.158	84.62
476.377	84.62
476.596	78.62
476.814	82.62
477.033	79.62
477.252	73.62
477.471	78.62
477.69	87.62
477.908	86.62
478.127	74.62
478.346	84.62
478.564	98.62
478.783	88.62
479.002	80.62
479.22	82.62
479.439	100.62
479.658	72.62
479.876	92.62
480.095	68.62
480.313	97.62
480.532	92.62
480.751	126.62
480.969	228.62
481.188	499.62
481.406	290.62
481.624	121.62
481.843	76.62
482.061	82.62
482.28	71.62
482.498	82.62
482.717	61.62
482.935	92.62
483.153	76.62
483.372	73.62
483.59	80.62
483.808	67.62
484.027	75.62
484.245	80.62
484.463	77.62
484.681	89.62
484.9	84.62
485.118	66.62
485.336	89.62
485.554	77.62
485.772	86.62
485.99	71.62
486.209	78.62
486.427	68.62
486.645	92.62
486.863	86.62
487.081	88.62
487.299	85.62
487.517	73.62
487.735	84.62
487.953	81.62
488.171	87.62
488.389	70.62
488.607	71.62
488.825	72.62
489.043	72.62
489.261	78.62
489.479	70.62
489.696	90.62
489.914	66.62
490.132	76.62
490.35	88.62
490.568	75.62
490.786	88.62
491.003	80.62
491.221	91.62
491.439	80.62
491.657	75.62
491.874	84.62
492.092	86.62
492.31	96.62
492.527	75.62
492.745	94.62
492.963	91.62
493.18	97.62
493.398	84.62
493.615	81.62
493.833	80.62
494.05	93.62
494.268	80.62
494.485	96.62
494.703	93.62
494.92	95.62
495.138	80.62
495.355	94.62
495.573	80.62
495.79	83.62
496.008	92.62
496.225	96.62
496.442	74.62
496.66	94.62
496.877	85.62
497.094	102.62
497.312	84.62
497.529	66.62
497.746	93.62
497.963	83.62
498.181	91.62
498.398	100.62
498.615	75.62
498.832	84.62
499.049	95.62
499.267	76.62
499.484	79.62
499.701	82.62
499.918	88.62
500.135	94.62
500.352	84.62
500.569	86.62
500.786	94.62
501.003	89.62
501.22	80.62
501.437	85.62
501.654	72.62
501.871	89.62
502.088	75.62
502.305	89.62
502.522	81.62
502.739	83.62
502.956	80.62
503.172	91.62
503.389	74.62
503.606	86.62
503.823	76.62
504.04	85.62
504.256	73.62
504.473	73.62
504.69	87.62
504.907	89.62
505.123	84.62
505.34	88.62
505.557	84.62
505.773	85.62
505.99	80.62
506.207	74.62
506.423	87.62
506.64	78.62
506.856	88.62
507.073	76.62
507.289	73.62
507.506	86.62
507.722	85.62
507.939	96.62
508.155	94.62
508.372	88.62
508.588	92.62
508.805	82.62
509.021	81.62
509.238	76.62
509.454	76.62
509.67	84.62
509.887	78.62
510.103	70.62
510.319	86.62
510.536	83.62
510.752	67.62
510.968	85.62
511.184	60.62
511.401	77.62
511.617	72.62
511.833	72.62
512.049	75.62
512.265	84.62
512.481	86.62
512.698	72.62
512.914	88.62
513.13	76.62
513.346	86.62
513.562	76.62
513.778	94.62
513.994	86.62
514.21	86.62
514.426	66.62
514.642	84.62
514.858	80.62
515.074	94.62
515.29	78.62
515.506	70.62
515.721	84.62
515.937	82.62
516.153	83.62
516.369	68.62
516.585	90.62
516.801	82.62
517.016	72.62
517.232	92.62
517.448	77.62
517.664	86.62
517.879	84.62
518.095	82.62
518.311	77.62
518.527	90.62
518.742	74.62
518.958	77.62
519.173	97.62
519.389	73.62
519.605	78.62
519.82	83.62
520.036	82.62
520.251	64.62
520.467	71.62
520.682	70.62
520.898	89.62
521.113	78.62
521.329	80.62
521.544	98.62
521.76	71.62
521.975	80.62
522.19	85.62
522.406	82.62
522.621	89.62
522.836	76.62
523.052	85.62
523.267	80.62
523.482	89.62
523.698	84.62
523.913	81.62
524.128	82.62
524.343	73.62
524.559	78.62
524.774	87.62
524.989	83.62
525.204	89.62
525.419	80.62
525.634	68.62
525.849	76.62
526.064	66.62
526.28	90.62
526.495	78.62
526.71	72.62
526.925	68.62
527.14	77.62
527.355	74.62
527.57	83.62
527.785	74.62
527.999	81.62
528.214	74.62
528.429	72.62
528.644	78.62
528.859	90.62
529.074	75.62
529.289	76.62
529.503	82.62
529.718	90.62
529.933	88.62
530.148	93.62
530.363	76.62
530.577	89.62
530.792	92.62
531.007	76.62
531.221	80.62
531.436	96.62
531.651	85.62
531.865	90.62
532.08	82.62
532.295	90.62
532.509	88.62
532.724	89.62
532.938	73.62
533.153	78.62
533.367	74.62
533.582	81.62
533.796	82.62
534.011	79.62
534.225	67.62
534.44	81.62
534.654	81.62
534.868	82.62
535.083	73.62
535.297	84.62
535.511	82.62
535.726	90.62
535.94	93.62
536.154	64.62
536.369	73.62
536.583	87.62
536.797	91.62
537.011	66.62
537.225	76.62
537.44	81.62
537.654	80.62
537.868	86.62
538.082	77.62
538.296	81.62
538.51	73.62
538.724	88.62
538.938	90.62
539.153	86.62
539.367	82.62
539.581	84.62
539.795	77.62
540.009	84.62
540.222	93.62
540.436	78.62
540.65	75.62
540.864	77.62
541.078	82.62
541.292	80.62
541.506	83.62
541.72	81.62
541.934	74.62
542.147	92.62
542.361	80.62
542.575	98.62
542.789	93.62
543.002	78.62
543.216	75.62
543.43	80.62
543.644	70.62
543.857	73.62
544.071	90.62
544.285	82.62
544.498	80.62
544.712	89.62
544.925	98.62
545.139	87.62
545.352	91.62
545.566	91.62
545.779	93.62
545.993	89.62
546.206	78.62
546.42	70.62
546.633	86.62
546.847	87.62
547.06	84.62
547.274	76.62
547.487	81.62
547.7	81.62
547.914	81.62
548.127	100.62
548.34	85.62
548.554	79.62
548.767	101.62
548.98	86.62
549.193	76.62
549.407	82.62
549.62	83.62
549.833	76.62
550.046	81.62
550.259	89.62
550.473	94.62
550.686	81.62
550.899	84.62
551.112	88.62
551.325	74.62
551.538	80.62
551.751	78.62
551.964	93.62
552.177	79.62
552.39	89.62
552.603	69.62
552.816	79.62
553.029	93.62
553.242	93.62
553.455	83.62
553.667	93.62
553.88	85.62
554.093	75.62
554.306	97.62
554.519	96.62
554.732	98.62
554.944	93.62
555.157	64.62
555.37	80.62
555.583	81.62
555.795	77.62
556.008	94.62
556.221	77.62
556.433	82.62
556.646	78.62
556.859	77.62
557.071	74.62
557.284	77.62
557.496	91.62
557.709	74.62
557.921	80.62
558.134	93.62
558.346	90.62
558.559	74.62
558.771	80.62
558.984	75.62
559.196	82.62
559.409	86.62
559.621	89.62
559.833	90.62
560.046	80.62
560.258	78.62
560.47	98.62
560.683	82.62
560.895	76.62
561.107	94.62
561.32	80.62
561.532	87.62
561.744	78.62
561.956	103.62
562.168	83.62
562.381	86.62
562.593	76.62
562.805	80.62
563.017	76.62
563.229	78.62
563.441	70.62
563.653	87.62
563.865	96.62
564.077	76.62
564.289	84.62
564.501	82.62
564.713	87.62
564.925	85.62
565.137	71.62
565.349	89.62
565.561	75.62
565.773	86.62
565.985	84.62
566.197	103.62
566.408	89.62
566.62	73.62
566.832	72.62
567.044	64.62
567.255	69.62
567.467	74.62
567.679	90.62
567.891	77.62
568.102	69.62
568.314	82.62
568.526	62.62
568.737	74.62
568.949	77.62
569.161	83.62
569.372	85.62
569.584	79.62
569.795	80.62
570.007	68.62
570.218	83.62
570.43	87.62
570.641	87.62
570.853	78.62
571.064	71.62
571.276	85.62
571.487	92.62
571.698	80.62
571.91	82.62
572.121	78.62
572.333	90.62
572.544	78.62
572.755	78.62
572.966	77.62
573.178	73.62
573.389	75.62
573.6	77.62
573.811	88.62
574.023	74.62
574.234	71.62
574.445	85.62
574.656	72.62
574.867	89.62
575.078	90.62
575.289	87.62
575.501	70.62
575.712	86.62
575.923	77.62
576.134	82.62
576.345	83.62
576.556	72.62
576.767	90.62
576.978	69.62
577.188	95.62
577.399	76.62
577.61	90.62
577.821	69.62
578.032	72.62
578.243	86.62
578.454	70.62
578.665	75.62
578.875	74.62
579.086	80.62
579.297	71.62
579.508	75.62
579.718	69.62
579.929	81.62
580.14	76.62
580.35	80.62
580.561	91.62
580.772	70.62
580.982	78.62
581.193	86.62
581.403	83.62
581.614	73.62
581.825	83.62
582.035	68.62
582.246	83.62
582.456	80.62
582.667	85.62
582.877	81.62
583.087	85.62
583.298	75.62
583.508	69.62
583.719	76.62
583.929	87.62
584.139	84.62
584.35	91.62
584.56	74.62
584.77	72.62
584.981	76.62
585.191	88.62
585.401	75.62
585.611	84.62
585.821	79.62
586.032	90.62
586.242	82.62
586.452	88.62
586.662	76.62
586.872	75.62
587.082	78.62
587.292	76.62
587.502	70.62
587.713	86.62
587.923	81.62
588.133	73.62
588.343	88.62
588.553	68.62
588.762	89.62
588.972	76.62
589.182	83.62
589.392	87.62
589.602	85.62
589.812	88.62
590.022	89.62
590.232	62.62
590.441	93.62
590.651	77.62
590.861	77.62
591.071	77.62
591.281	93.62
591.49	82.62
591.7	76.62
591.91	86.62
592.119	74.62
592.329	84.62
592.539	81.62
592.748	72.62
592.958	97.62
593.167	86.62
593.377	86.62
593.587	89.62
593.796	94.62
594.006	88.62
594.215	74.62
594.424	80.62
594.634	68.62
594.843	78.62
595.053	79.62
595.262	84.62
595.472	91.62
595.681	87.62
595.89	76.62
596.1	78.62
596.309	89.62
596.518	76.62
596.727	77.62
596.937	86.62
597.146	92.62
597.355	83.62
597.564	77.62
597.774	89.62
597.983	83.62
598.192	74.62
598.401	67.62
598.61	84.62
598.819	78.62
599.028	76.62
599.237	76.62
599.446	83.62
599.655	88.62
599.864	77.62
600.073	79.62
600.282	84.62
600.491	70.62
600.7	88.62
600.909	66.62
601.118	98.62
601.327	90.62
601.536	93.62
601.745	78.62
601.953	81.62
602.162	64.62
602.371	85.62
602.58	73.62
602.789	77.62
602.997	83.62
603.206	82.62
603.415	86.62
603.623	87.62
603.832	74.62
604.041	72.62
604.249	78.62
604.458	84.62
604.666	80.62
604.875	73.62
605.084	92.62
605.292	84.62
605.501	100.62
605.709	77.62
605.918	73.62
606.126	79.62
606.334	73.62
606.543	74.62
606.751	82.62
606.96	79.62
607.168	81.62
607.376	82.62
607.585	85.62
607.793	83.62
608.001	71.62
608.21	86.62
608.418	86.62
608.626	81.62
608.834	92.62
609.043	88.62
609.251	74.62
609.459	78.62
609.667	81.62
609.875	80.62
610.083	85.62
610.291	86.62
610.499	94.62
610.707	92.62
610.916	74.62
611.124	77.62
611.332	76.62
611.54	62.62
611.748	71.62
611.955	88.62
612.163	97.62
612.371	70.62
612.579	81.62
612.787	70.62
612.995	83.62
613.203	79.62
613.411	87.62
613.618	91.62
613.826	73.62
614.034	69.62
614.242	81.62
614.449	75.62
614.657	72.62
614.865	83.62
615.072	86.62
615.28	83.62
615.488	83.62
615.695	69.62
615.903	90.62
616.111	72.62
616.318	87.62
616.526	80.62
616.733	90.62
616.941	90.62
617.148	74.62
617.356	80.62
617.563	75.62
617.771	72.62
617.978	77.62
618.185	87.62
618.393	71.62
618.6	76.62
618.807	78.62
619.015	73.62
619.222	94.62
619.429	83.62
619.637	86.62
619.844	88.62
620.051	77.62
620.258	80.62
620.466	92.62
620.673	86.62
620.88	79.62
621.087	88.62
621.294	94.62
621.501	87.62
621.708	86.62
621.915	87.62
622.122	74.62
622.329	89.62
622.536	71.62
622.743	85.62
622.95	92.62
623.157	85.62
623.364	87.62
623.571	77.62
623.778	76.62
623.985	71.62
624.192	78.62
624.399	90.62
624.606	96.62
624.812	92.62
625.019	96.62
625.226	92.62
625.433	84.62
625.639	68.62
625.846	74.62
626.053	77.62
626.259	76.62
626.466	74.62
626.673	81.62
626.879	68.62
627.086	88.62
627.293	80.62
627.499	73.62
627.706	80.62
627.912	77.62
628.119	74.62
628.325	86.62
628.532	81.62
628.738	96.62
628.945	80.62
629.151	79.62
629.357	80.62
629.564	82.62
629.77	76.62
629.976	78.62
630.183	76.62
630.389	82.62
630.595	86.62
630.802	78.62
631.008	78.62
631.214	77.62
631.42	84.62
631.627	83.62
631.833	87.62
632.039	88.62
632.245	71.62
632.451	68.62
632.657	71.62
632.863	66.62
633.069	79.62
633.275	87.62
633.481	72.62
633.688	73.62
633.893	65.62
634.099	84.62
634.305	68.62
634.511	81.62
634.717	75.62
634.923	76.62
635.129	77.62
635.335	70.62
635.541	78.62
635.747	89.62
635.952	96.62
636.158	93.62
636.364	141.62
636.57	129.62
636.775	84.62
636.981	75.62
637.187	62.62
637.392	76.62
637.598	86.62
637.804	82.62
638.009	81.62
638.215	83.62
638.421	78.62
638.626	72.62
638.832	69.62
639.037	60.62
639.243	92.62
639.448	78.62
639.654	80.62
639.859	71.62
640.065	74.62
640.27	80.62
640.475	77.62
640.681	77.62
640.886	83.62
641.091	92.62
641.297	81.62
641.502	83.62
641.707	85.62
641.913	99.62
642.118	68.62
642.323	80.62
642.528	80.62
642.733	73.62
642.939	84.62
643.144	84.62
643.349	85.62
643.554	82.62
643.759	82.62
643.964	80.62
644.169	80.62
644.374	79.62
644.579	69.62
644.784	63.62
644.989	85.62
645.194	83.62
645.399	79.62
645.604	80.62
645.809	79.62
646.014	86.62
646.219	78.62
646.423	82.62
646.628	67.62
646.833	74.62
647.038	86.62
647.243	83.62
647.447	98.62
647.652	84.62
647.857	93.62
648.062	84.62
648.266	97.62
648.471	80.62
648.676	80.62
648.88	86.62
649.085	74.62
649.289	76.62
649.494	74.62
649.698	68.62
649.903	70.62
650.107	73.62
650.312	97.62
650.516	78.62
650.721	75.62
650.925	77.62
651.13	86.62
651.334	70.62
651.539	82.62
651.743	76.62
651.947	76.62
652.152	72.62
652.356	85.62
652.56	85.62
652.764	68.62
652.969	81.62
653.173	76.62
653.377	66.62
653.581	86.62
653.785	72.62
653.99	73.62
654.194	86.62
654.398	77.62
654.602	83.62
654.806	73.62
655.01	78.62
655.214	99.62
655.418	89.62
655.622	61.62
655.826	87.62
656.03	75.62
656.234	77.62
656.438	88.62
656.642	75.62
656.846	66.62
657.049	90.62
657.253	85.62
657.457	73.62
657.661	68.62
657.865	68.62
658.068	83.62
658.272	74.62
658.476	84.62
658.68	76.62
658.883	74.62
659.087	70.62
659.291	93.62
659.494	72.62
659.698	77.62
659.901	74.62
660.105	71.62
660.309	78.62
660.512	77.62
660.716	92.62
660.919	91.62
661.123	92.62
661.326	76.62
661.53	71.62
661.733	78.62
661.936	86.62
662.14	75.62
662.343	76.62
662.546	71.62
662.75	78.62
662.953	76.62
663.156	76.62
663.36	77.62
663.563	79.62
663.766	76.62
663.969	69.62
664.173	85.62
664.376	70.62
664.579	74.62
664.782	76.62
664.985	72.62
665.188	89.62
665.391	84.62
665.594	84.62
665.797	70.62
666	72.62
666.203	81.62
666.406	89.62
666.609	75.62
666.812	80.62
667.015	78.62
667.218	76.62
667.421	81.62
667.624	75.62
667.827	91.62
668.03	72.62
668.232	87.62
668.435	66.62
668.638	72.62
668.841	100.62
669.043	82.62
669.246	84.62
669.449	74.62
669.651	73.62
669.854	74.62
670.057	65.62
670.259	75.62
670.462	77.62
670.665	69.62
670.867	68.62
671.07	89.62
671.272	94.62
671.475	90.62
671.677	68.62
671.88	81.62
672.082	74.62
672.284	84.62
672.487	86.62
672.689	83.62
672.892	72.62
