Data from StdC_HRD10591_100.txt Node
Date: Fri May 16 15:29:30 EDT 2025
User: Yrep
Spectrometer: HR+D1059
Trigger mode: 1
Integration Time (sec): 1.000000E-1
Scans to average: 1
Electric dark correction enabled: true
Nonlinearity correction enabled: false
Boxcar width: 0
XAxis mode: Wavelengths
Number of Pixels in Spectrum: 2048
>>>>>Begin Spectral Data<<<<<
223.165	-12.31
223.4	-12.31
223.635	-12.31
223.869	-23.31
224.104	-22.31
224.338	-11.31
224.573	-22.31
224.808	0.69
225.042	-5.31
225.277	-16.31
225.511	-2.31
225.746	-0.31
225.98	2.69
226.215	19.69
226.449	14.69
226.683	29.69
226.918	29.69
227.152	18.69
227.387	38.69
227.621	31.69
227.856	48.69
228.09	44.69
228.324	57.69
228.559	50.69
228.793	59.69
229.027	74.69
229.262	77.69
229.496	69.69
229.73	83.69
229.964	65.69
230.199	79.69
230.433	92.69
230.667	75.69
230.901	81.69
231.136	94.69
231.37	82.69
231.604	80.69
231.838	82.69
232.072	91.69
232.306	95.69
232.541	90.69
232.775	89.69
233.009	86.69
233.243	109.69
233.477	95.69
233.711	97.69
233.945	96.69
234.179	94.69
234.413	84.69
234.647	78.69
234.881	88.69
235.115	93.69
235.349	78.69
235.583	91.69
235.817	91.69
236.051	96.69
236.285	86.69
236.519	97.69
236.753	90.69
236.987	98.69
237.221	100.69
237.455	96.69
237.689	86.69
237.922	89.69
238.156	97.69
238.39	78.69
238.624	66.69
238.858	97.69
239.091	80.69
239.325	78.69
239.559	79.69
239.793	109.69
240.027	90.69
240.26	88.69
240.494	100.69
240.728	98.69
240.961	91.69
241.195	98.69
241.429	119.69
241.662	86.69
241.896	83.69
242.13	99.69
242.363	86.69
242.597	115.69
242.83	85.69
243.064	98.69
243.298	81.69
243.531	102.69
243.765	83.69
243.998	101.69
244.232	114.69
244.465	110.69
244.699	104.69
244.932	97.69
245.166	106.69
245.399	106.69
245.633	104.69
245.866	108.69
246.099	90.69
246.333	113.69
246.566	124.69
246.8	113.69
247.033	90.69
247.266	115.69
247.5	120.69
247.733	115.69
247.966	97.69
248.2	115.69
248.433	107.69
248.666	113.69
248.899	116.69
249.133	99.69
249.366	128.69
249.599	122.69
249.832	129.69
250.066	150.69
250.299	146.69
250.532	184.69
250.765	154.69
250.998	159.69
251.231	133.69
251.465	117.69
251.698	118.69
251.931	137.69
252.164	128.69
252.397	131.69
252.63	121.69
252.863	126.69
253.096	125.69
253.329	114.69
253.562	118.69
253.795	113.69
254.028	128.69
254.261	141.69
254.494	132.69
254.727	138.69
254.96	135.69
255.193	138.69
255.426	158.69
255.659	187.69
255.892	254.69
256.124	298.69
256.357	243.69
256.59	206.69
256.823	162.69
257.056	156.69
257.289	149.69
257.521	135.69
257.754	142.69
257.987	140.69
258.22	136.69
258.452	135.69
258.685	148.69
258.918	141.69
259.151	144.69
259.383	147.69
259.616	145.69
259.849	130.69
260.081	144.69
260.314	126.69
260.547	131.69
260.779	132.69
261.012	139.69
261.244	152.69
261.477	132.69
261.71	126.69
261.942	142.69
262.175	146.69
262.407	128.69
262.64	127.69
262.872	136.69
263.105	140.69
263.337	132.69
263.57	119.69
263.802	129.69
264.035	125.69
264.267	129.69
264.499	135.69
264.732	134.69
264.964	144.69
265.197	120.69
265.429	129.69
265.661	120.69
265.894	130.69
266.126	140.69
266.358	139.69
266.591	126.69
266.823	121.69
267.055	129.69
267.287	138.69
267.52	134.69
267.752	140.69
267.984	138.69
268.216	134.69
268.448	123.69
268.681	126.69
268.913	130.69
269.145	135.69
269.377	144.69
269.609	117.69
269.841	122.69
270.073	118.69
270.306	131.69
270.538	130.69
270.77	128.69
271.002	127.69
271.234	146.69
271.466	157.69
271.698	152.69
271.93	134.69
272.162	135.69
272.394	129.69
272.626	138.69
272.858	135.69
273.09	144.69
273.322	143.69
273.553	144.69
273.785	156.69
274.017	161.69
274.249	146.69
274.481	152.69
274.713	137.69
274.945	145.69
275.176	143.69
275.408	172.69
275.64	175.69
275.872	170.69
276.104	176.69
276.335	173.69
276.567	187.69
276.799	210.69
277.031	229.69
277.262	234.69
277.494	246.69
277.726	196.69
277.957	194.69
278.189	174.69
278.421	179.69
278.652	183.69
278.884	189.69
279.115	189.69
279.347	196.69
279.579	208.69
279.81	230.69
280.042	266.69
280.273	288.69
280.505	250.69
280.736	207.69
280.968	197.69
281.199	177.69
281.431	180.69
281.662	184.69
281.894	155.69
282.125	166.69
282.356	161.69
282.588	172.69
282.819	166.69
283.051	155.69
283.282	157.69
283.513	155.69
283.745	160.69
283.976	152.69
284.207	165.69
284.439	168.69
284.67	161.69
284.901	163.69
285.132	164.69
285.364	153.69
285.595	150.69
285.826	161.69
286.057	172.69
286.288	168.69
286.52	156.69
286.751	153.69
286.982	157.69
287.213	154.69
287.444	174.69
287.675	145.69
287.906	157.69
288.138	146.69
288.369	159.69
288.6	166.69
288.831	159.69
289.062	159.69
289.293	154.69
289.524	159.69
289.755	156.69
289.986	148.69
290.217	153.69
290.448	155.69
290.679	167.69
290.91	150.69
291.141	162.69
291.371	169.69
291.602	167.69
291.833	153.69
292.064	146.69
292.295	163.69
292.526	152.69
292.757	134.69
292.987	136.69
293.218	164.69
293.449	159.69
293.68	153.69
293.91	157.69
294.141	167.69
294.372	146.69
294.603	138.69
294.833	158.69
295.064	149.69
295.295	163.69
295.525	174.69
295.756	159.69
295.987	146.69
296.217	146.69
296.448	151.69
296.679	178.69
296.909	162.69
297.14	170.69
297.37	158.69
297.601	166.69
297.831	148.69
298.062	163.69
298.292	149.69
298.523	155.69
298.753	166.69
298.984	173.69
299.214	155.69
299.445	159.69
299.675	167.69
299.905	166.69
300.136	145.69
300.366	159.69
300.597	171.69
300.827	166.69
301.057	160.69
301.288	167.69
301.518	163.69
301.748	182.69
301.979	222.69
302.209	167.69
302.439	161.69
302.669	180.69
302.9	166.69
303.13	168.69
303.36	183.69
303.59	191.69
303.82	198.69
304.051	195.69
304.281	188.69
304.511	187.69
304.741	183.69
304.971	170.69
305.201	162.69
305.431	176.69
305.661	186.69
305.891	161.69
306.121	167.69
306.352	188.69
306.582	169.69
306.812	206.69
307.042	203.69
307.272	217.69
307.502	249.69
307.731	207.69
307.961	182.69
308.191	180.69
308.421	160.69
308.651	198.69
308.881	168.69
309.111	158.69
309.341	171.69
309.571	169.69
309.8	167.69
310.03	174.69
310.26	179.69
310.49	154.69
310.72	170.69
310.949	173.69
311.179	170.69
311.409	177.69
311.639	191.69
311.868	185.69
312.098	169.69
312.328	160.69
312.557	179.69
312.787	163.69
313.017	171.69
313.246	188.69
313.476	177.69
313.706	188.69
313.935	176.69
314.165	192.69
314.394	179.69
314.624	173.69
314.853	182.69
315.083	179.69
315.312	173.69
315.542	194.69
315.771	156.69
316.001	172.69
316.23	192.69
316.46	171.69
316.689	190.69
316.919	172.69
317.148	180.69
317.377	187.69
317.607	190.69
317.836	194.69
318.065	179.69
318.295	175.69
318.524	182.69
318.753	179.69
318.983	170.69
319.212	174.69
319.441	183.69
319.67	179.69
319.9	185.69
320.129	185.69
320.358	194.69
320.587	185.69
320.816	194.69
321.046	184.69
321.275	180.69
321.504	198.69
321.733	202.69
321.962	201.69
322.191	202.69
322.42	192.69
322.649	202.69
322.878	208.69
323.108	210.69
323.337	196.69
323.566	217.69
323.795	199.69
324.024	212.69
324.253	215.69
324.482	227.69
324.71	225.69
324.939	228.69
325.168	232.69
325.397	225.69
325.626	218.69
325.855	245.69
326.084	243.69
326.313	255.69
326.542	268.69
326.77	296.69
326.999	309.69
327.228	277.69
327.457	323.69
327.686	419.69
327.914	542.69
328.143	704.69
328.372	759.69
328.6	532.69
328.829	420.69
329.058	383.69
329.287	421.69
329.515	498.69
329.744	696.69
329.972	985.69
330.201	1342.69
330.43	1328.69
330.658	789.69
330.887	481.69
331.115	402.69
331.344	356.69
331.572	346.69
331.801	326.69
332.03	323.69
332.258	323.69
332.486	344.69
332.715	362.69
332.943	368.69
333.172	423.69
333.4	438.69
333.629	525.69
333.857	724.69
334.085	1061.69
334.314	1526.69
334.542	1842.69
334.771	1502.69
334.999	766.69
335.227	514.69
335.455	418.69
335.684	369.69
335.912	315.69
336.14	301.69
336.369	300.69
336.597	283.69
336.825	252.69
337.053	288.69
337.281	267.69
337.51	254.69
337.738	232.69
337.966	245.69
338.194	238.69
338.422	224.69
338.65	233.69
338.878	221.69
339.106	224.69
339.334	210.69
339.562	226.69
339.79	218.69
340.018	220.69
340.246	197.69
340.474	210.69
340.702	226.69
340.93	210.69
341.158	214.69
341.386	192.69
341.614	188.69
341.842	205.69
342.07	207.69
342.298	200.69
342.526	198.69
342.754	194.69
342.981	204.69
343.209	186.69
343.437	204.69
343.665	210.69
343.893	214.69
344.12	205.69
344.348	207.69
344.576	200.69
344.804	197.69
345.031	188.69
345.259	192.69
345.487	188.69
345.714	181.69
345.942	200.69
346.17	186.69
346.397	192.69
346.625	185.69
346.853	180.69
347.08	174.69
347.308	207.69
347.535	182.69
347.763	184.69
347.99	187.69
348.218	196.69
348.445	195.69
348.673	187.69
348.9	193.69
349.128	181.69
349.355	178.69
349.583	187.69
349.81	191.69
350.037	191.69
350.265	193.69
350.492	162.69
350.72	160.69
350.947	201.69
351.174	202.69
351.402	183.69
351.629	190.69
351.856	180.69
352.083	200.69
352.311	192.69
352.538	184.69
352.765	192.69
352.992	194.69
353.22	189.69
353.447	191.69
353.674	195.69
353.901	186.69
354.128	184.69
354.355	185.69
354.583	206.69
354.81	196.69
355.037	196.69
355.264	182.69
355.491	205.69
355.718	190.69
355.945	209.69
356.172	173.69
356.399	193.69
356.626	185.69
356.853	187.69
357.08	191.69
357.307	178.69
357.534	193.69
357.761	189.69
357.988	167.69
358.215	181.69
358.441	186.69
358.668	163.69
358.895	187.69
359.122	204.69
359.349	195.69
359.576	196.69
359.802	184.69
360.029	178.69
360.256	196.69
360.483	183.69
360.709	195.69
360.936	195.69
361.163	174.69
361.39	170.69
361.616	172.69
361.843	188.69
362.07	183.69
362.296	180.69
362.523	202.69
362.749	190.69
362.976	186.69
363.203	187.69
363.429	182.69
363.656	182.69
363.882	177.69
364.109	178.69
364.335	171.69
364.562	180.69
364.788	177.69
365.015	181.69
365.241	192.69
365.468	176.69
365.694	178.69
365.92	178.69
366.147	190.69
366.373	163.69
366.599	200.69
366.826	182.69
367.052	173.69
367.278	174.69
367.505	176.69
367.731	183.69
367.957	180.69
368.184	197.69
368.41	200.69
368.636	198.69
368.862	187.69
369.089	171.69
369.315	195.69
369.541	172.69
369.767	196.69
369.993	177.69
370.219	179.69
370.445	198.69
370.672	184.69
370.898	201.69
371.124	192.69
371.35	192.69
371.576	183.69
371.802	180.69
372.028	191.69
372.254	193.69
372.48	192.69
372.706	180.69
372.932	190.69
373.158	187.69
373.384	194.69
373.61	183.69
373.835	190.69
374.061	186.69
374.287	190.69
374.513	187.69
374.739	191.69
374.965	189.69
375.191	188.69
375.416	197.69
375.642	193.69
375.868	207.69
376.094	185.69
376.319	181.69
376.545	188.69
376.771	192.69
376.997	196.69
377.222	190.69
377.448	199.69
377.674	186.69
377.899	196.69
378.125	184.69
378.35	189.69
378.576	188.69
378.802	201.69
379.027	180.69
379.253	195.69
379.478	201.69
379.704	178.69
379.929	187.69
380.155	202.69
380.38	186.69
380.606	181.69
380.831	184.69
381.057	195.69
381.282	202.69
381.507	201.69
381.733	198.69
381.958	175.69
382.184	202.69
382.409	210.69
382.634	195.69
382.86	204.69
383.085	200.69
383.31	194.69
383.535	195.69
383.761	200.69
383.986	204.69
384.211	206.69
384.436	201.69
384.662	204.69
384.887	202.69
385.112	197.69
385.337	205.69
385.562	205.69
385.787	218.69
386.013	202.69
386.238	194.69
386.463	214.69
386.688	217.69
386.913	217.69
387.138	201.69
387.363	209.69
387.588	203.69
387.813	208.69
388.038	216.69
388.263	213.69
388.488	194.69
388.713	211.69
388.938	219.69
389.163	208.69
389.387	198.69
389.612	203.69
389.837	210.69
390.062	202.69
390.287	226.69
390.512	212.69
390.736	223.69
390.961	202.69
391.186	212.69
391.411	207.69
391.636	208.69
391.86	213.69
392.085	216.69
392.31	226.69
392.534	227.69
392.759	215.69
392.984	216.69
393.208	206.69
393.433	210.69
393.658	195.69
393.882	200.69
394.107	209.69
394.331	220.69
394.556	234.69
394.78	206.69
395.005	230.69
395.229	214.69
395.454	228.69
395.678	224.69
395.903	218.69
396.127	222.69
396.352	218.69
396.576	218.69
396.801	212.69
397.025	222.69
397.249	218.69
397.474	218.69
397.698	221.69
397.922	218.69
398.147	219.69
398.371	230.69
398.595	239.69
398.82	244.69
399.044	253.69
399.268	254.69
399.492	263.69
399.717	281.69
399.941	278.69
400.165	270.69
400.389	258.69
400.613	264.69
400.837	250.69
401.062	239.69
401.286	243.69
401.51	214.69
401.734	246.69
401.958	251.69
402.182	228.69
402.406	242.69
402.63	249.69
402.854	246.69
403.078	253.69
403.302	274.69
403.526	262.69
403.75	250.69
403.974	256.69
404.198	242.69
404.422	280.69
404.645	286.69
404.869	287.69
405.093	329.69
405.317	342.69
405.541	322.69
405.765	296.69
405.988	270.69
406.212	274.69
406.436	275.69
406.66	271.69
406.883	259.69
407.107	273.69
407.331	275.69
407.555	263.69
407.778	264.69
408.002	271.69
408.226	269.69
408.449	244.69
408.673	269.69
408.896	256.69
409.12	246.69
409.344	253.69
409.567	245.69
409.791	264.69
410.014	251.69
410.238	250.69
410.461	258.69
410.685	257.69
410.908	261.69
411.132	250.69
411.355	248.69
411.578	243.69
411.802	260.69
412.025	272.69
412.249	300.69
412.472	308.69
412.695	374.69
412.919	330.69
413.142	308.69
413.365	284.69
413.589	264.69
413.812	261.69
414.035	259.69
414.258	255.69
414.482	254.69
414.705	273.69
414.928	253.69
415.151	260.69
415.374	260.69
415.597	249.69
415.821	266.69
416.044	256.69
416.267	254.69
416.49	246.69
416.713	258.69
416.936	243.69
417.159	247.69
417.382	265.69
417.605	278.69
417.828	256.69
418.051	257.69
418.274	260.69
418.497	251.69
418.72	248.69
418.943	247.69
419.166	251.69
419.389	271.69
419.611	283.69
419.834	277.69
420.057	294.69
420.28	304.69
420.503	282.69
420.726	290.69
420.948	274.69
421.171	269.69
421.394	263.69
421.617	258.69
421.839	250.69
422.062	254.69
422.285	247.69
422.507	255.69
422.73	258.69
422.953	254.69
423.175	248.69
423.398	257.69
423.621	229.69
423.843	240.69
424.066	242.69
424.288	243.69
424.511	268.69
424.733	246.69
424.956	258.69
425.178	232.69
425.401	258.69
425.623	237.69
425.846	234.69
426.068	248.69
426.291	242.69
426.513	255.69
426.735	243.69
426.958	250.69
427.18	252.69
427.402	276.69
427.625	284.69
427.847	317.69
428.069	350.69
428.292	292.69
428.514	265.69
428.736	258.69
428.958	241.69
429.181	245.69
429.403	244.69
429.625	259.69
429.847	221.69
430.069	224.69
430.292	243.69
430.514	234.69
430.736	215.69
430.958	234.69
431.18	220.69
431.402	222.69
431.624	210.69
431.846	231.69
432.068	223.69
432.29	232.69
432.512	232.69
432.734	222.69
432.956	225.69
433.178	231.69
433.4	216.69
433.622	211.69
433.844	240.69
434.066	224.69
434.287	234.69
434.509	220.69
434.731	215.69
434.953	232.69
435.175	242.69
435.397	234.69
435.618	216.69
435.84	223.69
436.062	217.69
436.284	231.69
436.505	220.69
436.727	204.69
436.949	231.69
437.17	219.69
437.392	220.69
437.614	199.69
437.835	215.69
438.057	207.69
438.278	208.69
438.5	228.69
438.721	223.69
438.943	226.69
439.165	217.69
439.386	233.69
439.608	226.69
439.829	220.69
440.05	217.69
440.272	235.69
440.493	235.69
440.715	228.69
440.936	226.69
441.158	224.69
441.379	227.69
441.6	225.69
441.822	225.69
442.043	231.69
442.264	227.69
442.486	238.69
442.707	232.69
442.928	230.69
443.149	232.69
443.371	239.69
443.592	226.69
443.813	231.69
444.034	249.69
444.255	256.69
444.476	240.69
444.698	242.69
444.919	234.69
445.14	344.69
445.361	269.69
445.582	247.69
445.803	234.69
446.024	225.69
446.245	258.69
446.466	237.69
446.687	209.69
446.908	211.69
447.129	212.69
447.35	218.69
447.571	226.69
447.792	211.69
448.013	201.69
448.234	211.69
448.455	235.69
448.675	224.69
448.896	218.69
449.117	226.69
449.338	214.69
449.559	202.69
449.779	200.69
450	226.69
450.221	226.69
450.442	205.69
450.662	209.69
450.883	212.69
451.104	231.69
451.324	207.69
451.545	213.69
451.766	186.69
451.986	225.69
452.207	201.69
452.428	200.69
452.648	216.69
452.869	203.69
453.089	212.69
453.31	215.69
453.53	202.69
453.751	206.69
453.971	202.69
454.192	190.69
454.412	192.69
454.633	195.69
454.853	208.69
455.073	207.69
455.294	188.69
455.514	232.69
455.734	203.69
455.955	214.69
456.175	202.69
456.395	202.69
456.616	204.69
456.836	214.69
457.056	203.69
457.276	215.69
457.497	218.69
457.717	206.69
457.937	185.69
458.157	226.69
458.377	222.69
458.598	216.69
458.818	209.69
459.038	211.69
459.258	201.69
459.478	223.69
459.698	212.69
459.918	238.69
460.138	222.69
460.358	219.69
460.578	241.69
460.798	239.69
461.018	246.69
461.238	240.69
461.458	244.69
461.678	234.69
461.898	223.69
462.118	242.69
462.338	248.69
462.558	252.69
462.777	270.69
462.997	256.69
463.217	283.69
463.437	281.69
463.657	273.69
463.876	251.69
464.096	242.69
464.316	259.69
464.536	260.69
464.755	259.69
464.975	239.69
465.195	249.69
465.414	250.69
465.634	247.69
465.854	256.69
466.073	237.69
466.293	241.69
466.512	236.69
466.732	233.69
466.951	251.69
467.171	263.69
467.391	259.69
467.61	287.69
467.829	373.69
468.049	692.69
468.268	809.69
468.488	496.69
468.707	359.69
468.927	321.69
469.146	270.69
469.365	278.69
469.585	280.69
469.804	269.69
470.023	263.69
470.243	275.69
470.462	258.69
470.681	254.69
470.901	272.69
471.12	275.69
471.339	295.69
471.558	304.69
471.777	380.69
471.997	551.69
472.216	1148.69
472.435	1740.69
472.654	984.69
472.873	578.69
473.092	446.69
473.311	373.69
473.53	356.69
473.749	326.69
473.968	331.69
474.187	283.69
474.406	286.69
474.625	275.69
474.844	271.69
475.063	284.69
475.282	279.69
475.501	277.69
475.72	267.69
475.939	265.69
476.158	264.69
476.377	241.69
476.596	248.69
476.814	255.69
477.033	257.69
477.252	252.69
477.471	271.69
477.69	264.69
477.908	274.69
478.127	284.69
478.346	267.69
478.564	288.69
478.783	299.69
479.002	287.69
479.22	298.69
479.439	322.69
479.658	316.69
479.876	345.69
480.095	331.69
480.313	402.69
480.532	449.69
480.751	625.69
480.969	1213.69
481.188	2759.69
481.406	2185.69
481.624	1075.69
481.843	721.69
482.061	559.69
482.28	487.69
482.498	443.69
482.717	404.69
482.935	401.69
483.153	372.69
483.372	363.69
483.59	338.69
483.808	337.69
484.027	325.69
484.245	317.69
484.463	312.69
484.681	313.69
484.9	309.69
485.118	314.69
485.336	302.69
485.554	314.69
485.772	297.69
485.99	294.69
486.209	303.69
486.427	313.69
486.645	285.69
486.863	302.69
487.081	299.69
487.299	300.69
487.517	309.69
487.735	302.69
487.953	308.69
488.171	291.69
488.389	285.69
488.607	306.69
488.825	303.69
489.043	300.69
489.261	323.69
489.479	312.69
489.696	323.69
489.914	332.69
490.132	351.69
490.35	338.69
490.568	354.69
490.786	366.69
491.003	394.69
491.221	428.69
491.439	472.69
491.657	460.69
491.874	463.69
492.092	464.69
492.31	489.69
492.527	513.69
492.745	532.69
492.963	519.69
493.18	491.69
493.398	466.69
493.615	451.69
493.833	418.69
494.05	431.69
494.268	410.69
494.485	383.69
494.703	405.69
494.92	378.69
495.138	381.69
495.355	388.69
495.573	384.69
495.79	378.69
496.008	376.69
496.225	360.69
496.442	320.69
496.66	337.69
496.877	342.69
497.094	347.69
497.312	340.69
497.529	340.69
497.746	345.69
497.963	348.69
498.181	348.69
498.398	360.69
498.615	378.69
498.832	360.69
499.049	379.69
499.267	384.69
499.484	397.69
499.701	405.69
499.918	432.69
500.135	443.69
500.352	470.69
500.569	507.69
500.786	483.69
501.003	495.69
501.22	440.69
501.437	389.69
501.654	408.69
501.871	362.69
502.088	354.69
502.305	347.69
502.522	335.69
502.739	333.69
502.956	322.69
503.172	304.69
503.389	315.69
503.606	299.69
503.823	292.69
504.04	298.69
504.256	322.69
504.473	301.69
504.69	295.69
504.907	293.69
505.123	276.69
505.34	267.69
505.557	295.69
505.773	278.69
505.99	290.69
506.207	264.69
506.423	263.69
506.64	268.69
506.856	259.69
507.073	247.69
507.289	248.69
507.506	269.69
507.722	258.69
507.939	258.69
508.155	252.69
508.372	241.69
508.588	256.69
508.805	255.69
509.021	255.69
509.238	246.69
509.454	251.69
509.67	251.69
509.887	242.69
510.103	238.69
510.319	268.69
510.536	260.69
510.752	257.69
510.968	252.69
511.184	252.69
511.401	257.69
511.617	280.69
511.833	334.69
512.049	323.69
512.265	305.69
512.481	290.69
512.698	276.69
512.914	261.69
513.13	260.69
513.346	243.69
513.562	257.69
513.778	260.69
513.994	248.69
514.21	255.69
514.426	244.69
514.642	236.69
514.858	260.69
515.074	230.69
515.29	234.69
515.506	235.69
515.721	231.69
515.937	255.69
516.153	245.69
516.369	239.69
516.585	262.69
516.801	268.69
517.016	239.69
517.232	250.69
517.448	258.69
517.664	279.69
517.879	273.69
518.095	261.69
518.311	268.69
518.527	279.69
518.742	253.69
518.958	264.69
519.173	250.69
519.389	247.69
519.605	227.69
519.82	231.69
520.036	238.69
520.251	237.69
520.467	230.69
520.682	246.69
520.898	240.69
521.113	220.69
521.329	225.69
521.544	240.69
521.76	221.69
521.975	227.69
522.19	227.69
522.406	228.69
522.621	233.69
522.836	255.69
523.052	222.69
523.267	241.69
523.482	234.69
523.698	228.69
523.913	216.69
524.128	240.69
524.343	224.69
524.559	242.69
524.774	222.69
524.989	230.69
525.204	215.69
525.419	224.69
525.634	221.69
525.849	236.69
526.064	218.69
526.28	230.69
526.495	217.69
526.71	207.69
526.925	206.69
527.14	220.69
527.355	208.69
527.57	228.69
527.785	231.69
527.999	206.69
528.214	227.69
528.429	227.69
528.644	232.69
528.859	226.69
529.074	206.69
529.289	228.69
529.503	224.69
529.718	231.69
529.933	220.69
530.148	206.69
530.363	231.69
530.577	206.69
530.792	228.69
531.007	220.69
531.221	210.69
531.436	219.69
531.651	210.69
531.865	200.69
532.08	198.69
532.295	223.69
532.509	226.69
532.724	204.69
532.938	208.69
533.153	220.69
533.367	207.69
533.582	218.69
533.796	215.69
534.011	206.69
534.225	227.69
534.44	199.69
534.654	223.69
534.868	212.69
535.083	223.69
535.297	209.69
535.511	208.69
535.726	222.69
535.94	208.69
536.154	205.69
536.369	212.69
536.583	212.69
536.797	203.69
537.011	208.69
537.225	202.69
537.44	215.69
537.654	201.69
537.868	197.69
538.082	201.69
538.296	207.69
538.51	207.69
538.724	219.69
538.938	210.69
539.153	212.69
539.367	218.69
539.581	196.69
539.795	205.69
540.009	218.69
540.222	218.69
540.436	193.69
540.65	207.69
540.864	201.69
541.078	216.69
541.292	220.69
541.506	208.69
541.72	202.69
541.934	207.69
542.147	207.69
542.361	221.69
542.575	214.69
542.789	201.69
543.002	206.69
543.216	195.69
543.43	215.69
543.644	198.69
543.857	226.69
544.071	230.69
544.285	218.69
544.498	198.69
544.712	214.69
544.925	210.69
545.139	204.69
545.352	226.69
545.566	229.69
545.779	226.69
545.993	211.69
546.206	216.69
546.42	235.69
546.633	197.69
546.847	220.69
547.06	214.69
547.274	224.69
547.487	216.69
547.7	213.69
547.914	216.69
548.127	195.69
548.34	207.69
548.554	219.69
548.767	216.69
548.98	215.69
549.193	216.69
549.407	212.69
549.62	218.69
549.833	223.69
550.046	224.69
550.259	218.69
550.473	227.69
550.686	207.69
550.899	214.69
551.112	215.69
551.325	218.69
551.538	215.69
551.751	210.69
551.964	207.69
552.177	213.69
552.39	201.69
552.603	205.69
552.816	211.69
553.029	238.69
553.242	212.69
553.455	231.69
553.667	230.69
553.88	220.69
554.093	220.69
554.306	225.69
554.519	227.69
554.732	220.69
554.944	222.69
555.157	200.69
555.37	215.69
555.583	216.69
555.795	213.69
556.008	211.69
556.221	210.69
556.433	215.69
556.646	183.69
556.859	189.69
557.071	197.69
557.284	192.69
557.496	191.69
557.709	199.69
557.921	212.69
558.134	210.69
558.346	191.69
558.559	188.69
558.771	189.69
558.984	200.69
559.196	207.69
559.409	190.69
559.621	170.69
559.833	204.69
560.046	194.69
560.258	203.69
560.47	218.69
560.683	197.69
560.895	195.69
561.107	204.69
561.32	197.69
561.532	186.69
561.744	205.69
561.956	204.69
562.168	203.69
562.381	200.69
562.593	190.69
562.805	180.69
563.017	180.69
563.229	200.69
563.441	183.69
563.653	190.69
563.865	187.69
564.077	218.69
564.289	196.69
564.501	201.69
564.713	198.69
564.925	199.69
565.137	191.69
565.349	193.69
565.561	215.69
565.773	210.69
565.985	201.69
566.197	206.69
566.408	228.69
566.62	216.69
566.832	226.69
567.044	234.69
567.255	227.69
567.467	223.69
567.679	236.69
567.891	227.69
568.102	217.69
568.314	216.69
568.526	230.69
568.737	225.69
568.949	198.69
569.161	186.69
569.372	201.69
569.584	209.69
569.795	195.69
570.007	184.69
570.218	187.69
570.43	163.69
570.641	180.69
570.853	200.69
571.064	183.69
571.276	179.69
571.487	185.69
571.698	175.69
571.91	182.69
572.121	176.69
572.333	172.69
572.544	160.69
572.755	179.69
572.966	166.69
573.178	162.69
573.389	179.69
573.6	182.69
573.811	159.69
574.023	172.69
574.234	148.69
574.445	161.69
574.656	163.69
574.867	163.69
575.078	164.69
575.289	152.69
575.501	160.69
575.712	162.69
575.923	160.69
576.134	165.69
576.345	161.69
576.556	162.69
576.767	178.69
576.978	159.69
577.188	161.69
577.399	163.69
577.61	149.69
577.821	163.69
578.032	166.69
578.243	150.69
578.454	155.69
578.665	171.69
578.875	138.69
579.086	155.69
579.297	153.69
579.508	144.69
579.718	153.69
579.929	156.69
580.14	148.69
580.35	157.69
580.561	154.69
580.772	141.69
580.982	147.69
581.193	157.69
581.403	166.69
581.614	147.69
581.825	160.69
582.035	144.69
582.246	144.69
582.456	152.69
582.667	149.69
582.877	152.69
583.087	170.69
583.298	146.69
583.508	175.69
583.719	152.69
583.929	159.69
584.139	128.69
584.35	137.69
584.56	154.69
584.77	142.69
584.981	152.69
585.191	143.69
585.401	136.69
585.611	140.69
585.821	141.69
586.032	154.69
586.242	136.69
586.452	157.69
586.662	140.69
586.872	147.69
587.082	151.69
587.292	139.69
587.502	141.69
587.713	146.69
587.923	155.69
588.133	147.69
588.343	157.69
588.553	150.69
588.762	154.69
588.972	146.69
589.182	155.69
589.392	175.69
589.602	182.69
589.812	164.69
590.022	173.69
590.232	136.69
590.441	147.69
590.651	147.69
590.861	140.69
591.071	158.69
591.281	154.69
591.49	134.69
591.7	142.69
591.91	142.69
592.119	160.69
592.329	162.69
592.539	167.69
592.748	144.69
592.958	140.69
593.167	154.69
593.377	158.69
593.587	163.69
593.796	162.69
594.006	151.69
594.215	161.69
594.424	146.69
594.634	161.69
594.843	152.69
595.053	175.69
595.262	170.69
595.472	151.69
595.681	145.69
595.89	156.69
596.1	137.69
596.309	168.69
596.518	153.69
596.727	129.69
596.937	144.69
597.146	154.69
597.355	142.69
597.564	151.69
597.774	146.69
597.983	137.69
598.192	144.69
598.401	144.69
598.61	145.69
598.819	150.69
599.028	139.69
599.237	148.69
599.446	147.69
599.655	130.69
599.864	153.69
600.073	150.69
600.282	160.69
600.491	135.69
600.7	143.69
600.909	127.69
601.118	157.69
601.327	133.69
601.536	152.69
601.745	143.69
601.953	147.69
602.162	152.69
602.371	135.69
602.58	156.69
602.789	161.69
602.997	148.69
603.206	145.69
603.415	135.69
603.623	147.69
603.832	162.69
604.041	152.69
604.249	142.69
604.458	145.69
604.666	146.69
604.875	143.69
605.084	155.69
605.292	153.69
605.501	152.69
605.709	135.69
605.918	138.69
606.126	150.69
606.334	132.69
606.543	146.69
606.751	115.69
606.96	138.69
607.168	139.69
607.376	150.69
607.585	140.69
607.793	145.69
608.001	155.69
608.21	149.69
608.418	137.69
608.626	131.69
608.834	142.69
609.043	144.69
609.251	145.69
609.459	134.69
609.667	138.69
609.875	139.69
610.083	149.69
610.291	157.69
610.499	160.69
610.707	154.69
610.916	152.69
611.124	152.69
611.332	137.69
611.54	160.69
611.748	144.69
611.955	139.69
612.163	150.69
612.371	139.69
612.579	147.69
612.787	155.69
612.995	141.69
613.203	146.69
613.411	154.69
613.618	126.69
613.826	140.69
614.034	148.69
614.242	149.69
614.449	150.69
614.657	151.69
614.865	131.69
615.072	151.69
615.28	124.69
615.488	143.69
615.695	147.69
615.903	132.69
616.111	131.69
616.318	150.69
616.526	123.69
616.733	126.69
616.941	134.69
617.148	146.69
617.356	135.69
617.563	149.69
617.771	136.69
617.978	134.69
618.185	127.69
618.393	126.69
618.6	135.69
618.807	132.69
619.015	130.69
619.222	140.69
619.429	131.69
619.637	143.69
619.844	131.69
620.051	131.69
620.258	134.69
620.466	125.69
620.673	132.69
620.88	126.69
621.087	130.69
621.294	129.69
621.501	133.69
621.708	128.69
621.915	133.69
622.122	132.69
622.329	114.69
622.536	131.69
622.743	137.69
622.95	117.69
623.157	124.69
623.364	129.69
623.571	112.69
623.778	136.69
623.985	117.69
624.192	126.69
624.399	125.69
624.606	120.69
624.812	123.69
625.019	124.69
625.226	104.69
625.433	125.69
625.639	132.69
625.846	114.69
626.053	142.69
626.259	126.69
626.466	106.69
626.673	120.69
626.879	119.69
627.086	124.69
627.293	139.69
627.499	132.69
627.706	134.69
627.912	127.69
628.119	144.69
628.325	137.69
628.532	130.69
628.738	113.69
628.945	143.69
629.151	122.69
629.357	125.69
629.564	121.69
629.77	118.69
629.976	118.69
630.183	117.69
630.389	107.69
630.595	126.69
630.802	111.69
631.008	125.69
631.214	107.69
631.42	135.69
631.627	124.69
631.833	131.69
632.039	123.69
632.245	121.69
632.451	119.69
632.657	122.69
632.863	132.69
633.069	131.69
633.275	124.69
633.481	105.69
633.688	126.69
633.893	134.69
634.099	110.69
634.305	128.69
634.511	136.69
634.717	139.69
634.923	152.69
635.129	128.69
635.335	124.69
635.541	125.69
635.747	163.69
635.952	158.69
636.158	209.69
636.364	360.69
636.57	384.69
636.775	281.69
636.981	226.69
637.187	185.69
637.392	186.69
637.598	175.69
637.804	152.69
638.009	161.69
638.215	142.69
638.421	148.69
638.626	142.69
638.832	121.69
639.037	138.69
639.243	132.69
639.448	141.69
639.654	124.69
639.859	122.69
640.065	125.69
640.27	120.69
640.475	118.69
640.681	124.69
640.886	134.69
641.091	107.69
641.297	116.69
641.502	111.69
641.707	118.69
641.913	112.69
642.118	109.69
642.323	132.69
642.528	113.69
642.733	127.69
642.939	115.69
643.144	128.69
643.349	112.69
643.554	107.69
643.759	119.69
643.964	107.69
644.169	118.69
644.374	122.69
644.579	118.69
644.784	96.69
644.989	111.69
645.194	120.69
645.399	96.69
645.604	121.69
645.809	121.69
646.014	123.69
646.219	118.69
646.423	98.69
646.628	120.69
646.833	116.69
647.038	112.69
647.243	114.69
647.447	112.69
647.652	106.69
647.857	121.69
648.062	127.69
648.266	116.69
648.471	115.69
648.676	112.69
648.88	119.69
649.085	116.69
649.289	116.69
649.494	106.69
649.698	119.69
649.903	116.69
650.107	115.69
650.312	110.69
650.516	108.69
650.721	107.69
650.925	118.69
651.13	112.69
651.334	127.69
651.539	103.69
651.743	112.69
651.947	110.69
652.152	98.69
652.356	110.69
652.56	106.69
652.764	110.69
652.969	114.69
653.173	97.69
653.377	114.69
653.581	102.69
653.785	112.69
653.99	117.69
654.194	83.69
654.398	109.69
654.602	112.69
654.806	117.69
655.01	104.69
655.214	101.69
655.418	100.69
655.622	89.69
655.826	106.69
656.03	92.69
656.234	100.69
656.438	116.69
656.642	111.69
656.846	114.69
657.049	104.69
657.253	98.69
657.457	102.69
657.661	99.69
657.865	110.69
658.068	101.69
658.272	93.69
658.476	99.69
658.68	89.69
658.883	94.69
659.087	94.69
659.291	91.69
659.494	86.69
659.698	90.69
659.901	92.69
660.105	103.69
660.309	87.69
660.512	82.69
660.716	84.69
660.919	96.69
661.123	96.69
661.326	81.69
661.53	81.69
661.733	78.69
661.936	83.69
662.14	87.69
662.343	74.69
662.546	78.69
662.75	81.69
662.953	77.69
663.156	81.69
663.36	88.69
663.563	78.69
663.766	74.69
663.969	90.69
664.173	97.69
664.376	90.69
664.579	80.69
664.782	69.69
664.985	67.69
665.188	83.69
665.391	80.69
665.594	74.69
665.797	83.69
666	79.69
666.203	75.69
666.406	92.69
666.609	78.69
666.812	88.69
667.015	80.69
667.218	73.69
667.421	70.69
667.624	93.69
667.827	82.69
668.03	77.69
668.232	94.69
668.435	83.69
668.638	87.69
668.841	86.69
669.043	77.69
669.246	76.69
669.449	94.69
669.651	73.69
669.854	88.69
670.057	94.69
670.259	88.69
670.462	72.69
670.665	80.69
670.867	88.69
671.07	81.69
671.272	86.69
671.475	93.69
671.677	91.69
671.88	89.69
672.082	85.69
672.284	71.69
672.487	86.69
672.689	74.69
672.892	88.69
