Data from Uncirc_1993_H10_HRD10591_00041.txt Node
Date: Wed Jan 03 11:43:00 EST 2024
User: Yrep
Spectrometer: HR+D1059
Trigger mode: 1
Integration Time (sec): 1.000000E-1
Scans to average: 1
Electric dark correction enabled: true
Nonlinearity correction enabled: false
Boxcar width: 0
XAxis mode: Wavelengths
Number of Pixels in Spectrum: 2048
>>>>>Begin Spectral Data<<<<<
223.165	-18.94
223.4	-18.94
223.635	-18.94
223.869	-12.94
224.104	-27.94
224.338	-2.94
224.573	-9.94
224.808	-7.94
225.042	10.06
225.277	-19.94
225.511	-15.94
225.746	-5.94
225.98	6.06
226.215	12.06
226.449	22.06
226.683	24.06
226.918	26.06
227.152	22.06
227.387	47.06
227.621	32.06
227.856	38.06
228.09	46.06
228.324	44.06
228.559	63.06
228.793	55.06
229.027	65.06
229.262	58.06
229.496	70.06
229.73	80.06
229.964	69.06
230.199	80.06
230.433	68.06
230.667	79.06
230.901	76.06
231.136	79.06
231.37	78.06
231.604	75.06
231.838	79.06
232.072	73.06
232.306	72.06
232.541	80.06
232.775	69.06
233.009	88.06
233.243	64.06
233.477	60.06
233.711	71.06
233.945	70.06
234.179	84.06
234.413	79.06
234.647	73.06
234.881	85.06
235.115	81.06
235.349	77.06
235.583	83.06
235.817	75.06
236.051	86.06
236.285	82.06
236.519	75.06
236.753	76.06
236.987	74.06
237.221	74.06
237.455	78.06
237.689	79.06
237.922	82.06
238.156	80.06
238.39	71.06
238.624	84.06
238.858	88.06
239.091	89.06
239.325	62.06
239.559	92.06
239.793	86.06
240.027	71.06
240.26	82.06
240.494	78.06
240.728	62.06
240.961	84.06
241.195	71.06
241.429	80.06
241.662	76.06
241.896	61.06
242.13	83.06
242.363	83.06
242.597	78.06
242.83	76.06
243.064	71.06
243.298	72.06
243.531	87.06
243.765	72.06
243.998	74.06
244.232	65.06
244.465	78.06
244.699	62.06
244.932	65.06
245.166	57.06
245.399	59.06
245.633	96.06
245.866	65.06
246.099	80.06
246.333	68.06
246.566	71.06
246.8	70.06
247.033	72.06
247.266	74.06
247.5	76.06
247.733	73.06
247.966	78.06
248.2	68.06
248.433	86.06
248.666	88.06
248.899	76.06
249.133	68.06
249.366	85.06
249.599	83.06
249.832	96.06
250.066	77.06
250.299	68.06
250.532	70.06
250.765	77.06
250.998	80.06
251.231	87.06
251.465	65.06
251.698	82.06
251.931	75.06
252.164	79.06
252.397	80.06
252.63	78.06
252.863	87.06
253.096	78.06
253.329	81.06
253.562	84.06
253.795	72.06
254.028	69.06
254.261	69.06
254.494	84.06
254.727	71.06
254.96	85.06
255.193	78.06
255.426	68.06
255.659	72.06
255.892	85.06
256.124	85.06
256.357	74.06
256.59	86.06
256.823	64.06
257.056	74.06
257.289	81.06
257.521	83.06
257.754	68.06
257.987	70.06
258.22	78.06
258.452	79.06
258.685	80.06
258.918	84.06
259.151	80.06
259.383	78.06
259.616	74.06
259.849	72.06
260.081	81.06
260.314	69.06
260.547	70.06
260.779	86.06
261.012	66.06
261.244	80.06
261.477	87.06
261.71	64.06
261.942	93.06
262.175	86.06
262.407	89.06
262.64	73.06
262.872	82.06
263.105	77.06
263.337	80.06
263.57	84.06
263.802	83.06
264.035	73.06
264.267	78.06
264.499	87.06
264.732	80.06
264.964	89.06
265.197	70.06
265.429	81.06
265.661	86.06
265.894	73.06
266.126	60.06
266.358	85.06
266.591	80.06
266.823	70.06
267.055	79.06
267.287	78.06
267.52	88.06
267.752	65.06
267.984	81.06
268.216	77.06
268.448	87.06
268.681	75.06
268.913	71.06
269.145	77.06
269.377	73.06
269.609	80.06
269.841	80.06
270.073	70.06
270.306	87.06
270.538	90.06
270.77	77.06
271.002	86.06
271.234	88.06
271.466	94.06
271.698	78.06
271.93	78.06
272.162	91.06
272.394	79.06
272.626	73.06
272.858	75.06
273.09	76.06
273.322	81.06
273.553	80.06
273.785	89.06
274.017	84.06
274.249	70.06
274.481	94.06
274.713	80.06
274.945	61.06
275.176	74.06
275.408	88.06
275.64	71.06
275.872	86.06
276.104	82.06
276.335	87.06
276.567	94.06
276.799	103.06
277.031	88.06
277.262	97.06
277.494	81.06
277.726	89.06
277.957	80.06
278.189	81.06
278.421	92.06
278.652	82.06
278.884	73.06
279.115	82.06
279.347	89.06
279.579	84.06
279.81	90.06
280.042	77.06
280.273	81.06
280.505	83.06
280.736	90.06
280.968	79.06
281.199	76.06
281.431	80.06
281.662	74.06
281.894	85.06
282.125	84.06
282.356	100.06
282.588	120.06
282.819	109.06
283.051	76.06
283.282	91.06
283.513	100.06
283.745	83.06
283.976	80.06
284.207	81.06
284.439	95.06
284.67	85.06
284.901	87.06
285.132	90.06
285.364	79.06
285.595	79.06
285.826	84.06
286.057	97.06
286.288	80.06
286.52	84.06
286.751	70.06
286.982	77.06
287.213	89.06
287.444	84.06
287.675	72.06
287.906	85.06
288.138	88.06
288.369	81.06
288.6	79.06
288.831	91.06
289.062	95.06
289.293	72.06
289.524	88.06
289.755	81.06
289.986	75.06
290.217	88.06
290.448	80.06
290.679	72.06
290.91	93.06
291.141	81.06
291.371	91.06
291.602	86.06
291.833	90.06
292.064	92.06
292.295	96.06
292.526	85.06
292.757	84.06
292.987	87.06
293.218	81.06
293.449	84.06
293.68	90.06
293.91	91.06
294.141	82.06
294.372	73.06
294.603	64.06
294.833	83.06
295.064	84.06
295.295	90.06
295.525	89.06
295.756	97.06
295.987	106.06
296.217	114.06
296.448	108.06
296.679	92.06
296.909	87.06
297.14	76.06
297.37	81.06
297.601	78.06
297.831	86.06
298.062	68.06
298.292	82.06
298.523	78.06
298.753	80.06
298.984	76.06
299.214	89.06
299.445	95.06
299.675	88.06
299.905	89.06
300.136	87.06
300.366	83.06
300.597	76.06
300.827	80.06
301.057	81.06
301.288	80.06
301.518	90.06
301.748	92.06
301.979	80.06
302.209	81.06
302.439	77.06
302.669	77.06
302.9	76.06
303.13	101.06
303.36	90.06
303.59	92.06
303.82	106.06
304.051	92.06
304.281	66.06
304.511	77.06
304.741	89.06
304.971	77.06
305.201	85.06
305.431	65.06
305.661	96.06
305.891	84.06
306.121	96.06
306.352	95.06
306.582	97.06
306.812	82.06
307.042	86.06
307.272	92.06
307.502	78.06
307.731	93.06
307.961	98.06
308.191	69.06
308.421	102.06
308.651	89.06
308.881	92.06
309.111	95.06
309.341	94.06
309.571	79.06
309.8	87.06
310.03	77.06
310.26	81.06
310.49	80.06
310.72	88.06
310.949	95.06
311.179	102.06
311.409	93.06
311.639	89.06
311.868	101.06
312.098	99.06
312.328	81.06
312.557	83.06
312.787	93.06
313.017	90.06
313.246	100.06
313.476	81.06
313.706	81.06
313.935	91.06
314.165	91.06
314.394	93.06
314.624	98.06
314.853	93.06
315.083	84.06
315.312	81.06
315.542	83.06
315.771	86.06
316.001	80.06
316.23	88.06
316.46	88.06
316.689	89.06
316.919	96.06
317.148	99.06
317.377	86.06
317.607	81.06
317.836	84.06
318.065	84.06
318.295	91.06
318.524	86.06
318.753	77.06
318.983	83.06
319.212	89.06
319.441	90.06
319.67	88.06
319.9	90.06
320.129	88.06
320.358	111.06
320.587	99.06
320.816	91.06
321.046	105.06
321.275	101.06
321.504	85.06
321.733	96.06
321.962	95.06
322.191	84.06
322.42	97.06
322.649	103.06
322.878	101.06
323.108	118.06
323.337	114.06
323.566	105.06
323.795	130.06
324.024	168.06
324.253	317.06
324.482	638.06
324.71	1275.06
324.939	1655.06
325.168	588.06
325.397	204.06
325.626	134.06
325.855	101.06
326.084	119.06
326.313	119.06
326.542	125.06
326.77	191.06
326.999	361.06
327.228	734.06
327.457	1226.06
327.686	982.06
327.914	300.06
328.143	160.06
328.372	113.06
328.6	100.06
328.829	93.06
329.058	99.06
329.287	109.06
329.515	111.06
329.744	97.06
329.972	87.06
330.201	92.06
330.43	86.06
330.658	111.06
330.887	123.06
331.115	111.06
331.344	86.06
331.572	91.06
331.801	88.06
332.03	90.06
332.258	89.06
332.486	68.06
332.715	79.06
332.943	84.06
333.172	87.06
333.4	92.06
333.629	103.06
333.857	102.06
334.085	108.06
334.314	88.06
334.542	88.06
334.771	98.06
334.999	99.06
335.227	82.06
335.455	85.06
335.684	86.06
335.912	83.06
336.14	97.06
336.369	90.06
336.597	107.06
336.825	89.06
337.053	95.06
337.281	77.06
337.51	87.06
337.738	93.06
337.966	90.06
338.194	89.06
338.422	84.06
338.65	96.06
338.878	84.06
339.106	78.06
339.334	95.06
339.562	101.06
339.79	77.06
340.018	74.06
340.246	73.06
340.474	89.06
340.702	72.06
340.93	81.06
341.158	99.06
341.386	88.06
341.614	84.06
341.842	81.06
342.07	84.06
342.298	85.06
342.526	86.06
342.754	94.06
342.981	91.06
343.209	94.06
343.437	98.06
343.665	78.06
343.893	93.06
344.12	93.06
344.348	66.06
344.576	83.06
344.804	90.06
345.031	89.06
345.259	89.06
345.487	98.06
345.714	89.06
345.942	108.06
346.17	97.06
346.397	80.06
346.625	75.06
346.853	95.06
347.08	96.06
347.308	92.06
347.535	97.06
347.763	92.06
347.99	96.06
348.218	96.06
348.445	94.06
348.673	97.06
348.9	81.06
349.128	89.06
349.355	87.06
349.583	99.06
349.81	88.06
350.037	81.06
350.265	82.06
350.492	90.06
350.72	102.06
350.947	102.06
351.174	107.06
351.402	111.06
351.629	97.06
351.856	87.06
352.083	89.06
352.311	102.06
352.538	113.06
352.765	101.06
352.992	119.06
353.22	104.06
353.447	103.06
353.674	109.06
353.901	92.06
354.128	90.06
354.355	81.06
354.583	90.06
354.81	108.06
355.037	80.06
355.264	94.06
355.491	92.06
355.718	101.06
355.945	93.06
356.172	88.06
356.399	88.06
356.626	95.06
356.853	77.06
357.08	87.06
357.307	86.06
357.534	85.06
357.761	89.06
357.988	88.06
358.215	103.06
358.441	76.06
358.668	89.06
358.895	82.06
359.122	86.06
359.349	90.06
359.576	87.06
359.802	87.06
360.029	115.06
360.256	96.06
360.483	89.06
360.709	91.06
360.936	80.06
361.163	87.06
361.39	84.06
361.616	82.06
361.843	99.06
362.07	92.06
362.296	86.06
362.523	95.06
362.749	98.06
362.976	77.06
363.203	85.06
363.429	78.06
363.656	95.06
363.882	90.06
364.109	103.06
364.335	95.06
364.562	76.06
364.788	84.06
365.015	85.06
365.241	88.06
365.468	92.06
365.694	98.06
365.92	95.06
366.147	95.06
366.373	70.06
366.599	78.06
366.826	81.06
367.052	85.06
367.278	88.06
367.505	85.06
367.731	90.06
367.957	93.06
368.184	94.06
368.41	83.06
368.636	112.06
368.862	122.06
369.089	86.06
369.315	91.06
369.541	77.06
369.767	76.06
369.993	92.06
370.219	95.06
370.445	76.06
370.672	79.06
370.898	79.06
371.124	91.06
371.35	76.06
371.576	86.06
371.802	81.06
372.028	84.06
372.254	84.06
372.48	74.06
372.706	92.06
372.932	84.06
373.158	87.06
373.384	79.06
373.61	84.06
373.835	87.06
374.061	81.06
374.287	87.06
374.513	88.06
374.739	79.06
374.965	87.06
375.191	78.06
375.416	89.06
375.642	73.06
375.868	95.06
376.094	88.06
376.319	100.06
376.545	93.06
376.771	75.06
376.997	83.06
377.222	95.06
377.448	86.06
377.674	66.06
377.899	93.06
378.125	74.06
378.35	93.06
378.576	85.06
378.802	84.06
379.027	83.06
379.253	90.06
379.478	96.06
379.704	96.06
379.929	96.06
380.155	89.06
380.38	84.06
380.606	99.06
380.831	88.06
381.057	101.06
381.282	89.06
381.507	78.06
381.733	86.06
381.958	74.06
382.184	95.06
382.409	94.06
382.634	94.06
382.86	93.06
383.085	98.06
383.31	92.06
383.535	101.06
383.761	104.06
383.986	94.06
384.211	85.06
384.436	90.06
384.662	92.06
384.887	98.06
385.112	84.06
385.337	96.06
385.562	97.06
385.787	93.06
386.013	100.06
386.238	109.06
386.463	93.06
386.688	108.06
386.913	99.06
387.138	95.06
387.363	94.06
387.588	90.06
387.813	98.06
388.038	97.06
388.263	85.06
388.488	100.06
388.713	101.06
388.938	89.06
389.163	93.06
389.387	88.06
389.612	86.06
389.837	88.06
390.062	84.06
390.287	73.06
390.512	90.06
390.736	83.06
390.961	98.06
391.186	86.06
391.411	106.06
391.636	98.06
391.86	86.06
392.085	89.06
392.31	81.06
392.534	86.06
392.759	86.06
392.984	85.06
393.208	89.06
393.433	80.06
393.658	92.06
393.882	71.06
394.107	62.06
394.331	80.06
394.556	86.06
394.78	74.06
395.005	106.06
395.229	81.06
395.454	78.06
395.678	71.06
395.903	80.06
396.127	77.06
396.352	96.06
396.576	89.06
396.801	89.06
397.025	97.06
397.249	68.06
397.474	85.06
397.698	82.06
397.922	96.06
398.147	82.06
398.371	75.06
398.595	82.06
398.82	88.06
399.044	76.06
399.268	77.06
399.492	69.06
399.717	80.06
399.941	81.06
400.165	91.06
400.389	91.06
400.613	84.06
400.837	75.06
401.062	88.06
401.286	76.06
401.51	78.06
401.734	77.06
401.958	92.06
402.182	100.06
402.406	137.06
402.63	99.06
402.854	89.06
403.078	77.06
403.302	73.06
403.526	95.06
403.75	87.06
403.974	76.06
404.198	72.06
404.422	83.06
404.645	84.06
404.869	85.06
405.093	93.06
405.317	92.06
405.541	85.06
405.765	92.06
405.988	98.06
406.212	145.06
406.436	176.06
406.66	132.06
406.883	100.06
407.107	74.06
407.331	76.06
407.555	101.06
407.778	84.06
408.002	97.06
408.226	92.06
408.449	79.06
408.673	91.06
408.896	77.06
409.12	97.06
409.344	96.06
409.567	79.06
409.791	94.06
410.014	109.06
410.238	93.06
410.461	97.06
410.685	85.06
410.908	91.06
411.132	97.06
411.355	85.06
411.578	94.06
411.802	77.06
412.025	80.06
412.249	90.06
412.472	102.06
412.695	97.06
412.919	78.06
413.142	79.06
413.365	73.06
413.589	99.06
413.812	97.06
414.035	89.06
414.258	84.06
414.482	86.06
414.705	85.06
414.928	83.06
415.151	82.06
415.374	88.06
415.597	89.06
415.821	62.06
416.044	82.06
416.267	74.06
416.49	81.06
416.713	89.06
416.936	93.06
417.159	82.06
417.382	62.06
417.605	92.06
417.828	85.06
418.051	90.06
418.274	80.06
418.497	90.06
418.72	78.06
418.943	89.06
419.166	92.06
419.389	87.06
419.611	77.06
419.834	95.06
420.057	81.06
420.28	89.06
420.503	89.06
420.726	89.06
420.948	69.06
421.171	79.06
421.394	88.06
421.617	92.06
421.839	64.06
422.062	80.06
422.285	101.06
422.507	96.06
422.73	88.06
422.953	89.06
423.175	74.06
423.398	81.06
423.621	80.06
423.843	89.06
424.066	85.06
424.288	79.06
424.511	77.06
424.733	100.06
424.956	83.06
425.178	82.06
425.401	89.06
425.623	93.06
425.846	94.06
426.068	85.06
426.291	99.06
426.513	93.06
426.735	84.06
426.958	82.06
427.18	99.06
427.402	110.06
427.625	121.06
427.847	96.06
428.069	93.06
428.292	82.06
428.514	79.06
428.736	87.06
428.958	81.06
429.181	92.06
429.403	72.06
429.625	77.06
429.847	98.06
430.069	80.06
430.292	97.06
430.514	91.06
430.736	84.06
430.958	81.06
431.18	95.06
431.402	83.06
431.624	97.06
431.846	86.06
432.068	78.06
432.29	81.06
432.512	81.06
432.734	69.06
432.956	73.06
433.178	88.06
433.4	104.06
433.622	89.06
433.844	71.06
434.066	90.06
434.287	98.06
434.509	103.06
434.731	93.06
434.953	80.06
435.175	90.06
435.397	93.06
435.618	84.06
435.84	102.06
436.062	119.06
436.284	109.06
436.505	86.06
436.727	96.06
436.949	97.06
437.17	87.06
437.392	81.06
437.614	70.06
437.835	91.06
438.057	95.06
438.278	99.06
438.5	101.06
438.721	81.06
438.943	95.06
439.165	72.06
439.386	91.06
439.608	88.06
439.829	82.06
440.05	100.06
440.272	125.06
440.493	96.06
440.715	78.06
440.936	78.06
441.158	76.06
441.379	96.06
441.6	82.06
441.822	94.06
442.043	98.06
442.264	91.06
442.486	94.06
442.707	84.06
442.928	103.06
443.149	111.06
443.371	106.06
443.592	91.06
443.813	98.06
444.034	90.06
444.255	98.06
444.476	90.06
444.698	81.06
444.919	85.06
445.14	135.06
445.361	108.06
445.582	97.06
445.803	115.06
446.024	104.06
446.245	110.06
446.466	90.06
446.687	76.06
446.908	90.06
447.129	92.06
447.35	79.06
447.571	72.06
447.792	91.06
448.013	90.06
448.234	95.06
448.455	97.06
448.675	103.06
448.896	104.06
449.117	89.06
449.338	81.06
449.559	117.06
449.779	115.06
450	88.06
450.221	83.06
450.442	87.06
450.662	98.06
450.883	101.06
451.104	99.06
451.324	88.06
451.545	89.06
451.766	81.06
451.986	73.06
452.207	72.06
452.428	78.06
452.648	94.06
452.869	101.06
453.089	99.06
453.31	102.06
453.53	92.06
453.751	91.06
453.971	87.06
454.192	104.06
454.412	102.06
454.633	88.06
454.853	87.06
455.073	79.06
455.294	80.06
455.514	94.06
455.734	88.06
455.955	82.06
456.175	75.06
456.395	90.06
456.616	76.06
456.836	79.06
457.056	80.06
457.276	76.06
457.497	81.06
457.717	85.06
457.937	92.06
458.157	79.06
458.377	79.06
458.598	102.06
458.818	126.06
459.038	116.06
459.258	105.06
459.478	74.06
459.698	85.06
459.918	91.06
460.138	66.06
460.358	77.06
460.578	80.06
460.798	90.06
461.018	92.06
461.238	68.06
461.458	79.06
461.678	85.06
461.898	82.06
462.118	77.06
462.338	88.06
462.558	95.06
462.777	85.06
462.997	79.06
463.217	85.06
463.437	79.06
463.657	88.06
463.876	77.06
464.096	94.06
464.316	81.06
464.536	89.06
464.755	86.06
464.975	107.06
465.195	142.06
465.414	128.06
465.634	88.06
465.854	77.06
466.073	82.06
466.293	82.06
466.512	84.06
466.732	84.06
466.951	81.06
467.171	82.06
467.391	90.06
467.61	96.06
467.829	86.06
468.049	76.06
468.268	81.06
468.488	82.06
468.707	91.06
468.927	80.06
469.146	81.06
469.365	100.06
469.585	83.06
469.804	87.06
470.023	88.06
470.243	81.06
470.462	84.06
470.681	107.06
470.901	82.06
471.12	87.06
471.339	85.06
471.558	92.06
471.777	84.06
471.997	88.06
472.216	61.06
472.435	102.06
472.654	96.06
472.873	102.06
473.092	80.06
473.311	87.06
473.53	75.06
473.749	79.06
473.968	88.06
474.187	103.06
474.406	89.06
474.625	95.06
474.844	77.06
475.063	77.06
475.282	69.06
475.501	76.06
475.72	86.06
475.939	98.06
476.158	99.06
476.377	88.06
476.596	89.06
476.814	85.06
477.033	110.06
477.252	83.06
477.471	76.06
477.69	88.06
477.908	91.06
478.127	96.06
478.346	77.06
478.564	94.06
478.783	78.06
479.002	83.06
479.22	89.06
479.439	83.06
479.658	92.06
479.876	101.06
480.095	80.06
480.313	78.06
480.532	84.06
480.751	76.06
480.969	91.06
481.188	95.06
481.406	86.06
481.624	85.06
481.843	96.06
482.061	87.06
482.28	93.06
482.498	82.06
482.717	97.06
482.935	70.06
483.153	83.06
483.372	89.06
483.59	78.06
483.808	75.06
484.027	90.06
484.245	92.06
484.463	78.06
484.681	97.06
484.9	82.06
485.118	96.06
485.336	89.06
485.554	96.06
485.772	101.06
485.99	96.06
486.209	106.06
486.427	95.06
486.645	84.06
486.863	101.06
487.081	98.06
487.299	94.06
487.517	100.06
487.735	87.06
487.953	81.06
488.171	82.06
488.389	86.06
488.607	89.06
488.825	92.06
489.043	67.06
489.261	88.06
489.479	89.06
489.696	88.06
489.914	78.06
490.132	76.06
490.35	101.06
490.568	91.06
490.786	100.06
491.003	79.06
491.221	73.06
491.439	87.06
491.657	91.06
491.874	91.06
492.092	94.06
492.31	82.06
492.527	93.06
492.745	89.06
492.963	85.06
493.18	82.06
493.398	95.06
493.615	87.06
493.833	91.06
494.05	79.06
494.268	86.06
494.485	91.06
494.703	95.06
494.92	85.06
495.138	86.06
495.355	90.06
495.573	76.06
495.79	87.06
496.008	77.06
496.225	87.06
496.442	96.06
496.66	84.06
496.877	105.06
497.094	82.06
497.312	71.06
497.529	87.06
497.746	101.06
497.963	92.06
498.181	98.06
498.398	103.06
498.615	116.06
498.832	101.06
499.049	87.06
499.267	88.06
499.484	97.06
499.701	90.06
499.918	87.06
500.135	80.06
500.352	90.06
500.569	92.06
500.786	84.06
501.003	85.06
501.22	80.06
501.437	72.06
501.654	87.06
501.871	92.06
502.088	84.06
502.305	83.06
502.522	96.06
502.739	80.06
502.956	100.06
503.172	94.06
503.389	98.06
503.606	92.06
503.823	81.06
504.04	85.06
504.256	88.06
504.473	85.06
504.69	86.06
504.907	86.06
505.123	94.06
505.34	96.06
505.557	88.06
505.773	80.06
505.99	80.06
506.207	99.06
506.423	92.06
506.64	89.06
506.856	96.06
507.073	98.06
507.289	82.06
507.506	87.06
507.722	94.06
507.939	114.06
508.155	94.06
508.372	92.06
508.588	96.06
508.805	104.06
509.021	96.06
509.238	102.06
509.454	112.06
509.67	93.06
509.887	87.06
510.103	122.06
510.319	189.06
510.536	676.06
510.752	2023.06
510.968	567.06
511.184	133.06
511.401	107.06
511.617	106.06
511.833	87.06
512.049	89.06
512.265	94.06
512.481	90.06
512.698	85.06
512.914	96.06
513.13	89.06
513.346	87.06
513.562	98.06
513.778	81.06
513.994	93.06
514.21	98.06
514.426	111.06
514.642	119.06
514.858	106.06
515.074	141.06
515.29	390.06
515.506	1190.06
515.721	450.06
515.937	127.06
516.153	96.06
516.369	88.06
516.585	90.06
516.801	89.06
517.016	109.06
517.232	90.06
517.448	90.06
517.664	84.06
517.879	98.06
518.095	96.06
518.311	75.06
518.527	80.06
518.742	104.06
518.958	85.06
519.173	89.06
519.389	86.06
519.605	85.06
519.82	87.06
520.036	91.06
520.251	105.06
520.467	110.06
520.682	96.06
520.898	120.06
521.113	127.06
521.329	143.06
521.544	182.06
521.76	458.06
521.975	1958.06
522.19	1152.06
522.406	242.06
522.621	120.06
522.836	96.06
523.052	87.06
523.267	87.06
523.482	85.06
523.698	89.06
523.913	111.06
524.128	84.06
524.343	96.06
524.559	96.06
524.774	86.06
524.989	84.06
525.204	97.06
525.419	94.06
525.634	94.06
525.849	85.06
526.064	96.06
526.28	82.06
526.495	89.06
526.71	86.06
526.925	78.06
527.14	79.06
527.355	87.06
527.57	92.06
527.785	89.06
527.999	85.06
528.214	90.06
528.429	85.06
528.644	79.06
528.859	82.06
529.074	77.06
529.289	120.06
529.503	161.06
529.718	101.06
529.933	77.06
530.148	77.06
530.363	88.06
530.577	89.06
530.792	77.06
531.007	84.06
531.221	96.06
531.436	88.06
531.651	84.06
531.865	90.06
532.08	93.06
532.295	81.06
532.509	97.06
532.724	77.06
532.938	92.06
533.153	94.06
533.367	74.06
533.582	86.06
533.796	110.06
534.011	77.06
534.225	76.06
534.44	79.06
534.654	80.06
534.868	84.06
535.083	91.06
535.297	93.06
535.511	97.06
535.726	101.06
535.94	93.06
536.154	93.06
536.369	77.06
536.583	82.06
536.797	94.06
537.011	87.06
537.225	96.06
537.44	91.06
537.654	85.06
537.868	92.06
538.082	95.06
538.296	102.06
538.51	90.06
538.724	97.06
538.938	93.06
539.153	90.06
539.367	94.06
539.581	99.06
539.795	70.06
540.009	90.06
540.222	82.06
540.436	84.06
540.65	86.06
540.864	105.06
541.078	98.06
541.292	97.06
541.506	104.06
541.72	88.06
541.934	73.06
542.147	85.06
542.361	102.06
542.575	106.06
542.789	93.06
543.002	84.06
543.216	89.06
543.43	89.06
543.644	88.06
543.857	82.06
544.071	78.06
544.285	95.06
544.498	80.06
544.712	81.06
544.925	76.06
545.139	97.06
545.352	92.06
545.566	87.06
545.779	86.06
545.993	73.06
546.206	88.06
546.42	84.06
546.633	93.06
546.847	96.06
547.06	91.06
547.274	70.06
547.487	77.06
547.7	95.06
547.914	86.06
548.127	78.06
548.34	101.06
548.554	75.06
548.767	78.06
548.98	73.06
549.193	91.06
549.407	90.06
549.62	79.06
549.833	95.06
550.046	87.06
550.259	90.06
550.473	86.06
550.686	95.06
550.899	98.06
551.112	78.06
551.325	92.06
551.538	79.06
551.751	90.06
551.964	86.06
552.177	104.06
552.39	87.06
552.603	72.06
552.816	79.06
553.029	80.06
553.242	99.06
553.455	93.06
553.667	97.06
553.88	97.06
554.093	93.06
554.306	83.06
554.519	92.06
554.732	89.06
554.944	85.06
555.157	88.06
555.37	92.06
555.583	93.06
555.795	92.06
556.008	76.06
556.221	89.06
556.433	90.06
556.646	83.06
556.859	83.06
557.071	96.06
557.284	92.06
557.496	91.06
557.709	79.06
557.921	80.06
558.134	87.06
558.346	81.06
558.559	91.06
558.771	88.06
558.984	96.06
559.196	93.06
559.409	86.06
559.621	84.06
559.833	97.06
560.046	94.06
560.258	81.06
560.47	87.06
560.683	85.06
560.895	90.06
561.107	87.06
561.32	65.06
561.532	93.06
561.744	94.06
561.956	95.06
562.168	94.06
562.381	86.06
562.593	86.06
562.805	83.06
563.017	86.06
563.229	80.06
563.441	87.06
563.653	72.06
563.865	88.06
564.077	68.06
564.289	75.06
564.501	95.06
564.713	82.06
564.925	94.06
565.137	95.06
565.349	93.06
565.561	81.06
565.773	81.06
565.985	61.06
566.197	72.06
566.408	79.06
566.62	75.06
566.832	80.06
567.044	86.06
567.255	96.06
567.467	89.06
567.679	92.06
567.891	85.06
568.102	86.06
568.314	95.06
568.526	92.06
568.737	89.06
568.949	83.06
569.161	78.06
569.372	94.06
569.584	96.06
569.795	85.06
570.007	116.06
570.218	223.06
570.43	121.06
570.641	84.06
570.853	86.06
571.064	84.06
571.276	88.06
571.487	92.06
571.698	81.06
571.91	72.06
572.121	68.06
572.333	90.06
572.544	85.06
572.755	86.06
572.966	63.06
573.178	85.06
573.389	89.06
573.6	84.06
573.811	83.06
574.023	83.06
574.234	83.06
574.445	77.06
574.656	89.06
574.867	90.06
575.078	88.06
575.289	94.06
575.501	82.06
575.712	83.06
575.923	100.06
576.134	93.06
576.345	89.06
576.556	84.06
576.767	84.06
576.978	73.06
577.188	96.06
577.399	88.06
577.61	88.06
577.821	81.06
578.032	106.06
578.243	257.06
578.454	687.06
578.665	177.06
578.875	100.06
579.086	82.06
579.297	85.06
579.508	80.06
579.718	88.06
579.929	93.06
580.14	94.06
580.35	72.06
580.561	88.06
580.772	93.06
580.982	83.06
581.193	90.06
581.403	91.06
581.614	86.06
581.825	85.06
582.035	83.06
582.246	74.06
582.456	89.06
582.667	71.06
582.877	82.06
583.087	74.06
583.298	91.06
583.508	81.06
583.719	88.06
583.929	72.06
584.139	80.06
584.35	84.06
584.56	88.06
584.77	86.06
584.981	81.06
585.191	81.06
585.401	79.06
585.611	77.06
585.821	91.06
586.032	83.06
586.242	83.06
586.452	83.06
586.662	82.06
586.872	68.06
587.082	87.06
587.292	84.06
587.502	99.06
587.713	84.06
587.923	81.06
588.133	82.06
588.343	72.06
588.553	86.06
588.762	90.06
588.972	71.06
589.182	80.06
589.392	92.06
589.602	70.06
589.812	74.06
590.022	88.06
590.232	70.06
590.441	68.06
590.651	74.06
590.861	94.06
591.071	87.06
591.281	82.06
591.49	82.06
591.7	69.06
591.91	71.06
592.119	73.06
592.329	84.06
592.539	86.06
592.748	78.06
592.958	87.06
593.167	91.06
593.377	84.06
593.587	73.06
593.796	85.06
594.006	85.06
594.215	86.06
594.424	87.06
594.634	81.06
594.843	72.06
595.053	78.06
595.262	87.06
595.472	75.06
595.681	73.06
595.89	82.06
596.1	92.06
596.309	90.06
596.518	94.06
596.727	90.06
596.937	82.06
597.146	96.06
597.355	72.06
597.564	90.06
597.774	86.06
597.983	72.06
598.192	91.06
598.401	76.06
598.61	77.06
598.819	78.06
599.028	83.06
599.237	89.06
599.446	89.06
599.655	90.06
599.864	88.06
600.073	85.06
600.282	84.06
600.491	85.06
600.7	94.06
600.909	85.06
601.118	91.06
601.327	85.06
601.536	92.06
601.745	97.06
601.953	78.06
602.162	89.06
602.371	78.06
602.58	78.06
602.789	64.06
602.997	87.06
603.206	90.06
603.415	102.06
603.623	85.06
603.832	75.06
604.041	87.06
604.249	82.06
604.458	64.06
604.666	78.06
604.875	86.06
605.084	87.06
605.292	84.06
605.501	90.06
605.709	79.06
605.918	78.06
606.126	84.06
606.334	77.06
606.543	87.06
606.751	87.06
606.96	82.06
607.168	89.06
607.376	67.06
607.585	104.06
607.793	93.06
608.001	80.06
608.21	68.06
608.418	104.06
608.626	94.06
608.834	83.06
609.043	108.06
609.251	87.06
609.459	84.06
609.667	77.06
609.875	75.06
610.083	54.06
610.291	83.06
610.499	93.06
610.707	84.06
610.916	73.06
611.124	102.06
611.332	85.06
611.54	88.06
611.748	77.06
611.955	80.06
612.163	81.06
612.371	86.06
612.579	72.06
612.787	83.06
612.995	81.06
613.203	88.06
613.411	86.06
613.618	79.06
613.826	87.06
614.034	88.06
614.242	87.06
614.449	95.06
614.657	74.06
614.865	80.06
615.072	88.06
615.28	83.06
615.488	82.06
615.695	84.06
615.903	89.06
616.111	84.06
616.318	92.06
616.526	101.06
616.733	94.06
616.941	92.06
617.148	93.06
617.356	86.06
617.563	79.06
617.771	89.06
617.978	78.06
618.185	94.06
618.393	89.06
618.6	84.06
618.807	79.06
619.015	78.06
619.222	73.06
619.429	85.06
619.637	82.06
619.844	89.06
620.051	82.06
620.258	74.06
620.466	78.06
620.673	82.06
620.88	71.06
621.087	93.06
621.294	72.06
621.501	79.06
621.708	80.06
621.915	84.06
622.122	97.06
622.329	80.06
622.536	79.06
622.743	81.06
622.95	86.06
623.157	79.06
623.364	72.06
623.571	100.06
623.778	92.06
623.985	94.06
624.192	77.06
624.399	85.06
624.606	79.06
624.812	64.06
625.019	71.06
625.226	78.06
625.433	75.06
625.639	68.06
625.846	65.06
626.053	91.06
626.259	76.06
626.466	78.06
626.673	79.06
626.879	87.06
627.086	90.06
627.293	86.06
627.499	82.06
627.706	79.06
627.912	76.06
628.119	87.06
628.325	82.06
628.532	88.06
628.738	82.06
628.945	88.06
629.151	70.06
629.357	84.06
629.564	85.06
629.77	79.06
629.976	81.06
630.183	88.06
630.389	70.06
630.595	76.06
630.802	74.06
631.008	91.06
631.214	89.06
631.42	77.06
631.627	94.06
631.833	85.06
632.039	83.06
632.245	84.06
632.451	87.06
632.657	70.06
632.863	74.06
633.069	85.06
633.275	78.06
633.481	80.06
633.688	65.06
633.893	89.06
634.099	95.06
634.305	72.06
634.511	65.06
634.717	76.06
634.923	80.06
635.129	88.06
635.335	70.06
635.541	94.06
635.747	80.06
635.952	79.06
636.158	89.06
636.364	74.06
636.57	81.06
636.775	71.06
636.981	77.06
637.187	49.06
637.392	80.06
637.598	78.06
637.804	78.06
638.009	74.06
638.215	68.06
638.421	70.06
638.626	73.06
638.832	75.06
639.037	66.06
639.243	92.06
639.448	80.06
639.654	71.06
639.859	82.06
640.065	87.06
640.27	86.06
640.475	85.06
640.681	81.06
640.886	82.06
641.091	77.06
641.297	86.06
641.502	84.06
641.707	80.06
641.913	89.06
642.118	87.06
642.323	69.06
642.528	71.06
642.733	77.06
642.939	69.06
643.144	73.06
643.349	79.06
643.554	94.06
643.759	93.06
643.964	69.06
644.169	66.06
644.374	82.06
644.579	69.06
644.784	69.06
644.989	85.06
645.194	90.06
645.399	82.06
645.604	75.06
645.809	86.06
646.014	79.06
646.219	82.06
646.423	71.06
646.628	94.06
646.833	88.06
647.038	77.06
647.243	78.06
647.447	94.06
647.652	60.06
647.857	80.06
648.062	96.06
648.266	80.06
648.471	96.06
648.676	95.06
648.88	82.06
649.085	75.06
649.289	82.06
649.494	92.06
649.698	109.06
649.903	89.06
650.107	85.06
650.312	78.06
650.516	88.06
650.721	71.06
650.925	83.06
651.13	75.06
651.334	86.06
651.539	85.06
651.743	90.06
651.947	83.06
652.152	82.06
652.356	83.06
652.56	82.06
652.764	78.06
652.969	78.06
653.173	66.06
653.377	76.06
653.581	83.06
653.785	70.06
653.99	64.06
654.194	88.06
654.398	80.06
654.602	86.06
654.806	85.06
655.01	96.06
655.214	86.06
655.418	95.06
655.622	86.06
655.826	75.06
656.03	83.06
656.234	101.06
656.438	106.06
656.642	96.06
656.846	97.06
657.049	76.06
657.253	88.06
657.457	97.06
657.661	72.06
657.865	57.06
658.068	87.06
658.272	91.06
658.476	84.06
658.68	75.06
658.883	74.06
659.087	74.06
659.291	77.06
659.494	81.06
659.698	75.06
659.901	87.06
660.105	71.06
660.309	69.06
660.512	76.06
660.716	78.06
660.919	76.06
661.123	78.06
661.326	73.06
661.53	79.06
661.733	65.06
661.936	79.06
662.14	78.06
662.343	72.06
662.546	84.06
662.75	78.06
662.953	81.06
663.156	74.06
663.36	81.06
663.563	59.06
663.766	74.06
663.969	84.06
664.173	75.06
664.376	70.06
664.579	69.06
664.782	70.06
664.985	90.06
665.188	82.06
665.391	93.06
665.594	75.06
665.797	91.06
666	66.06
666.203	90.06
666.406	90.06
666.609	81.06
666.812	85.06
667.015	75.06
667.218	76.06
667.421	76.06
667.624	68.06
667.827	65.06
668.03	76.06
668.232	74.06
668.435	74.06
668.638	72.06
668.841	76.06
669.043	75.06
669.246	76.06
669.449	65.06
669.651	74.06
669.854	72.06
670.057	73.06
670.259	76.06
670.462	94.06
670.665	72.06
670.867	76.06
671.07	84.06
671.272	82.06
671.475	78.06
671.677	74.06
671.88	77.06
672.082	67.06
672.284	69.06
672.487	93.06
672.689	82.06
672.892	80.06
