Data from Uncirc_1993_H10_HRD10591_00015.txt Node
Date: Wed Jan 03 11:42:55 EST 2024
User: Yrep
Spectrometer: HR+D1059
Trigger mode: 1
Integration Time (sec): 1.000000E-1
Scans to average: 1
Electric dark correction enabled: true
Nonlinearity correction enabled: false
Boxcar width: 0
XAxis mode: Wavelengths
Number of Pixels in Spectrum: 2048
>>>>>Begin Spectral Data<<<<<
223.165	-14.06
223.4	-14.06
223.635	-14.06
223.869	-19.06
224.104	-18.06
224.338	-14.06
224.573	-16.06
224.808	-4.06
225.042	-7.06
225.277	2.94
225.511	-10.06
225.746	9.94
225.98	27.94
226.215	9.94
226.449	5.94
226.683	11.94
226.918	16.94
227.152	16.94
227.387	39.94
227.621	45.94
227.856	54.94
228.09	35.94
228.324	41.94
228.559	49.94
228.793	63.94
229.027	69.94
229.262	74.94
229.496	62.94
229.73	76.94
229.964	77.94
230.199	59.94
230.433	70.94
230.667	64.94
230.901	71.94
231.136	63.94
231.37	61.94
231.604	73.94
231.838	95.94
232.072	93.94
232.306	80.94
232.541	92.94
232.775	87.94
233.009	72.94
233.243	77.94
233.477	78.94
233.711	73.94
233.945	69.94
234.179	75.94
234.413	91.94
234.647	67.94
234.881	69.94
235.115	65.94
235.349	75.94
235.583	70.94
235.817	81.94
236.051	69.94
236.285	85.94
236.519	98.94
236.753	62.94
236.987	75.94
237.221	90.94
237.455	73.94
237.689	70.94
237.922	87.94
238.156	65.94
238.39	82.94
238.624	62.94
238.858	74.94
239.091	71.94
239.325	56.94
239.559	86.94
239.793	85.94
240.027	69.94
240.26	66.94
240.494	63.94
240.728	76.94
240.961	50.94
241.195	79.94
241.429	63.94
241.662	70.94
241.896	77.94
242.13	69.94
242.363	71.94
242.597	73.94
242.83	73.94
243.064	72.94
243.298	72.94
243.531	78.94
243.765	78.94
243.998	82.94
244.232	73.94
244.465	81.94
244.699	72.94
244.932	61.94
245.166	62.94
245.399	59.94
245.633	83.94
245.866	69.94
246.099	94.94
246.333	71.94
246.566	64.94
246.8	81.94
247.033	81.94
247.266	64.94
247.5	76.94
247.733	74.94
247.966	79.94
248.2	75.94
248.433	78.94
248.666	80.94
248.899	84.94
249.133	76.94
249.366	96.94
249.599	89.94
249.832	71.94
250.066	90.94
250.299	88.94
250.532	83.94
250.765	79.94
250.998	82.94
251.231	69.94
251.465	69.94
251.698	77.94
251.931	79.94
252.164	77.94
252.397	77.94
252.63	95.94
252.863	75.94
253.096	74.94
253.329	71.94
253.562	72.94
253.795	78.94
254.028	86.94
254.261	83.94
254.494	78.94
254.727	86.94
254.96	86.94
255.193	53.94
255.426	82.94
255.659	68.94
255.892	86.94
256.124	76.94
256.357	66.94
256.59	62.94
256.823	83.94
257.056	83.94
257.289	66.94
257.521	77.94
257.754	74.94
257.987	73.94
258.22	78.94
258.452	75.94
258.685	74.94
258.918	71.94
259.151	87.94
259.383	68.94
259.616	79.94
259.849	69.94
260.081	79.94
260.314	67.94
260.547	82.94
260.779	74.94
261.012	88.94
261.244	77.94
261.477	102.94
261.71	85.94
261.942	90.94
262.175	98.94
262.407	73.94
262.64	73.94
262.872	64.94
263.105	73.94
263.337	81.94
263.57	82.94
263.802	82.94
264.035	69.94
264.267	77.94
264.499	87.94
264.732	74.94
264.964	78.94
265.197	86.94
265.429	72.94
265.661	82.94
265.894	80.94
266.126	80.94
266.358	78.94
266.591	59.94
266.823	80.94
267.055	79.94
267.287	79.94
267.52	81.94
267.752	91.94
267.984	93.94
268.216	79.94
268.448	91.94
268.681	73.94
268.913	98.94
269.145	86.94
269.377	79.94
269.609	86.94
269.841	72.94
270.073	71.94
270.306	89.94
270.538	88.94
270.77	84.94
271.002	93.94
271.234	87.94
271.466	86.94
271.698	90.94
271.93	82.94
272.162	83.94
272.394	92.94
272.626	102.94
272.858	84.94
273.09	92.94
273.322	94.94
273.553	63.94
273.785	76.94
274.017	85.94
274.249	74.94
274.481	72.94
274.713	73.94
274.945	78.94
275.176	91.94
275.408	83.94
275.64	89.94
275.872	80.94
276.104	91.94
276.335	85.94
276.567	105.94
276.799	93.94
277.031	87.94
277.262	79.94
277.494	74.94
277.726	78.94
277.957	85.94
278.189	101.94
278.421	81.94
278.652	90.94
278.884	83.94
279.115	96.94
279.347	79.94
279.579	97.94
279.81	83.94
280.042	84.94
280.273	86.94
280.505	78.94
280.736	74.94
280.968	76.94
281.199	78.94
281.431	76.94
281.662	82.94
281.894	80.94
282.125	95.94
282.356	112.94
282.588	111.94
282.819	102.94
283.051	86.94
283.282	87.94
283.513	85.94
283.745	85.94
283.976	68.94
284.207	73.94
284.439	78.94
284.67	83.94
284.901	81.94
285.132	73.94
285.364	80.94
285.595	62.94
285.826	73.94
286.057	91.94
286.288	73.94
286.52	82.94
286.751	91.94
286.982	77.94
287.213	83.94
287.444	81.94
287.675	82.94
287.906	80.94
288.138	98.94
288.369	75.94
288.6	91.94
288.831	72.94
289.062	82.94
289.293	89.94
289.524	88.94
289.755	80.94
289.986	85.94
290.217	80.94
290.448	89.94
290.679	103.94
290.91	96.94
291.141	73.94
291.371	83.94
291.602	81.94
291.833	75.94
292.064	82.94
292.295	82.94
292.526	79.94
292.757	93.94
292.987	87.94
293.218	80.94
293.449	86.94
293.68	87.94
293.91	86.94
294.141	90.94
294.372	89.94
294.603	86.94
294.833	78.94
295.064	89.94
295.295	93.94
295.525	97.94
295.756	95.94
295.987	87.94
296.217	117.94
296.448	105.94
296.679	90.94
296.909	80.94
297.14	81.94
297.37	87.94
297.601	73.94
297.831	83.94
298.062	84.94
298.292	78.94
298.523	71.94
298.753	91.94
298.984	85.94
299.214	95.94
299.445	101.94
299.675	87.94
299.905	88.94
300.136	80.94
300.366	88.94
300.597	84.94
300.827	92.94
301.057	100.94
301.288	92.94
301.518	73.94
301.748	84.94
301.979	93.94
302.209	79.94
302.439	78.94
302.669	86.94
302.9	76.94
303.13	107.94
303.36	93.94
303.59	87.94
303.82	96.94
304.051	106.94
304.281	62.94
304.511	87.94
304.741	89.94
304.971	89.94
305.201	94.94
305.431	92.94
305.661	80.94
305.891	75.94
306.121	94.94
306.352	98.94
306.582	92.94
306.812	95.94
307.042	91.94
307.272	87.94
307.502	99.94
307.731	78.94
307.961	79.94
308.191	88.94
308.421	95.94
308.651	84.94
308.881	97.94
309.111	102.94
309.341	92.94
309.571	94.94
309.8	87.94
310.03	88.94
310.26	84.94
310.49	94.94
310.72	95.94
310.949	99.94
311.179	92.94
311.409	87.94
311.639	79.94
311.868	80.94
312.098	90.94
312.328	73.94
312.557	83.94
312.787	94.94
313.017	86.94
313.246	89.94
313.476	84.94
313.706	77.94
313.935	73.94
314.165	94.94
314.394	89.94
314.624	96.94
314.853	91.94
315.083	88.94
315.312	84.94
315.542	92.94
315.771	78.94
316.001	83.94
316.23	91.94
316.46	83.94
316.689	84.94
316.919	82.94
317.148	93.94
317.377	92.94
317.607	83.94
317.836	102.94
318.065	78.94
318.295	88.94
318.524	82.94
318.753	88.94
318.983	93.94
319.212	93.94
319.441	88.94
319.67	116.94
319.9	88.94
320.129	107.94
320.358	80.94
320.587	92.94
320.816	97.94
321.046	99.94
321.275	97.94
321.504	95.94
321.733	96.94
321.962	96.94
322.191	91.94
322.42	90.94
322.649	107.94
322.878	101.94
323.108	97.94
323.337	103.94
323.566	98.94
323.795	133.94
324.024	163.94
324.253	306.94
324.482	633.94
324.71	1250.94
324.939	1639.94
325.168	617.94
325.397	208.94
325.626	136.94
325.855	104.94
326.084	107.94
326.313	127.94
326.542	137.94
326.77	193.94
326.999	373.94
327.228	725.94
327.457	1261.94
327.686	1014.94
327.914	272.94
328.143	154.94
328.372	135.94
328.6	109.94
328.829	106.94
329.058	101.94
329.287	116.94
329.515	109.94
329.744	93.94
329.972	93.94
330.201	92.94
330.43	94.94
330.658	105.94
330.887	133.94
331.115	102.94
331.344	93.94
331.572	85.94
331.801	83.94
332.03	103.94
332.258	83.94
332.486	83.94
332.715	100.94
332.943	95.94
333.172	88.94
333.4	96.94
333.629	105.94
333.857	93.94
334.085	103.94
334.314	92.94
334.542	96.94
334.771	96.94
334.999	80.94
335.227	90.94
335.455	93.94
335.684	98.94
335.912	86.94
336.14	91.94
336.369	101.94
336.597	86.94
336.825	90.94
337.053	99.94
337.281	91.94
337.51	85.94
337.738	104.94
337.966	88.94
338.194	88.94
338.422	91.94
338.65	89.94
338.878	78.94
339.106	87.94
339.334	87.94
339.562	93.94
339.79	90.94
340.018	89.94
340.246	95.94
340.474	86.94
340.702	80.94
340.93	79.94
341.158	90.94
341.386	81.94
341.614	92.94
341.842	86.94
342.07	90.94
342.298	91.94
342.526	81.94
342.754	91.94
342.981	79.94
343.209	78.94
343.437	99.94
343.665	91.94
343.893	80.94
344.12	98.94
344.348	75.94
344.576	97.94
344.804	93.94
345.031	94.94
345.259	110.94
345.487	87.94
345.714	78.94
345.942	94.94
346.17	99.94
346.397	87.94
346.625	100.94
346.853	88.94
347.08	101.94
347.308	107.94
347.535	101.94
347.763	93.94
347.99	83.94
348.218	99.94
348.445	106.94
348.673	83.94
348.9	98.94
349.128	98.94
349.355	89.94
349.583	90.94
349.81	95.94
350.037	91.94
350.265	108.94
350.492	96.94
350.72	101.94
350.947	82.94
351.174	99.94
351.402	99.94
351.629	97.94
351.856	91.94
352.083	98.94
352.311	98.94
352.538	104.94
352.765	108.94
352.992	114.94
353.22	101.94
353.447	112.94
353.674	97.94
353.901	87.94
354.128	80.94
354.355	90.94
354.583	89.94
354.81	112.94
355.037	98.94
355.264	94.94
355.491	107.94
355.718	92.94
355.945	94.94
356.172	83.94
356.399	82.94
356.626	114.94
356.853	85.94
357.08	75.94
357.307	82.94
357.534	85.94
357.761	111.94
357.988	98.94
358.215	94.94
358.441	91.94
358.668	78.94
358.895	75.94
359.122	85.94
359.349	84.94
359.576	89.94
359.802	87.94
360.029	95.94
360.256	87.94
360.483	94.94
360.709	73.94
360.936	91.94
361.163	81.94
361.39	104.94
361.616	81.94
361.843	94.94
362.07	91.94
362.296	94.94
362.523	92.94
362.749	86.94
362.976	79.94
363.203	101.94
363.429	85.94
363.656	67.94
363.882	94.94
364.109	93.94
364.335	92.94
364.562	74.94
364.788	97.94
365.015	85.94
365.241	91.94
365.468	102.94
365.694	95.94
365.92	93.94
366.147	92.94
366.373	84.94
366.599	83.94
366.826	72.94
367.052	87.94
367.278	96.94
367.505	77.94
367.731	74.94
367.957	100.94
368.184	87.94
368.41	80.94
368.636	96.94
368.862	113.94
369.089	99.94
369.315	91.94
369.541	79.94
369.767	91.94
369.993	85.94
370.219	98.94
370.445	85.94
370.672	103.94
370.898	79.94
371.124	57.94
371.35	95.94
371.576	93.94
371.802	83.94
372.028	70.94
372.254	92.94
372.48	93.94
372.706	90.94
372.932	92.94
373.158	76.94
373.384	79.94
373.61	64.94
373.835	81.94
374.061	82.94
374.287	90.94
374.513	76.94
374.739	85.94
374.965	88.94
375.191	76.94
375.416	79.94
375.642	89.94
375.868	79.94
376.094	82.94
376.319	100.94
376.545	97.94
376.771	73.94
376.997	82.94
377.222	90.94
377.448	92.94
377.674	75.94
377.899	78.94
378.125	72.94
378.35	80.94
378.576	82.94
378.802	83.94
379.027	80.94
379.253	66.94
379.478	86.94
379.704	94.94
379.929	88.94
380.155	86.94
380.38	87.94
380.606	81.94
380.831	87.94
381.057	109.94
381.282	86.94
381.507	87.94
381.733	101.94
381.958	97.94
382.184	91.94
382.409	100.94
382.634	102.94
382.86	79.94
383.085	107.94
383.31	112.94
383.535	119.94
383.761	86.94
383.986	96.94
384.211	83.94
384.436	89.94
384.662	82.94
384.887	105.94
385.112	99.94
385.337	96.94
385.562	96.94
385.787	91.94
386.013	97.94
386.238	117.94
386.463	105.94
386.688	96.94
386.913	104.94
387.138	106.94
387.363	91.94
387.588	107.94
387.813	93.94
388.038	91.94
388.263	97.94
388.488	92.94
388.713	98.94
388.938	87.94
389.163	87.94
389.387	92.94
389.612	74.94
389.837	87.94
390.062	87.94
390.287	93.94
390.512	77.94
390.736	85.94
390.961	81.94
391.186	74.94
391.411	92.94
391.636	94.94
391.86	85.94
392.085	87.94
392.31	83.94
392.534	83.94
392.759	76.94
392.984	79.94
393.208	82.94
393.433	85.94
393.658	83.94
393.882	75.94
394.107	95.94
394.331	86.94
394.556	59.94
394.78	82.94
395.005	90.94
395.229	75.94
395.454	88.94
395.678	81.94
395.903	74.94
396.127	87.94
396.352	97.94
396.576	79.94
396.801	89.94
397.025	79.94
397.249	74.94
397.474	92.94
397.698	83.94
397.922	75.94
398.147	87.94
398.371	82.94
398.595	91.94
398.82	89.94
399.044	71.94
399.268	84.94
399.492	86.94
399.717	80.94
399.941	83.94
400.165	91.94
400.389	88.94
400.613	74.94
400.837	89.94
401.062	78.94
401.286	97.94
401.51	81.94
401.734	80.94
401.958	87.94
402.182	115.94
402.406	150.94
402.63	105.94
402.854	88.94
403.078	89.94
403.302	86.94
403.526	74.94
403.75	55.94
403.974	80.94
404.198	79.94
404.422	77.94
404.645	82.94
404.869	77.94
405.093	84.94
405.317	82.94
405.541	101.94
405.765	83.94
405.988	95.94
406.212	153.94
406.436	202.94
406.66	132.94
406.883	95.94
407.107	97.94
407.331	94.94
407.555	94.94
407.778	83.94
408.002	91.94
408.226	99.94
408.449	76.94
408.673	84.94
408.896	85.94
409.12	85.94
409.344	77.94
409.567	86.94
409.791	86.94
410.014	94.94
410.238	88.94
410.461	82.94
410.685	110.94
410.908	90.94
411.132	99.94
411.355	107.94
411.578	90.94
411.802	78.94
412.025	79.94
412.249	87.94
412.472	82.94
412.695	69.94
412.919	76.94
413.142	97.94
413.365	84.94
413.589	82.94
413.812	94.94
414.035	101.94
414.258	83.94
414.482	89.94
414.705	91.94
414.928	77.94
415.151	85.94
415.374	102.94
415.597	95.94
415.821	76.94
416.044	82.94
416.267	78.94
416.49	96.94
416.713	70.94
416.936	83.94
417.159	87.94
417.382	77.94
417.605	80.94
417.828	92.94
418.051	90.94
418.274	98.94
418.497	86.94
418.72	97.94
418.943	74.94
419.166	83.94
419.389	78.94
419.611	81.94
419.834	79.94
420.057	93.94
420.28	80.94
420.503	83.94
420.726	91.94
420.948	96.94
421.171	89.94
421.394	94.94
421.617	91.94
421.839	91.94
422.062	88.94
422.285	90.94
422.507	110.94
422.73	94.94
422.953	83.94
423.175	66.94
423.398	78.94
423.621	97.94
423.843	77.94
424.066	91.94
424.288	79.94
424.511	78.94
424.733	95.94
424.956	93.94
425.178	86.94
425.401	87.94
425.623	109.94
425.846	70.94
426.068	89.94
426.291	78.94
426.513	92.94
426.735	85.94
426.958	87.94
427.18	88.94
427.402	110.94
427.625	123.94
427.847	105.94
428.069	97.94
428.292	78.94
428.514	70.94
428.736	79.94
428.958	89.94
429.181	80.94
429.403	87.94
429.625	79.94
429.847	77.94
430.069	86.94
430.292	79.94
430.514	96.94
430.736	71.94
430.958	82.94
431.18	74.94
431.402	74.94
431.624	87.94
431.846	79.94
432.068	91.94
432.29	68.94
432.512	73.94
432.734	91.94
432.956	84.94
433.178	97.94
433.4	95.94
433.622	95.94
433.844	87.94
434.066	86.94
434.287	85.94
434.509	80.94
434.731	100.94
434.953	79.94
435.175	81.94
435.397	82.94
435.618	94.94
435.84	93.94
436.062	117.94
436.284	93.94
436.505	89.94
436.727	97.94
436.949	89.94
437.17	85.94
437.392	90.94
437.614	90.94
437.835	86.94
438.057	99.94
438.278	96.94
438.5	95.94
438.721	105.94
438.943	83.94
439.165	89.94
439.386	77.94
439.608	99.94
439.829	98.94
440.05	100.94
440.272	122.94
440.493	72.94
440.715	82.94
440.936	85.94
441.158	89.94
441.379	84.94
441.6	86.94
441.822	88.94
442.043	98.94
442.264	91.94
442.486	87.94
442.707	96.94
442.928	91.94
443.149	106.94
443.371	106.94
443.592	101.94
443.813	105.94
444.034	87.94
444.255	108.94
444.476	87.94
444.698	84.94
444.919	89.94
445.14	123.94
445.361	116.94
445.582	106.94
445.803	113.94
446.024	111.94
446.245	119.94
446.466	105.94
446.687	97.94
446.908	82.94
447.129	82.94
447.35	96.94
447.571	89.94
447.792	83.94
448.013	91.94
448.234	98.94
448.455	92.94
448.675	118.94
448.896	121.94
449.117	95.94
449.338	102.94
449.559	116.94
449.779	128.94
450	89.94
450.221	82.94
450.442	85.94
450.662	87.94
450.883	102.94
451.104	96.94
451.324	98.94
451.545	85.94
451.766	72.94
451.986	85.94
452.207	103.94
452.428	90.94
452.648	75.94
452.869	109.94
453.089	104.94
453.31	103.94
453.53	83.94
453.751	87.94
453.971	91.94
454.192	104.94
454.412	85.94
454.633	79.94
454.853	73.94
455.073	79.94
455.294	80.94
455.514	96.94
455.734	70.94
455.955	77.94
456.175	70.94
456.395	86.94
456.616	82.94
456.836	75.94
457.056	85.94
457.276	71.94
457.497	76.94
457.717	82.94
457.937	64.94
458.157	85.94
458.377	83.94
458.598	99.94
458.818	129.94
459.038	136.94
459.258	89.94
459.478	90.94
459.698	72.94
459.918	72.94
460.138	86.94
460.358	72.94
460.578	78.94
460.798	85.94
461.018	93.94
461.238	94.94
461.458	89.94
461.678	73.94
461.898	77.94
462.118	92.94
462.338	71.94
462.558	92.94
462.777	95.94
462.997	78.94
463.217	66.94
463.437	69.94
463.657	75.94
463.876	80.94
464.096	84.94
464.316	92.94
464.536	78.94
464.755	93.94
464.975	101.94
465.195	145.94
465.414	128.94
465.634	66.94
465.854	96.94
466.073	87.94
466.293	90.94
466.512	90.94
466.732	75.94
466.951	89.94
467.171	82.94
467.391	91.94
467.61	91.94
467.829	80.94
468.049	93.94
468.268	79.94
468.488	71.94
468.707	89.94
468.927	88.94
469.146	74.94
469.365	74.94
469.585	83.94
469.804	88.94
470.023	93.94
470.243	71.94
470.462	88.94
470.681	105.94
470.901	87.94
471.12	82.94
471.339	84.94
471.558	85.94
471.777	75.94
471.997	82.94
472.216	104.94
472.435	103.94
472.654	79.94
472.873	78.94
473.092	82.94
473.311	86.94
473.53	75.94
473.749	90.94
473.968	90.94
474.187	91.94
474.406	89.94
474.625	86.94
474.844	87.94
475.063	88.94
475.282	75.94
475.501	90.94
475.72	93.94
475.939	97.94
476.158	83.94
476.377	91.94
476.596	83.94
476.814	95.94
477.033	78.94
477.252	87.94
477.471	88.94
477.69	89.94
477.908	83.94
478.127	85.94
478.346	94.94
478.564	85.94
478.783	87.94
479.002	73.94
479.22	80.94
479.439	101.94
479.658	95.94
479.876	86.94
480.095	96.94
480.313	95.94
480.532	66.94
480.751	86.94
480.969	87.94
481.188	106.94
481.406	88.94
481.624	91.94
481.843	94.94
482.061	91.94
482.28	79.94
482.498	81.94
482.717	87.94
482.935	93.94
483.153	79.94
483.372	93.94
483.59	82.94
483.808	85.94
484.027	85.94
484.245	94.94
484.463	73.94
484.681	79.94
484.9	91.94
485.118	94.94
485.336	108.94
485.554	86.94
485.772	84.94
485.99	102.94
486.209	102.94
486.427	101.94
486.645	107.94
486.863	103.94
487.081	94.94
487.299	88.94
487.517	97.94
487.735	95.94
487.953	75.94
488.171	93.94
488.389	91.94
488.607	88.94
488.825	89.94
489.043	78.94
489.261	86.94
489.479	89.94
489.696	99.94
489.914	100.94
490.132	88.94
490.35	86.94
490.568	86.94
490.786	76.94
491.003	64.94
491.221	74.94
491.439	82.94
491.657	90.94
491.874	98.94
492.092	81.94
492.31	92.94
492.527	77.94
492.745	98.94
492.963	87.94
493.18	107.94
493.398	90.94
493.615	96.94
493.833	80.94
494.05	90.94
494.268	85.94
494.485	90.94
494.703	83.94
494.92	96.94
495.138	87.94
495.355	90.94
495.573	73.94
495.79	78.94
496.008	75.94
496.225	87.94
496.442	97.94
496.66	86.94
496.877	97.94
497.094	81.94
497.312	83.94
497.529	88.94
497.746	92.94
497.963	98.94
498.181	95.94
498.398	86.94
498.615	91.94
498.832	99.94
499.049	89.94
499.267	103.94
499.484	85.94
499.701	88.94
499.918	96.94
500.135	79.94
500.352	82.94
500.569	88.94
500.786	77.94
501.003	86.94
501.22	88.94
501.437	93.94
501.654	92.94
501.871	85.94
502.088	96.94
502.305	81.94
502.522	87.94
502.739	75.94
502.956	83.94
503.172	83.94
503.389	88.94
503.606	110.94
503.823	95.94
504.04	109.94
504.256	82.94
504.473	75.94
504.69	95.94
504.907	75.94
505.123	76.94
505.34	75.94
505.557	88.94
505.773	63.94
505.99	88.94
506.207	75.94
506.423	96.94
506.64	95.94
506.856	92.94
507.073	83.94
507.289	90.94
507.506	93.94
507.722	109.94
507.939	104.94
508.155	80.94
508.372	88.94
508.588	80.94
508.805	101.94
509.021	88.94
509.238	91.94
509.454	96.94
509.67	77.94
509.887	101.94
510.103	113.94
510.319	198.94
510.536	685.94
510.752	1952.94
510.968	553.94
511.184	155.94
511.401	103.94
511.617	82.94
511.833	80.94
512.049	81.94
512.265	80.94
512.481	85.94
512.698	89.94
512.914	97.94
513.13	93.94
513.346	73.94
513.562	86.94
513.778	87.94
513.994	90.94
514.21	90.94
514.426	88.94
514.642	128.94
514.858	118.94
515.074	154.94
515.29	362.94
515.506	1162.94
515.721	425.94
515.937	137.94
516.153	96.94
516.369	97.94
516.585	89.94
516.801	91.94
517.016	85.94
517.232	97.94
517.448	98.94
517.664	94.94
517.879	90.94
518.095	90.94
518.311	93.94
518.527	95.94
518.742	81.94
518.958	98.94
519.173	71.94
519.389	91.94
519.605	89.94
519.82	87.94
520.036	100.94
520.251	105.94
520.467	110.94
520.682	104.94
520.898	98.94
521.113	108.94
521.329	122.94
521.544	151.94
521.76	457.94
521.975	1947.94
522.19	1129.94
522.406	270.94
522.621	115.94
522.836	97.94
523.052	94.94
523.267	93.94
523.482	77.94
523.698	99.94
523.913	113.94
524.128	89.94
524.343	96.94
524.559	95.94
524.774	97.94
524.989	95.94
525.204	94.94
525.419	89.94
525.634	76.94
525.849	87.94
526.064	87.94
526.28	93.94
526.495	92.94
526.71	79.94
526.925	89.94
527.14	96.94
527.355	93.94
527.57	91.94
527.785	88.94
527.999	94.94
528.214	77.94
528.429	67.94
528.644	93.94
528.859	78.94
529.074	105.94
529.289	103.94
529.503	143.94
529.718	91.94
529.933	81.94
530.148	88.94
530.363	98.94
530.577	81.94
530.792	93.94
531.007	92.94
531.221	86.94
531.436	86.94
531.651	91.94
531.865	93.94
532.08	81.94
532.295	86.94
532.509	96.94
532.724	85.94
532.938	90.94
533.153	94.94
533.367	74.94
533.582	84.94
533.796	89.94
534.011	77.94
534.225	93.94
534.44	86.94
534.654	103.94
534.868	93.94
535.083	98.94
535.297	80.94
535.511	99.94
535.726	99.94
535.94	95.94
536.154	79.94
536.369	83.94
536.583	106.94
536.797	91.94
537.011	96.94
537.225	85.94
537.44	81.94
537.654	86.94
537.868	92.94
538.082	85.94
538.296	70.94
538.51	81.94
538.724	81.94
538.938	92.94
539.153	90.94
539.367	95.94
539.581	95.94
539.795	89.94
540.009	82.94
540.222	97.94
540.436	78.94
540.65	95.94
540.864	92.94
541.078	89.94
541.292	81.94
541.506	81.94
541.72	85.94
541.934	80.94
542.147	96.94
542.361	89.94
542.575	74.94
542.789	73.94
543.002	90.94
543.216	69.94
543.43	103.94
543.644	97.94
543.857	85.94
544.071	78.94
544.285	89.94
544.498	89.94
544.712	100.94
544.925	77.94
545.139	81.94
545.352	91.94
545.566	84.94
545.779	87.94
545.993	83.94
546.206	91.94
546.42	70.94
546.633	87.94
546.847	99.94
547.06	84.94
547.274	90.94
547.487	74.94
547.7	77.94
547.914	95.94
548.127	85.94
548.34	72.94
548.554	86.94
548.767	93.94
548.98	80.94
549.193	71.94
549.407	87.94
549.62	77.94
549.833	84.94
550.046	85.94
550.259	88.94
550.473	82.94
550.686	86.94
550.899	76.94
551.112	78.94
551.325	78.94
551.538	77.94
551.751	91.94
551.964	85.94
552.177	78.94
552.39	85.94
552.603	79.94
552.816	79.94
553.029	97.94
553.242	77.94
553.455	102.94
553.667	90.94
553.88	102.94
554.093	87.94
554.306	103.94
554.519	61.94
554.732	64.94
554.944	79.94
555.157	88.94
555.37	87.94
555.583	98.94
555.795	95.94
556.008	89.94
556.221	74.94
556.433	93.94
556.646	90.94
556.859	89.94
557.071	95.94
557.284	94.94
557.496	91.94
557.709	83.94
557.921	96.94
558.134	90.94
558.346	94.94
558.559	87.94
558.771	80.94
558.984	81.94
559.196	106.94
559.409	77.94
559.621	92.94
559.833	93.94
560.046	91.94
560.258	78.94
560.47	90.94
560.683	99.94
560.895	81.94
561.107	98.94
561.32	90.94
561.532	80.94
561.744	89.94
561.956	82.94
562.168	78.94
562.381	94.94
562.593	97.94
562.805	100.94
563.017	80.94
563.229	82.94
563.441	79.94
563.653	84.94
563.865	85.94
564.077	91.94
564.289	99.94
564.501	90.94
564.713	82.94
564.925	87.94
565.137	85.94
565.349	75.94
565.561	75.94
565.773	77.94
565.985	100.94
566.197	92.94
566.408	78.94
566.62	97.94
566.832	87.94
567.044	89.94
567.255	83.94
567.467	84.94
567.679	88.94
567.891	83.94
568.102	83.94
568.314	75.94
568.526	88.94
568.737	94.94
568.949	82.94
569.161	68.94
569.372	81.94
569.584	85.94
569.795	101.94
570.007	114.94
570.218	208.94
570.43	114.94
570.641	96.94
570.853	80.94
571.064	82.94
571.276	75.94
571.487	69.94
571.698	85.94
571.91	95.94
572.121	91.94
572.333	70.94
572.544	69.94
572.755	85.94
572.966	91.94
573.178	80.94
573.389	95.94
573.6	79.94
573.811	87.94
574.023	75.94
574.234	67.94
574.445	94.94
574.656	80.94
574.867	97.94
575.078	103.94
575.289	71.94
575.501	87.94
575.712	104.94
575.923	90.94
576.134	86.94
576.345	82.94
576.556	85.94
576.767	92.94
576.978	88.94
577.188	80.94
577.399	97.94
577.61	87.94
577.821	94.94
578.032	97.94
578.243	249.94
578.454	643.94
578.665	205.94
578.875	98.94
579.086	85.94
579.297	81.94
579.508	92.94
579.718	81.94
579.929	83.94
580.14	81.94
580.35	87.94
580.561	90.94
580.772	78.94
580.982	84.94
581.193	77.94
581.403	87.94
581.614	90.94
581.825	91.94
582.035	93.94
582.246	84.94
582.456	92.94
582.667	85.94
582.877	86.94
583.087	89.94
583.298	89.94
583.508	81.94
583.719	73.94
583.929	103.94
584.139	83.94
584.35	87.94
584.56	91.94
584.77	77.94
584.981	79.94
585.191	81.94
585.401	78.94
585.611	63.94
585.821	83.94
586.032	75.94
586.242	65.94
586.452	79.94
586.662	83.94
586.872	83.94
587.082	83.94
587.292	86.94
587.502	85.94
587.713	89.94
587.923	77.94
588.133	77.94
588.343	71.94
588.553	76.94
588.762	90.94
588.972	95.94
589.182	82.94
589.392	83.94
589.602	70.94
589.812	86.94
590.022	86.94
590.232	74.94
590.441	88.94
590.651	80.94
590.861	83.94
591.071	88.94
591.281	62.94
591.49	63.94
591.7	91.94
591.91	79.94
592.119	95.94
592.329	92.94
592.539	73.94
592.748	89.94
592.958	98.94
593.167	79.94
593.377	85.94
593.587	86.94
593.796	80.94
594.006	81.94
594.215	88.94
594.424	73.94
594.634	70.94
594.843	94.94
595.053	79.94
595.262	90.94
595.472	77.94
595.681	81.94
595.89	80.94
596.1	82.94
596.309	75.94
596.518	86.94
596.727	93.94
596.937	86.94
597.146	82.94
597.355	100.94
597.564	102.94
597.774	85.94
597.983	103.94
598.192	83.94
598.401	83.94
598.61	89.94
598.819	77.94
599.028	71.94
599.237	98.94
599.446	85.94
599.655	71.94
599.864	91.94
600.073	93.94
600.282	89.94
600.491	80.94
600.7	94.94
600.909	83.94
601.118	93.94
601.327	72.94
601.536	86.94
601.745	92.94
601.953	91.94
602.162	75.94
602.371	78.94
602.58	93.94
602.789	86.94
602.997	81.94
603.206	82.94
603.415	81.94
603.623	66.94
603.832	86.94
604.041	77.94
604.249	81.94
604.458	95.94
604.666	73.94
604.875	80.94
605.084	85.94
605.292	79.94
605.501	77.94
605.709	84.94
605.918	79.94
606.126	85.94
606.334	77.94
606.543	81.94
606.751	77.94
606.96	81.94
607.168	98.94
607.376	81.94
607.585	79.94
607.793	85.94
608.001	75.94
608.21	81.94
608.418	77.94
608.626	90.94
608.834	81.94
609.043	77.94
609.251	88.94
609.459	89.94
609.667	77.94
609.875	79.94
610.083	84.94
610.291	65.94
610.499	85.94
610.707	85.94
610.916	77.94
611.124	74.94
611.332	102.94
611.54	83.94
611.748	79.94
611.955	71.94
612.163	77.94
612.371	83.94
612.579	82.94
612.787	97.94
612.995	90.94
613.203	96.94
613.411	82.94
613.618	83.94
613.826	92.94
614.034	85.94
614.242	83.94
614.449	90.94
614.657	81.94
614.865	74.94
615.072	89.94
615.28	86.94
615.488	90.94
615.695	91.94
615.903	82.94
616.111	91.94
616.318	107.94
616.526	88.94
616.733	89.94
616.941	88.94
617.148	79.94
617.356	85.94
617.563	93.94
617.771	82.94
617.978	89.94
618.185	96.94
618.393	73.94
618.6	96.94
618.807	67.94
619.015	87.94
619.222	77.94
619.429	96.94
619.637	72.94
619.844	86.94
620.051	71.94
620.258	90.94
620.466	75.94
620.673	91.94
620.88	91.94
621.087	81.94
621.294	82.94
621.501	79.94
621.708	83.94
621.915	86.94
622.122	71.94
622.329	72.94
622.536	80.94
622.743	71.94
622.95	82.94
623.157	64.94
623.364	84.94
623.571	91.94
623.778	95.94
623.985	93.94
624.192	76.94
624.399	85.94
624.606	104.94
624.812	82.94
625.019	96.94
625.226	73.94
625.433	75.94
625.639	79.94
625.846	87.94
626.053	93.94
626.259	72.94
626.466	79.94
626.673	78.94
626.879	76.94
627.086	79.94
627.293	83.94
627.499	80.94
627.706	90.94
627.912	75.94
628.119	80.94
628.325	77.94
628.532	78.94
628.738	84.94
628.945	77.94
629.151	75.94
629.357	75.94
629.564	78.94
629.77	78.94
629.976	65.94
630.183	92.94
630.389	81.94
630.595	78.94
630.802	85.94
631.008	69.94
631.214	80.94
631.42	90.94
631.627	56.94
631.833	77.94
632.039	90.94
632.245	75.94
632.451	89.94
632.657	80.94
632.863	69.94
633.069	74.94
633.275	90.94
633.481	75.94
633.688	79.94
633.893	89.94
634.099	58.94
634.305	90.94
634.511	86.94
634.717	79.94
634.923	77.94
635.129	76.94
635.335	81.94
635.541	74.94
635.747	85.94
635.952	89.94
636.158	79.94
636.364	88.94
636.57	79.94
636.775	85.94
636.981	87.94
637.187	72.94
637.392	93.94
637.598	79.94
637.804	92.94
638.009	72.94
638.215	71.94
638.421	77.94
638.626	75.94
638.832	94.94
639.037	80.94
639.243	66.94
639.448	87.94
639.654	73.94
639.859	92.94
640.065	92.94
640.27	88.94
640.475	80.94
640.681	77.94
640.886	90.94
641.091	82.94
641.297	75.94
641.502	81.94
641.707	78.94
641.913	79.94
642.118	76.94
642.323	67.94
642.528	84.94
642.733	79.94
642.939	78.94
643.144	71.94
643.349	87.94
643.554	82.94
643.759	89.94
643.964	91.94
644.169	75.94
644.374	78.94
644.579	93.94
644.784	77.94
644.989	90.94
645.194	81.94
645.399	83.94
645.604	88.94
645.809	85.94
646.014	85.94
646.219	82.94
646.423	73.94
646.628	75.94
646.833	90.94
647.038	82.94
647.243	67.94
647.447	81.94
647.652	81.94
647.857	74.94
648.062	62.94
648.266	86.94
648.471	88.94
648.676	79.94
648.88	97.94
649.085	91.94
649.289	81.94
649.494	75.94
649.698	115.94
649.903	97.94
650.107	88.94
650.312	89.94
650.516	75.94
650.721	86.94
650.925	78.94
651.13	88.94
651.334	87.94
651.539	86.94
651.743	74.94
651.947	87.94
652.152	77.94
652.356	86.94
652.56	90.94
652.764	67.94
652.969	73.94
653.173	82.94
653.377	85.94
653.581	81.94
653.785	70.94
653.99	74.94
654.194	91.94
654.398	85.94
654.602	85.94
654.806	74.94
655.01	91.94
655.214	79.94
655.418	78.94
655.622	80.94
655.826	95.94
656.03	79.94
656.234	92.94
656.438	93.94
656.642	86.94
656.846	82.94
657.049	82.94
657.253	79.94
657.457	87.94
657.661	84.94
657.865	79.94
658.068	75.94
658.272	79.94
658.476	88.94
658.68	82.94
658.883	74.94
659.087	71.94
659.291	70.94
659.494	85.94
659.698	81.94
659.901	72.94
660.105	78.94
660.309	82.94
660.512	74.94
660.716	77.94
660.919	79.94
661.123	74.94
661.326	76.94
661.53	83.94
661.733	64.94
661.936	85.94
662.14	81.94
662.343	90.94
662.546	79.94
662.75	66.94
662.953	81.94
663.156	73.94
663.36	77.94
663.563	83.94
663.766	65.94
663.969	75.94
664.173	75.94
664.376	81.94
664.579	80.94
664.782	73.94
664.985	77.94
665.188	83.94
665.391	84.94
665.594	93.94
665.797	80.94
666	74.94
666.203	62.94
666.406	85.94
666.609	69.94
666.812	71.94
667.015	81.94
667.218	66.94
667.421	55.94
667.624	87.94
667.827	75.94
668.03	78.94
668.232	71.94
668.435	92.94
668.638	65.94
668.841	91.94
669.043	67.94
669.246	75.94
669.449	85.94
669.651	86.94
669.854	77.94
670.057	81.94
670.259	81.94
670.462	88.94
670.665	87.94
670.867	80.94
671.07	82.94
671.272	95.94
671.475	88.94
671.677	72.94
671.88	80.94
672.082	87.94
672.284	89.94
672.487	82.94
672.689	73.94
672.892	85.94
