Data from Soil_25_2_HRD10591_00011.txt Node
Date: Thu Feb 19 11:13:34 EST 2026
User: Yrep
Spectrometer: HR+D1059
Trigger mode: 1
Integration Time (sec): 1.000000E-1
Scans to average: 1
Electric dark correction enabled: true
Nonlinearity correction enabled: false
Boxcar width: 0
XAxis mode: Wavelengths
Number of Pixels in Spectrum: 2048
>>>>>Begin Spectral Data<<<<<
223.165	-15.25
223.4	-15.25
223.635	-15.25
223.869	-18.25
224.104	-26.25
224.338	-14.25
224.573	3.75
224.808	-0.25
225.042	-8.25
225.277	-14.25
225.511	-6.25
225.746	2.75
225.98	12.75
226.215	4.75
226.449	20.75
226.683	9.75
226.918	26.75
227.152	21.75
227.387	48.75
227.621	46.75
227.856	45.75
228.09	36.75
228.324	52.75
228.559	64.75
228.793	47.75
229.027	55.75
229.262	62.75
229.496	65.75
229.73	60.75
229.964	74.75
230.199	71.75
230.433	52.75
230.667	74.75
230.901	86.75
231.136	88.75
231.37	73.75
231.604	70.75
231.838	82.75
232.072	68.75
232.306	89.75
232.541	76.75
232.775	79.75
233.009	87.75
233.243	84.75
233.477	82.75
233.711	80.75
233.945	84.75
234.179	73.75
234.413	83.75
234.647	87.75
234.881	70.75
235.115	77.75
235.349	76.75
235.583	69.75
235.817	91.75
236.051	69.75
236.285	70.75
236.519	85.75
236.753	72.75
236.987	75.75
237.221	77.75
237.455	78.75
237.689	77.75
237.922	75.75
238.156	87.75
238.39	61.75
238.624	75.75
238.858	66.75
239.091	78.75
239.325	81.75
239.559	76.75
239.793	66.75
240.027	74.75
240.26	72.75
240.494	82.75
240.728	82.75
240.961	71.75
241.195	75.75
241.429	74.75
241.662	68.75
241.896	67.75
242.13	80.75
242.363	72.75
242.597	70.75
242.83	78.75
243.064	75.75
243.298	78.75
243.531	80.75
243.765	88.75
243.998	74.75
244.232	70.75
244.465	71.75
244.699	72.75
244.932	60.75
245.166	83.75
245.399	81.75
245.633	76.75
245.866	73.75
246.099	87.75
246.333	99.75
246.566	79.75
246.8	86.75
247.033	92.75
247.266	56.75
247.5	75.75
247.733	60.75
247.966	76.75
248.2	77.75
248.433	86.75
248.666	76.75
248.899	78.75
249.133	73.75
249.366	87.75
249.599	80.75
249.832	86.75
250.066	81.75
250.299	86.75
250.532	66.75
250.765	66.75
250.998	79.75
251.231	59.75
251.465	76.75
251.698	68.75
251.931	72.75
252.164	77.75
252.397	74.75
252.63	72.75
252.863	67.75
253.096	68.75
253.329	72.75
253.562	71.75
253.795	78.75
254.028	73.75
254.261	86.75
254.494	81.75
254.727	83.75
254.96	74.75
255.193	76.75
255.426	88.75
255.659	79.75
255.892	82.75
256.124	82.75
256.357	70.75
256.59	84.75
256.823	78.75
257.056	73.75
257.289	64.75
257.521	89.75
257.754	79.75
257.987	79.75
258.22	89.75
258.452	78.75
258.685	72.75
258.918	72.75
259.151	90.75
259.383	88.75
259.616	81.75
259.849	99.75
260.081	75.75
260.314	75.75
260.547	78.75
260.779	80.75
261.012	83.75
261.244	69.75
261.477	89.75
261.71	83.75
261.942	88.75
262.175	82.75
262.407	78.75
262.64	82.75
262.872	86.75
263.105	83.75
263.337	86.75
263.57	94.75
263.802	86.75
264.035	84.75
264.267	92.75
264.499	80.75
264.732	87.75
264.964	82.75
265.197	79.75
265.429	72.75
265.661	98.75
265.894	80.75
266.126	90.75
266.358	88.75
266.591	79.75
266.823	84.75
267.055	80.75
267.287	92.75
267.52	84.75
267.752	81.75
267.984	89.75
268.216	90.75
268.448	82.75
268.681	79.75
268.913	90.75
269.145	89.75
269.377	72.75
269.609	75.75
269.841	80.75
270.073	78.75
270.306	97.75
270.538	76.75
270.77	84.75
271.002	83.75
271.234	78.75
271.466	80.75
271.698	76.75
271.93	84.75
272.162	82.75
272.394	89.75
272.626	84.75
272.858	96.75
273.09	85.75
273.322	83.75
273.553	71.75
273.785	79.75
274.017	74.75
274.249	82.75
274.481	69.75
274.713	79.75
274.945	89.75
275.176	86.75
275.408	90.75
275.64	93.75
275.872	78.75
276.104	97.75
276.335	88.75
276.567	83.75
276.799	89.75
277.031	99.75
277.262	84.75
277.494	72.75
277.726	86.75
277.957	87.75
278.189	87.75
278.421	76.75
278.652	84.75
278.884	89.75
279.115	82.75
279.347	81.75
279.579	92.75
279.81	93.75
280.042	99.75
280.273	97.75
280.505	87.75
280.736	79.75
280.968	80.75
281.199	102.75
281.431	81.75
281.662	75.75
281.894	76.75
282.125	84.75
282.356	86.75
282.588	76.75
282.819	92.75
283.051	89.75
283.282	81.75
283.513	91.75
283.745	82.75
283.976	91.75
284.207	81.75
284.439	87.75
284.67	82.75
284.901	90.75
285.132	82.75
285.364	95.75
285.595	84.75
285.826	83.75
286.057	92.75
286.288	90.75
286.52	79.75
286.751	77.75
286.982	76.75
287.213	81.75
287.444	85.75
287.675	95.75
287.906	80.75
288.138	91.75
288.369	77.75
288.6	92.75
288.831	78.75
289.062	104.75
289.293	88.75
289.524	107.75
289.755	80.75
289.986	78.75
290.217	91.75
290.448	80.75
290.679	71.75
290.91	91.75
291.141	96.75
291.371	86.75
291.602	79.75
291.833	75.75
292.064	76.75
292.295	78.75
292.526	78.75
292.757	99.75
292.987	75.75
293.218	88.75
293.449	91.75
293.68	89.75
293.91	73.75
294.141	82.75
294.372	98.75
294.603	84.75
294.833	95.75
295.064	86.75
295.295	96.75
295.525	93.75
295.756	95.75
295.987	85.75
296.217	94.75
296.448	84.75
296.679	83.75
296.909	82.75
297.14	87.75
297.37	91.75
297.601	85.75
297.831	88.75
298.062	76.75
298.292	96.75
298.523	82.75
298.753	75.75
298.984	104.75
299.214	79.75
299.445	91.75
299.675	101.75
299.905	76.75
300.136	97.75
300.366	92.75
300.597	84.75
300.827	99.75
301.057	79.75
301.288	91.75
301.518	97.75
301.748	83.75
301.979	99.75
302.209	90.75
302.439	90.75
302.669	94.75
302.9	82.75
303.13	75.75
303.36	86.75
303.59	93.75
303.82	80.75
304.051	88.75
304.281	90.75
304.511	80.75
304.741	83.75
304.971	94.75
305.201	74.75
305.431	86.75
305.661	89.75
305.891	86.75
306.121	86.75
306.352	79.75
306.582	98.75
306.812	88.75
307.042	88.75
307.272	77.75
307.502	69.75
307.731	85.75
307.961	87.75
308.191	88.75
308.421	91.75
308.651	91.75
308.881	99.75
309.111	95.75
309.341	80.75
309.571	91.75
309.8	91.75
310.03	85.75
310.26	76.75
310.49	94.75
310.72	84.75
310.949	82.75
311.179	93.75
311.409	91.75
311.639	79.75
311.868	87.75
312.098	81.75
312.328	72.75
312.557	81.75
312.787	86.75
313.017	84.75
313.246	87.75
313.476	100.75
313.706	88.75
313.935	84.75
314.165	88.75
314.394	91.75
314.624	90.75
314.853	89.75
315.083	76.75
315.312	78.75
315.542	88.75
315.771	90.75
316.001	85.75
316.23	75.75
316.46	87.75
316.689	86.75
316.919	91.75
317.148	79.75
317.377	84.75
317.607	83.75
317.836	86.75
318.065	87.75
318.295	97.75
318.524	97.75
318.753	84.75
318.983	92.75
319.212	79.75
319.441	80.75
319.67	89.75
319.9	89.75
320.129	92.75
320.358	85.75
320.587	88.75
320.816	85.75
321.046	84.75
321.275	85.75
321.504	77.75
321.733	89.75
321.962	89.75
322.191	91.75
322.42	87.75
322.649	93.75
322.878	77.75
323.108	78.75
323.337	79.75
323.566	80.75
323.795	73.75
324.024	86.75
324.253	86.75
324.482	86.75
324.71	95.75
324.939	82.75
325.168	92.75
325.397	88.75
325.626	100.75
325.855	109.75
326.084	88.75
326.313	106.75
326.542	80.75
326.77	93.75
326.999	82.75
327.228	80.75
327.457	90.75
327.686	87.75
327.914	86.75
328.143	84.75
328.372	78.75
328.6	80.75
328.829	81.75
329.058	97.75
329.287	86.75
329.515	64.75
329.744	90.75
329.972	89.75
330.201	96.75
330.43	92.75
330.658	84.75
330.887	76.75
331.115	81.75
331.344	80.75
331.572	74.75
331.801	92.75
332.03	91.75
332.258	84.75
332.486	77.75
332.715	92.75
332.943	89.75
333.172	88.75
333.4	90.75
333.629	88.75
333.857	93.75
334.085	92.75
334.314	80.75
334.542	93.75
334.771	90.75
334.999	86.75
335.227	88.75
335.455	94.75
335.684	82.75
335.912	76.75
336.14	75.75
336.369	88.75
336.597	73.75
336.825	87.75
337.053	88.75
337.281	86.75
337.51	89.75
337.738	82.75
337.966	92.75
338.194	84.75
338.422	83.75
338.65	82.75
338.878	102.75
339.106	83.75
339.334	91.75
339.562	87.75
339.79	89.75
340.018	100.75
340.246	96.75
340.474	91.75
340.702	87.75
340.93	81.75
341.158	86.75
341.386	74.75
341.614	81.75
341.842	69.75
342.07	83.75
342.298	88.75
342.526	84.75
342.754	85.75
342.981	81.75
343.209	91.75
343.437	102.75
343.665	90.75
343.893	81.75
344.12	74.75
344.348	91.75
344.576	73.75
344.804	109.75
345.031	80.75
345.259	86.75
345.487	95.75
345.714	81.75
345.942	78.75
346.17	78.75
346.397	89.75
346.625	89.75
346.853	70.75
347.08	76.75
347.308	87.75
347.535	85.75
347.763	83.75
347.99	84.75
348.218	80.75
348.445	80.75
348.673	75.75
348.9	83.75
349.128	90.75
349.355	71.75
349.583	96.75
349.81	79.75
350.037	88.75
350.265	81.75
350.492	93.75
350.72	76.75
350.947	74.75
351.174	83.75
351.402	82.75
351.629	86.75
351.856	83.75
352.083	75.75
352.311	91.75
352.538	67.75
352.765	88.75
352.992	90.75
353.22	92.75
353.447	80.75
353.674	85.75
353.901	85.75
354.128	89.75
354.355	77.75
354.583	87.75
354.81	91.75
355.037	98.75
355.264	88.75
355.491	91.75
355.718	81.75
355.945	81.75
356.172	75.75
356.399	90.75
356.626	86.75
356.853	82.75
357.08	83.75
357.307	89.75
357.534	91.75
357.761	83.75
357.988	92.75
358.215	83.75
358.441	76.75
358.668	90.75
358.895	85.75
359.122	73.75
359.349	86.75
359.576	85.75
359.802	86.75
360.029	69.75
360.256	86.75
360.483	87.75
360.709	88.75
360.936	94.75
361.163	83.75
361.39	82.75
361.616	78.75
361.843	92.75
362.07	93.75
362.296	80.75
362.523	87.75
362.749	72.75
362.976	76.75
363.203	89.75
363.429	84.75
363.656	92.75
363.882	94.75
364.109	82.75
364.335	93.75
364.562	80.75
364.788	77.75
365.015	71.75
365.241	81.75
365.468	90.75
365.694	79.75
365.92	79.75
366.147	80.75
366.373	82.75
366.599	89.75
366.826	79.75
367.052	91.75
367.278	86.75
367.505	69.75
367.731	101.75
367.957	86.75
368.184	80.75
368.41	78.75
368.636	78.75
368.862	98.75
369.089	93.75
369.315	81.75
369.541	86.75
369.767	80.75
369.993	74.75
370.219	74.75
370.445	77.75
370.672	73.75
370.898	79.75
371.124	72.75
371.35	82.75
371.576	92.75
371.802	94.75
372.028	93.75
372.254	82.75
372.48	86.75
372.706	70.75
372.932	88.75
373.158	104.75
373.384	95.75
373.61	81.75
373.835	80.75
374.061	78.75
374.287	97.75
374.513	92.75
374.739	93.75
374.965	93.75
375.191	96.75
375.416	84.75
375.642	88.75
375.868	92.75
376.094	84.75
376.319	68.75
376.545	98.75
376.771	78.75
376.997	83.75
377.222	76.75
377.448	71.75
377.674	69.75
377.899	82.75
378.125	86.75
378.35	92.75
378.576	101.75
378.802	89.75
379.027	78.75
379.253	73.75
379.478	93.75
379.704	86.75
379.929	84.75
380.155	82.75
380.38	79.75
380.606	78.75
380.831	93.75
381.057	83.75
381.282	84.75
381.507	79.75
381.733	89.75
381.958	87.75
382.184	74.75
382.409	86.75
382.634	90.75
382.86	92.75
383.085	81.75
383.31	95.75
383.535	81.75
383.761	90.75
383.986	99.75
384.211	80.75
384.436	91.75
384.662	92.75
384.887	71.75
385.112	82.75
385.337	85.75
385.562	72.75
385.787	85.75
386.013	94.75
386.238	90.75
386.463	92.75
386.688	88.75
386.913	86.75
387.138	81.75
387.363	89.75
387.588	104.75
387.813	76.75
388.038	80.75
388.263	92.75
388.488	98.75
388.713	87.75
388.938	82.75
389.163	92.75
389.387	75.75
389.612	79.75
389.837	86.75
390.062	91.75
390.287	89.75
390.512	105.75
390.736	96.75
390.961	87.75
391.186	84.75
391.411	93.75
391.636	86.75
391.86	84.75
392.085	75.75
392.31	86.75
392.534	94.75
392.759	80.75
392.984	104.75
393.208	122.75
393.433	135.75
393.658	114.75
393.882	92.75
394.107	82.75
394.331	80.75
394.556	76.75
394.78	86.75
395.005	80.75
395.229	97.75
395.454	97.75
395.678	72.75
395.903	85.75
396.127	91.75
396.352	97.75
396.576	91.75
396.801	121.75
397.025	116.75
397.249	92.75
397.474	73.75
397.698	83.75
397.922	71.75
398.147	75.75
398.371	75.75
398.595	90.75
398.82	86.75
399.044	86.75
399.268	87.75
399.492	71.75
399.717	81.75
399.941	86.75
400.165	90.75
400.389	75.75
400.613	76.75
400.837	93.75
401.062	86.75
401.286	85.75
401.51	72.75
401.734	84.75
401.958	76.75
402.182	87.75
402.406	93.75
402.63	89.75
402.854	80.75
403.078	85.75
403.302	75.75
403.526	86.75
403.75	86.75
403.974	75.75
404.198	75.75
404.422	99.75
404.645	83.75
404.869	104.75
405.093	84.75
405.317	74.75
405.541	87.75
405.765	96.75
405.988	88.75
406.212	90.75
406.436	76.75
406.66	76.75
406.883	73.75
407.107	82.75
407.331	87.75
407.555	78.75
407.778	72.75
408.002	79.75
408.226	79.75
408.449	102.75
408.673	67.75
408.896	82.75
409.12	89.75
409.344	76.75
409.567	88.75
409.791	100.75
410.014	79.75
410.238	91.75
410.461	90.75
410.685	81.75
410.908	85.75
411.132	83.75
411.355	78.75
411.578	88.75
411.802	80.75
412.025	88.75
412.249	73.75
412.472	83.75
412.695	100.75
412.919	88.75
413.142	81.75
413.365	80.75
413.589	79.75
413.812	75.75
414.035	80.75
414.258	83.75
414.482	80.75
414.705	82.75
414.928	87.75
415.151	70.75
415.374	76.75
415.597	76.75
415.821	82.75
416.044	66.75
416.267	91.75
416.49	82.75
416.713	79.75
416.936	86.75
417.159	88.75
417.382	83.75
417.605	87.75
417.828	87.75
418.051	81.75
418.274	87.75
418.497	94.75
418.72	80.75
418.943	86.75
419.166	79.75
419.389	92.75
419.611	74.75
419.834	85.75
420.057	79.75
420.28	80.75
420.503	75.75
420.726	86.75
420.948	78.75
421.171	88.75
421.394	82.75
421.617	89.75
421.839	81.75
422.062	82.75
422.285	77.75
422.507	98.75
422.73	132.75
422.953	110.75
423.175	78.75
423.398	82.75
423.621	79.75
423.843	82.75
424.066	75.75
424.288	72.75
424.511	66.75
424.733	92.75
424.956	81.75
425.178	74.75
425.401	87.75
425.623	72.75
425.846	80.75
426.068	91.75
426.291	96.75
426.513	78.75
426.735	76.75
426.958	89.75
427.18	74.75
427.402	77.75
427.625	84.75
427.847	75.75
428.069	63.75
428.292	88.75
428.514	84.75
428.736	82.75
428.958	81.75
429.181	88.75
429.403	90.75
429.625	98.75
429.847	88.75
430.069	86.75
430.292	91.75
430.514	93.75
430.736	90.75
430.958	110.75
431.18	72.75
431.402	86.75
431.624	84.75
431.846	85.75
432.068	92.75
432.29	71.75
432.512	98.75
432.734	102.75
432.956	73.75
433.178	85.75
433.4	91.75
433.622	81.75
433.844	72.75
434.066	73.75
434.287	79.75
434.509	71.75
434.731	89.75
434.953	79.75
435.175	93.75
435.397	85.75
435.618	72.75
435.84	75.75
436.062	79.75
436.284	80.75
436.505	90.75
436.727	84.75
436.949	86.75
437.17	70.75
437.392	78.75
437.614	92.75
437.835	78.75
438.057	82.75
438.278	82.75
438.5	92.75
438.721	83.75
438.943	91.75
439.165	92.75
439.386	86.75
439.608	78.75
439.829	76.75
440.05	72.75
440.272	82.75
440.493	78.75
440.715	87.75
440.936	75.75
441.158	97.75
441.379	93.75
441.6	84.75
441.822	88.75
442.043	91.75
442.264	75.75
442.486	75.75
442.707	105.75
442.928	73.75
443.149	89.75
443.371	87.75
443.592	92.75
443.813	106.75
444.034	83.75
444.255	90.75
444.476	78.75
444.698	91.75
444.919	88.75
445.14	178.75
445.361	123.75
445.582	95.75
445.803	92.75
446.024	86.75
446.245	80.75
446.466	88.75
446.687	89.75
446.908	87.75
447.129	90.75
447.35	79.75
447.571	99.75
447.792	80.75
448.013	79.75
448.234	65.75
448.455	87.75
448.675	77.75
448.896	84.75
449.117	84.75
449.338	85.75
449.559	80.75
449.779	78.75
450	72.75
450.221	85.75
450.442	83.75
450.662	86.75
450.883	80.75
451.104	84.75
451.324	84.75
451.545	73.75
451.766	79.75
451.986	81.75
452.207	76.75
452.428	87.75
452.648	78.75
452.869	84.75
453.089	89.75
453.31	75.75
453.53	79.75
453.751	82.75
453.971	70.75
454.192	70.75
454.412	74.75
454.633	75.75
454.853	86.75
455.073	78.75
455.294	86.75
455.514	91.75
455.734	82.75
455.955	100.75
456.175	78.75
456.395	96.75
456.616	91.75
456.836	89.75
457.056	82.75
457.276	91.75
457.497	91.75
457.717	83.75
457.937	81.75
458.157	96.75
458.377	81.75
458.598	80.75
458.818	82.75
459.038	85.75
459.258	86.75
459.478	84.75
459.698	86.75
459.918	87.75
460.138	86.75
460.358	70.75
460.578	90.75
460.798	88.75
461.018	78.75
461.238	76.75
461.458	80.75
461.678	83.75
461.898	75.75
462.118	74.75
462.338	85.75
462.558	98.75
462.777	98.75
462.997	88.75
463.217	74.75
463.437	71.75
463.657	67.75
463.876	70.75
464.096	67.75
464.316	74.75
464.536	80.75
464.755	96.75
464.975	91.75
465.195	93.75
465.414	90.75
465.634	71.75
465.854	73.75
466.073	77.75
466.293	86.75
466.512	81.75
466.732	84.75
466.951	83.75
467.171	72.75
467.391	88.75
467.61	83.75
467.829	84.75
468.049	91.75
468.268	78.75
468.488	82.75
468.707	81.75
468.927	74.75
469.146	84.75
469.365	75.75
469.585	80.75
469.804	83.75
470.023	76.75
470.243	80.75
470.462	89.75
470.681	101.75
470.901	85.75
471.12	74.75
471.339	81.75
471.558	76.75
471.777	80.75
471.997	74.75
472.216	67.75
472.435	89.75
472.654	87.75
472.873	86.75
473.092	76.75
473.311	75.75
473.53	89.75
473.749	83.75
473.968	82.75
474.187	80.75
474.406	84.75
474.625	80.75
474.844	80.75
475.063	75.75
475.282	77.75
475.501	72.75
475.72	102.75
475.939	77.75
476.158	68.75
476.377	76.75
476.596	82.75
476.814	74.75
477.033	95.75
477.252	73.75
477.471	82.75
477.69	86.75
477.908	93.75
478.127	79.75
478.346	85.75
478.564	84.75
478.783	84.75
479.002	92.75
479.22	77.75
479.439	90.75
479.658	76.75
479.876	89.75
480.095	84.75
480.313	74.75
480.532	80.75
480.751	88.75
480.969	81.75
481.188	91.75
481.406	78.75
481.624	80.75
481.843	88.75
482.061	88.75
482.28	74.75
482.498	71.75
482.717	79.75
482.935	80.75
483.153	98.75
483.372	92.75
483.59	86.75
483.808	62.75
484.027	91.75
484.245	95.75
484.463	102.75
484.681	91.75
484.9	80.75
485.118	86.75
485.336	80.75
485.554	80.75
485.772	83.75
485.99	76.75
486.209	84.75
486.427	70.75
486.645	88.75
486.863	90.75
487.081	93.75
487.299	95.75
487.517	92.75
487.735	84.75
487.953	82.75
488.171	110.75
488.389	84.75
488.607	85.75
488.825	93.75
489.043	84.75
489.261	91.75
489.479	84.75
489.696	104.75
489.914	79.75
490.132	74.75
490.35	86.75
490.568	72.75
490.786	82.75
491.003	69.75
491.221	91.75
491.439	85.75
491.657	88.75
491.874	87.75
492.092	78.75
492.31	80.75
492.527	78.75
492.745	89.75
492.963	81.75
493.18	93.75
493.398	86.75
493.615	86.75
493.833	70.75
494.05	90.75
494.268	80.75
494.485	85.75
494.703	71.75
494.92	66.75
495.138	80.75
495.355	89.75
495.573	76.75
495.79	79.75
496.008	99.75
496.225	93.75
496.442	82.75
496.66	89.75
496.877	89.75
497.094	88.75
497.312	82.75
497.529	92.75
497.746	80.75
497.963	84.75
498.181	87.75
498.398	94.75
498.615	97.75
498.832	93.75
499.049	82.75
499.267	88.75
499.484	86.75
499.701	77.75
499.918	75.75
500.135	94.75
500.352	90.75
500.569	72.75
500.786	85.75
501.003	85.75
501.22	85.75
501.437	86.75
501.654	89.75
501.871	83.75
502.088	84.75
502.305	80.75
502.522	78.75
502.739	74.75
502.956	96.75
503.172	82.75
503.389	94.75
503.606	94.75
503.823	82.75
504.04	98.75
504.256	77.75
504.473	92.75
504.69	80.75
504.907	75.75
505.123	75.75
505.34	82.75
505.557	89.75
505.773	86.75
505.99	81.75
506.207	74.75
506.423	82.75
506.64	87.75
506.856	87.75
507.073	79.75
507.289	88.75
507.506	93.75
507.722	83.75
507.939	83.75
508.155	82.75
508.372	67.75
508.588	76.75
508.805	87.75
509.021	90.75
509.238	79.75
509.454	84.75
509.67	77.75
509.887	84.75
510.103	100.75
510.319	85.75
510.536	100.75
510.752	92.75
510.968	71.75
511.184	87.75
511.401	84.75
511.617	90.75
511.833	90.75
512.049	89.75
512.265	82.75
512.481	91.75
512.698	87.75
512.914	80.75
513.13	93.75
513.346	80.75
513.562	76.75
513.778	108.75
513.994	85.75
514.21	91.75
514.426	78.75
514.642	91.75
514.858	82.75
515.074	76.75
515.29	75.75
515.506	85.75
515.721	84.75
515.937	97.75
516.153	90.75
516.369	90.75
516.585	90.75
516.801	81.75
517.016	86.75
517.232	76.75
517.448	88.75
517.664	92.75
517.879	82.75
518.095	98.75
518.311	87.75
518.527	90.75
518.742	83.75
518.958	82.75
519.173	86.75
519.389	93.75
519.605	100.75
519.82	98.75
520.036	75.75
520.251	91.75
520.467	82.75
520.682	102.75
520.898	76.75
521.113	79.75
521.329	87.75
521.544	80.75
521.76	82.75
521.975	92.75
522.19	89.75
522.406	83.75
522.621	78.75
522.836	75.75
523.052	92.75
523.267	76.75
523.482	74.75
523.698	82.75
523.913	88.75
524.128	88.75
524.343	86.75
524.559	87.75
524.774	75.75
524.989	71.75
525.204	86.75
525.419	72.75
525.634	84.75
525.849	90.75
526.064	84.75
526.28	86.75
526.495	97.75
526.71	99.75
526.925	96.75
527.14	108.75
527.355	94.75
527.57	87.75
527.785	88.75
527.999	92.75
528.214	91.75
528.429	85.75
528.644	84.75
528.859	86.75
529.074	83.75
529.289	87.75
529.503	87.75
529.718	82.75
529.933	89.75
530.148	87.75
530.363	85.75
530.577	82.75
530.792	98.75
531.007	82.75
531.221	83.75
531.436	69.75
531.651	78.75
531.865	99.75
532.08	90.75
532.295	98.75
532.509	89.75
532.724	88.75
532.938	83.75
533.153	86.75
533.367	78.75
533.582	87.75
533.796	82.75
534.011	101.75
534.225	84.75
534.44	88.75
534.654	97.75
534.868	83.75
535.083	83.75
535.297	95.75
535.511	79.75
535.726	91.75
535.94	79.75
536.154	92.75
536.369	87.75
536.583	90.75
536.797	94.75
537.011	82.75
537.225	88.75
537.44	90.75
537.654	98.75
537.868	95.75
538.082	82.75
538.296	88.75
538.51	80.75
538.724	86.75
538.938	81.75
539.153	83.75
539.367	92.75
539.581	78.75
539.795	90.75
540.009	79.75
540.222	102.75
540.436	68.75
540.65	81.75
540.864	84.75
541.078	78.75
541.292	96.75
541.506	92.75
541.72	87.75
541.934	95.75
542.147	85.75
542.361	75.75
542.575	90.75
542.789	97.75
543.002	92.75
543.216	92.75
543.43	91.75
543.644	97.75
543.857	87.75
544.071	82.75
544.285	96.75
544.498	82.75
544.712	84.75
544.925	87.75
545.139	85.75
545.352	80.75
545.566	85.75
545.779	77.75
545.993	84.75
546.206	98.75
546.42	77.75
546.633	92.75
546.847	82.75
547.06	90.75
547.274	81.75
547.487	84.75
547.7	88.75
547.914	102.75
548.127	106.75
548.34	89.75
548.554	73.75
548.767	92.75
548.98	87.75
549.193	90.75
549.407	87.75
549.62	90.75
549.833	90.75
550.046	101.75
550.259	98.75
550.473	84.75
550.686	103.75
550.899	102.75
551.112	90.75
551.325	104.75
551.538	80.75
551.751	112.75
551.964	103.75
552.177	96.75
552.39	74.75
552.603	98.75
552.816	93.75
553.029	92.75
553.242	89.75
553.455	91.75
553.667	95.75
553.88	108.75
554.093	103.75
554.306	92.75
554.519	87.75
554.732	92.75
554.944	92.75
555.157	98.75
555.37	107.75
555.583	90.75
555.795	89.75
556.008	93.75
556.221	87.75
556.433	91.75
556.646	78.75
556.859	98.75
557.071	98.75
557.284	95.75
557.496	100.75
557.709	96.75
557.921	97.75
558.134	101.75
558.346	97.75
558.559	84.75
558.771	78.75
558.984	96.75
559.196	117.75
559.409	93.75
559.621	107.75
559.833	103.75
560.046	107.75
560.258	101.75
560.47	94.75
560.683	73.75
560.895	90.75
561.107	81.75
561.32	93.75
561.532	84.75
561.744	79.75
561.956	88.75
562.168	85.75
562.381	95.75
562.593	80.75
562.805	81.75
563.017	101.75
563.229	91.75
563.441	92.75
563.653	90.75
563.865	98.75
564.077	81.75
564.289	81.75
564.501	89.75
564.713	76.75
564.925	90.75
565.137	96.75
565.349	88.75
565.561	89.75
565.773	102.75
565.985	92.75
566.197	83.75
566.408	80.75
566.62	89.75
566.832	80.75
567.044	94.75
567.255	93.75
567.467	89.75
567.679	92.75
567.891	83.75
568.102	85.75
568.314	86.75
568.526	88.75
568.737	115.75
568.949	75.75
569.161	97.75
569.372	95.75
569.584	99.75
569.795	84.75
570.007	95.75
570.218	76.75
570.43	87.75
570.641	77.75
570.853	81.75
571.064	88.75
571.276	93.75
571.487	94.75
571.698	82.75
571.91	73.75
572.121	78.75
572.333	86.75
572.544	88.75
572.755	88.75
572.966	91.75
573.178	87.75
573.389	87.75
573.6	79.75
573.811	91.75
574.023	93.75
574.234	88.75
574.445	76.75
574.656	82.75
574.867	67.75
575.078	84.75
575.289	76.75
575.501	84.75
575.712	91.75
575.923	83.75
576.134	100.75
576.345	86.75
576.556	88.75
576.767	95.75
576.978	104.75
577.188	80.75
577.399	87.75
577.61	87.75
577.821	97.75
578.032	78.75
578.243	81.75
578.454	89.75
578.665	99.75
578.875	98.75
579.086	82.75
579.297	86.75
579.508	99.75
579.718	103.75
579.929	87.75
580.14	85.75
580.35	86.75
580.561	86.75
580.772	95.75
580.982	89.75
581.193	89.75
581.403	85.75
581.614	86.75
581.825	72.75
582.035	76.75
582.246	67.75
582.456	83.75
582.667	95.75
582.877	84.75
583.087	89.75
583.298	101.75
583.508	74.75
583.719	81.75
583.929	86.75
584.139	90.75
584.35	90.75
584.56	90.75
584.77	89.75
584.981	98.75
585.191	80.75
585.401	81.75
585.611	96.75
585.821	95.75
586.032	104.75
586.242	78.75
586.452	79.75
586.662	88.75
586.872	85.75
587.082	87.75
587.292	84.75
587.502	92.75
587.713	66.75
587.923	92.75
588.133	83.75
588.343	86.75
588.553	88.75
588.762	115.75
588.972	156.75
589.182	274.75
589.392	199.75
589.602	160.75
589.812	242.75
590.022	148.75
590.232	106.75
590.441	98.75
590.651	94.75
590.861	93.75
591.071	89.75
591.281	81.75
591.49	97.75
591.7	92.75
591.91	87.75
592.119	99.75
592.329	86.75
592.539	80.75
592.748	98.75
592.958	91.75
593.167	91.75
593.377	95.75
593.587	82.75
593.796	78.75
594.006	95.75
594.215	88.75
594.424	92.75
594.634	86.75
594.843	93.75
595.053	83.75
595.262	80.75
595.472	88.75
595.681	82.75
595.89	108.75
596.1	99.75
596.309	87.75
596.518	88.75
596.727	91.75
596.937	89.75
597.146	84.75
597.355	84.75
597.564	79.75
597.774	97.75
597.983	86.75
598.192	90.75
598.401	81.75
598.61	101.75
598.819	98.75
599.028	81.75
599.237	98.75
599.446	87.75
599.655	104.75
599.864	90.75
600.073	99.75
600.282	88.75
600.491	86.75
600.7	100.75
600.909	76.75
601.118	85.75
601.327	96.75
601.536	84.75
601.745	73.75
601.953	90.75
602.162	93.75
602.371	82.75
602.58	88.75
602.789	83.75
602.997	96.75
603.206	89.75
603.415	81.75
603.623	83.75
603.832	88.75
604.041	102.75
604.249	83.75
604.458	108.75
604.666	87.75
604.875	94.75
605.084	92.75
605.292	95.75
605.501	91.75
605.709	91.75
605.918	85.75
606.126	83.75
606.334	88.75
606.543	97.75
606.751	110.75
606.96	91.75
607.168	95.75
607.376	87.75
607.585	100.75
607.793	95.75
608.001	95.75
608.21	81.75
608.418	91.75
608.626	91.75
608.834	86.75
609.043	90.75
609.251	88.75
609.459	95.75
609.667	90.75
609.875	90.75
610.083	82.75
610.291	93.75
610.499	96.75
610.707	100.75
610.916	83.75
611.124	88.75
611.332	82.75
611.54	91.75
611.748	95.75
611.955	94.75
612.163	106.75
612.371	111.75
612.579	102.75
612.787	83.75
612.995	88.75
613.203	101.75
613.411	90.75
613.618	92.75
613.826	92.75
614.034	79.75
614.242	99.75
614.449	84.75
614.657	89.75
614.865	73.75
615.072	91.75
615.28	90.75
615.488	81.75
615.695	91.75
615.903	92.75
616.111	95.75
616.318	111.75
616.526	121.75
616.733	92.75
616.941	93.75
617.148	104.75
617.356	90.75
617.563	109.75
617.771	104.75
617.978	95.75
618.185	89.75
618.393	89.75
618.6	86.75
618.807	101.75
619.015	95.75
619.222	72.75
619.429	92.75
619.637	93.75
619.844	90.75
620.051	90.75
620.258	109.75
620.466	102.75
620.673	88.75
620.88	77.75
621.087	96.75
621.294	96.75
621.501	98.75
621.708	101.75
621.915	108.75
622.122	87.75
622.329	97.75
622.536	102.75
622.743	88.75
622.95	98.75
623.157	84.75
623.364	85.75
623.571	89.75
623.778	86.75
623.985	96.75
624.192	85.75
624.399	82.75
624.606	92.75
624.812	90.75
625.019	84.75
625.226	102.75
625.433	100.75
625.639	82.75
625.846	90.75
626.053	90.75
626.259	90.75
626.466	89.75
626.673	90.75
626.879	93.75
627.086	90.75
627.293	81.75
627.499	93.75
627.706	98.75
627.912	83.75
628.119	81.75
628.325	82.75
628.532	89.75
628.738	90.75
628.945	84.75
629.151	98.75
629.357	74.75
629.564	88.75
629.77	79.75
629.976	88.75
630.183	81.75
630.389	78.75
630.595	79.75
630.802	82.75
631.008	91.75
631.214	88.75
631.42	90.75
631.627	83.75
631.833	86.75
632.039	88.75
632.245	83.75
632.451	103.75
632.657	81.75
632.863	84.75
633.069	78.75
633.275	96.75
633.481	101.75
633.688	87.75
633.893	75.75
634.099	75.75
634.305	85.75
634.511	96.75
634.717	75.75
634.923	87.75
635.129	95.75
635.335	90.75
635.541	74.75
635.747	79.75
635.952	95.75
636.158	88.75
636.364	90.75
636.57	78.75
636.775	89.75
636.981	88.75
637.187	84.75
637.392	84.75
637.598	79.75
637.804	97.75
638.009	81.75
638.215	74.75
638.421	86.75
638.626	79.75
638.832	84.75
639.037	76.75
639.243	82.75
639.448	92.75
639.654	85.75
639.859	96.75
640.065	92.75
640.27	105.75
640.475	88.75
640.681	76.75
640.886	87.75
641.091	84.75
641.297	91.75
641.502	78.75
641.707	74.75
641.913	86.75
642.118	83.75
642.323	89.75
642.528	97.75
642.733	76.75
642.939	86.75
643.144	104.75
643.349	87.75
643.554	87.75
643.759	94.75
643.964	98.75
644.169	96.75
644.374	111.75
644.579	88.75
644.784	88.75
644.989	87.75
645.194	67.75
645.399	90.75
645.604	88.75
645.809	77.75
646.014	83.75
646.219	76.75
646.423	88.75
646.628	93.75
646.833	86.75
647.038	82.75
647.243	85.75
647.447	85.75
647.652	88.75
647.857	84.75
648.062	98.75
648.266	85.75
648.471	89.75
648.676	90.75
648.88	91.75
649.085	82.75
649.289	91.75
649.494	64.75
649.698	92.75
649.903	99.75
650.107	85.75
650.312	84.75
650.516	77.75
650.721	102.75
650.925	92.75
651.13	87.75
651.334	92.75
651.539	86.75
651.743	72.75
651.947	81.75
652.152	92.75
652.356	78.75
652.56	94.75
652.764	87.75
652.969	80.75
653.173	81.75
653.377	78.75
653.581	92.75
653.785	97.75
653.99	79.75
654.194	80.75
654.398	91.75
654.602	76.75
654.806	90.75
655.01	79.75
655.214	86.75
655.418	93.75
655.622	96.75
655.826	98.75
656.03	88.75
656.234	68.75
656.438	86.75
656.642	89.75
656.846	79.75
657.049	84.75
657.253	85.75
657.457	88.75
657.661	81.75
657.865	98.75
658.068	90.75
658.272	82.75
658.476	73.75
658.68	71.75
658.883	80.75
659.087	85.75
659.291	89.75
659.494	78.75
659.698	84.75
659.901	90.75
660.105	100.75
660.309	75.75
660.512	73.75
660.716	76.75
660.919	98.75
661.123	82.75
661.326	85.75
661.53	83.75
661.733	91.75
661.936	73.75
662.14	70.75
662.343	66.75
662.546	77.75
662.75	91.75
662.953	86.75
663.156	90.75
663.36	86.75
663.563	86.75
663.766	81.75
663.969	83.75
664.173	84.75
664.376	82.75
664.579	80.75
664.782	82.75
664.985	78.75
665.188	86.75
665.391	78.75
665.594	86.75
665.797	95.75
666	88.75
666.203	74.75
666.406	95.75
666.609	93.75
666.812	86.75
667.015	75.75
667.218	90.75
667.421	86.75
667.624	84.75
667.827	74.75
668.03	79.75
668.232	86.75
668.435	82.75
668.638	78.75
668.841	95.75
669.043	90.75
669.246	101.75
669.449	89.75
669.651	87.75
669.854	82.75
670.057	69.75
670.259	78.75
670.462	75.75
670.665	70.75
670.867	92.75
671.07	88.75
671.272	83.75
671.475	96.75
671.677	95.75
671.88	75.75
672.082	84.75
672.284	84.75
672.487	98.75
672.689	92.75
672.892	82.75
