Data from Uncirc_1985_H10_HRD10591_00100.txt Node
Date: Wed Jan 03 12:18:37 EST 2024
User: Yrep
Spectrometer: HR+D1059
Trigger mode: 1
Integration Time (sec): 1.000000E-1
Scans to average: 1
Electric dark correction enabled: true
Nonlinearity correction enabled: false
Boxcar width: 0
XAxis mode: Wavelengths
Number of Pixels in Spectrum: 2048
>>>>>Begin Spectral Data<<<<<
223.165	-5.31
223.4	-5.31
223.635	-5.31
223.869	-21.31
224.104	-15.31
224.338	-11.31
224.573	-15.31
224.808	-20.31
225.042	-19.31
225.277	-12.31
225.511	7.69
225.746	3.69
225.98	5.69
226.215	6.69
226.449	23.69
226.683	16.69
226.918	29.69
227.152	26.69
227.387	26.69
227.621	28.69
227.856	52.69
228.09	58.69
228.324	35.69
228.559	62.69
228.793	50.69
229.027	48.69
229.262	52.69
229.496	62.69
229.73	69.69
229.964	83.69
230.199	66.69
230.433	61.69
230.667	70.69
230.901	82.69
231.136	69.69
231.37	90.69
231.604	71.69
231.838	80.69
232.072	70.69
232.306	72.69
232.541	73.69
232.775	83.69
233.009	92.69
233.243	61.69
233.477	88.69
233.711	77.69
233.945	71.69
234.179	85.69
234.413	77.69
234.647	95.69
234.881	86.69
235.115	70.69
235.349	78.69
235.583	81.69
235.817	75.69
236.051	81.69
236.285	62.69
236.519	78.69
236.753	98.69
236.987	82.69
237.221	69.69
237.455	75.69
237.689	73.69
237.922	73.69
238.156	91.69
238.39	80.69
238.624	79.69
238.858	88.69
239.091	66.69
239.325	68.69
239.559	83.69
239.793	82.69
240.027	68.69
240.26	65.69
240.494	67.69
240.728	78.69
240.961	73.69
241.195	74.69
241.429	94.69
241.662	74.69
241.896	82.69
242.13	86.69
242.363	56.69
242.597	62.69
242.83	76.69
243.064	76.69
243.298	76.69
243.531	63.69
243.765	84.69
243.998	82.69
244.232	84.69
244.465	87.69
244.699	75.69
244.932	78.69
245.166	84.69
245.399	54.69
245.633	77.69
245.866	74.69
246.099	71.69
246.333	82.69
246.566	72.69
246.8	86.69
247.033	92.69
247.266	75.69
247.5	66.69
247.733	87.69
247.966	80.69
248.2	86.69
248.433	71.69
248.666	78.69
248.899	72.69
249.133	82.69
249.366	87.69
249.599	96.69
249.832	79.69
250.066	66.69
250.299	80.69
250.532	85.69
250.765	87.69
250.998	74.69
251.231	74.69
251.465	81.69
251.698	84.69
251.931	76.69
252.164	80.69
252.397	74.69
252.63	83.69
252.863	83.69
253.096	83.69
253.329	81.69
253.562	88.69
253.795	82.69
254.028	83.69
254.261	79.69
254.494	81.69
254.727	95.69
254.96	88.69
255.193	87.69
255.426	83.69
255.659	78.69
255.892	67.69
256.124	74.69
256.357	79.69
256.59	79.69
256.823	80.69
257.056	89.69
257.289	78.69
257.521	72.69
257.754	83.69
257.987	82.69
258.22	91.69
258.452	79.69
258.685	88.69
258.918	80.69
259.151	89.69
259.383	79.69
259.616	78.69
259.849	91.69
260.081	73.69
260.314	79.69
260.547	72.69
260.779	84.69
261.012	95.69
261.244	75.69
261.477	80.69
261.71	82.69
261.942	104.69
262.175	124.69
262.407	96.69
262.64	78.69
262.872	81.69
263.105	91.69
263.337	91.69
263.57	85.69
263.802	87.69
264.035	79.69
264.267	90.69
264.499	98.69
264.732	78.69
264.964	89.69
265.197	82.69
265.429	92.69
265.661	80.69
265.894	90.69
266.126	77.69
266.358	70.69
266.591	86.69
266.823	79.69
267.055	89.69
267.287	80.69
267.52	84.69
267.752	91.69
267.984	90.69
268.216	85.69
268.448	79.69
268.681	71.69
268.913	85.69
269.145	84.69
269.377	88.69
269.609	74.69
269.841	95.69
270.073	82.69
270.306	77.69
270.538	83.69
270.77	82.69
271.002	73.69
271.234	80.69
271.466	61.69
271.698	86.69
271.93	78.69
272.162	86.69
272.394	92.69
272.626	96.69
272.858	94.69
273.09	85.69
273.322	87.69
273.553	71.69
273.785	86.69
274.017	80.69
274.249	78.69
274.481	73.69
274.713	89.69
274.945	89.69
275.176	101.69
275.408	75.69
275.64	83.69
275.872	87.69
276.104	70.69
276.335	92.69
276.567	102.69
276.799	109.69
277.031	103.69
277.262	96.69
277.494	82.69
277.726	76.69
277.957	86.69
278.189	86.69
278.421	80.69
278.652	72.69
278.884	86.69
279.115	86.69
279.347	70.69
279.579	92.69
279.81	73.69
280.042	97.69
280.273	100.69
280.505	71.69
280.736	78.69
280.968	87.69
281.199	98.69
281.431	79.69
281.662	87.69
281.894	97.69
282.125	88.69
282.356	117.69
282.588	138.69
282.819	112.69
283.051	104.69
283.282	86.69
283.513	88.69
283.745	83.69
283.976	80.69
284.207	91.69
284.439	75.69
284.67	103.69
284.901	74.69
285.132	67.69
285.364	87.69
285.595	95.69
285.826	94.69
286.057	85.69
286.288	91.69
286.52	90.69
286.751	73.69
286.982	83.69
287.213	74.69
287.444	90.69
287.675	90.69
287.906	95.69
288.138	72.69
288.369	83.69
288.6	86.69
288.831	90.69
289.062	80.69
289.293	80.69
289.524	84.69
289.755	86.69
289.986	87.69
290.217	81.69
290.448	95.69
290.679	89.69
290.91	99.69
291.141	84.69
291.371	90.69
291.602	88.69
291.833	82.69
292.064	92.69
292.295	90.69
292.526	84.69
292.757	80.69
292.987	92.69
293.218	84.69
293.449	78.69
293.68	93.69
293.91	91.69
294.141	91.69
294.372	86.69
294.603	91.69
294.833	73.69
295.064	94.69
295.295	101.69
295.525	93.69
295.756	87.69
295.987	118.69
296.217	137.69
296.448	117.69
296.679	104.69
296.909	78.69
297.14	95.69
297.37	84.69
297.601	90.69
297.831	103.69
298.062	86.69
298.292	75.69
298.523	98.69
298.753	85.69
298.984	90.69
299.214	90.69
299.445	84.69
299.675	96.69
299.905	107.69
300.136	63.69
300.366	96.69
300.597	84.69
300.827	90.69
301.057	99.69
301.288	100.69
301.518	72.69
301.748	84.69
301.979	99.69
302.209	96.69
302.439	91.69
302.669	90.69
302.9	89.69
303.13	96.69
303.36	99.69
303.59	102.69
303.82	104.69
304.051	96.69
304.281	104.69
304.511	86.69
304.741	89.69
304.971	76.69
305.201	73.69
305.431	75.69
305.661	87.69
305.891	92.69
306.121	106.69
306.352	104.69
306.582	102.69
306.812	105.69
307.042	94.69
307.272	101.69
307.502	95.69
307.731	90.69
307.961	79.69
308.191	98.69
308.421	96.69
308.651	89.69
308.881	94.69
309.111	78.69
309.341	92.69
309.571	96.69
309.8	89.69
310.03	96.69
310.26	94.69
310.49	90.69
310.72	84.69
310.949	96.69
311.179	95.69
311.409	90.69
311.639	103.69
311.868	97.69
312.098	82.69
312.328	97.69
312.557	96.69
312.787	96.69
313.017	88.69
313.246	97.69
313.476	90.69
313.706	83.69
313.935	89.69
314.165	111.69
314.394	92.69
314.624	94.69
314.853	98.69
315.083	78.69
315.312	90.69
315.542	98.69
315.771	87.69
316.001	81.69
316.23	95.69
316.46	102.69
316.689	89.69
316.919	95.69
317.148	105.69
317.377	91.69
317.607	87.69
317.836	98.69
318.065	78.69
318.295	91.69
318.524	82.69
318.753	91.69
318.983	87.69
319.212	94.69
319.441	98.69
319.67	115.69
319.9	95.69
320.129	99.69
320.358	87.69
320.587	88.69
320.816	94.69
321.046	102.69
321.275	101.69
321.504	91.69
321.733	98.69
321.962	80.69
322.191	90.69
322.42	102.69
322.649	92.69
322.878	103.69
323.108	101.69
323.337	138.69
323.566	132.69
323.795	158.69
324.024	182.69
324.253	347.69
324.482	731.69
324.71	1506.69
324.939	2008.69
325.168	726.69
325.397	221.69
325.626	130.69
325.855	134.69
326.084	125.69
326.313	129.69
326.542	160.69
326.77	208.69
326.999	415.69
327.228	802.69
327.457	1518.69
327.686	1227.69
327.914	356.69
328.143	211.69
328.372	160.69
328.6	130.69
328.829	127.69
329.058	126.69
329.287	122.69
329.515	111.69
329.744	100.69
329.972	107.69
330.201	121.69
330.43	154.69
330.658	133.69
330.887	133.69
331.115	121.69
331.344	88.69
331.572	98.69
331.801	97.69
332.03	105.69
332.258	98.69
332.486	87.69
332.715	85.69
332.943	95.69
333.172	102.69
333.4	89.69
333.629	101.69
333.857	117.69
334.085	108.69
334.314	143.69
334.542	194.69
334.771	174.69
334.999	101.69
335.227	79.69
335.455	90.69
335.684	106.69
335.912	88.69
336.14	95.69
336.369	100.69
336.597	96.69
336.825	92.69
337.053	96.69
337.281	90.69
337.51	71.69
337.738	87.69
337.966	90.69
338.194	93.69
338.422	84.69
338.65	90.69
338.878	89.69
339.106	78.69
339.334	99.69
339.562	71.69
339.79	78.69
340.018	86.69
340.246	72.69
340.474	91.69
340.702	90.69
340.93	80.69
341.158	82.69
341.386	86.69
341.614	89.69
341.842	83.69
342.07	92.69
342.298	104.69
342.526	87.69
342.754	100.69
342.981	94.69
343.209	88.69
343.437	107.69
343.665	86.69
343.893	90.69
344.12	85.69
344.348	96.69
344.576	95.69
344.804	104.69
345.031	95.69
345.259	89.69
345.487	75.69
345.714	87.69
345.942	92.69
346.17	91.69
346.397	88.69
346.625	75.69
346.853	91.69
347.08	88.69
347.308	84.69
347.535	107.69
347.763	91.69
347.99	91.69
348.218	108.69
348.445	102.69
348.673	92.69
348.9	97.69
349.128	97.69
349.355	85.69
349.583	84.69
349.81	94.69
350.037	85.69
350.265	87.69
350.492	76.69
350.72	93.69
350.947	96.69
351.174	114.69
351.402	91.69
351.629	93.69
351.856	110.69
352.083	98.69
352.311	87.69
352.538	104.69
352.765	116.69
352.992	99.69
353.22	119.69
353.447	101.69
353.674	91.69
353.901	90.69
354.128	108.69
354.355	90.69
354.583	86.69
354.81	92.69
355.037	99.69
355.264	79.69
355.491	91.69
355.718	84.69
355.945	78.69
356.172	96.69
356.399	94.69
356.626	86.69
356.853	86.69
357.08	101.69
357.307	87.69
357.534	84.69
357.761	90.69
357.988	87.69
358.215	101.69
358.441	100.69
358.668	88.69
358.895	86.69
359.122	98.69
359.349	89.69
359.576	79.69
359.802	98.69
360.029	104.69
360.256	94.69
360.483	90.69
360.709	85.69
360.936	102.69
361.163	84.69
361.39	95.69
361.616	94.69
361.843	83.69
362.07	86.69
362.296	103.69
362.523	82.69
362.749	88.69
362.976	87.69
363.203	95.69
363.429	87.69
363.656	76.69
363.882	78.69
364.109	80.69
364.335	99.69
364.562	89.69
364.788	91.69
365.015	91.69
365.241	86.69
365.468	107.69
365.694	85.69
365.92	96.69
366.147	100.69
366.373	96.69
366.599	95.69
366.826	85.69
367.052	89.69
367.278	90.69
367.505	89.69
367.731	87.69
367.957	87.69
368.184	86.69
368.41	100.69
368.636	106.69
368.862	112.69
369.089	111.69
369.315	100.69
369.541	84.69
369.767	84.69
369.993	90.69
370.219	93.69
370.445	96.69
370.672	82.69
370.898	82.69
371.124	101.69
371.35	64.69
371.576	97.69
371.802	92.69
372.028	94.69
372.254	97.69
372.48	96.69
372.706	89.69
372.932	101.69
373.158	79.69
373.384	74.69
373.61	91.69
373.835	90.69
374.061	79.69
374.287	87.69
374.513	112.69
374.739	98.69
374.965	84.69
375.191	78.69
375.416	102.69
375.642	83.69
375.868	94.69
376.094	92.69
376.319	80.69
376.545	101.69
376.771	74.69
376.997	82.69
377.222	95.69
377.448	81.69
377.674	95.69
377.899	93.69
378.125	81.69
378.35	97.69
378.576	86.69
378.802	67.69
379.027	86.69
379.253	94.69
379.478	92.69
379.704	82.69
379.929	99.69
380.155	91.69
380.38	113.69
380.606	89.69
380.831	88.69
381.057	88.69
381.282	93.69
381.507	82.69
381.733	89.69
381.958	87.69
382.184	89.69
382.409	100.69
382.634	97.69
382.86	96.69
383.085	107.69
383.31	94.69
383.535	98.69
383.761	102.69
383.986	101.69
384.211	96.69
384.436	103.69
384.662	100.69
384.887	97.69
385.112	88.69
385.337	98.69
385.562	88.69
385.787	111.69
386.013	97.69
386.238	111.69
386.463	100.69
386.688	117.69
386.913	93.69
387.138	99.69
387.363	93.69
387.588	102.69
387.813	109.69
388.038	107.69
388.263	95.69
388.488	95.69
388.713	105.69
388.938	84.69
389.163	78.69
389.387	104.69
389.612	91.69
389.837	82.69
390.062	99.69
390.287	91.69
390.512	84.69
390.736	98.69
390.961	105.69
391.186	94.69
391.411	89.69
391.636	78.69
391.86	90.69
392.085	83.69
392.31	85.69
392.534	90.69
392.759	75.69
392.984	81.69
393.208	93.69
393.433	91.69
393.658	91.69
393.882	82.69
394.107	99.69
394.331	82.69
394.556	95.69
394.78	88.69
395.005	87.69
395.229	91.69
395.454	84.69
395.678	89.69
395.903	92.69
396.127	103.69
396.352	83.69
396.576	81.69
396.801	83.69
397.025	86.69
397.249	82.69
397.474	86.69
397.698	69.69
397.922	80.69
398.147	102.69
398.371	83.69
398.595	90.69
398.82	87.69
399.044	87.69
399.268	99.69
399.492	92.69
399.717	82.69
399.941	92.69
400.165	91.69
400.389	95.69
400.613	98.69
400.837	74.69
401.062	81.69
401.286	84.69
401.51	82.69
401.734	77.69
401.958	101.69
402.182	118.69
402.406	146.69
402.63	118.69
402.854	72.69
403.078	99.69
403.302	81.69
403.526	80.69
403.75	92.69
403.974	79.69
404.198	80.69
404.422	97.69
404.645	86.69
404.869	81.69
405.093	106.69
405.317	98.69
405.541	99.69
405.765	112.69
405.988	120.69
406.212	165.69
406.436	198.69
406.66	136.69
406.883	80.69
407.107	87.69
407.331	84.69
407.555	102.69
407.778	82.69
408.002	82.69
408.226	91.69
408.449	98.69
408.673	83.69
408.896	81.69
409.12	91.69
409.344	96.69
409.567	83.69
409.791	94.69
410.014	108.69
410.238	87.69
410.461	95.69
410.685	93.69
410.908	93.69
411.132	94.69
411.355	87.69
411.578	96.69
411.802	90.69
412.025	78.69
412.249	93.69
412.472	94.69
412.695	107.69
412.919	84.69
413.142	76.69
413.365	82.69
413.589	82.69
413.812	90.69
414.035	87.69
414.258	81.69
414.482	89.69
414.705	76.69
414.928	75.69
415.151	86.69
415.374	88.69
415.597	85.69
415.821	79.69
416.044	95.69
416.267	85.69
416.49	89.69
416.713	89.69
416.936	88.69
417.159	99.69
417.382	82.69
417.605	89.69
417.828	89.69
418.051	83.69
418.274	90.69
418.497	82.69
418.72	80.69
418.943	74.69
419.166	79.69
419.389	80.69
419.611	82.69
419.834	89.69
420.057	95.69
420.28	90.69
420.503	94.69
420.726	95.69
420.948	75.69
421.171	74.69
421.394	96.69
421.617	72.69
421.839	88.69
422.062	91.69
422.285	79.69
422.507	101.69
422.73	102.69
422.953	102.69
423.175	100.69
423.398	94.69
423.621	86.69
423.843	89.69
424.066	88.69
424.288	85.69
424.511	79.69
424.733	76.69
424.956	92.69
425.178	109.69
425.401	91.69
425.623	98.69
425.846	81.69
426.068	95.69
426.291	100.69
426.513	82.69
426.735	101.69
426.958	95.69
427.18	92.69
427.402	135.69
427.625	165.69
427.847	128.69
428.069	108.69
428.292	86.69
428.514	80.69
428.736	79.69
428.958	94.69
429.181	85.69
429.403	88.69
429.625	71.69
429.847	76.69
430.069	89.69
430.292	80.69
430.514	78.69
430.736	79.69
430.958	77.69
431.18	90.69
431.402	75.69
431.624	84.69
431.846	81.69
432.068	86.69
432.29	99.69
432.512	90.69
432.734	87.69
432.956	90.69
433.178	105.69
433.4	107.69
433.622	93.69
433.844	81.69
434.066	83.69
434.287	91.69
434.509	79.69
434.731	96.69
434.953	75.69
435.175	72.69
435.397	96.69
435.618	84.69
435.84	90.69
436.062	115.69
436.284	114.69
436.505	88.69
436.727	98.69
436.949	97.69
437.17	95.69
437.392	78.69
437.614	98.69
437.835	92.69
438.057	100.69
438.278	114.69
438.5	91.69
438.721	106.69
438.943	100.69
439.165	79.69
439.386	87.69
439.608	88.69
439.829	95.69
440.05	121.69
440.272	149.69
440.493	106.69
440.715	96.69
440.936	90.69
441.158	78.69
441.379	83.69
441.6	100.69
441.822	94.69
442.043	86.69
442.264	93.69
442.486	105.69
442.707	78.69
442.928	97.69
443.149	130.69
443.371	126.69
443.592	104.69
443.813	113.69
444.034	96.69
444.255	94.69
444.476	95.69
444.698	78.69
444.919	100.69
445.14	138.69
445.361	121.69
445.582	126.69
445.803	122.69
446.024	124.69
446.245	118.69
446.466	115.69
446.687	86.69
446.908	87.69
447.129	83.69
447.35	80.69
447.571	78.69
447.792	94.69
448.013	113.69
448.234	107.69
448.455	97.69
448.675	105.69
448.896	114.69
449.117	100.69
449.338	98.69
449.559	119.69
449.779	122.69
450	90.69
450.221	86.69
450.442	85.69
450.662	84.69
450.883	108.69
451.104	99.69
451.324	84.69
451.545	93.69
451.766	95.69
451.986	93.69
452.207	84.69
452.428	98.69
452.648	99.69
452.869	95.69
453.089	116.69
453.31	102.69
453.53	76.69
453.751	94.69
453.971	94.69
454.192	112.69
454.412	90.69
454.633	88.69
454.853	94.69
455.073	80.69
455.294	90.69
455.514	104.69
455.734	96.69
455.955	90.69
456.175	97.69
456.395	82.69
456.616	90.69
456.836	65.69
457.056	97.69
457.276	80.69
457.497	83.69
457.717	91.69
457.937	71.69
458.157	69.69
458.377	99.69
458.598	102.69
458.818	134.69
459.038	159.69
459.258	98.69
459.478	80.69
459.698	84.69
459.918	81.69
460.138	80.69
460.358	83.69
460.578	87.69
460.798	85.69
461.018	99.69
461.238	82.69
461.458	86.69
461.678	96.69
461.898	96.69
462.118	83.69
462.338	87.69
462.558	78.69
462.777	79.69
462.997	83.69
463.217	88.69
463.437	83.69
463.657	83.69
463.876	90.69
464.096	98.69
464.316	92.69
464.536	85.69
464.755	92.69
464.975	105.69
465.195	133.69
465.414	147.69
465.634	92.69
465.854	80.69
466.073	86.69
466.293	85.69
466.512	96.69
466.732	102.69
466.951	86.69
467.171	91.69
467.391	76.69
467.61	107.69
467.829	97.69
468.049	106.69
468.268	119.69
468.488	108.69
468.707	87.69
468.927	83.69
469.146	75.69
469.365	83.69
469.585	83.69
469.804	100.69
470.023	87.69
470.243	100.69
470.462	101.69
470.681	110.69
470.901	75.69
471.12	85.69
471.339	83.69
471.558	75.69
471.777	90.69
471.997	101.69
472.216	165.69
472.435	222.69
472.654	113.69
472.873	94.69
473.092	75.69
473.311	81.69
473.53	88.69
473.749	84.69
473.968	73.69
474.187	104.69
474.406	85.69
474.625	84.69
474.844	89.69
475.063	84.69
475.282	91.69
475.501	86.69
475.72	78.69
475.939	90.69
476.158	84.69
476.377	96.69
476.596	78.69
476.814	88.69
477.033	85.69
477.252	101.69
477.471	86.69
477.69	95.69
477.908	95.69
478.127	81.69
478.346	94.69
478.564	82.69
478.783	75.69
479.002	80.69
479.22	86.69
479.439	98.69
479.658	93.69
479.876	96.69
480.095	96.69
480.313	93.69
480.532	99.69
480.751	89.69
480.969	128.69
481.188	326.69
481.406	224.69
481.624	102.69
481.843	77.69
482.061	85.69
482.28	82.69
482.498	86.69
482.717	82.69
482.935	93.69
483.153	96.69
483.372	90.69
483.59	75.69
483.808	93.69
484.027	99.69
484.245	83.69
484.463	85.69
484.681	85.69
484.9	91.69
485.118	92.69
485.336	96.69
485.554	98.69
485.772	114.69
485.99	92.69
486.209	92.69
486.427	91.69
486.645	107.69
486.863	116.69
487.081	89.69
487.299	95.69
487.517	98.69
487.735	94.69
487.953	88.69
488.171	97.69
488.389	86.69
488.607	98.69
488.825	87.69
489.043	94.69
489.261	76.69
489.479	88.69
489.696	85.69
489.914	90.69
490.132	77.69
490.35	89.69
490.568	100.69
490.786	86.69
491.003	85.69
491.221	78.69
491.439	80.69
491.657	79.69
491.874	89.69
492.092	87.69
492.31	91.69
492.527	86.69
492.745	83.69
492.963	97.69
493.18	92.69
493.398	104.69
493.615	93.69
493.833	79.69
494.05	84.69
494.268	90.69
494.485	81.69
494.703	92.69
494.92	102.69
495.138	106.69
495.355	92.69
495.573	90.69
495.79	89.69
496.008	90.69
496.225	97.69
496.442	99.69
496.66	93.69
496.877	88.69
497.094	91.69
497.312	100.69
497.529	89.69
497.746	99.69
497.963	84.69
498.181	101.69
498.398	103.69
498.615	94.69
498.832	104.69
499.049	89.69
499.267	84.69
499.484	95.69
499.701	84.69
499.918	86.69
500.135	86.69
500.352	110.69
500.569	88.69
500.786	100.69
501.003	83.69
501.22	91.69
501.437	101.69
501.654	83.69
501.871	91.69
502.088	94.69
502.305	87.69
502.522	102.69
502.739	89.69
502.956	89.69
503.172	96.69
503.389	98.69
503.606	99.69
503.823	88.69
504.04	87.69
504.256	90.69
504.473	84.69
504.69	98.69
504.907	87.69
505.123	89.69
505.34	79.69
505.557	86.69
505.773	85.69
505.99	89.69
506.207	88.69
506.423	72.69
506.64	84.69
506.856	79.69
507.073	81.69
507.289	93.69
507.506	89.69
507.722	111.69
507.939	122.69
508.155	75.69
508.372	78.69
508.588	90.69
508.805	104.69
509.021	88.69
509.238	89.69
509.454	111.69
509.67	74.69
509.887	107.69
510.103	122.69
510.319	192.69
510.536	710.69
510.752	2298.69
510.968	616.69
511.184	147.69
511.401	119.69
511.617	94.69
511.833	87.69
512.049	89.69
512.265	100.69
512.481	94.69
512.698	103.69
512.914	88.69
513.13	90.69
513.346	85.69
513.562	84.69
513.778	88.69
513.994	94.69
514.21	96.69
514.426	118.69
514.642	131.69
514.858	107.69
515.074	152.69
515.29	423.69
515.506	1332.69
515.721	504.69
515.937	144.69
516.153	99.69
516.369	90.69
516.585	92.69
516.801	102.69
517.016	120.69
517.232	91.69
517.448	77.69
517.664	94.69
517.879	97.69
518.095	96.69
518.311	101.69
518.527	86.69
518.742	88.69
518.958	103.69
519.173	90.69
519.389	91.69
519.605	101.69
519.82	86.69
520.036	106.69
520.251	111.69
520.467	116.69
520.682	98.69
520.898	114.69
521.113	110.69
521.329	117.69
521.544	199.69
521.76	523.69
521.975	2237.69
522.19	1324.69
522.406	292.69
522.621	111.69
522.836	96.69
523.052	93.69
523.267	99.69
523.482	107.69
523.698	91.69
523.913	104.69
524.128	94.69
524.343	93.69
524.559	91.69
524.774	80.69
524.989	89.69
525.204	109.69
525.419	97.69
525.634	87.69
525.849	103.69
526.064	100.69
526.28	86.69
526.495	98.69
526.71	82.69
526.925	90.69
527.14	85.69
527.355	76.69
527.57	88.69
527.785	89.69
527.999	99.69
528.214	97.69
528.429	87.69
528.644	91.69
528.859	83.69
529.074	98.69
529.289	111.69
529.503	172.69
529.718	94.69
529.933	77.69
530.148	92.69
530.363	91.69
530.577	81.69
530.792	87.69
531.007	90.69
531.221	83.69
531.436	95.69
531.651	105.69
531.865	78.69
532.08	94.69
532.295	100.69
532.509	77.69
532.724	88.69
532.938	79.69
533.153	85.69
533.367	85.69
533.582	76.69
533.796	89.69
534.011	91.69
534.225	87.69
534.44	92.69
534.654	93.69
534.868	92.69
535.083	97.69
535.297	91.69
535.511	95.69
535.726	96.69
535.94	97.69
536.154	99.69
536.369	88.69
536.583	82.69
536.797	92.69
537.011	95.69
537.225	86.69
537.44	92.69
537.654	89.69
537.868	78.69
538.082	87.69
538.296	83.69
538.51	88.69
538.724	91.69
538.938	102.69
539.153	110.69
539.367	98.69
539.581	95.69
539.795	92.69
540.009	97.69
540.222	87.69
540.436	80.69
540.65	94.69
540.864	97.69
541.078	87.69
541.292	104.69
541.506	91.69
541.72	92.69
541.934	83.69
542.147	81.69
542.361	96.69
542.575	85.69
542.789	83.69
543.002	74.69
543.216	78.69
543.43	102.69
543.644	97.69
543.857	91.69
544.071	83.69
544.285	97.69
544.498	87.69
544.712	95.69
544.925	87.69
545.139	84.69
545.352	81.69
545.566	89.69
545.779	73.69
545.993	87.69
546.206	85.69
546.42	86.69
546.633	94.69
546.847	88.69
547.06	95.69
547.274	75.69
547.487	87.69
547.7	90.69
547.914	87.69
548.127	94.69
548.34	91.69
548.554	92.69
548.767	84.69
548.98	76.69
549.193	98.69
549.407	87.69
549.62	80.69
549.833	91.69
550.046	95.69
550.259	82.69
550.473	87.69
550.686	97.69
550.899	82.69
551.112	84.69
551.325	71.69
551.538	78.69
551.751	78.69
551.964	95.69
552.177	86.69
552.39	91.69
552.603	85.69
552.816	86.69
553.029	83.69
553.242	109.69
553.455	104.69
553.667	106.69
553.88	87.69
554.093	99.69
554.306	81.69
554.519	99.69
554.732	99.69
554.944	93.69
555.157	88.69
555.37	91.69
555.583	94.69
555.795	99.69
556.008	79.69
556.221	102.69
556.433	93.69
556.646	90.69
556.859	83.69
557.071	92.69
557.284	80.69
557.496	78.69
557.709	87.69
557.921	90.69
558.134	80.69
558.346	82.69
558.559	70.69
558.771	90.69
558.984	82.69
559.196	93.69
559.409	84.69
559.621	83.69
559.833	89.69
560.046	94.69
560.258	86.69
560.47	87.69
560.683	82.69
560.895	86.69
561.107	73.69
561.32	85.69
561.532	101.69
561.744	83.69
561.956	98.69
562.168	101.69
562.381	92.69
562.593	103.69
562.805	98.69
563.017	82.69
563.229	86.69
563.441	103.69
563.653	94.69
563.865	88.69
564.077	91.69
564.289	81.69
564.501	98.69
564.713	88.69
564.925	96.69
565.137	114.69
565.349	90.69
565.561	81.69
565.773	97.69
565.985	87.69
566.197	69.69
566.408	86.69
566.62	86.69
566.832	94.69
567.044	90.69
567.255	86.69
567.467	90.69
567.679	86.69
567.891	83.69
568.102	68.69
568.314	91.69
568.526	91.69
568.737	87.69
568.949	90.69
569.161	86.69
569.372	80.69
569.584	88.69
569.795	92.69
570.007	131.69
570.218	244.69
570.43	139.69
570.641	101.69
570.853	91.69
571.064	91.69
571.276	92.69
571.487	96.69
571.698	90.69
571.91	94.69
572.121	75.69
572.333	69.69
572.544	92.69
572.755	90.69
572.966	96.69
573.178	102.69
573.389	89.69
573.6	86.69
573.811	75.69
574.023	91.69
574.234	86.69
574.445	80.69
574.656	73.69
574.867	90.69
575.078	75.69
575.289	84.69
575.501	98.69
575.712	90.69
575.923	83.69
576.134	84.69
576.345	95.69
576.556	89.69
576.767	108.69
576.978	90.69
577.188	89.69
577.399	95.69
577.61	97.69
577.821	99.69
578.032	107.69
578.243	268.69
578.454	722.69
578.665	212.69
578.875	100.69
579.086	96.69
579.297	84.69
579.508	82.69
579.718	97.69
579.929	79.69
580.14	86.69
580.35	102.69
580.561	71.69
580.772	91.69
580.982	89.69
581.193	88.69
581.403	107.69
581.614	92.69
581.825	94.69
582.035	88.69
582.246	83.69
582.456	89.69
582.667	82.69
582.877	77.69
583.087	69.69
583.298	85.69
583.508	98.69
583.719	80.69
583.929	84.69
584.139	96.69
584.35	97.69
584.56	98.69
584.77	92.69
584.981	86.69
585.191	88.69
585.401	87.69
585.611	103.69
585.821	73.69
586.032	73.69
586.242	76.69
586.452	81.69
586.662	86.69
586.872	94.69
587.082	81.69
587.292	86.69
587.502	84.69
587.713	87.69
587.923	90.69
588.133	84.69
588.343	98.69
588.553	78.69
588.762	81.69
588.972	86.69
589.182	97.69
589.392	81.69
589.602	88.69
589.812	99.69
590.022	90.69
590.232	75.69
590.441	94.69
590.651	75.69
590.861	86.69
591.071	88.69
591.281	97.69
591.49	99.69
591.7	79.69
591.91	97.69
592.119	89.69
592.329	95.69
592.539	99.69
592.748	84.69
592.958	86.69
593.167	84.69
593.377	85.69
593.587	102.69
593.796	94.69
594.006	87.69
594.215	95.69
594.424	94.69
594.634	79.69
594.843	86.69
595.053	78.69
595.262	94.69
595.472	91.69
595.681	97.69
595.89	86.69
596.1	71.69
596.309	85.69
596.518	85.69
596.727	103.69
596.937	90.69
597.146	85.69
597.355	90.69
597.564	88.69
597.774	92.69
597.983	81.69
598.192	82.69
598.401	89.69
598.61	88.69
598.819	88.69
599.028	95.69
599.237	89.69
599.446	87.69
599.655	89.69
599.864	95.69
600.073	94.69
600.282	98.69
600.491	98.69
600.7	88.69
600.909	102.69
601.118	101.69
601.327	89.69
601.536	92.69
601.745	86.69
601.953	97.69
602.162	80.69
602.371	81.69
602.58	82.69
602.789	89.69
602.997	87.69
603.206	85.69
603.415	92.69
603.623	86.69
603.832	82.69
604.041	84.69
604.249	96.69
604.458	83.69
604.666	87.69
604.875	83.69
605.084	75.69
605.292	79.69
605.501	80.69
605.709	89.69
605.918	97.69
606.126	91.69
606.334	89.69
606.543	93.69
606.751	100.69
606.96	80.69
607.168	81.69
607.376	78.69
607.585	104.69
607.793	89.69
608.001	84.69
608.21	87.69
608.418	83.69
608.626	79.69
608.834	85.69
609.043	86.69
609.251	82.69
609.459	80.69
609.667	88.69
609.875	95.69
610.083	75.69
610.291	87.69
610.499	84.69
610.707	71.69
610.916	86.69
611.124	92.69
611.332	95.69
611.54	89.69
611.748	80.69
611.955	103.69
612.163	92.69
612.371	88.69
612.579	79.69
612.787	86.69
612.995	76.69
613.203	97.69
613.411	83.69
613.618	66.69
613.826	82.69
614.034	86.69
614.242	84.69
614.449	98.69
614.657	89.69
614.865	76.69
615.072	76.69
615.28	84.69
615.488	100.69
615.695	94.69
615.903	89.69
616.111	83.69
616.318	82.69
616.526	96.69
616.733	82.69
616.941	98.69
617.148	94.69
617.356	80.69
617.563	77.69
617.771	89.69
617.978	90.69
618.185	86.69
618.393	68.69
618.6	82.69
618.807	104.69
619.015	94.69
619.222	84.69
619.429	86.69
619.637	85.69
619.844	79.69
620.051	91.69
620.258	72.69
620.466	84.69
620.673	75.69
620.88	93.69
621.087	86.69
621.294	94.69
621.501	89.69
621.708	91.69
621.915	86.69
622.122	79.69
622.329	93.69
622.536	86.69
622.743	84.69
622.95	82.69
623.157	84.69
623.364	87.69
623.571	78.69
623.778	82.69
623.985	88.69
624.192	90.69
624.399	97.69
624.606	114.69
624.812	86.69
625.019	75.69
625.226	84.69
625.433	74.69
625.639	93.69
625.846	87.69
626.053	88.69
626.259	88.69
626.466	84.69
626.673	85.69
626.879	83.69
627.086	91.69
627.293	88.69
627.499	86.69
627.706	96.69
627.912	96.69
628.119	91.69
628.325	87.69
628.532	91.69
628.738	78.69
628.945	88.69
629.151	92.69
629.357	85.69
629.564	85.69
629.77	83.69
629.976	75.69
630.183	72.69
630.389	73.69
630.595	70.69
630.802	90.69
631.008	97.69
631.214	75.69
631.42	78.69
631.627	93.69
631.833	84.69
632.039	98.69
632.245	82.69
632.451	91.69
632.657	88.69
632.863	75.69
633.069	84.69
633.275	85.69
633.481	90.69
633.688	81.69
633.893	80.69
634.099	93.69
634.305	85.69
634.511	92.69
634.717	71.69
634.923	84.69
635.129	73.69
635.335	82.69
635.541	72.69
635.747	78.69
635.952	86.69
636.158	87.69
636.364	96.69
636.57	91.69
636.775	70.69
636.981	85.69
637.187	70.69
637.392	87.69
637.598	90.69
637.804	91.69
638.009	87.69
638.215	89.69
638.421	91.69
638.626	94.69
638.832	84.69
639.037	91.69
639.243	98.69
639.448	84.69
639.654	88.69
639.859	79.69
640.065	73.69
640.27	81.69
640.475	88.69
640.681	87.69
640.886	88.69
641.091	88.69
641.297	87.69
641.502	95.69
641.707	83.69
641.913	92.69
642.118	71.69
642.323	76.69
642.528	66.69
642.733	85.69
642.939	94.69
643.144	88.69
643.349	83.69
643.554	95.69
643.759	79.69
643.964	96.69
644.169	92.69
644.374	74.69
644.579	80.69
644.784	89.69
644.989	82.69
645.194	71.69
645.399	92.69
645.604	93.69
645.809	103.69
646.014	79.69
646.219	86.69
646.423	82.69
646.628	80.69
646.833	91.69
647.038	89.69
647.243	94.69
647.447	86.69
647.652	88.69
647.857	73.69
648.062	82.69
648.266	87.69
648.471	94.69
648.676	86.69
648.88	91.69
649.085	86.69
649.289	89.69
649.494	105.69
649.698	122.69
649.903	93.69
650.107	94.69
650.312	104.69
650.516	74.69
650.721	91.69
650.925	78.69
651.13	78.69
651.334	89.69
651.539	91.69
651.743	79.69
651.947	90.69
652.152	76.69
652.356	88.69
652.56	72.69
652.764	83.69
652.969	91.69
653.173	82.69
653.377	79.69
653.581	90.69
653.785	80.69
653.99	90.69
654.194	74.69
654.398	85.69
654.602	84.69
654.806	70.69
655.01	96.69
655.214	78.69
655.418	92.69
655.622	71.69
655.826	83.69
656.03	82.69
656.234	98.69
656.438	95.69
656.642	89.69
656.846	88.69
657.049	75.69
657.253	82.69
657.457	81.69
657.661	86.69
657.865	78.69
658.068	83.69
658.272	80.69
658.476	83.69
658.68	67.69
658.883	90.69
659.087	86.69
659.291	82.69
659.494	81.69
659.698	96.69
659.901	87.69
660.105	62.69
660.309	86.69
660.512	82.69
660.716	81.69
660.919	86.69
661.123	86.69
661.326	89.69
661.53	86.69
661.733	92.69
661.936	84.69
662.14	95.69
662.343	92.69
662.546	74.69
662.75	78.69
662.953	80.69
663.156	86.69
663.36	91.69
663.563	84.69
663.766	79.69
663.969	83.69
664.173	68.69
664.376	81.69
664.579	70.69
664.782	87.69
664.985	84.69
665.188	84.69
665.391	89.69
665.594	91.69
665.797	78.69
666	72.69
666.203	79.69
666.406	78.69
666.609	91.69
666.812	88.69
667.015	82.69
667.218	87.69
667.421	80.69
667.624	89.69
667.827	97.69
668.03	77.69
668.232	78.69
668.435	89.69
668.638	69.69
668.841	91.69
669.043	92.69
669.246	82.69
669.449	76.69
669.651	82.69
669.854	92.69
670.057	86.69
670.259	67.69
670.462	82.69
670.665	78.69
670.867	90.69
671.07	71.69
671.272	91.69
671.475	76.69
671.677	91.69
671.88	86.69
672.082	84.69
672.284	75.69
672.487	78.69
672.689	78.69
672.892	79.69
