Data from Uncirc_1985_H10_HRD10591_00065.txt Node
Date: Wed Jan 03 12:18:30 EST 2024
User: Yrep
Spectrometer: HR+D1059
Trigger mode: 1
Integration Time (sec): 1.000000E-1
Scans to average: 1
Electric dark correction enabled: true
Nonlinearity correction enabled: false
Boxcar width: 0
XAxis mode: Wavelengths
Number of Pixels in Spectrum: 2048
>>>>>Begin Spectral Data<<<<<
223.165	-3.44
223.4	-3.44
223.635	-3.44
223.869	-29.44
224.104	-26.44
224.338	-12.44
224.573	-13.44
224.808	-17.44
225.042	-23.44
225.277	-2.44
225.511	-3.44
225.746	8.56
225.98	11.56
226.215	14.56
226.449	14.56
226.683	29.56
226.918	26.56
227.152	26.56
227.387	26.56
227.621	44.56
227.856	47.56
228.09	44.56
228.324	49.56
228.559	49.56
228.793	53.56
229.027	53.56
229.262	56.56
229.496	61.56
229.73	95.56
229.964	90.56
230.199	69.56
230.433	61.56
230.667	81.56
230.901	83.56
231.136	71.56
231.37	83.56
231.604	90.56
231.838	78.56
232.072	84.56
232.306	81.56
232.541	97.56
232.775	92.56
233.009	75.56
233.243	82.56
233.477	93.56
233.711	88.56
233.945	88.56
234.179	57.56
234.413	73.56
234.647	85.56
234.881	76.56
235.115	76.56
235.349	74.56
235.583	87.56
235.817	86.56
236.051	80.56
236.285	71.56
236.519	61.56
236.753	70.56
236.987	84.56
237.221	74.56
237.455	96.56
237.689	80.56
237.922	73.56
238.156	86.56
238.39	73.56
238.624	82.56
238.858	88.56
239.091	85.56
239.325	78.56
239.559	78.56
239.793	88.56
240.027	78.56
240.26	77.56
240.494	77.56
240.728	82.56
240.961	77.56
241.195	80.56
241.429	86.56
241.662	86.56
241.896	71.56
242.13	69.56
242.363	75.56
242.597	77.56
242.83	96.56
243.064	94.56
243.298	82.56
243.531	86.56
243.765	81.56
243.998	82.56
244.232	88.56
244.465	89.56
244.699	79.56
244.932	71.56
245.166	64.56
245.399	68.56
245.633	82.56
245.866	82.56
246.099	78.56
246.333	78.56
246.566	80.56
246.8	84.56
247.033	76.56
247.266	84.56
247.5	82.56
247.733	80.56
247.966	97.56
248.2	85.56
248.433	80.56
248.666	80.56
248.899	72.56
249.133	89.56
249.366	93.56
249.599	106.56
249.832	90.56
250.066	77.56
250.299	94.56
250.532	73.56
250.765	77.56
250.998	89.56
251.231	87.56
251.465	75.56
251.698	80.56
251.931	86.56
252.164	93.56
252.397	94.56
252.63	101.56
252.863	88.56
253.096	75.56
253.329	94.56
253.562	78.56
253.795	73.56
254.028	60.56
254.261	88.56
254.494	87.56
254.727	79.56
254.96	75.56
255.193	74.56
255.426	76.56
255.659	94.56
255.892	87.56
256.124	82.56
256.357	78.56
256.59	81.56
256.823	91.56
257.056	87.56
257.289	99.56
257.521	84.56
257.754	94.56
257.987	75.56
258.22	94.56
258.452	96.56
258.685	104.56
258.918	84.56
259.151	74.56
259.383	98.56
259.616	78.56
259.849	76.56
260.081	62.56
260.314	88.56
260.547	96.56
260.779	81.56
261.012	89.56
261.244	99.56
261.477	89.56
261.71	109.56
261.942	114.56
262.175	130.56
262.407	102.56
262.64	89.56
262.872	86.56
263.105	86.56
263.337	100.56
263.57	81.56
263.802	80.56
264.035	88.56
264.267	100.56
264.499	90.56
264.732	84.56
264.964	101.56
265.197	87.56
265.429	68.56
265.661	96.56
265.894	95.56
266.126	65.56
266.358	82.56
266.591	87.56
266.823	85.56
267.055	94.56
267.287	96.56
267.52	77.56
267.752	81.56
267.984	85.56
268.216	76.56
268.448	90.56
268.681	75.56
268.913	86.56
269.145	77.56
269.377	84.56
269.609	93.56
269.841	91.56
270.073	60.56
270.306	80.56
270.538	98.56
270.77	88.56
271.002	80.56
271.234	88.56
271.466	91.56
271.698	90.56
271.93	84.56
272.162	81.56
272.394	94.56
272.626	85.56
272.858	107.56
273.09	82.56
273.322	94.56
273.553	87.56
273.785	97.56
274.017	88.56
274.249	83.56
274.481	69.56
274.713	87.56
274.945	96.56
275.176	94.56
275.408	98.56
275.64	84.56
275.872	94.56
276.104	84.56
276.335	89.56
276.567	110.56
276.799	112.56
277.031	88.56
277.262	95.56
277.494	100.56
277.726	98.56
277.957	86.56
278.189	108.56
278.421	83.56
278.652	92.56
278.884	102.56
279.115	92.56
279.347	94.56
279.579	86.56
279.81	85.56
280.042	100.56
280.273	90.56
280.505	74.56
280.736	73.56
280.968	81.56
281.199	88.56
281.431	92.56
281.662	87.56
281.894	89.56
282.125	107.56
282.356	132.56
282.588	145.56
282.819	130.56
283.051	106.56
283.282	93.56
283.513	91.56
283.745	99.56
283.976	91.56
284.207	85.56
284.439	92.56
284.67	80.56
284.901	77.56
285.132	98.56
285.364	82.56
285.595	105.56
285.826	78.56
286.057	98.56
286.288	93.56
286.52	88.56
286.751	82.56
286.982	86.56
287.213	91.56
287.444	76.56
287.675	94.56
287.906	88.56
288.138	100.56
288.369	99.56
288.6	97.56
288.831	81.56
289.062	98.56
289.293	101.56
289.524	100.56
289.755	95.56
289.986	81.56
290.217	89.56
290.448	78.56
290.679	70.56
290.91	84.56
291.141	84.56
291.371	74.56
291.602	92.56
291.833	90.56
292.064	83.56
292.295	93.56
292.526	93.56
292.757	94.56
292.987	91.56
293.218	82.56
293.449	91.56
293.68	99.56
293.91	94.56
294.141	80.56
294.372	74.56
294.603	80.56
294.833	96.56
295.064	79.56
295.295	84.56
295.525	101.56
295.756	105.56
295.987	120.56
296.217	168.56
296.448	137.56
296.679	88.56
296.909	87.56
297.14	89.56
297.37	87.56
297.601	92.56
297.831	91.56
298.062	100.56
298.292	99.56
298.523	93.56
298.753	80.56
298.984	84.56
299.214	89.56
299.445	108.56
299.675	90.56
299.905	100.56
300.136	86.56
300.366	106.56
300.597	88.56
300.827	96.56
301.057	105.56
301.288	100.56
301.518	94.56
301.748	89.56
301.979	104.56
302.209	96.56
302.439	96.56
302.669	95.56
302.9	84.56
303.13	102.56
303.36	101.56
303.59	107.56
303.82	116.56
304.051	89.56
304.281	93.56
304.511	94.56
304.741	99.56
304.971	83.56
305.201	90.56
305.431	95.56
305.661	88.56
305.891	90.56
306.121	89.56
306.352	118.56
306.582	104.56
306.812	102.56
307.042	88.56
307.272	92.56
307.502	105.56
307.731	92.56
307.961	85.56
308.191	86.56
308.421	85.56
308.651	82.56
308.881	99.56
309.111	96.56
309.341	95.56
309.571	93.56
309.8	92.56
310.03	91.56
310.26	100.56
310.49	97.56
310.72	107.56
310.949	106.56
311.179	88.56
311.409	85.56
311.639	87.56
311.868	96.56
312.098	102.56
312.328	107.56
312.557	92.56
312.787	105.56
313.017	110.56
313.246	105.56
313.476	83.56
313.706	90.56
313.935	108.56
314.165	94.56
314.394	122.56
314.624	105.56
314.853	94.56
315.083	85.56
315.312	89.56
315.542	93.56
315.771	89.56
316.001	92.56
316.23	85.56
316.46	98.56
316.689	84.56
316.919	86.56
317.148	104.56
317.377	91.56
317.607	100.56
317.836	105.56
318.065	101.56
318.295	105.56
318.524	107.56
318.753	93.56
318.983	88.56
319.212	110.56
319.441	116.56
319.67	114.56
319.9	96.56
320.129	97.56
320.358	101.56
320.587	95.56
320.816	105.56
321.046	108.56
321.275	98.56
321.504	93.56
321.733	96.56
321.962	100.56
322.191	104.56
322.42	109.56
322.649	111.56
322.878	119.56
323.108	126.56
323.337	132.56
323.566	142.56
323.795	170.56
324.024	249.56
324.253	457.56
324.482	1030.56
324.71	2117.56
324.939	2940.56
325.168	1011.56
325.397	273.56
325.626	169.56
325.855	133.56
326.084	146.56
326.313	150.56
326.542	184.56
326.77	278.56
326.999	534.56
327.228	1150.56
327.457	2174.56
327.686	1743.56
327.914	453.56
328.143	227.56
328.372	184.56
328.6	135.56
328.829	139.56
329.058	138.56
329.287	130.56
329.515	108.56
329.744	112.56
329.972	110.56
330.201	114.56
330.43	150.56
330.658	131.56
330.887	171.56
331.115	139.56
331.344	124.56
331.572	108.56
331.801	104.56
332.03	114.56
332.258	118.56
332.486	103.56
332.715	94.56
332.943	94.56
333.172	99.56
333.4	94.56
333.629	109.56
333.857	106.56
334.085	119.56
334.314	116.56
334.542	166.56
334.771	149.56
334.999	114.56
335.227	91.56
335.455	104.56
335.684	102.56
335.912	101.56
336.14	99.56
336.369	117.56
336.597	115.56
336.825	111.56
337.053	98.56
337.281	81.56
337.51	97.56
337.738	100.56
337.966	93.56
338.194	123.56
338.422	111.56
338.65	102.56
338.878	85.56
339.106	78.56
339.334	103.56
339.562	91.56
339.79	85.56
340.018	89.56
340.246	100.56
340.474	96.56
340.702	97.56
340.93	100.56
341.158	85.56
341.386	103.56
341.614	99.56
341.842	94.56
342.07	112.56
342.298	94.56
342.526	99.56
342.754	95.56
342.981	88.56
343.209	88.56
343.437	105.56
343.665	91.56
343.893	86.56
344.12	81.56
344.348	97.56
344.576	82.56
344.804	88.56
345.031	104.56
345.259	95.56
345.487	88.56
345.714	109.56
345.942	96.56
346.17	92.56
346.397	97.56
346.625	113.56
346.853	99.56
347.08	107.56
347.308	96.56
347.535	100.56
347.763	112.56
347.99	96.56
348.218	102.56
348.445	126.56
348.673	92.56
348.9	101.56
349.128	85.56
349.355	94.56
349.583	88.56
349.81	86.56
350.037	97.56
350.265	102.56
350.492	88.56
350.72	91.56
350.947	93.56
351.174	116.56
351.402	120.56
351.629	110.56
351.856	106.56
352.083	119.56
352.311	107.56
352.538	105.56
352.765	108.56
352.992	117.56
353.22	127.56
353.447	98.56
353.674	104.56
353.901	99.56
354.128	96.56
354.355	96.56
354.583	88.56
354.81	82.56
355.037	100.56
355.264	98.56
355.491	102.56
355.718	94.56
355.945	92.56
356.172	102.56
356.399	101.56
356.626	90.56
356.853	96.56
357.08	89.56
357.307	109.56
357.534	89.56
357.761	104.56
357.988	99.56
358.215	98.56
358.441	84.56
358.668	105.56
358.895	101.56
359.122	89.56
359.349	97.56
359.576	93.56
359.802	117.56
360.029	127.56
360.256	123.56
360.483	107.56
360.709	76.56
360.936	100.56
361.163	100.56
361.39	107.56
361.616	90.56
361.843	87.56
362.07	93.56
362.296	103.56
362.523	93.56
362.749	107.56
362.976	99.56
363.203	104.56
363.429	86.56
363.656	91.56
363.882	108.56
364.109	109.56
364.335	96.56
364.562	106.56
364.788	104.56
365.015	111.56
365.241	98.56
365.468	117.56
365.694	101.56
365.92	89.56
366.147	100.56
366.373	98.56
366.599	86.56
366.826	86.56
367.052	103.56
367.278	101.56
367.505	90.56
367.731	102.56
367.957	92.56
368.184	103.56
368.41	100.56
368.636	118.56
368.862	138.56
369.089	118.56
369.315	98.56
369.541	100.56
369.767	107.56
369.993	93.56
370.219	103.56
370.445	81.56
370.672	83.56
370.898	88.56
371.124	92.56
371.35	91.56
371.576	95.56
371.802	94.56
372.028	80.56
372.254	88.56
372.48	92.56
372.706	96.56
372.932	86.56
373.158	99.56
373.384	76.56
373.61	91.56
373.835	89.56
374.061	101.56
374.287	97.56
374.513	93.56
374.739	96.56
374.965	85.56
375.191	98.56
375.416	92.56
375.642	88.56
375.868	92.56
376.094	94.56
376.319	99.56
376.545	98.56
376.771	93.56
376.997	92.56
377.222	118.56
377.448	85.56
377.674	83.56
377.899	85.56
378.125	84.56
378.35	96.56
378.576	82.56
378.802	100.56
379.027	93.56
379.253	102.56
379.478	95.56
379.704	102.56
379.929	91.56
380.155	100.56
380.38	98.56
380.606	95.56
380.831	99.56
381.057	96.56
381.282	96.56
381.507	88.56
381.733	77.56
381.958	100.56
382.184	104.56
382.409	103.56
382.634	110.56
382.86	103.56
383.085	87.56
383.31	99.56
383.535	97.56
383.761	105.56
383.986	102.56
384.211	99.56
384.436	98.56
384.662	118.56
384.887	87.56
385.112	91.56
385.337	102.56
385.562	108.56
385.787	105.56
386.013	112.56
386.238	117.56
386.463	107.56
386.688	107.56
386.913	101.56
387.138	103.56
387.363	103.56
387.588	105.56
387.813	99.56
388.038	96.56
388.263	99.56
388.488	97.56
388.713	102.56
388.938	80.56
389.163	97.56
389.387	87.56
389.612	103.56
389.837	96.56
390.062	86.56
390.287	99.56
390.512	74.56
390.736	80.56
390.961	93.56
391.186	85.56
391.411	97.56
391.636	87.56
391.86	83.56
392.085	89.56
392.31	82.56
392.534	96.56
392.759	84.56
392.984	83.56
393.208	93.56
393.433	92.56
393.658	98.56
393.882	82.56
394.107	87.56
394.331	85.56
394.556	94.56
394.78	93.56
395.005	86.56
395.229	84.56
395.454	95.56
395.678	84.56
395.903	94.56
396.127	102.56
396.352	82.56
396.576	72.56
396.801	75.56
397.025	91.56
397.249	87.56
397.474	92.56
397.698	86.56
397.922	84.56
398.147	69.56
398.371	85.56
398.595	88.56
398.82	87.56
399.044	97.56
399.268	84.56
399.492	86.56
399.717	94.56
399.941	91.56
400.165	89.56
400.389	93.56
400.613	80.56
400.837	82.56
401.062	92.56
401.286	86.56
401.51	82.56
401.734	110.56
401.958	109.56
402.182	140.56
402.406	185.56
402.63	105.56
402.854	100.56
403.078	91.56
403.302	78.56
403.526	101.56
403.75	89.56
403.974	103.56
404.198	105.56
404.422	102.56
404.645	77.56
404.869	94.56
405.093	91.56
405.317	102.56
405.541	101.56
405.765	109.56
405.988	118.56
406.212	195.56
406.436	281.56
406.66	173.56
406.883	113.56
407.107	108.56
407.331	109.56
407.555	110.56
407.778	110.56
408.002	91.56
408.226	94.56
408.449	103.56
408.673	92.56
408.896	75.56
409.12	93.56
409.344	92.56
409.567	100.56
409.791	105.56
410.014	89.56
410.238	104.56
410.461	94.56
410.685	95.56
410.908	86.56
411.132	104.56
411.355	114.56
411.578	93.56
411.802	89.56
412.025	92.56
412.249	89.56
412.472	118.56
412.695	98.56
412.919	68.56
413.142	96.56
413.365	86.56
413.589	97.56
413.812	86.56
414.035	103.56
414.258	81.56
414.482	88.56
414.705	95.56
414.928	85.56
415.151	99.56
415.374	104.56
415.597	85.56
415.821	82.56
416.044	95.56
416.267	101.56
416.49	97.56
416.713	88.56
416.936	92.56
417.159	88.56
417.382	92.56
417.605	91.56
417.828	107.56
418.051	101.56
418.274	97.56
418.497	98.56
418.72	89.56
418.943	96.56
419.166	98.56
419.389	97.56
419.611	73.56
419.834	87.56
420.057	97.56
420.28	78.56
420.503	90.56
420.726	85.56
420.948	96.56
421.171	99.56
421.394	93.56
421.617	81.56
421.839	84.56
422.062	94.56
422.285	99.56
422.507	83.56
422.73	111.56
422.953	97.56
423.175	79.56
423.398	97.56
423.621	90.56
423.843	98.56
424.066	91.56
424.288	96.56
424.511	97.56
424.733	115.56
424.956	113.56
425.178	85.56
425.401	118.56
425.623	112.56
425.846	89.56
426.068	109.56
426.291	99.56
426.513	85.56
426.735	90.56
426.958	99.56
427.18	111.56
427.402	139.56
427.625	187.56
427.847	146.56
428.069	122.56
428.292	91.56
428.514	99.56
428.736	97.56
428.958	101.56
429.181	90.56
429.403	100.56
429.625	79.56
429.847	96.56
430.069	110.56
430.292	114.56
430.514	76.56
430.736	75.56
430.958	92.56
431.18	93.56
431.402	89.56
431.624	92.56
431.846	89.56
432.068	100.56
432.29	85.56
432.512	101.56
432.734	85.56
432.956	102.56
433.178	93.56
433.4	98.56
433.622	106.56
433.844	105.56
434.066	93.56
434.287	89.56
434.509	82.56
434.731	90.56
434.953	84.56
435.175	78.56
435.397	99.56
435.618	93.56
435.84	109.56
436.062	135.56
436.284	122.56
436.505	106.56
436.727	104.56
436.949	98.56
437.17	94.56
437.392	90.56
437.614	101.56
437.835	114.56
438.057	126.56
438.278	114.56
438.5	101.56
438.721	107.56
438.943	102.56
439.165	97.56
439.386	105.56
439.608	93.56
439.829	105.56
440.05	129.56
440.272	149.56
440.493	100.56
440.715	80.56
440.936	73.56
441.158	86.56
441.379	77.56
441.6	90.56
441.822	105.56
442.043	98.56
442.264	114.56
442.486	107.56
442.707	100.56
442.928	109.56
443.149	158.56
443.371	144.56
443.592	127.56
443.813	111.56
444.034	117.56
444.255	101.56
444.476	77.56
444.698	100.56
444.919	90.56
445.14	136.56
445.361	132.56
445.582	128.56
445.803	166.56
446.024	151.56
446.245	144.56
446.466	112.56
446.687	98.56
446.908	93.56
447.129	86.56
447.35	88.56
447.571	97.56
447.792	87.56
448.013	84.56
448.234	113.56
448.455	99.56
448.675	121.56
448.896	116.56
449.117	100.56
449.338	90.56
449.559	136.56
449.779	130.56
450	98.56
450.221	93.56
450.442	98.56
450.662	84.56
450.883	109.56
451.104	138.56
451.324	101.56
451.545	94.56
451.766	81.56
451.986	81.56
452.207	69.56
452.428	102.56
452.648	94.56
452.869	121.56
453.089	136.56
453.31	124.56
453.53	112.56
453.751	98.56
453.971	120.56
454.192	114.56
454.412	93.56
454.633	89.56
454.853	90.56
455.073	99.56
455.294	87.56
455.514	104.56
455.734	98.56
455.955	67.56
456.175	77.56
456.395	81.56
456.616	74.56
456.836	91.56
457.056	84.56
457.276	100.56
457.497	92.56
457.717	94.56
457.937	86.56
458.157	87.56
458.377	92.56
458.598	108.56
458.818	171.56
459.038	181.56
459.258	130.56
459.478	93.56
459.698	98.56
459.918	88.56
460.138	97.56
460.358	96.56
460.578	91.56
460.798	95.56
461.018	85.56
461.238	80.56
461.458	85.56
461.678	89.56
461.898	77.56
462.118	92.56
462.338	82.56
462.558	84.56
462.777	83.56
462.997	94.56
463.217	81.56
463.437	94.56
463.657	97.56
463.876	102.56
464.096	83.56
464.316	104.56
464.536	81.56
464.755	96.56
464.975	133.56
465.195	203.56
465.414	174.56
465.634	105.56
465.854	93.56
466.073	91.56
466.293	95.56
466.512	84.56
466.732	72.56
466.951	103.56
467.171	103.56
467.391	105.56
467.61	104.56
467.829	89.56
468.049	103.56
468.268	113.56
468.488	100.56
468.707	90.56
468.927	90.56
469.146	97.56
469.365	84.56
469.585	108.56
469.804	112.56
470.023	108.56
470.243	93.56
470.462	114.56
470.681	114.56
470.901	106.56
471.12	93.56
471.339	75.56
471.558	88.56
471.777	97.56
471.997	98.56
472.216	126.56
472.435	170.56
472.654	110.56
472.873	93.56
473.092	93.56
473.311	70.56
473.53	90.56
473.749	92.56
473.968	97.56
474.187	96.56
474.406	109.56
474.625	76.56
474.844	93.56
475.063	96.56
475.282	84.56
475.501	93.56
475.72	93.56
475.939	92.56
476.158	87.56
476.377	101.56
476.596	84.56
476.814	104.56
477.033	117.56
477.252	98.56
477.471	97.56
477.69	86.56
477.908	84.56
478.127	94.56
478.346	89.56
478.564	84.56
478.783	100.56
479.002	91.56
479.22	88.56
479.439	99.56
479.658	104.56
479.876	109.56
480.095	99.56
480.313	101.56
480.532	96.56
480.751	89.56
480.969	128.56
481.188	243.56
481.406	180.56
481.624	96.56
481.843	98.56
482.061	98.56
482.28	99.56
482.498	87.56
482.717	85.56
482.935	91.56
483.153	117.56
483.372	94.56
483.59	98.56
483.808	90.56
484.027	90.56
484.245	118.56
484.463	95.56
484.681	92.56
484.9	88.56
485.118	82.56
485.336	103.56
485.554	95.56
485.772	90.56
485.99	105.56
486.209	102.56
486.427	103.56
486.645	101.56
486.863	114.56
487.081	96.56
487.299	97.56
487.517	100.56
487.735	96.56
487.953	88.56
488.171	73.56
488.389	100.56
488.607	107.56
488.825	84.56
489.043	85.56
489.261	97.56
489.479	97.56
489.696	78.56
489.914	88.56
490.132	93.56
490.35	99.56
490.568	80.56
490.786	83.56
491.003	81.56
491.221	85.56
491.439	100.56
491.657	87.56
491.874	85.56
492.092	92.56
492.31	96.56
492.527	102.56
492.745	108.56
492.963	90.56
493.18	89.56
493.398	81.56
493.615	79.56
493.833	102.56
494.05	88.56
494.268	84.56
494.485	76.56
494.703	94.56
494.92	87.56
495.138	87.56
495.355	91.56
495.573	100.56
495.79	84.56
496.008	93.56
496.225	83.56
496.442	84.56
496.66	91.56
496.877	80.56
497.094	82.56
497.312	86.56
497.529	102.56
497.746	93.56
497.963	98.56
498.181	96.56
498.398	87.56
498.615	119.56
498.832	93.56
499.049	91.56
499.267	81.56
499.484	100.56
499.701	98.56
499.918	87.56
500.135	87.56
500.352	97.56
500.569	97.56
500.786	105.56
501.003	103.56
501.22	92.56
501.437	103.56
501.654	101.56
501.871	120.56
502.088	90.56
502.305	88.56
502.522	104.56
502.739	112.56
502.956	102.56
503.172	88.56
503.389	94.56
503.606	134.56
503.823	88.56
504.04	90.56
504.256	80.56
504.473	80.56
504.69	93.56
504.907	97.56
505.123	104.56
505.34	101.56
505.557	94.56
505.773	106.56
505.99	91.56
506.207	85.56
506.423	91.56
506.64	107.56
506.856	104.56
507.073	92.56
507.289	95.56
507.506	108.56
507.722	125.56
507.939	110.56
508.155	111.56
508.372	95.56
508.588	103.56
508.805	104.56
509.021	109.56
509.238	99.56
509.454	104.56
509.67	96.56
509.887	121.56
510.103	145.56
510.319	235.56
510.536	927.56
510.752	3009.56
510.968	782.56
511.184	171.56
511.401	113.56
511.617	93.56
511.833	103.56
512.049	87.56
512.265	83.56
512.481	99.56
512.698	94.56
512.914	81.56
513.13	88.56
513.346	106.56
513.562	89.56
513.778	95.56
513.994	104.56
514.21	101.56
514.426	120.56
514.642	163.56
514.858	153.56
515.074	190.56
515.29	580.56
515.506	1997.56
515.721	723.56
515.937	202.56
516.153	131.56
516.369	126.56
516.585	99.56
516.801	98.56
517.016	76.56
517.232	86.56
517.448	89.56
517.664	106.56
517.879	96.56
518.095	89.56
518.311	86.56
518.527	97.56
518.742	93.56
518.958	108.56
519.173	90.56
519.389	99.56
519.605	94.56
519.82	103.56
520.036	115.56
520.251	131.56
520.467	128.56
520.682	110.56
520.898	115.56
521.113	124.56
521.329	152.56
521.544	256.56
521.76	771.56
521.975	3282.56
522.19	1931.56
522.406	394.56
522.621	157.56
522.836	112.56
523.052	102.56
523.267	101.56
523.482	93.56
523.698	105.56
523.913	136.56
524.128	105.56
524.343	106.56
524.559	105.56
524.774	112.56
524.989	113.56
525.204	106.56
525.419	110.56
525.634	97.56
525.849	89.56
526.064	96.56
526.28	84.56
526.495	94.56
526.71	93.56
526.925	88.56
527.14	84.56
527.355	90.56
527.57	93.56
527.785	96.56
527.999	93.56
528.214	88.56
528.429	110.56
528.644	98.56
528.859	97.56
529.074	104.56
529.289	141.56
529.503	218.56
529.718	130.56
529.933	103.56
530.148	107.56
530.363	94.56
530.577	84.56
530.792	97.56
531.007	100.56
531.221	96.56
531.436	80.56
531.651	103.56
531.865	96.56
532.08	87.56
532.295	92.56
532.509	91.56
532.724	97.56
532.938	99.56
533.153	92.56
533.367	100.56
533.582	98.56
533.796	102.56
534.011	76.56
534.225	96.56
534.44	81.56
534.654	94.56
534.868	76.56
535.083	98.56
535.297	100.56
535.511	105.56
535.726	110.56
535.94	114.56
536.154	96.56
536.369	92.56
536.583	93.56
536.797	101.56
537.011	92.56
537.225	97.56
537.44	90.56
537.654	89.56
537.868	93.56
538.082	98.56
538.296	84.56
538.51	98.56
538.724	93.56
538.938	80.56
539.153	93.56
539.367	109.56
539.581	100.56
539.795	98.56
540.009	89.56
540.222	93.56
540.436	97.56
540.65	102.56
540.864	81.56
541.078	95.56
541.292	77.56
541.506	88.56
541.72	100.56
541.934	89.56
542.147	91.56
542.361	107.56
542.575	96.56
542.789	86.56
543.002	93.56
543.216	112.56
543.43	103.56
543.644	97.56
543.857	98.56
544.071	95.56
544.285	95.56
544.498	102.56
544.712	83.56
544.925	88.56
545.139	94.56
545.352	76.56
545.566	81.56
545.779	96.56
545.993	78.56
546.206	85.56
546.42	96.56
546.633	88.56
546.847	84.56
547.06	108.56
547.274	86.56
547.487	85.56
547.7	89.56
547.914	88.56
548.127	87.56
548.34	90.56
548.554	103.56
548.767	99.56
548.98	100.56
549.193	83.56
549.407	92.56
549.62	82.56
549.833	76.56
550.046	95.56
550.259	82.56
550.473	92.56
550.686	97.56
550.899	82.56
551.112	89.56
551.325	83.56
551.538	93.56
551.751	89.56
551.964	93.56
552.177	98.56
552.39	88.56
552.603	86.56
552.816	89.56
553.029	87.56
553.242	95.56
553.455	95.56
553.667	108.56
553.88	110.56
554.093	95.56
554.306	89.56
554.519	88.56
554.732	93.56
554.944	87.56
555.157	107.56
555.37	84.56
555.583	79.56
555.795	73.56
556.008	95.56
556.221	92.56
556.433	98.56
556.646	92.56
556.859	104.56
557.071	87.56
557.284	88.56
557.496	84.56
557.709	96.56
557.921	87.56
558.134	100.56
558.346	104.56
558.559	106.56
558.771	82.56
558.984	100.56
559.196	105.56
559.409	85.56
559.621	89.56
559.833	92.56
560.046	105.56
560.258	90.56
560.47	82.56
560.683	104.56
560.895	82.56
561.107	81.56
561.32	85.56
561.532	94.56
561.744	96.56
561.956	95.56
562.168	92.56
562.381	86.56
562.593	84.56
562.805	96.56
563.017	80.56
563.229	98.56
563.441	85.56
563.653	81.56
563.865	94.56
564.077	98.56
564.289	94.56
564.501	84.56
564.713	95.56
564.925	105.56
565.137	106.56
565.349	103.56
565.561	95.56
565.773	80.56
565.985	85.56
566.197	89.56
566.408	94.56
566.62	85.56
566.832	89.56
567.044	98.56
567.255	96.56
567.467	88.56
567.679	84.56
567.891	81.56
568.102	82.56
568.314	85.56
568.526	94.56
568.737	76.56
568.949	85.56
569.161	88.56
569.372	97.56
569.584	83.56
569.795	88.56
570.007	110.56
570.218	287.56
570.43	156.56
570.641	80.56
570.853	83.56
571.064	98.56
571.276	92.56
571.487	86.56
571.698	93.56
571.91	80.56
572.121	96.56
572.333	94.56
572.544	77.56
572.755	93.56
572.966	89.56
573.178	92.56
573.389	84.56
573.6	98.56
573.811	73.56
574.023	89.56
574.234	90.56
574.445	95.56
574.656	88.56
574.867	77.56
575.078	95.56
575.289	87.56
575.501	92.56
575.712	94.56
575.923	83.56
576.134	88.56
576.345	81.56
576.556	81.56
576.767	89.56
576.978	100.56
577.188	96.56
577.399	95.56
577.61	109.56
577.821	102.56
578.032	118.56
578.243	336.56
578.454	942.56
578.665	238.56
578.875	107.56
579.086	69.56
579.297	107.56
579.508	103.56
579.718	85.56
579.929	93.56
580.14	92.56
580.35	77.56
580.561	85.56
580.772	86.56
580.982	90.56
581.193	81.56
581.403	92.56
581.614	85.56
581.825	92.56
582.035	94.56
582.246	89.56
582.456	82.56
582.667	82.56
582.877	98.56
583.087	84.56
583.298	93.56
583.508	81.56
583.719	103.56
583.929	88.56
584.139	89.56
584.35	82.56
584.56	86.56
584.77	89.56
584.981	99.56
585.191	94.56
585.401	76.56
585.611	82.56
585.821	90.56
586.032	79.56
586.242	92.56
586.452	92.56
586.662	71.56
586.872	88.56
587.082	85.56
587.292	85.56
587.502	82.56
587.713	102.56
587.923	84.56
588.133	86.56
588.343	89.56
588.553	91.56
588.762	93.56
588.972	94.56
589.182	100.56
589.392	93.56
589.602	93.56
589.812	95.56
590.022	86.56
590.232	84.56
590.441	73.56
590.651	84.56
590.861	90.56
591.071	85.56
591.281	93.56
591.49	86.56
591.7	93.56
591.91	82.56
592.119	73.56
592.329	93.56
592.539	88.56
592.748	81.56
592.958	98.56
593.167	85.56
593.377	82.56
593.587	93.56
593.796	81.56
594.006	85.56
594.215	84.56
594.424	76.56
594.634	96.56
594.843	105.56
595.053	92.56
595.262	94.56
595.472	95.56
595.681	96.56
595.89	83.56
596.1	89.56
596.309	91.56
596.518	90.56
596.727	92.56
596.937	107.56
597.146	90.56
597.355	100.56
597.564	88.56
597.774	101.56
597.983	99.56
598.192	91.56
598.401	78.56
598.61	94.56
598.819	78.56
599.028	86.56
599.237	80.56
599.446	69.56
599.655	76.56
599.864	90.56
600.073	76.56
600.282	100.56
600.491	93.56
600.7	97.56
600.909	79.56
601.118	89.56
601.327	90.56
601.536	92.56
601.745	94.56
601.953	99.56
602.162	89.56
602.371	94.56
602.58	104.56
602.789	101.56
602.997	95.56
603.206	89.56
603.415	96.56
603.623	74.56
603.832	86.56
604.041	73.56
604.249	88.56
604.458	76.56
604.666	91.56
604.875	80.56
605.084	81.56
605.292	85.56
605.501	90.56
605.709	94.56
605.918	99.56
606.126	92.56
606.334	95.56
606.543	92.56
606.751	92.56
606.96	73.56
607.168	74.56
607.376	94.56
607.585	89.56
607.793	91.56
608.001	87.56
608.21	91.56
608.418	87.56
608.626	86.56
608.834	82.56
609.043	84.56
609.251	85.56
609.459	91.56
609.667	94.56
609.875	88.56
610.083	90.56
610.291	89.56
610.499	93.56
610.707	83.56
610.916	89.56
611.124	89.56
611.332	89.56
611.54	79.56
611.748	90.56
611.955	102.56
612.163	102.56
612.371	88.56
612.579	86.56
612.787	74.56
612.995	73.56
613.203	89.56
613.411	69.56
613.618	80.56
613.826	90.56
614.034	103.56
614.242	80.56
614.449	66.56
614.657	74.56
614.865	104.56
615.072	98.56
615.28	90.56
615.488	82.56
615.695	90.56
615.903	97.56
616.111	94.56
616.318	84.56
616.526	89.56
616.733	94.56
616.941	84.56
617.148	91.56
617.356	92.56
617.563	94.56
617.771	81.56
617.978	78.56
618.185	84.56
618.393	86.56
618.6	91.56
618.807	94.56
619.015	82.56
619.222	98.56
619.429	92.56
619.637	103.56
619.844	90.56
620.051	84.56
620.258	80.56
620.466	93.56
620.673	90.56
620.88	85.56
621.087	99.56
621.294	83.56
621.501	94.56
621.708	97.56
621.915	86.56
622.122	89.56
622.329	90.56
622.536	89.56
622.743	98.56
622.95	93.56
623.157	89.56
623.364	86.56
623.571	88.56
623.778	75.56
623.985	87.56
624.192	81.56
624.399	86.56
624.606	91.56
624.812	93.56
625.019	94.56
625.226	85.56
625.433	74.56
625.639	89.56
625.846	84.56
626.053	84.56
626.259	93.56
626.466	81.56
626.673	82.56
626.879	86.56
627.086	93.56
627.293	89.56
627.499	72.56
627.706	88.56
627.912	90.56
628.119	78.56
628.325	87.56
628.532	82.56
628.738	101.56
628.945	90.56
629.151	83.56
629.357	85.56
629.564	88.56
629.77	88.56
629.976	91.56
630.183	89.56
630.389	76.56
630.595	86.56
630.802	85.56
631.008	90.56
631.214	83.56
631.42	104.56
631.627	94.56
631.833	102.56
632.039	91.56
632.245	98.56
632.451	114.56
632.657	90.56
632.863	92.56
633.069	99.56
633.275	100.56
633.481	77.56
633.688	89.56
633.893	101.56
634.099	81.56
634.305	75.56
634.511	97.56
634.717	109.56
634.923	77.56
635.129	81.56
635.335	101.56
635.541	102.56
635.747	96.56
635.952	90.56
636.158	86.56
636.364	109.56
636.57	90.56
636.775	83.56
636.981	93.56
637.187	82.56
637.392	93.56
637.598	73.56
637.804	83.56
638.009	88.56
638.215	86.56
638.421	86.56
638.626	83.56
638.832	85.56
639.037	84.56
639.243	92.56
639.448	88.56
639.654	82.56
639.859	93.56
640.065	86.56
640.27	102.56
640.475	77.56
640.681	92.56
640.886	96.56
641.091	81.56
641.297	86.56
641.502	80.56
641.707	90.56
641.913	98.56
642.118	104.56
642.323	76.56
642.528	92.56
642.733	88.56
642.939	86.56
643.144	90.56
643.349	90.56
643.554	81.56
643.759	94.56
643.964	86.56
644.169	82.56
644.374	77.56
644.579	76.56
644.784	86.56
644.989	86.56
645.194	73.56
645.399	85.56
645.604	75.56
645.809	88.56
646.014	88.56
646.219	92.56
646.423	84.56
646.628	87.56
646.833	82.56
647.038	76.56
647.243	86.56
647.447	87.56
647.652	80.56
647.857	92.56
648.062	81.56
648.266	97.56
648.471	100.56
648.676	100.56
648.88	97.56
649.085	88.56
649.289	93.56
649.494	110.56
649.698	145.56
649.903	115.56
650.107	94.56
650.312	92.56
650.516	86.56
650.721	81.56
650.925	84.56
651.13	85.56
651.334	99.56
651.539	92.56
651.743	98.56
651.947	99.56
652.152	92.56
652.356	88.56
652.56	73.56
652.764	82.56
652.969	86.56
653.173	98.56
653.377	95.56
653.581	94.56
653.785	82.56
653.99	93.56
654.194	68.56
654.398	92.56
654.602	110.56
654.806	100.56
655.01	115.56
655.214	103.56
655.418	94.56
655.622	79.56
655.826	93.56
656.03	87.56
656.234	81.56
656.438	96.56
656.642	99.56
656.846	92.56
657.049	87.56
657.253	90.56
657.457	89.56
657.661	85.56
657.865	83.56
658.068	98.56
658.272	81.56
658.476	89.56
658.68	71.56
658.883	82.56
659.087	84.56
659.291	93.56
659.494	90.56
659.698	100.56
659.901	77.56
660.105	89.56
660.309	86.56
660.512	71.56
660.716	72.56
660.919	96.56
661.123	75.56
661.326	74.56
661.53	94.56
661.733	100.56
661.936	83.56
662.14	86.56
662.343	89.56
662.546	82.56
662.75	71.56
662.953	92.56
663.156	76.56
663.36	78.56
663.563	95.56
663.766	73.56
663.969	65.56
664.173	85.56
664.376	81.56
664.579	72.56
664.782	77.56
664.985	88.56
665.188	86.56
665.391	83.56
665.594	86.56
665.797	86.56
666	83.56
666.203	84.56
666.406	79.56
666.609	82.56
666.812	80.56
667.015	86.56
667.218	100.56
667.421	94.56
667.624	81.56
667.827	92.56
668.03	73.56
668.232	69.56
668.435	86.56
668.638	65.56
668.841	90.56
669.043	90.56
669.246	89.56
669.449	80.56
669.651	80.56
669.854	77.56
670.057	92.56
670.259	82.56
670.462	70.56
670.665	99.56
670.867	74.56
671.07	88.56
671.272	85.56
671.475	83.56
671.677	83.56
671.88	100.56
672.082	89.56
672.284	73.56
672.487	84.56
672.689	84.56
672.892	84.56
