Data from Uncirc_1985_H10_HRD10591_00009.txt Node
Date: Wed Jan 03 12:18:19 EST 2024
User: Yrep
Spectrometer: HR+D1059
Trigger mode: 1
Integration Time (sec): 1.000000E-1
Scans to average: 1
Electric dark correction enabled: true
Nonlinearity correction enabled: false
Boxcar width: 0
XAxis mode: Wavelengths
Number of Pixels in Spectrum: 2048
>>>>>Begin Spectral Data<<<<<
223.165	-1.81
223.4	-1.81
223.635	-1.81
223.869	-25.81
224.104	-30.81
224.338	-22.81
224.573	-17.81
224.808	-15.81
225.042	-21.81
225.277	-15.81
225.511	4.19
225.746	-1.81
225.98	20.19
226.215	7.19
226.449	18.19
226.683	20.19
226.918	34.19
227.152	50.19
227.387	26.19
227.621	41.19
227.856	40.19
228.09	41.19
228.324	43.19
228.559	69.19
228.793	66.19
229.027	70.19
229.262	58.19
229.496	78.19
229.73	75.19
229.964	71.19
230.199	71.19
230.433	80.19
230.667	66.19
230.901	85.19
231.136	67.19
231.37	76.19
231.604	77.19
231.838	80.19
232.072	75.19
232.306	79.19
232.541	84.19
232.775	77.19
233.009	86.19
233.243	75.19
233.477	88.19
233.711	74.19
233.945	65.19
234.179	88.19
234.413	83.19
234.647	76.19
234.881	92.19
235.115	84.19
235.349	75.19
235.583	87.19
235.817	76.19
236.051	89.19
236.285	78.19
236.519	80.19
236.753	74.19
236.987	72.19
237.221	70.19
237.455	77.19
237.689	73.19
237.922	81.19
238.156	81.19
238.39	65.19
238.624	79.19
238.858	76.19
239.091	75.19
239.325	91.19
239.559	80.19
239.793	75.19
240.027	80.19
240.26	68.19
240.494	70.19
240.728	68.19
240.961	74.19
241.195	76.19
241.429	77.19
241.662	91.19
241.896	73.19
242.13	78.19
242.363	85.19
242.597	87.19
242.83	70.19
243.064	69.19
243.298	68.19
243.531	76.19
243.765	75.19
243.998	83.19
244.232	62.19
244.465	80.19
244.699	76.19
244.932	78.19
245.166	83.19
245.399	71.19
245.633	65.19
245.866	82.19
246.099	80.19
246.333	89.19
246.566	81.19
246.8	83.19
247.033	80.19
247.266	76.19
247.5	77.19
247.733	84.19
247.966	80.19
248.2	78.19
248.433	82.19
248.666	86.19
248.899	93.19
249.133	74.19
249.366	98.19
249.599	91.19
249.832	77.19
250.066	83.19
250.299	76.19
250.532	69.19
250.765	84.19
250.998	69.19
251.231	89.19
251.465	75.19
251.698	73.19
251.931	84.19
252.164	88.19
252.397	82.19
252.63	92.19
252.863	78.19
253.096	79.19
253.329	82.19
253.562	74.19
253.795	68.19
254.028	85.19
254.261	86.19
254.494	81.19
254.727	83.19
254.96	84.19
255.193	78.19
255.426	80.19
255.659	84.19
255.892	72.19
256.124	79.19
256.357	80.19
256.59	72.19
256.823	80.19
257.056	83.19
257.289	84.19
257.521	81.19
257.754	78.19
257.987	72.19
258.22	81.19
258.452	82.19
258.685	78.19
258.918	89.19
259.151	80.19
259.383	82.19
259.616	88.19
259.849	86.19
260.081	87.19
260.314	93.19
260.547	82.19
260.779	77.19
261.012	76.19
261.244	73.19
261.477	90.19
261.71	100.19
261.942	94.19
262.175	86.19
262.407	78.19
262.64	91.19
262.872	77.19
263.105	93.19
263.337	90.19
263.57	76.19
263.802	85.19
264.035	76.19
264.267	86.19
264.499	77.19
264.732	76.19
264.964	78.19
265.197	84.19
265.429	80.19
265.661	71.19
265.894	82.19
266.126	84.19
266.358	84.19
266.591	96.19
266.823	82.19
267.055	96.19
267.287	92.19
267.52	86.19
267.752	89.19
267.984	89.19
268.216	88.19
268.448	114.19
268.681	84.19
268.913	87.19
269.145	92.19
269.377	83.19
269.609	108.19
269.841	88.19
270.073	91.19
270.306	72.19
270.538	76.19
270.77	75.19
271.002	85.19
271.234	82.19
271.466	88.19
271.698	85.19
271.93	82.19
272.162	99.19
272.394	92.19
272.626	96.19
272.858	89.19
273.09	91.19
273.322	77.19
273.553	98.19
273.785	83.19
274.017	96.19
274.249	103.19
274.481	98.19
274.713	82.19
274.945	86.19
275.176	90.19
275.408	102.19
275.64	104.19
275.872	83.19
276.104	90.19
276.335	94.19
276.567	89.19
276.799	99.19
277.031	75.19
277.262	75.19
277.494	85.19
277.726	92.19
277.957	96.19
278.189	94.19
278.421	100.19
278.652	89.19
278.884	84.19
279.115	85.19
279.347	92.19
279.579	101.19
279.81	100.19
280.042	101.19
280.273	78.19
280.505	104.19
280.736	77.19
280.968	94.19
281.199	101.19
281.431	87.19
281.662	94.19
281.894	82.19
282.125	94.19
282.356	108.19
282.588	123.19
282.819	109.19
283.051	108.19
283.282	86.19
283.513	88.19
283.745	90.19
283.976	75.19
284.207	108.19
284.439	81.19
284.67	92.19
284.901	88.19
285.132	100.19
285.364	80.19
285.595	75.19
285.826	90.19
286.057	96.19
286.288	96.19
286.52	96.19
286.751	102.19
286.982	96.19
287.213	106.19
287.444	96.19
287.675	85.19
287.906	102.19
288.138	92.19
288.369	95.19
288.6	94.19
288.831	94.19
289.062	97.19
289.293	81.19
289.524	88.19
289.755	81.19
289.986	96.19
290.217	86.19
290.448	81.19
290.679	80.19
290.91	92.19
291.141	81.19
291.371	94.19
291.602	90.19
291.833	85.19
292.064	77.19
292.295	81.19
292.526	93.19
292.757	105.19
292.987	95.19
293.218	90.19
293.449	103.19
293.68	95.19
293.91	95.19
294.141	88.19
294.372	81.19
294.603	84.19
294.833	86.19
295.064	86.19
295.295	100.19
295.525	85.19
295.756	88.19
295.987	99.19
296.217	108.19
296.448	119.19
296.679	84.19
296.909	82.19
297.14	76.19
297.37	76.19
297.601	90.19
297.831	95.19
298.062	98.19
298.292	109.19
298.523	91.19
298.753	87.19
298.984	101.19
299.214	90.19
299.445	97.19
299.675	99.19
299.905	84.19
300.136	87.19
300.366	98.19
300.597	114.19
300.827	100.19
301.057	95.19
301.288	94.19
301.518	97.19
301.748	101.19
301.979	104.19
302.209	82.19
302.439	99.19
302.669	85.19
302.9	98.19
303.13	95.19
303.36	96.19
303.59	94.19
303.82	100.19
304.051	81.19
304.281	92.19
304.511	91.19
304.741	96.19
304.971	88.19
305.201	87.19
305.431	86.19
305.661	98.19
305.891	94.19
306.121	96.19
306.352	96.19
306.582	111.19
306.812	107.19
307.042	86.19
307.272	99.19
307.502	95.19
307.731	108.19
307.961	85.19
308.191	101.19
308.421	92.19
308.651	91.19
308.881	88.19
309.111	86.19
309.341	98.19
309.571	108.19
309.8	111.19
310.03	85.19
310.26	92.19
310.49	93.19
310.72	120.19
310.949	84.19
311.179	88.19
311.409	90.19
311.639	105.19
311.868	107.19
312.098	100.19
312.328	82.19
312.557	88.19
312.787	105.19
313.017	102.19
313.246	94.19
313.476	89.19
313.706	105.19
313.935	90.19
314.165	96.19
314.394	88.19
314.624	94.19
314.853	107.19
315.083	93.19
315.312	95.19
315.542	99.19
315.771	84.19
316.001	104.19
316.23	82.19
316.46	102.19
316.689	89.19
316.919	75.19
317.148	94.19
317.377	84.19
317.607	88.19
317.836	87.19
318.065	96.19
318.295	93.19
318.524	90.19
318.753	98.19
318.983	109.19
319.212	105.19
319.441	96.19
319.67	94.19
319.9	97.19
320.129	84.19
320.358	103.19
320.587	96.19
320.816	85.19
321.046	109.19
321.275	91.19
321.504	100.19
321.733	97.19
321.962	101.19
322.191	110.19
322.42	106.19
322.649	111.19
322.878	100.19
323.108	115.19
323.337	112.19
323.566	115.19
323.795	137.19
324.024	190.19
324.253	322.19
324.482	637.19
324.71	1284.19
324.939	1660.19
325.168	636.19
325.397	199.19
325.626	141.19
325.855	123.19
326.084	105.19
326.313	129.19
326.542	139.19
326.77	190.19
326.999	361.19
327.228	758.19
327.457	1302.19
327.686	1060.19
327.914	303.19
328.143	158.19
328.372	125.19
328.6	117.19
328.829	101.19
329.058	120.19
329.287	96.19
329.515	99.19
329.744	100.19
329.972	96.19
330.201	115.19
330.43	106.19
330.658	103.19
330.887	115.19
331.115	101.19
331.344	95.19
331.572	78.19
331.801	95.19
332.03	104.19
332.258	95.19
332.486	83.19
332.715	88.19
332.943	94.19
333.172	86.19
333.4	103.19
333.629	110.19
333.857	101.19
334.085	115.19
334.314	93.19
334.542	102.19
334.771	104.19
334.999	85.19
335.227	88.19
335.455	92.19
335.684	117.19
335.912	96.19
336.14	92.19
336.369	101.19
336.597	93.19
336.825	93.19
337.053	84.19
337.281	105.19
337.51	89.19
337.738	97.19
337.966	109.19
338.194	82.19
338.422	84.19
338.65	84.19
338.878	99.19
339.106	98.19
339.334	91.19
339.562	99.19
339.79	97.19
340.018	86.19
340.246	97.19
340.474	90.19
340.702	99.19
340.93	92.19
341.158	99.19
341.386	100.19
341.614	96.19
341.842	92.19
342.07	90.19
342.298	86.19
342.526	93.19
342.754	100.19
342.981	93.19
343.209	93.19
343.437	99.19
343.665	74.19
343.893	97.19
344.12	102.19
344.348	91.19
344.576	94.19
344.804	103.19
345.031	79.19
345.259	97.19
345.487	103.19
345.714	89.19
345.942	96.19
346.17	93.19
346.397	93.19
346.625	93.19
346.853	99.19
347.08	104.19
347.308	69.19
347.535	95.19
347.763	95.19
347.99	95.19
348.218	86.19
348.445	91.19
348.673	90.19
348.9	109.19
349.128	100.19
349.355	108.19
349.583	101.19
349.81	94.19
350.037	88.19
350.265	106.19
350.492	104.19
350.72	90.19
350.947	107.19
351.174	105.19
351.402	101.19
351.629	96.19
351.856	107.19
352.083	104.19
352.311	107.19
352.538	103.19
352.765	107.19
352.992	109.19
353.22	110.19
353.447	102.19
353.674	100.19
353.901	103.19
354.128	95.19
354.355	97.19
354.583	93.19
354.81	99.19
355.037	98.19
355.264	105.19
355.491	105.19
355.718	98.19
355.945	90.19
356.172	93.19
356.399	100.19
356.626	98.19
356.853	84.19
357.08	93.19
357.307	109.19
357.534	88.19
357.761	109.19
357.988	104.19
358.215	84.19
358.441	97.19
358.668	105.19
358.895	97.19
359.122	98.19
359.349	75.19
359.576	80.19
359.802	92.19
360.029	83.19
360.256	101.19
360.483	96.19
360.709	94.19
360.936	93.19
361.163	97.19
361.39	94.19
361.616	95.19
361.843	88.19
362.07	97.19
362.296	81.19
362.523	75.19
362.749	97.19
362.976	96.19
363.203	99.19
363.429	82.19
363.656	100.19
363.882	93.19
364.109	90.19
364.335	88.19
364.562	77.19
364.788	100.19
365.015	102.19
365.241	94.19
365.468	100.19
365.694	111.19
365.92	99.19
366.147	93.19
366.373	84.19
366.599	86.19
366.826	88.19
367.052	99.19
367.278	73.19
367.505	78.19
367.731	91.19
367.957	93.19
368.184	92.19
368.41	107.19
368.636	107.19
368.862	109.19
369.089	114.19
369.315	75.19
369.541	92.19
369.767	84.19
369.993	96.19
370.219	110.19
370.445	90.19
370.672	83.19
370.898	99.19
371.124	100.19
371.35	109.19
371.576	89.19
371.802	83.19
372.028	97.19
372.254	86.19
372.48	91.19
372.706	93.19
372.932	86.19
373.158	99.19
373.384	92.19
373.61	83.19
373.835	86.19
374.061	85.19
374.287	97.19
374.513	94.19
374.739	91.19
374.965	93.19
375.191	95.19
375.416	104.19
375.642	82.19
375.868	88.19
376.094	104.19
376.319	88.19
376.545	106.19
376.771	87.19
376.997	91.19
377.222	105.19
377.448	86.19
377.674	77.19
377.899	86.19
378.125	96.19
378.35	87.19
378.576	96.19
378.802	97.19
379.027	93.19
379.253	98.19
379.478	86.19
379.704	96.19
379.929	90.19
380.155	113.19
380.38	94.19
380.606	92.19
380.831	103.19
381.057	98.19
381.282	98.19
381.507	96.19
381.733	88.19
381.958	94.19
382.184	108.19
382.409	104.19
382.634	114.19
382.86	93.19
383.085	96.19
383.31	99.19
383.535	111.19
383.761	102.19
383.986	90.19
384.211	91.19
384.436	96.19
384.662	108.19
384.887	99.19
385.112	95.19
385.337	93.19
385.562	105.19
385.787	98.19
386.013	114.19
386.238	114.19
386.463	111.19
386.688	117.19
386.913	92.19
387.138	113.19
387.363	113.19
387.588	100.19
387.813	113.19
388.038	100.19
388.263	117.19
388.488	94.19
388.713	93.19
388.938	94.19
389.163	107.19
389.387	97.19
389.612	88.19
389.837	85.19
390.062	94.19
390.287	100.19
390.512	92.19
390.736	93.19
390.961	98.19
391.186	99.19
391.411	100.19
391.636	105.19
391.86	91.19
392.085	89.19
392.31	99.19
392.534	94.19
392.759	78.19
392.984	97.19
393.208	81.19
393.433	86.19
393.658	87.19
393.882	96.19
394.107	77.19
394.331	92.19
394.556	87.19
394.78	91.19
395.005	76.19
395.229	82.19
395.454	84.19
395.678	86.19
395.903	89.19
396.127	96.19
396.352	82.19
396.576	97.19
396.801	91.19
397.025	92.19
397.249	88.19
397.474	99.19
397.698	92.19
397.922	84.19
398.147	81.19
398.371	89.19
398.595	98.19
398.82	76.19
399.044	77.19
399.268	83.19
399.492	85.19
399.717	81.19
399.941	92.19
400.165	98.19
400.389	97.19
400.613	103.19
400.837	92.19
401.062	90.19
401.286	93.19
401.51	98.19
401.734	82.19
401.958	95.19
402.182	119.19
402.406	128.19
402.63	121.19
402.854	74.19
403.078	90.19
403.302	84.19
403.526	95.19
403.75	91.19
403.974	101.19
404.198	95.19
404.422	93.19
404.645	94.19
404.869	80.19
405.093	92.19
405.317	108.19
405.541	82.19
405.765	91.19
405.988	102.19
406.212	135.19
406.436	181.19
406.66	127.19
406.883	96.19
407.107	78.19
407.331	93.19
407.555	88.19
407.778	99.19
408.002	97.19
408.226	99.19
408.449	92.19
408.673	77.19
408.896	92.19
409.12	96.19
409.344	82.19
409.567	83.19
409.791	85.19
410.014	101.19
410.238	89.19
410.461	92.19
410.685	94.19
410.908	83.19
411.132	97.19
411.355	100.19
411.578	97.19
411.802	81.19
412.025	86.19
412.249	94.19
412.472	96.19
412.695	92.19
412.919	74.19
413.142	88.19
413.365	82.19
413.589	97.19
413.812	88.19
414.035	96.19
414.258	100.19
414.482	98.19
414.705	92.19
414.928	80.19
415.151	97.19
415.374	86.19
415.597	102.19
415.821	90.19
416.044	81.19
416.267	91.19
416.49	94.19
416.713	81.19
416.936	92.19
417.159	77.19
417.382	87.19
417.605	101.19
417.828	109.19
418.051	89.19
418.274	77.19
418.497	72.19
418.72	86.19
418.943	82.19
419.166	99.19
419.389	105.19
419.611	83.19
419.834	92.19
420.057	81.19
420.28	92.19
420.503	94.19
420.726	76.19
420.948	76.19
421.171	82.19
421.394	104.19
421.617	73.19
421.839	91.19
422.062	107.19
422.285	90.19
422.507	81.19
422.73	113.19
422.953	97.19
423.175	83.19
423.398	71.19
423.621	85.19
423.843	89.19
424.066	78.19
424.288	96.19
424.511	94.19
424.733	101.19
424.956	102.19
425.178	89.19
425.401	92.19
425.623	103.19
425.846	100.19
426.068	97.19
426.291	96.19
426.513	91.19
426.735	102.19
426.958	79.19
427.18	110.19
427.402	138.19
427.625	151.19
427.847	111.19
428.069	108.19
428.292	83.19
428.514	87.19
428.736	107.19
428.958	87.19
429.181	95.19
429.403	102.19
429.625	96.19
429.847	90.19
430.069	92.19
430.292	88.19
430.514	83.19
430.736	84.19
430.958	97.19
431.18	90.19
431.402	80.19
431.624	86.19
431.846	62.19
432.068	82.19
432.29	80.19
432.512	83.19
432.734	92.19
432.956	96.19
433.178	99.19
433.4	110.19
433.622	95.19
433.844	81.19
434.066	95.19
434.287	98.19
434.509	92.19
434.731	89.19
434.953	93.19
435.175	81.19
435.397	95.19
435.618	100.19
435.84	96.19
436.062	111.19
436.284	82.19
436.505	90.19
436.727	104.19
436.949	88.19
437.17	80.19
437.392	87.19
437.614	87.19
437.835	94.19
438.057	120.19
438.278	104.19
438.5	96.19
438.721	110.19
438.943	82.19
439.165	100.19
439.386	86.19
439.608	86.19
439.829	82.19
440.05	109.19
440.272	124.19
440.493	99.19
440.715	90.19
440.936	101.19
441.158	84.19
441.379	85.19
441.6	88.19
441.822	96.19
442.043	85.19
442.264	98.19
442.486	92.19
442.707	88.19
442.928	88.19
443.149	124.19
443.371	123.19
443.592	109.19
443.813	107.19
444.034	98.19
444.255	87.19
444.476	90.19
444.698	88.19
444.919	80.19
445.14	121.19
445.361	113.19
445.582	105.19
445.803	109.19
446.024	118.19
446.245	127.19
446.466	116.19
446.687	80.19
446.908	83.19
447.129	96.19
447.35	80.19
447.571	97.19
447.792	90.19
448.013	93.19
448.234	87.19
448.455	90.19
448.675	107.19
448.896	119.19
449.117	100.19
449.338	108.19
449.559	117.19
449.779	92.19
450	89.19
450.221	64.19
450.442	77.19
450.662	89.19
450.883	102.19
451.104	96.19
451.324	92.19
451.545	97.19
451.766	82.19
451.986	88.19
452.207	74.19
452.428	87.19
452.648	95.19
452.869	111.19
453.089	96.19
453.31	98.19
453.53	104.19
453.751	94.19
453.971	88.19
454.192	94.19
454.412	81.19
454.633	85.19
454.853	90.19
455.073	82.19
455.294	105.19
455.514	96.19
455.734	92.19
455.955	66.19
456.175	76.19
456.395	71.19
456.616	80.19
456.836	83.19
457.056	93.19
457.276	90.19
457.497	75.19
457.717	84.19
457.937	97.19
458.157	90.19
458.377	81.19
458.598	114.19
458.818	129.19
459.038	119.19
459.258	103.19
459.478	83.19
459.698	91.19
459.918	81.19
460.138	98.19
460.358	89.19
460.578	96.19
460.798	98.19
461.018	84.19
461.238	88.19
461.458	90.19
461.678	96.19
461.898	88.19
462.118	101.19
462.338	90.19
462.558	77.19
462.777	85.19
462.997	80.19
463.217	92.19
463.437	88.19
463.657	76.19
463.876	84.19
464.096	92.19
464.316	90.19
464.536	113.19
464.755	110.19
464.975	106.19
465.195	131.19
465.414	120.19
465.634	99.19
465.854	84.19
466.073	94.19
466.293	87.19
466.512	84.19
466.732	80.19
466.951	86.19
467.171	81.19
467.391	99.19
467.61	110.19
467.829	87.19
468.049	95.19
468.268	84.19
468.488	93.19
468.707	101.19
468.927	97.19
469.146	82.19
469.365	80.19
469.585	90.19
469.804	91.19
470.023	86.19
470.243	96.19
470.462	85.19
470.681	89.19
470.901	97.19
471.12	88.19
471.339	83.19
471.558	96.19
471.777	84.19
471.997	92.19
472.216	88.19
472.435	111.19
472.654	96.19
472.873	83.19
473.092	97.19
473.311	89.19
473.53	91.19
473.749	84.19
473.968	82.19
474.187	97.19
474.406	109.19
474.625	85.19
474.844	76.19
475.063	77.19
475.282	73.19
475.501	74.19
475.72	96.19
475.939	82.19
476.158	97.19
476.377	92.19
476.596	90.19
476.814	87.19
477.033	87.19
477.252	70.19
477.471	80.19
477.69	90.19
477.908	88.19
478.127	92.19
478.346	83.19
478.564	90.19
478.783	83.19
479.002	96.19
479.22	79.19
479.439	99.19
479.658	97.19
479.876	98.19
480.095	104.19
480.313	95.19
480.532	93.19
480.751	85.19
480.969	113.19
481.188	114.19
481.406	89.19
481.624	93.19
481.843	90.19
482.061	78.19
482.28	113.19
482.498	93.19
482.717	88.19
482.935	96.19
483.153	101.19
483.372	86.19
483.59	84.19
483.808	88.19
484.027	94.19
484.245	107.19
484.463	92.19
484.681	93.19
484.9	90.19
485.118	100.19
485.336	106.19
485.554	104.19
485.772	106.19
485.99	106.19
486.209	110.19
486.427	98.19
486.645	104.19
486.863	99.19
487.081	86.19
487.299	92.19
487.517	93.19
487.735	102.19
487.953	92.19
488.171	92.19
488.389	100.19
488.607	97.19
488.825	103.19
489.043	85.19
489.261	89.19
489.479	102.19
489.696	90.19
489.914	83.19
490.132	78.19
490.35	88.19
490.568	90.19
490.786	83.19
491.003	103.19
491.221	96.19
491.439	91.19
491.657	95.19
491.874	90.19
492.092	105.19
492.31	98.19
492.527	88.19
492.745	89.19
492.963	76.19
493.18	96.19
493.398	98.19
493.615	107.19
493.833	103.19
494.05	87.19
494.268	86.19
494.485	96.19
494.703	94.19
494.92	86.19
495.138	101.19
495.355	98.19
495.573	108.19
495.79	90.19
496.008	97.19
496.225	92.19
496.442	93.19
496.66	91.19
496.877	97.19
497.094	109.19
497.312	85.19
497.529	99.19
497.746	85.19
497.963	92.19
498.181	109.19
498.398	77.19
498.615	99.19
498.832	94.19
499.049	78.19
499.267	90.19
499.484	110.19
499.701	93.19
499.918	93.19
500.135	81.19
500.352	98.19
500.569	95.19
500.786	104.19
501.003	99.19
501.22	108.19
501.437	98.19
501.654	92.19
501.871	100.19
502.088	91.19
502.305	84.19
502.522	91.19
502.739	87.19
502.956	99.19
503.172	98.19
503.389	92.19
503.606	100.19
503.823	83.19
504.04	95.19
504.256	89.19
504.473	75.19
504.69	92.19
504.907	85.19
505.123	88.19
505.34	96.19
505.557	92.19
505.773	104.19
505.99	101.19
506.207	78.19
506.423	87.19
506.64	86.19
506.856	93.19
507.073	75.19
507.289	97.19
507.506	88.19
507.722	101.19
507.939	118.19
508.155	97.19
508.372	80.19
508.588	115.19
508.805	95.19
509.021	104.19
509.238	103.19
509.454	101.19
509.67	110.19
509.887	110.19
510.103	114.19
510.319	205.19
510.536	593.19
510.752	1773.19
510.968	513.19
511.184	146.19
511.401	106.19
511.617	85.19
511.833	93.19
512.049	101.19
512.265	88.19
512.481	94.19
512.698	97.19
512.914	108.19
513.13	102.19
513.346	98.19
513.562	97.19
513.778	101.19
513.994	99.19
514.21	104.19
514.426	108.19
514.642	116.19
514.858	113.19
515.074	144.19
515.29	331.19
515.506	972.19
515.721	375.19
515.937	128.19
516.153	109.19
516.369	104.19
516.585	97.19
516.801	91.19
517.016	80.19
517.232	87.19
517.448	101.19
517.664	86.19
517.879	99.19
518.095	89.19
518.311	83.19
518.527	99.19
518.742	106.19
518.958	98.19
519.173	82.19
519.389	92.19
519.605	104.19
519.82	100.19
520.036	112.19
520.251	110.19
520.467	101.19
520.682	95.19
520.898	107.19
521.113	100.19
521.329	138.19
521.544	181.19
521.76	413.19
521.975	1620.19
522.19	1007.19
522.406	230.19
522.621	118.19
522.836	90.19
523.052	92.19
523.267	96.19
523.482	97.19
523.698	96.19
523.913	115.19
524.128	101.19
524.343	89.19
524.559	97.19
524.774	104.19
524.989	107.19
525.204	93.19
525.419	83.19
525.634	99.19
525.849	93.19
526.064	96.19
526.28	97.19
526.495	104.19
526.71	78.19
526.925	100.19
527.14	89.19
527.355	102.19
527.57	91.19
527.785	90.19
527.999	82.19
528.214	108.19
528.429	88.19
528.644	77.19
528.859	93.19
529.074	84.19
529.289	106.19
529.503	131.19
529.718	99.19
529.933	85.19
530.148	85.19
530.363	101.19
530.577	89.19
530.792	105.19
531.007	96.19
531.221	95.19
531.436	88.19
531.651	97.19
531.865	98.19
532.08	102.19
532.295	98.19
532.509	85.19
532.724	98.19
532.938	100.19
533.153	94.19
533.367	77.19
533.582	92.19
533.796	109.19
534.011	91.19
534.225	93.19
534.44	90.19
534.654	101.19
534.868	95.19
535.083	94.19
535.297	89.19
535.511	102.19
535.726	111.19
535.94	104.19
536.154	89.19
536.369	88.19
536.583	92.19
536.797	101.19
537.011	91.19
537.225	89.19
537.44	98.19
537.654	82.19
537.868	89.19
538.082	96.19
538.296	103.19
538.51	106.19
538.724	94.19
538.938	108.19
539.153	93.19
539.367	110.19
539.581	95.19
539.795	96.19
540.009	86.19
540.222	84.19
540.436	99.19
540.65	97.19
540.864	85.19
541.078	76.19
541.292	86.19
541.506	97.19
541.72	88.19
541.934	77.19
542.147	91.19
542.361	94.19
542.575	85.19
542.789	86.19
543.002	102.19
543.216	85.19
543.43	102.19
543.644	91.19
543.857	96.19
544.071	97.19
544.285	92.19
544.498	84.19
544.712	85.19
544.925	84.19
545.139	96.19
545.352	77.19
545.566	90.19
545.779	96.19
545.993	99.19
546.206	93.19
546.42	102.19
546.633	95.19
546.847	92.19
547.06	91.19
547.274	104.19
547.487	93.19
547.7	83.19
547.914	83.19
548.127	94.19
548.34	86.19
548.554	89.19
548.767	100.19
548.98	101.19
549.193	99.19
549.407	102.19
549.62	86.19
549.833	96.19
550.046	81.19
550.259	91.19
550.473	91.19
550.686	93.19
550.899	97.19
551.112	90.19
551.325	87.19
551.538	92.19
551.751	95.19
551.964	104.19
552.177	89.19
552.39	93.19
552.603	83.19
552.816	90.19
553.029	99.19
553.242	109.19
553.455	91.19
553.667	115.19
553.88	101.19
554.093	90.19
554.306	89.19
554.519	87.19
554.732	102.19
554.944	103.19
555.157	88.19
555.37	91.19
555.583	89.19
555.795	97.19
556.008	106.19
556.221	98.19
556.433	98.19
556.646	101.19
556.859	96.19
557.071	96.19
557.284	96.19
557.496	88.19
557.709	91.19
557.921	98.19
558.134	101.19
558.346	99.19
558.559	89.19
558.771	90.19
558.984	91.19
559.196	94.19
559.409	93.19
559.621	91.19
559.833	98.19
560.046	90.19
560.258	94.19
560.47	93.19
560.683	84.19
560.895	82.19
561.107	92.19
561.32	91.19
561.532	97.19
561.744	90.19
561.956	99.19
562.168	94.19
562.381	103.19
562.593	94.19
562.805	85.19
563.017	96.19
563.229	106.19
563.441	94.19
563.653	69.19
563.865	101.19
564.077	92.19
564.289	91.19
564.501	81.19
564.713	82.19
564.925	90.19
565.137	103.19
565.349	94.19
565.561	98.19
565.773	98.19
565.985	94.19
566.197	90.19
566.408	92.19
566.62	84.19
566.832	85.19
567.044	96.19
567.255	103.19
567.467	72.19
567.679	79.19
567.891	74.19
568.102	80.19
568.314	83.19
568.526	86.19
568.737	93.19
568.949	93.19
569.161	91.19
569.372	101.19
569.584	85.19
569.795	93.19
570.007	107.19
570.218	190.19
570.43	128.19
570.641	84.19
570.853	102.19
571.064	100.19
571.276	87.19
571.487	90.19
571.698	89.19
571.91	91.19
572.121	86.19
572.333	76.19
572.544	77.19
572.755	81.19
572.966	96.19
573.178	82.19
573.389	99.19
573.6	85.19
573.811	92.19
574.023	85.19
574.234	92.19
574.445	118.19
574.656	93.19
574.867	83.19
575.078	102.19
575.289	94.19
575.501	93.19
575.712	93.19
575.923	102.19
576.134	88.19
576.345	106.19
576.556	93.19
576.767	86.19
576.978	85.19
577.188	90.19
577.399	100.19
577.61	107.19
577.821	93.19
578.032	113.19
578.243	243.19
578.454	583.19
578.665	185.19
578.875	105.19
579.086	102.19
579.297	93.19
579.508	85.19
579.718	85.19
579.929	106.19
580.14	89.19
580.35	93.19
580.561	93.19
580.772	76.19
580.982	77.19
581.193	86.19
581.403	80.19
581.614	102.19
581.825	97.19
582.035	88.19
582.246	89.19
582.456	91.19
582.667	89.19
582.877	75.19
583.087	96.19
583.298	88.19
583.508	91.19
583.719	84.19
583.929	88.19
584.139	96.19
584.35	97.19
584.56	95.19
584.77	86.19
584.981	90.19
585.191	104.19
585.401	96.19
585.611	91.19
585.821	75.19
586.032	90.19
586.242	92.19
586.452	78.19
586.662	90.19
586.872	91.19
587.082	88.19
587.292	86.19
587.502	95.19
587.713	85.19
587.923	87.19
588.133	96.19
588.343	105.19
588.553	86.19
588.762	86.19
588.972	91.19
589.182	106.19
589.392	92.19
589.602	98.19
589.812	99.19
590.022	95.19
590.232	89.19
590.441	83.19
590.651	92.19
590.861	88.19
591.071	92.19
591.281	100.19
591.49	84.19
591.7	88.19
591.91	92.19
592.119	87.19
592.329	100.19
592.539	89.19
592.748	92.19
592.958	80.19
593.167	98.19
593.377	86.19
593.587	91.19
593.796	97.19
594.006	90.19
594.215	78.19
594.424	104.19
594.634	86.19
594.843	88.19
595.053	93.19
595.262	88.19
595.472	89.19
595.681	97.19
595.89	105.19
596.1	83.19
596.309	96.19
596.518	83.19
596.727	90.19
596.937	89.19
597.146	98.19
597.355	103.19
597.564	88.19
597.774	84.19
597.983	77.19
598.192	82.19
598.401	98.19
598.61	90.19
598.819	98.19
599.028	93.19
599.237	80.19
599.446	96.19
599.655	100.19
599.864	90.19
600.073	88.19
600.282	101.19
600.491	81.19
600.7	86.19
600.909	90.19
601.118	94.19
601.327	80.19
601.536	93.19
601.745	88.19
601.953	88.19
602.162	92.19
602.371	103.19
602.58	81.19
602.789	73.19
602.997	80.19
603.206	75.19
603.415	92.19
603.623	78.19
603.832	108.19
604.041	89.19
604.249	88.19
604.458	89.19
604.666	89.19
604.875	92.19
605.084	99.19
605.292	94.19
605.501	78.19
605.709	99.19
605.918	79.19
606.126	93.19
606.334	102.19
606.543	102.19
606.751	86.19
606.96	93.19
607.168	87.19
607.376	94.19
607.585	86.19
607.793	84.19
608.001	85.19
608.21	89.19
608.418	88.19
608.626	90.19
608.834	77.19
609.043	96.19
609.251	88.19
609.459	105.19
609.667	96.19
609.875	94.19
610.083	100.19
610.291	86.19
610.499	105.19
610.707	90.19
610.916	91.19
611.124	82.19
611.332	96.19
611.54	89.19
611.748	92.19
611.955	73.19
612.163	84.19
612.371	92.19
612.579	65.19
612.787	82.19
612.995	74.19
613.203	88.19
613.411	101.19
613.618	92.19
613.826	84.19
614.034	99.19
614.242	92.19
614.449	84.19
614.657	97.19
614.865	75.19
615.072	96.19
615.28	77.19
615.488	92.19
615.695	92.19
615.903	103.19
616.111	104.19
616.318	102.19
616.526	96.19
616.733	101.19
616.941	90.19
617.148	81.19
617.356	89.19
617.563	94.19
617.771	89.19
617.978	89.19
618.185	78.19
618.393	99.19
618.6	96.19
618.807	89.19
619.015	96.19
619.222	101.19
619.429	87.19
619.637	90.19
619.844	84.19
620.051	90.19
620.258	86.19
620.466	83.19
620.673	69.19
620.88	90.19
621.087	90.19
621.294	83.19
621.501	81.19
621.708	92.19
621.915	112.19
622.122	80.19
622.329	69.19
622.536	78.19
622.743	95.19
622.95	88.19
623.157	93.19
623.364	84.19
623.571	92.19
623.778	88.19
623.985	88.19
624.192	93.19
624.399	66.19
624.606	82.19
624.812	91.19
625.019	92.19
625.226	81.19
625.433	119.19
625.639	93.19
625.846	90.19
626.053	92.19
626.259	82.19
626.466	92.19
626.673	95.19
626.879	90.19
627.086	76.19
627.293	89.19
627.499	85.19
627.706	86.19
627.912	94.19
628.119	88.19
628.325	85.19
628.532	85.19
628.738	95.19
628.945	79.19
629.151	76.19
629.357	76.19
629.564	64.19
629.77	96.19
629.976	89.19
630.183	86.19
630.389	93.19
630.595	84.19
630.802	85.19
631.008	81.19
631.214	81.19
631.42	99.19
631.627	81.19
631.833	89.19
632.039	92.19
632.245	92.19
632.451	92.19
632.657	89.19
632.863	92.19
633.069	98.19
633.275	81.19
633.481	101.19
633.688	73.19
633.893	92.19
634.099	94.19
634.305	89.19
634.511	93.19
634.717	82.19
634.923	92.19
635.129	68.19
635.335	84.19
635.541	100.19
635.747	84.19
635.952	97.19
636.158	77.19
636.364	90.19
636.57	92.19
636.775	75.19
636.981	75.19
637.187	91.19
637.392	88.19
637.598	83.19
637.804	84.19
638.009	82.19
638.215	85.19
638.421	95.19
638.626	86.19
638.832	94.19
639.037	77.19
639.243	93.19
639.448	93.19
639.654	102.19
639.859	91.19
640.065	75.19
640.27	100.19
640.475	81.19
640.681	85.19
640.886	89.19
641.091	84.19
641.297	83.19
641.502	89.19
641.707	104.19
641.913	94.19
642.118	85.19
642.323	84.19
642.528	101.19
642.733	111.19
642.939	94.19
643.144	86.19
643.349	81.19
643.554	96.19
643.759	94.19
643.964	80.19
644.169	103.19
644.374	80.19
644.579	94.19
644.784	86.19
644.989	101.19
645.194	77.19
645.399	93.19
645.604	74.19
645.809	92.19
646.014	93.19
646.219	100.19
646.423	89.19
646.628	82.19
646.833	74.19
647.038	80.19
647.243	67.19
647.447	87.19
647.652	86.19
647.857	80.19
648.062	89.19
648.266	93.19
648.471	92.19
648.676	95.19
648.88	89.19
649.085	87.19
649.289	86.19
649.494	108.19
649.698	122.19
649.903	93.19
650.107	100.19
650.312	85.19
650.516	92.19
650.721	82.19
650.925	92.19
651.13	88.19
651.334	73.19
651.539	74.19
651.743	83.19
651.947	74.19
652.152	88.19
652.356	82.19
652.56	76.19
652.764	91.19
652.969	88.19
653.173	85.19
653.377	105.19
653.581	91.19
653.785	87.19
653.99	84.19
654.194	87.19
654.398	89.19
654.602	91.19
654.806	80.19
655.01	98.19
655.214	92.19
655.418	83.19
655.622	85.19
655.826	86.19
656.03	91.19
656.234	87.19
656.438	101.19
656.642	93.19
656.846	92.19
657.049	97.19
657.253	92.19
657.457	83.19
657.661	76.19
657.865	74.19
658.068	82.19
658.272	93.19
658.476	82.19
658.68	94.19
658.883	87.19
659.087	68.19
659.291	71.19
659.494	80.19
659.698	93.19
659.901	87.19
660.105	81.19
660.309	77.19
660.512	77.19
660.716	89.19
660.919	85.19
661.123	84.19
661.326	96.19
661.53	81.19
661.733	82.19
661.936	92.19
662.14	66.19
662.343	71.19
662.546	85.19
662.75	80.19
662.953	75.19
663.156	74.19
663.36	93.19
663.563	84.19
663.766	84.19
663.969	92.19
664.173	66.19
664.376	82.19
664.579	64.19
664.782	88.19
664.985	89.19
665.188	86.19
665.391	75.19
665.594	93.19
665.797	76.19
666	92.19
666.203	103.19
666.406	92.19
666.609	84.19
666.812	83.19
667.015	87.19
667.218	85.19
667.421	92.19
667.624	68.19
667.827	80.19
668.03	82.19
668.232	85.19
668.435	88.19
668.638	89.19
668.841	103.19
669.043	81.19
669.246	77.19
669.449	89.19
669.651	83.19
669.854	87.19
670.057	88.19
670.259	82.19
670.462	85.19
670.665	73.19
670.867	87.19
671.07	95.19
671.272	91.19
671.475	81.19
671.677	85.19
671.88	88.19
672.082	77.19
672.284	90.19
672.487	88.19
672.689	74.19
672.892	78.19
