Data from Uncirc_1985_H10_HRD10591_00032.txt Node
Date: Wed Jan 03 12:18:23 EST 2024
User: Yrep
Spectrometer: HR+D1059
Trigger mode: 1
Integration Time (sec): 1.000000E-1
Scans to average: 1
Electric dark correction enabled: true
Nonlinearity correction enabled: false
Boxcar width: 0
XAxis mode: Wavelengths
Number of Pixels in Spectrum: 2048
>>>>>Begin Spectral Data<<<<<
223.165	-18.25
223.4	-18.25
223.635	-18.25
223.869	-10.25
224.104	-15.25
224.338	-4.25
224.573	-24.25
224.808	-19.25
225.042	-17.25
225.277	-21.25
225.511	-3.25
225.746	-9.25
225.98	10.75
226.215	12.75
226.449	21.75
226.683	34.75
226.918	24.75
227.152	37.75
227.387	40.75
227.621	47.75
227.856	36.75
228.09	57.75
228.324	51.75
228.559	49.75
228.793	66.75
229.027	53.75
229.262	59.75
229.496	52.75
229.73	68.75
229.964	93.75
230.199	79.75
230.433	63.75
230.667	68.75
230.901	70.75
231.136	70.75
231.37	87.75
231.604	68.75
231.838	74.75
232.072	80.75
232.306	77.75
232.541	72.75
232.775	89.75
233.009	94.75
233.243	76.75
233.477	84.75
233.711	79.75
233.945	94.75
234.179	69.75
234.413	83.75
234.647	81.75
234.881	90.75
235.115	72.75
235.349	82.75
235.583	71.75
235.817	80.75
236.051	74.75
236.285	69.75
236.519	67.75
236.753	71.75
236.987	73.75
237.221	76.75
237.455	98.75
237.689	84.75
237.922	69.75
238.156	73.75
238.39	64.75
238.624	85.75
238.858	84.75
239.091	74.75
239.325	76.75
239.559	74.75
239.793	82.75
240.027	93.75
240.26	68.75
240.494	80.75
240.728	84.75
240.961	67.75
241.195	73.75
241.429	71.75
241.662	68.75
241.896	83.75
242.13	77.75
242.363	79.75
242.597	66.75
242.83	80.75
243.064	67.75
243.298	74.75
243.531	69.75
243.765	68.75
243.998	78.75
244.232	72.75
244.465	87.75
244.699	73.75
244.932	65.75
245.166	62.75
245.399	68.75
245.633	76.75
245.866	83.75
246.099	77.75
246.333	81.75
246.566	66.75
246.8	68.75
247.033	68.75
247.266	61.75
247.5	73.75
247.733	85.75
247.966	90.75
248.2	83.75
248.433	95.75
248.666	84.75
248.899	76.75
249.133	71.75
249.366	91.75
249.599	88.75
249.832	85.75
250.066	82.75
250.299	57.75
250.532	78.75
250.765	75.75
250.998	62.75
251.231	68.75
251.465	87.75
251.698	73.75
251.931	72.75
252.164	69.75
252.397	85.75
252.63	73.75
252.863	80.75
253.096	69.75
253.329	92.75
253.562	87.75
253.795	83.75
254.028	79.75
254.261	85.75
254.494	70.75
254.727	78.75
254.96	71.75
255.193	78.75
255.426	68.75
255.659	69.75
255.892	72.75
256.124	76.75
256.357	82.75
256.59	86.75
256.823	85.75
257.056	85.75
257.289	80.75
257.521	80.75
257.754	85.75
257.987	70.75
258.22	92.75
258.452	74.75
258.685	84.75
258.918	80.75
259.151	79.75
259.383	75.75
259.616	76.75
259.849	86.75
260.081	77.75
260.314	78.75
260.547	82.75
260.779	78.75
261.012	88.75
261.244	86.75
261.477	83.75
261.71	79.75
261.942	97.75
262.175	104.75
262.407	88.75
262.64	84.75
262.872	76.75
263.105	76.75
263.337	86.75
263.57	70.75
263.802	92.75
264.035	69.75
264.267	82.75
264.499	86.75
264.732	94.75
264.964	75.75
265.197	76.75
265.429	77.75
265.661	80.75
265.894	76.75
266.126	82.75
266.358	80.75
266.591	80.75
266.823	82.75
267.055	95.75
267.287	54.75
267.52	80.75
267.752	82.75
267.984	90.75
268.216	84.75
268.448	95.75
268.681	84.75
268.913	81.75
269.145	84.75
269.377	69.75
269.609	74.75
269.841	97.75
270.073	81.75
270.306	76.75
270.538	79.75
270.77	78.75
271.002	71.75
271.234	82.75
271.466	84.75
271.698	78.75
271.93	79.75
272.162	77.75
272.394	78.75
272.626	76.75
272.858	95.75
273.09	82.75
273.322	87.75
273.553	70.75
273.785	84.75
274.017	80.75
274.249	83.75
274.481	82.75
274.713	84.75
274.945	85.75
275.176	86.75
275.408	85.75
275.64	84.75
275.872	70.75
276.104	87.75
276.335	78.75
276.567	95.75
276.799	93.75
277.031	97.75
277.262	95.75
277.494	84.75
277.726	74.75
277.957	86.75
278.189	80.75
278.421	89.75
278.652	72.75
278.884	82.75
279.115	80.75
279.347	86.75
279.579	84.75
279.81	91.75
280.042	90.75
280.273	82.75
280.505	94.75
280.736	71.75
280.968	78.75
281.199	88.75
281.431	77.75
281.662	93.75
281.894	68.75
282.125	89.75
282.356	116.75
282.588	135.75
282.819	108.75
283.051	85.75
283.282	101.75
283.513	89.75
283.745	83.75
283.976	81.75
284.207	85.75
284.439	92.75
284.67	89.75
284.901	85.75
285.132	94.75
285.364	78.75
285.595	76.75
285.826	79.75
286.057	93.75
286.288	82.75
286.52	84.75
286.751	90.75
286.982	73.75
287.213	74.75
287.444	80.75
287.675	88.75
287.906	89.75
288.138	87.75
288.369	80.75
288.6	106.75
288.831	94.75
289.062	100.75
289.293	76.75
289.524	79.75
289.755	78.75
289.986	79.75
290.217	103.75
290.448	84.75
290.679	92.75
290.91	96.75
291.141	76.75
291.371	91.75
291.602	85.75
291.833	77.75
292.064	97.75
292.295	82.75
292.526	93.75
292.757	84.75
292.987	88.75
293.218	97.75
293.449	96.75
293.68	80.75
293.91	75.75
294.141	86.75
294.372	92.75
294.603	86.75
294.833	84.75
295.064	90.75
295.295	90.75
295.525	86.75
295.756	95.75
295.987	113.75
296.217	135.75
296.448	126.75
296.679	102.75
296.909	97.75
297.14	82.75
297.37	86.75
297.601	93.75
297.831	80.75
298.062	95.75
298.292	68.75
298.523	89.75
298.753	82.75
298.984	82.75
299.214	85.75
299.445	87.75
299.675	86.75
299.905	85.75
300.136	86.75
300.366	74.75
300.597	78.75
300.827	89.75
301.057	88.75
301.288	88.75
301.518	80.75
301.748	86.75
301.979	92.75
302.209	84.75
302.439	87.75
302.669	85.75
302.9	74.75
303.13	83.75
303.36	87.75
303.59	84.75
303.82	98.75
304.051	84.75
304.281	90.75
304.511	88.75
304.741	89.75
304.971	90.75
305.201	71.75
305.431	96.75
305.661	101.75
305.891	88.75
306.121	93.75
306.352	94.75
306.582	101.75
306.812	89.75
307.042	94.75
307.272	80.75
307.502	92.75
307.731	93.75
307.961	99.75
308.191	80.75
308.421	89.75
308.651	87.75
308.881	88.75
309.111	112.75
309.341	78.75
309.571	92.75
309.8	84.75
310.03	96.75
310.26	94.75
310.49	78.75
310.72	96.75
310.949	102.75
311.179	82.75
311.409	108.75
311.639	93.75
311.868	94.75
312.098	99.75
312.328	85.75
312.557	96.75
312.787	110.75
313.017	94.75
313.246	91.75
313.476	92.75
313.706	88.75
313.935	102.75
314.165	95.75
314.394	91.75
314.624	94.75
314.853	90.75
315.083	96.75
315.312	89.75
315.542	95.75
315.771	89.75
316.001	91.75
316.23	76.75
316.46	93.75
316.689	85.75
316.919	90.75
317.148	90.75
317.377	111.75
317.607	83.75
317.836	87.75
318.065	93.75
318.295	91.75
318.524	83.75
318.753	92.75
318.983	68.75
319.212	85.75
319.441	102.75
319.67	99.75
319.9	90.75
320.129	78.75
320.358	89.75
320.587	106.75
320.816	84.75
321.046	86.75
321.275	92.75
321.504	82.75
321.733	88.75
321.962	93.75
322.191	102.75
322.42	110.75
322.649	89.75
322.878	95.75
323.108	106.75
323.337	129.75
323.566	132.75
323.795	133.75
324.024	193.75
324.253	369.75
324.482	769.75
324.71	1580.75
324.939	2086.75
325.168	767.75
325.397	231.75
325.626	139.75
325.855	129.75
326.084	108.75
326.313	116.75
326.542	133.75
326.77	186.75
326.999	424.75
327.228	888.75
327.457	1660.75
327.686	1313.75
327.914	337.75
328.143	186.75
328.372	137.75
328.6	114.75
328.829	121.75
329.058	116.75
329.287	116.75
329.515	113.75
329.744	104.75
329.972	109.75
330.201	106.75
330.43	128.75
330.658	97.75
330.887	121.75
331.115	102.75
331.344	100.75
331.572	91.75
331.801	95.75
332.03	86.75
332.258	101.75
332.486	97.75
332.715	83.75
332.943	102.75
333.172	93.75
333.4	100.75
333.629	118.75
333.857	101.75
334.085	114.75
334.314	90.75
334.542	115.75
334.771	112.75
334.999	100.75
335.227	99.75
335.455	80.75
335.684	85.75
335.912	80.75
336.14	90.75
336.369	100.75
336.597	100.75
336.825	104.75
337.053	96.75
337.281	86.75
337.51	89.75
337.738	93.75
337.966	87.75
338.194	87.75
338.422	88.75
338.65	98.75
338.878	85.75
339.106	88.75
339.334	85.75
339.562	90.75
339.79	84.75
340.018	88.75
340.246	96.75
340.474	99.75
340.702	87.75
340.93	84.75
341.158	93.75
341.386	87.75
341.614	105.75
341.842	86.75
342.07	76.75
342.298	101.75
342.526	84.75
342.754	80.75
342.981	76.75
343.209	80.75
343.437	84.75
343.665	92.75
343.893	87.75
344.12	92.75
344.348	76.75
344.576	74.75
344.804	74.75
345.031	94.75
345.259	91.75
345.487	103.75
345.714	88.75
345.942	84.75
346.17	97.75
346.397	90.75
346.625	89.75
346.853	91.75
347.08	96.75
347.308	101.75
347.535	100.75
347.763	92.75
347.99	118.75
348.218	99.75
348.445	108.75
348.673	85.75
348.9	101.75
349.128	105.75
349.355	94.75
349.583	97.75
349.81	86.75
350.037	76.75
350.265	88.75
350.492	87.75
350.72	88.75
350.947	99.75
351.174	100.75
351.402	101.75
351.629	106.75
351.856	98.75
352.083	111.75
352.311	96.75
352.538	104.75
352.765	87.75
352.992	111.75
353.22	103.75
353.447	93.75
353.674	103.75
353.901	94.75
354.128	98.75
354.355	93.75
354.583	95.75
354.81	104.75
355.037	101.75
355.264	106.75
355.491	89.75
355.718	85.75
355.945	110.75
356.172	96.75
356.399	90.75
356.626	92.75
356.853	80.75
357.08	84.75
357.307	97.75
357.534	101.75
357.761	90.75
357.988	96.75
358.215	108.75
358.441	97.75
358.668	90.75
358.895	85.75
359.122	89.75
359.349	99.75
359.576	93.75
359.802	95.75
360.029	96.75
360.256	94.75
360.483	85.75
360.709	79.75
360.936	92.75
361.163	93.75
361.39	80.75
361.616	96.75
361.843	77.75
362.07	92.75
362.296	91.75
362.523	84.75
362.749	84.75
362.976	86.75
363.203	86.75
363.429	81.75
363.656	92.75
363.882	82.75
364.109	88.75
364.335	96.75
364.562	91.75
364.788	78.75
365.015	97.75
365.241	92.75
365.468	97.75
365.694	87.75
365.92	88.75
366.147	87.75
366.373	104.75
366.599	82.75
366.826	86.75
367.052	86.75
367.278	102.75
367.505	88.75
367.731	96.75
367.957	84.75
368.184	77.75
368.41	87.75
368.636	103.75
368.862	105.75
369.089	96.75
369.315	100.75
369.541	84.75
369.767	96.75
369.993	97.75
370.219	89.75
370.445	81.75
370.672	80.75
370.898	93.75
371.124	90.75
371.35	77.75
371.576	77.75
371.802	89.75
372.028	92.75
372.254	88.75
372.48	81.75
372.706	81.75
372.932	94.75
373.158	72.75
373.384	72.75
373.61	79.75
373.835	91.75
374.061	95.75
374.287	85.75
374.513	94.75
374.739	86.75
374.965	80.75
375.191	84.75
375.416	86.75
375.642	85.75
375.868	93.75
376.094	90.75
376.319	99.75
376.545	84.75
376.771	74.75
376.997	84.75
377.222	82.75
377.448	85.75
377.674	99.75
377.899	80.75
378.125	83.75
378.35	84.75
378.576	96.75
378.802	76.75
379.027	81.75
379.253	90.75
379.478	89.75
379.704	98.75
379.929	103.75
380.155	87.75
380.38	96.75
380.606	82.75
380.831	82.75
381.057	81.75
381.282	95.75
381.507	93.75
381.733	98.75
381.958	100.75
382.184	105.75
382.409	96.75
382.634	104.75
382.86	90.75
383.085	85.75
383.31	89.75
383.535	91.75
383.761	95.75
383.986	90.75
384.211	94.75
384.436	86.75
384.662	94.75
384.887	90.75
385.112	90.75
385.337	110.75
385.562	91.75
385.787	90.75
386.013	101.75
386.238	103.75
386.463	91.75
386.688	87.75
386.913	97.75
387.138	94.75
387.363	100.75
387.588	113.75
387.813	97.75
388.038	88.75
388.263	100.75
388.488	100.75
388.713	86.75
388.938	84.75
389.163	92.75
389.387	91.75
389.612	89.75
389.837	85.75
390.062	90.75
390.287	77.75
390.512	78.75
390.736	84.75
390.961	88.75
391.186	88.75
391.411	98.75
391.636	87.75
391.86	75.75
392.085	87.75
392.31	85.75
392.534	86.75
392.759	88.75
392.984	95.75
393.208	77.75
393.433	69.75
393.658	84.75
393.882	88.75
394.107	76.75
394.331	71.75
394.556	95.75
394.78	87.75
395.005	82.75
395.229	96.75
395.454	79.75
395.678	102.75
395.903	92.75
396.127	87.75
396.352	92.75
396.576	74.75
396.801	78.75
397.025	102.75
397.249	95.75
397.474	84.75
397.698	88.75
397.922	83.75
398.147	96.75
398.371	80.75
398.595	73.75
398.82	80.75
399.044	88.75
399.268	93.75
399.492	89.75
399.717	97.75
399.941	88.75
400.165	93.75
400.389	87.75
400.613	99.75
400.837	88.75
401.062	100.75
401.286	93.75
401.51	85.75
401.734	75.75
401.958	85.75
402.182	113.75
402.406	138.75
402.63	106.75
402.854	90.75
403.078	83.75
403.302	76.75
403.526	86.75
403.75	103.75
403.974	86.75
404.198	86.75
404.422	65.75
404.645	98.75
404.869	94.75
405.093	96.75
405.317	97.75
405.541	82.75
405.765	78.75
405.988	111.75
406.212	154.75
406.436	204.75
406.66	120.75
406.883	96.75
407.107	100.75
407.331	101.75
407.555	87.75
407.778	89.75
408.002	84.75
408.226	80.75
408.449	84.75
408.673	92.75
408.896	83.75
409.12	98.75
409.344	85.75
409.567	81.75
409.791	90.75
410.014	87.75
410.238	82.75
410.461	82.75
410.685	86.75
410.908	93.75
411.132	94.75
411.355	81.75
411.578	85.75
411.802	82.75
412.025	95.75
412.249	89.75
412.472	88.75
412.695	94.75
412.919	99.75
413.142	94.75
413.365	69.75
413.589	86.75
413.812	91.75
414.035	90.75
414.258	92.75
414.482	89.75
414.705	80.75
414.928	82.75
415.151	72.75
415.374	78.75
415.597	70.75
415.821	89.75
416.044	92.75
416.267	78.75
416.49	72.75
416.713	82.75
416.936	89.75
417.159	78.75
417.382	92.75
417.605	88.75
417.828	78.75
418.051	95.75
418.274	80.75
418.497	87.75
418.72	84.75
418.943	87.75
419.166	84.75
419.389	89.75
419.611	92.75
419.834	94.75
420.057	77.75
420.28	76.75
420.503	89.75
420.726	90.75
420.948	80.75
421.171	93.75
421.394	90.75
421.617	89.75
421.839	81.75
422.062	87.75
422.285	97.75
422.507	102.75
422.73	105.75
422.953	87.75
423.175	80.75
423.398	85.75
423.621	94.75
423.843	89.75
424.066	80.75
424.288	86.75
424.511	94.75
424.733	92.75
424.956	101.75
425.178	87.75
425.401	100.75
425.623	94.75
425.846	73.75
426.068	82.75
426.291	100.75
426.513	85.75
426.735	83.75
426.958	105.75
427.18	92.75
427.402	129.75
427.625	143.75
427.847	117.75
428.069	103.75
428.292	84.75
428.514	77.75
428.736	81.75
428.958	81.75
429.181	87.75
429.403	90.75
429.625	92.75
429.847	88.75
430.069	86.75
430.292	82.75
430.514	94.75
430.736	90.75
430.958	87.75
431.18	77.75
431.402	86.75
431.624	80.75
431.846	89.75
432.068	64.75
432.29	94.75
432.512	97.75
432.734	83.75
432.956	82.75
433.178	96.75
433.4	90.75
433.622	80.75
433.844	100.75
434.066	70.75
434.287	79.75
434.509	74.75
434.731	90.75
434.953	91.75
435.175	71.75
435.397	80.75
435.618	90.75
435.84	88.75
436.062	118.75
436.284	102.75
436.505	96.75
436.727	100.75
436.949	81.75
437.17	80.75
437.392	94.75
437.614	80.75
437.835	96.75
438.057	118.75
438.278	104.75
438.5	91.75
438.721	120.75
438.943	100.75
439.165	97.75
439.386	90.75
439.608	95.75
439.829	94.75
440.05	120.75
440.272	119.75
440.493	94.75
440.715	91.75
440.936	85.75
441.158	73.75
441.379	91.75
441.6	103.75
441.822	112.75
442.043	84.75
442.264	107.75
442.486	94.75
442.707	67.75
442.928	111.75
443.149	105.75
443.371	121.75
443.592	107.75
443.813	95.75
444.034	111.75
444.255	82.75
444.476	96.75
444.698	102.75
444.919	79.75
445.14	119.75
445.361	121.75
445.582	111.75
445.803	130.75
446.024	130.75
446.245	132.75
446.466	101.75
446.687	89.75
446.908	81.75
447.129	88.75
447.35	78.75
447.571	81.75
447.792	76.75
448.013	90.75
448.234	97.75
448.455	93.75
448.675	86.75
448.896	103.75
449.117	92.75
449.338	102.75
449.559	123.75
449.779	128.75
450	85.75
450.221	85.75
450.442	94.75
450.662	101.75
450.883	86.75
451.104	102.75
451.324	93.75
451.545	79.75
451.766	78.75
451.986	83.75
452.207	80.75
452.428	93.75
452.648	96.75
452.869	101.75
453.089	109.75
453.31	111.75
453.53	103.75
453.751	76.75
453.971	94.75
454.192	83.75
454.412	84.75
454.633	82.75
454.853	86.75
455.073	83.75
455.294	72.75
455.514	104.75
455.734	89.75
455.955	104.75
456.175	79.75
456.395	80.75
456.616	96.75
456.836	83.75
457.056	63.75
457.276	71.75
457.497	92.75
457.717	74.75
457.937	78.75
458.157	96.75
458.377	91.75
458.598	115.75
458.818	135.75
459.038	139.75
459.258	100.75
459.478	87.75
459.698	90.75
459.918	93.75
460.138	92.75
460.358	84.75
460.578	83.75
460.798	82.75
461.018	79.75
461.238	74.75
461.458	88.75
461.678	71.75
461.898	85.75
462.118	82.75
462.338	88.75
462.558	80.75
462.777	74.75
462.997	70.75
463.217	97.75
463.437	80.75
463.657	88.75
463.876	82.75
464.096	78.75
464.316	99.75
464.536	93.75
464.755	79.75
464.975	96.75
465.195	137.75
465.414	133.75
465.634	63.75
465.854	94.75
466.073	80.75
466.293	83.75
466.512	90.75
466.732	89.75
466.951	79.75
467.171	73.75
467.391	87.75
467.61	106.75
467.829	91.75
468.049	101.75
468.268	98.75
468.488	67.75
468.707	68.75
468.927	84.75
469.146	73.75
469.365	78.75
469.585	84.75
469.804	90.75
470.023	94.75
470.243	96.75
470.462	103.75
470.681	93.75
470.901	90.75
471.12	90.75
471.339	83.75
471.558	76.75
471.777	76.75
471.997	86.75
472.216	109.75
472.435	115.75
472.654	88.75
472.873	89.75
473.092	81.75
473.311	87.75
473.53	72.75
473.749	91.75
473.968	83.75
474.187	100.75
474.406	90.75
474.625	78.75
474.844	91.75
475.063	74.75
475.282	91.75
475.501	95.75
475.72	85.75
475.939	94.75
476.158	76.75
476.377	80.75
476.596	76.75
476.814	85.75
477.033	88.75
477.252	88.75
477.471	72.75
477.69	82.75
477.908	93.75
478.127	84.75
478.346	82.75
478.564	80.75
478.783	82.75
479.002	100.75
479.22	77.75
479.439	97.75
479.658	92.75
479.876	89.75
480.095	78.75
480.313	100.75
480.532	65.75
480.751	83.75
480.969	101.75
481.188	149.75
481.406	135.75
481.624	100.75
481.843	88.75
482.061	80.75
482.28	85.75
482.498	96.75
482.717	86.75
482.935	85.75
483.153	84.75
483.372	89.75
483.59	87.75
483.808	85.75
484.027	90.75
484.245	101.75
484.463	94.75
484.681	89.75
484.9	78.75
485.118	94.75
485.336	92.75
485.554	85.75
485.772	101.75
485.99	85.75
486.209	87.75
486.427	94.75
486.645	106.75
486.863	96.75
487.081	108.75
487.299	89.75
487.517	85.75
487.735	85.75
487.953	98.75
488.171	76.75
488.389	95.75
488.607	100.75
488.825	89.75
489.043	93.75
489.261	85.75
489.479	90.75
489.696	90.75
489.914	80.75
490.132	95.75
490.35	80.75
490.568	84.75
490.786	88.75
491.003	94.75
491.221	88.75
491.439	94.75
491.657	93.75
491.874	79.75
492.092	94.75
492.31	83.75
492.527	98.75
492.745	90.75
492.963	90.75
493.18	85.75
493.398	90.75
493.615	89.75
493.833	80.75
494.05	71.75
494.268	97.75
494.485	94.75
494.703	92.75
494.92	84.75
495.138	79.75
495.355	104.75
495.573	81.75
495.79	79.75
496.008	81.75
496.225	92.75
496.442	101.75
496.66	94.75
496.877	89.75
497.094	97.75
497.312	78.75
497.529	80.75
497.746	87.75
497.963	89.75
498.181	92.75
498.398	99.75
498.615	106.75
498.832	97.75
499.049	88.75
499.267	89.75
499.484	78.75
499.701	94.75
499.918	91.75
500.135	94.75
500.352	93.75
500.569	87.75
500.786	86.75
501.003	83.75
501.22	89.75
501.437	95.75
501.654	93.75
501.871	104.75
502.088	108.75
502.305	92.75
502.522	97.75
502.739	83.75
502.956	96.75
503.172	92.75
503.389	89.75
503.606	90.75
503.823	89.75
504.04	85.75
504.256	89.75
504.473	84.75
504.69	88.75
504.907	93.75
505.123	86.75
505.34	76.75
505.557	93.75
505.773	92.75
505.99	87.75
506.207	97.75
506.423	84.75
506.64	88.75
506.856	93.75
507.073	93.75
507.289	85.75
507.506	80.75
507.722	98.75
507.939	103.75
508.155	95.75
508.372	92.75
508.588	103.75
508.805	89.75
509.021	89.75
509.238	86.75
509.454	110.75
509.67	85.75
509.887	126.75
510.103	122.75
510.319	180.75
510.536	678.75
510.752	1999.75
510.968	540.75
511.184	134.75
511.401	95.75
511.617	82.75
511.833	79.75
512.049	83.75
512.265	82.75
512.481	80.75
512.698	95.75
512.914	92.75
513.13	88.75
513.346	83.75
513.562	94.75
513.778	93.75
513.994	82.75
514.21	94.75
514.426	109.75
514.642	127.75
514.858	122.75
515.074	140.75
515.29	384.75
515.506	1205.75
515.721	444.75
515.937	131.75
516.153	103.75
516.369	99.75
516.585	92.75
516.801	93.75
517.016	87.75
517.232	89.75
517.448	89.75
517.664	58.75
517.879	97.75
518.095	77.75
518.311	90.75
518.527	101.75
518.742	84.75
518.958	76.75
519.173	97.75
519.389	77.75
519.605	104.75
519.82	90.75
520.036	90.75
520.251	122.75
520.467	107.75
520.682	112.75
520.898	113.75
521.113	104.75
521.329	125.75
521.544	189.75
521.76	474.75
521.975	1972.75
522.19	1164.75
522.406	265.75
522.621	120.75
522.836	88.75
523.052	97.75
523.267	85.75
523.482	92.75
523.698	110.75
523.913	109.75
524.128	94.75
524.343	97.75
524.559	88.75
524.774	91.75
524.989	109.75
525.204	94.75
525.419	93.75
525.634	93.75
525.849	81.75
526.064	83.75
526.28	94.75
526.495	97.75
526.71	74.75
526.925	80.75
527.14	94.75
527.355	94.75
527.57	81.75
527.785	76.75
527.999	78.75
528.214	87.75
528.429	87.75
528.644	96.75
528.859	89.75
529.074	90.75
529.289	118.75
529.503	162.75
529.718	109.75
529.933	82.75
530.148	84.75
530.363	95.75
530.577	82.75
530.792	81.75
531.007	82.75
531.221	101.75
531.436	94.75
531.651	105.75
531.865	85.75
532.08	84.75
532.295	85.75
532.509	90.75
532.724	93.75
532.938	84.75
533.153	82.75
533.367	92.75
533.582	83.75
533.796	93.75
534.011	95.75
534.225	79.75
534.44	86.75
534.654	82.75
534.868	88.75
535.083	78.75
535.297	84.75
535.511	102.75
535.726	93.75
535.94	96.75
536.154	94.75
536.369	99.75
536.583	96.75
536.797	82.75
537.011	90.75
537.225	86.75
537.44	97.75
537.654	87.75
537.868	88.75
538.082	86.75
538.296	92.75
538.51	85.75
538.724	96.75
538.938	94.75
539.153	96.75
539.367	96.75
539.581	90.75
539.795	84.75
540.009	88.75
540.222	88.75
540.436	84.75
540.65	95.75
540.864	78.75
541.078	102.75
541.292	85.75
541.506	77.75
541.72	85.75
541.934	59.75
542.147	90.75
542.361	85.75
542.575	82.75
542.789	81.75
543.002	94.75
543.216	89.75
543.43	90.75
543.644	96.75
543.857	90.75
544.071	93.75
544.285	94.75
544.498	97.75
544.712	80.75
544.925	80.75
545.139	85.75
545.352	82.75
545.566	76.75
545.779	93.75
545.993	78.75
546.206	81.75
546.42	100.75
546.633	81.75
546.847	97.75
547.06	89.75
547.274	102.75
547.487	90.75
547.7	85.75
547.914	86.75
548.127	85.75
548.34	103.75
548.554	86.75
548.767	88.75
548.98	93.75
549.193	88.75
549.407	82.75
549.62	86.75
549.833	93.75
550.046	82.75
550.259	76.75
550.473	99.75
550.686	75.75
550.899	81.75
551.112	92.75
551.325	87.75
551.538	92.75
551.751	68.75
551.964	77.75
552.177	102.75
552.39	88.75
552.603	78.75
552.816	74.75
553.029	90.75
553.242	79.75
553.455	86.75
553.667	99.75
553.88	92.75
554.093	85.75
554.306	92.75
554.519	87.75
554.732	88.75
554.944	94.75
555.157	79.75
555.37	90.75
555.583	92.75
555.795	89.75
556.008	80.75
556.221	92.75
556.433	88.75
556.646	102.75
556.859	98.75
557.071	100.75
557.284	89.75
557.496	101.75
557.709	74.75
557.921	86.75
558.134	94.75
558.346	81.75
558.559	80.75
558.771	84.75
558.984	99.75
559.196	77.75
559.409	87.75
559.621	81.75
559.833	97.75
560.046	84.75
560.258	90.75
560.47	88.75
560.683	86.75
560.895	93.75
561.107	91.75
561.32	91.75
561.532	89.75
561.744	86.75
561.956	87.75
562.168	81.75
562.381	89.75
562.593	93.75
562.805	88.75
563.017	98.75
563.229	88.75
563.441	79.75
563.653	88.75
563.865	95.75
564.077	80.75
564.289	96.75
564.501	89.75
564.713	97.75
564.925	97.75
565.137	97.75
565.349	90.75
565.561	72.75
565.773	102.75
565.985	83.75
566.197	86.75
566.408	94.75
566.62	86.75
566.832	83.75
567.044	81.75
567.255	95.75
567.467	77.75
567.679	82.75
567.891	81.75
568.102	86.75
568.314	87.75
568.526	80.75
568.737	84.75
568.949	73.75
569.161	79.75
569.372	88.75
569.584	90.75
569.795	94.75
570.007	107.75
570.218	217.75
570.43	109.75
570.641	83.75
570.853	95.75
571.064	86.75
571.276	82.75
571.487	88.75
571.698	73.75
571.91	74.75
572.121	82.75
572.333	76.75
572.544	93.75
572.755	81.75
572.966	101.75
573.178	68.75
573.389	88.75
573.6	82.75
573.811	97.75
574.023	94.75
574.234	94.75
574.445	72.75
574.656	90.75
574.867	77.75
575.078	90.75
575.289	78.75
575.501	91.75
575.712	69.75
575.923	81.75
576.134	100.75
576.345	84.75
576.556	90.75
576.767	78.75
576.978	77.75
577.188	86.75
577.399	76.75
577.61	81.75
577.821	88.75
578.032	111.75
578.243	240.75
578.454	640.75
578.665	186.75
578.875	92.75
579.086	95.75
579.297	65.75
579.508	82.75
579.718	88.75
579.929	82.75
580.14	84.75
580.35	72.75
580.561	93.75
580.772	98.75
580.982	76.75
581.193	79.75
581.403	89.75
581.614	94.75
581.825	96.75
582.035	66.75
582.246	66.75
582.456	79.75
582.667	72.75
582.877	99.75
583.087	84.75
583.298	93.75
583.508	91.75
583.719	90.75
583.929	87.75
584.139	77.75
584.35	78.75
584.56	87.75
584.77	81.75
584.981	95.75
585.191	86.75
585.401	80.75
585.611	102.75
585.821	58.75
586.032	94.75
586.242	91.75
586.452	90.75
586.662	83.75
586.872	82.75
587.082	84.75
587.292	104.75
587.502	84.75
587.713	86.75
587.923	65.75
588.133	82.75
588.343	85.75
588.553	87.75
588.762	80.75
588.972	89.75
589.182	97.75
589.392	91.75
589.602	85.75
589.812	72.75
590.022	80.75
590.232	78.75
590.441	88.75
590.651	86.75
590.861	79.75
591.071	74.75
591.281	86.75
591.49	96.75
591.7	102.75
591.91	87.75
592.119	86.75
592.329	77.75
592.539	102.75
592.748	90.75
592.958	85.75
593.167	82.75
593.377	85.75
593.587	84.75
593.796	76.75
594.006	90.75
594.215	78.75
594.424	84.75
594.634	81.75
594.843	90.75
595.053	87.75
595.262	85.75
595.472	85.75
595.681	69.75
595.89	77.75
596.1	88.75
596.309	73.75
596.518	72.75
596.727	93.75
596.937	70.75
597.146	88.75
597.355	95.75
597.564	69.75
597.774	80.75
597.983	85.75
598.192	92.75
598.401	82.75
598.61	91.75
598.819	99.75
599.028	83.75
599.237	82.75
599.446	71.75
599.655	92.75
599.864	82.75
600.073	76.75
600.282	96.75
600.491	78.75
600.7	84.75
600.909	73.75
601.118	82.75
601.327	84.75
601.536	85.75
601.745	79.75
601.953	90.75
602.162	105.75
602.371	94.75
602.58	86.75
602.789	76.75
602.997	88.75
603.206	89.75
603.415	83.75
603.623	78.75
603.832	86.75
604.041	91.75
604.249	80.75
604.458	79.75
604.666	103.75
604.875	90.75
605.084	79.75
605.292	90.75
605.501	86.75
605.709	89.75
605.918	82.75
606.126	68.75
606.334	76.75
606.543	86.75
606.751	81.75
606.96	88.75
607.168	80.75
607.376	98.75
607.585	86.75
607.793	81.75
608.001	85.75
608.21	65.75
608.418	86.75
608.626	77.75
608.834	79.75
609.043	98.75
609.251	89.75
609.459	81.75
609.667	85.75
609.875	87.75
610.083	80.75
610.291	74.75
610.499	78.75
610.707	94.75
610.916	92.75
611.124	72.75
611.332	84.75
611.54	69.75
611.748	82.75
611.955	79.75
612.163	88.75
612.371	91.75
612.579	66.75
612.787	78.75
612.995	85.75
613.203	102.75
613.411	88.75
613.618	76.75
613.826	69.75
614.034	70.75
614.242	84.75
614.449	78.75
614.657	92.75
614.865	81.75
615.072	77.75
615.28	95.75
615.488	87.75
615.695	77.75
615.903	90.75
616.111	93.75
616.318	99.75
616.526	88.75
616.733	88.75
616.941	82.75
617.148	86.75
617.356	85.75
617.563	75.75
617.771	85.75
617.978	96.75
618.185	82.75
618.393	90.75
618.6	90.75
618.807	81.75
619.015	90.75
619.222	64.75
619.429	79.75
619.637	92.75
619.844	69.75
620.051	87.75
620.258	89.75
620.466	85.75
620.673	70.75
620.88	76.75
621.087	80.75
621.294	78.75
621.501	83.75
621.708	82.75
621.915	94.75
622.122	89.75
622.329	90.75
622.536	78.75
622.743	79.75
622.95	92.75
623.157	65.75
623.364	70.75
623.571	82.75
623.778	76.75
623.985	87.75
624.192	70.75
624.399	78.75
624.606	94.75
624.812	90.75
625.019	92.75
625.226	62.75
625.433	84.75
625.639	68.75
625.846	98.75
626.053	72.75
626.259	71.75
626.466	79.75
626.673	62.75
626.879	68.75
627.086	86.75
627.293	80.75
627.499	67.75
627.706	78.75
627.912	76.75
628.119	84.75
628.325	88.75
628.532	86.75
628.738	84.75
628.945	64.75
629.151	90.75
629.357	86.75
629.564	88.75
629.77	94.75
629.976	92.75
630.183	88.75
630.389	80.75
630.595	74.75
630.802	92.75
631.008	96.75
631.214	88.75
631.42	72.75
631.627	91.75
631.833	89.75
632.039	81.75
632.245	83.75
632.451	85.75
632.657	80.75
632.863	79.75
633.069	85.75
633.275	79.75
633.481	82.75
633.688	86.75
633.893	81.75
634.099	76.75
634.305	78.75
634.511	90.75
634.717	80.75
634.923	82.75
635.129	71.75
635.335	84.75
635.541	78.75
635.747	87.75
635.952	80.75
636.158	70.75
636.364	73.75
636.57	90.75
636.775	65.75
636.981	73.75
637.187	67.75
637.392	78.75
637.598	79.75
637.804	79.75
638.009	83.75
638.215	87.75
638.421	95.75
638.626	81.75
638.832	89.75
639.037	89.75
639.243	87.75
639.448	84.75
639.654	79.75
639.859	86.75
640.065	86.75
640.27	87.75
640.475	73.75
640.681	73.75
640.886	78.75
641.091	85.75
641.297	73.75
641.502	88.75
641.707	73.75
641.913	80.75
642.118	70.75
642.323	77.75
642.528	92.75
642.733	77.75
642.939	86.75
643.144	85.75
643.349	81.75
643.554	82.75
643.759	99.75
643.964	76.75
644.169	84.75
644.374	90.75
644.579	86.75
644.784	91.75
644.989	95.75
645.194	77.75
645.399	79.75
645.604	77.75
645.809	80.75
646.014	84.75
646.219	72.75
646.423	76.75
646.628	76.75
646.833	77.75
647.038	78.75
647.243	90.75
647.447	86.75
647.652	82.75
647.857	88.75
648.062	92.75
648.266	75.75
648.471	85.75
648.676	89.75
648.88	81.75
649.085	100.75
649.289	86.75
649.494	96.75
649.698	118.75
649.903	100.75
650.107	77.75
650.312	92.75
650.516	80.75
650.721	86.75
650.925	80.75
651.13	78.75
651.334	80.75
651.539	87.75
651.743	73.75
651.947	71.75
652.152	88.75
652.356	87.75
652.56	73.75
652.764	86.75
652.969	95.75
653.173	80.75
653.377	70.75
653.581	64.75
653.785	69.75
653.99	86.75
654.194	89.75
654.398	88.75
654.602	78.75
654.806	77.75
655.01	100.75
655.214	86.75
655.418	76.75
655.622	72.75
655.826	94.75
656.03	79.75
656.234	86.75
656.438	92.75
656.642	88.75
656.846	84.75
657.049	85.75
657.253	82.75
657.457	69.75
657.661	86.75
657.865	73.75
658.068	76.75
658.272	83.75
658.476	71.75
658.68	76.75
658.883	80.75
659.087	80.75
659.291	83.75
659.494	88.75
659.698	80.75
659.901	82.75
660.105	71.75
660.309	70.75
660.512	74.75
660.716	71.75
660.919	68.75
661.123	71.75
661.326	77.75
661.53	74.75
661.733	82.75
661.936	78.75
662.14	94.75
662.343	74.75
662.546	83.75
662.75	83.75
662.953	79.75
663.156	69.75
663.36	81.75
663.563	78.75
663.766	70.75
663.969	81.75
664.173	71.75
664.376	72.75
664.579	74.75
664.782	79.75
664.985	81.75
665.188	74.75
665.391	81.75
665.594	78.75
665.797	86.75
666	72.75
666.203	66.75
666.406	64.75
666.609	73.75
666.812	94.75
667.015	81.75
667.218	71.75
667.421	78.75
667.624	71.75
667.827	81.75
668.03	77.75
668.232	83.75
668.435	83.75
668.638	83.75
668.841	79.75
669.043	64.75
669.246	74.75
669.449	97.75
669.651	72.75
669.854	74.75
670.057	70.75
670.259	78.75
670.462	65.75
670.665	72.75
670.867	87.75
671.07	80.75
671.272	77.75
671.475	68.75
671.677	82.75
671.88	81.75
672.082	73.75
672.284	71.75
672.487	91.75
672.689	66.75
672.892	80.75
