Data from Uncirc_1985_H10_HRD10591_00041.txt Node
Date: Wed Jan 03 12:18:25 EST 2024
User: Yrep
Spectrometer: HR+D1059
Trigger mode: 1
Integration Time (sec): 1.000000E-1
Scans to average: 1
Electric dark correction enabled: true
Nonlinearity correction enabled: false
Boxcar width: 0
XAxis mode: Wavelengths
Number of Pixels in Spectrum: 2048
>>>>>Begin Spectral Data<<<<<
223.165	-14.94
223.4	-14.94
223.635	-14.94
223.869	-18.94
224.104	-23.94
224.338	-13.94
224.573	-6.94
224.808	-13.94
225.042	9.06
225.277	2.06
225.511	-8.94
225.746	-5.94
225.98	-1.94
226.215	-0.94
226.449	5.06
226.683	26.06
226.918	28.06
227.152	40.06
227.387	40.06
227.621	29.06
227.856	37.06
228.09	32.06
228.324	52.06
228.559	65.06
228.793	63.06
229.027	65.06
229.262	63.06
229.496	71.06
229.73	81.06
229.964	81.06
230.199	87.06
230.433	77.06
230.667	77.06
230.901	78.06
231.136	102.06
231.37	84.06
231.604	71.06
231.838	83.06
232.072	74.06
232.306	93.06
232.541	79.06
232.775	89.06
233.009	84.06
233.243	82.06
233.477	81.06
233.711	75.06
233.945	76.06
234.179	80.06
234.413	76.06
234.647	91.06
234.881	87.06
235.115	75.06
235.349	83.06
235.583	69.06
235.817	70.06
236.051	72.06
236.285	72.06
236.519	75.06
236.753	76.06
236.987	75.06
237.221	74.06
237.455	89.06
237.689	91.06
237.922	71.06
238.156	80.06
238.39	72.06
238.624	74.06
238.858	89.06
239.091	73.06
239.325	85.06
239.559	78.06
239.793	71.06
240.027	71.06
240.26	87.06
240.494	76.06
240.728	77.06
240.961	71.06
241.195	67.06
241.429	72.06
241.662	83.06
241.896	81.06
242.13	85.06
242.363	83.06
242.597	81.06
242.83	89.06
243.064	88.06
243.298	78.06
243.531	87.06
243.765	69.06
243.998	84.06
244.232	82.06
244.465	90.06
244.699	66.06
244.932	75.06
245.166	68.06
245.399	85.06
245.633	76.06
245.866	76.06
246.099	76.06
246.333	69.06
246.566	76.06
246.8	75.06
247.033	75.06
247.266	67.06
247.5	72.06
247.733	79.06
247.966	88.06
248.2	75.06
248.433	79.06
248.666	68.06
248.899	85.06
249.133	80.06
249.366	91.06
249.599	86.06
249.832	81.06
250.066	96.06
250.299	86.06
250.532	74.06
250.765	89.06
250.998	87.06
251.231	75.06
251.465	90.06
251.698	89.06
251.931	79.06
252.164	74.06
252.397	74.06
252.63	82.06
252.863	84.06
253.096	71.06
253.329	74.06
253.562	84.06
253.795	79.06
254.028	79.06
254.261	85.06
254.494	84.06
254.727	78.06
254.96	84.06
255.193	92.06
255.426	77.06
255.659	92.06
255.892	91.06
256.124	79.06
256.357	85.06
256.59	84.06
256.823	84.06
257.056	72.06
257.289	83.06
257.521	88.06
257.754	81.06
257.987	96.06
258.22	97.06
258.452	76.06
258.685	75.06
258.918	83.06
259.151	75.06
259.383	87.06
259.616	85.06
259.849	81.06
260.081	99.06
260.314	83.06
260.547	88.06
260.779	83.06
261.012	75.06
261.244	85.06
261.477	88.06
261.71	93.06
261.942	101.06
262.175	115.06
262.407	91.06
262.64	67.06
262.872	87.06
263.105	79.06
263.337	81.06
263.57	82.06
263.802	90.06
264.035	82.06
264.267	71.06
264.499	79.06
264.732	88.06
264.964	89.06
265.197	82.06
265.429	67.06
265.661	98.06
265.894	75.06
266.126	79.06
266.358	83.06
266.591	74.06
266.823	67.06
267.055	76.06
267.287	76.06
267.52	81.06
267.752	94.06
267.984	92.06
268.216	82.06
268.448	96.06
268.681	83.06
268.913	93.06
269.145	88.06
269.377	83.06
269.609	74.06
269.841	84.06
270.073	86.06
270.306	82.06
270.538	87.06
270.77	101.06
271.002	89.06
271.234	84.06
271.466	98.06
271.698	86.06
271.93	76.06
272.162	78.06
272.394	97.06
272.626	82.06
272.858	99.06
273.09	99.06
273.322	87.06
273.553	82.06
273.785	102.06
274.017	81.06
274.249	67.06
274.481	69.06
274.713	63.06
274.945	81.06
275.176	75.06
275.408	97.06
275.64	73.06
275.872	86.06
276.104	100.06
276.335	96.06
276.567	93.06
276.799	113.06
277.031	115.06
277.262	94.06
277.494	82.06
277.726	95.06
277.957	86.06
278.189	85.06
278.421	71.06
278.652	89.06
278.884	96.06
279.115	91.06
279.347	91.06
279.579	97.06
279.81	83.06
280.042	84.06
280.273	88.06
280.505	89.06
280.736	87.06
280.968	75.06
281.199	81.06
281.431	97.06
281.662	76.06
281.894	88.06
282.125	104.06
282.356	112.06
282.588	144.06
282.819	115.06
283.051	99.06
283.282	89.06
283.513	84.06
283.745	97.06
283.976	88.06
284.207	89.06
284.439	96.06
284.67	91.06
284.901	96.06
285.132	83.06
285.364	98.06
285.595	87.06
285.826	83.06
286.057	84.06
286.288	86.06
286.52	75.06
286.751	91.06
286.982	78.06
287.213	87.06
287.444	96.06
287.675	96.06
287.906	86.06
288.138	96.06
288.369	94.06
288.6	98.06
288.831	79.06
289.062	92.06
289.293	86.06
289.524	91.06
289.755	85.06
289.986	81.06
290.217	87.06
290.448	100.06
290.679	95.06
290.91	95.06
291.141	94.06
291.371	87.06
291.602	81.06
291.833	95.06
292.064	94.06
292.295	83.06
292.526	85.06
292.757	84.06
292.987	76.06
293.218	99.06
293.449	74.06
293.68	83.06
293.91	90.06
294.141	84.06
294.372	80.06
294.603	87.06
294.833	79.06
295.064	83.06
295.295	78.06
295.525	88.06
295.756	103.06
295.987	101.06
296.217	130.06
296.448	113.06
296.679	95.06
296.909	95.06
297.14	98.06
297.37	81.06
297.601	78.06
297.831	76.06
298.062	81.06
298.292	92.06
298.523	79.06
298.753	83.06
298.984	88.06
299.214	85.06
299.445	91.06
299.675	88.06
299.905	88.06
300.136	84.06
300.366	91.06
300.597	83.06
300.827	102.06
301.057	107.06
301.288	97.06
301.518	98.06
301.748	91.06
301.979	97.06
302.209	90.06
302.439	91.06
302.669	76.06
302.9	101.06
303.13	91.06
303.36	88.06
303.59	99.06
303.82	110.06
304.051	88.06
304.281	87.06
304.511	97.06
304.741	81.06
304.971	81.06
305.201	89.06
305.431	84.06
305.661	91.06
305.891	87.06
306.121	81.06
306.352	111.06
306.582	109.06
306.812	93.06
307.042	95.06
307.272	91.06
307.502	84.06
307.731	95.06
307.961	101.06
308.191	87.06
308.421	94.06
308.651	93.06
308.881	97.06
309.111	87.06
309.341	100.06
309.571	106.06
309.8	89.06
310.03	93.06
310.26	95.06
310.49	105.06
310.72	94.06
310.949	114.06
311.179	92.06
311.409	85.06
311.639	88.06
311.868	104.06
312.098	101.06
312.328	92.06
312.557	97.06
312.787	109.06
313.017	96.06
313.246	102.06
313.476	108.06
313.706	82.06
313.935	87.06
314.165	103.06
314.394	98.06
314.624	101.06
314.853	92.06
315.083	96.06
315.312	97.06
315.542	83.06
315.771	97.06
316.001	86.06
316.23	81.06
316.46	86.06
316.689	83.06
316.919	103.06
317.148	79.06
317.377	84.06
317.607	97.06
317.836	91.06
318.065	93.06
318.295	89.06
318.524	92.06
318.753	97.06
318.983	97.06
319.212	99.06
319.441	109.06
319.67	116.06
319.9	95.06
320.129	95.06
320.358	84.06
320.587	89.06
320.816	88.06
321.046	97.06
321.275	98.06
321.504	92.06
321.733	111.06
321.962	106.06
322.191	98.06
322.42	107.06
322.649	122.06
322.878	105.06
323.108	111.06
323.337	124.06
323.566	117.06
323.795	163.06
324.024	205.06
324.253	389.06
324.482	874.06
324.71	1801.06
324.939	2391.06
325.168	843.06
325.397	259.06
325.626	144.06
325.855	124.06
326.084	127.06
326.313	147.06
326.542	159.06
326.77	246.06
326.999	481.06
327.228	1004.06
327.457	1878.06
327.686	1478.06
327.914	376.06
328.143	199.06
328.372	159.06
328.6	136.06
328.829	113.06
329.058	120.06
329.287	130.06
329.515	112.06
329.744	114.06
329.972	106.06
330.201	104.06
330.43	135.06
330.658	130.06
330.887	129.06
331.115	116.06
331.344	84.06
331.572	98.06
331.801	97.06
332.03	99.06
332.258	105.06
332.486	86.06
332.715	97.06
332.943	91.06
333.172	102.06
333.4	104.06
333.629	113.06
333.857	100.06
334.085	112.06
334.314	124.06
334.542	122.06
334.771	120.06
334.999	105.06
335.227	84.06
335.455	85.06
335.684	89.06
335.912	84.06
336.14	96.06
336.369	106.06
336.597	97.06
336.825	100.06
337.053	100.06
337.281	89.06
337.51	91.06
337.738	91.06
337.966	99.06
338.194	87.06
338.422	82.06
338.65	97.06
338.878	92.06
339.106	96.06
339.334	86.06
339.562	104.06
339.79	99.06
340.018	83.06
340.246	93.06
340.474	102.06
340.702	99.06
340.93	82.06
341.158	89.06
341.386	89.06
341.614	89.06
341.842	99.06
342.07	89.06
342.298	81.06
342.526	86.06
342.754	85.06
342.981	82.06
343.209	92.06
343.437	102.06
343.665	115.06
343.893	84.06
344.12	93.06
344.348	95.06
344.576	95.06
344.804	101.06
345.031	92.06
345.259	87.06
345.487	96.06
345.714	94.06
345.942	88.06
346.17	99.06
346.397	98.06
346.625	101.06
346.853	100.06
347.08	99.06
347.308	95.06
347.535	106.06
347.763	97.06
347.99	107.06
348.218	88.06
348.445	111.06
348.673	114.06
348.9	87.06
349.128	101.06
349.355	109.06
349.583	92.06
349.81	90.06
350.037	88.06
350.265	93.06
350.492	102.06
350.72	99.06
350.947	109.06
351.174	106.06
351.402	111.06
351.629	104.06
351.856	103.06
352.083	100.06
352.311	103.06
352.538	99.06
352.765	109.06
352.992	118.06
353.22	93.06
353.447	103.06
353.674	117.06
353.901	106.06
354.128	108.06
354.355	107.06
354.583	93.06
354.81	91.06
355.037	100.06
355.264	96.06
355.491	89.06
355.718	77.06
355.945	87.06
356.172	79.06
356.399	95.06
356.626	89.06
356.853	92.06
357.08	112.06
357.307	103.06
357.534	87.06
357.761	86.06
357.988	101.06
358.215	100.06
358.441	108.06
358.668	93.06
358.895	100.06
359.122	91.06
359.349	94.06
359.576	68.06
359.802	106.06
360.029	103.06
360.256	113.06
360.483	75.06
360.709	92.06
360.936	92.06
361.163	81.06
361.39	88.06
361.616	113.06
361.843	91.06
362.07	87.06
362.296	98.06
362.523	82.06
362.749	85.06
362.976	80.06
363.203	90.06
363.429	76.06
363.656	99.06
363.882	91.06
364.109	77.06
364.335	93.06
364.562	99.06
364.788	89.06
365.015	89.06
365.241	113.06
365.468	112.06
365.694	109.06
365.92	87.06
366.147	76.06
366.373	90.06
366.599	88.06
366.826	92.06
367.052	87.06
367.278	102.06
367.505	83.06
367.731	91.06
367.957	82.06
368.184	92.06
368.41	102.06
368.636	103.06
368.862	115.06
369.089	117.06
369.315	96.06
369.541	96.06
369.767	87.06
369.993	83.06
370.219	88.06
370.445	80.06
370.672	79.06
370.898	80.06
371.124	83.06
371.35	83.06
371.576	87.06
371.802	97.06
372.028	76.06
372.254	86.06
372.48	94.06
372.706	89.06
372.932	82.06
373.158	76.06
373.384	100.06
373.61	90.06
373.835	105.06
374.061	86.06
374.287	97.06
374.513	83.06
374.739	90.06
374.965	71.06
375.191	88.06
375.416	93.06
375.642	84.06
375.868	88.06
376.094	92.06
376.319	86.06
376.545	92.06
376.771	80.06
376.997	92.06
377.222	87.06
377.448	85.06
377.674	82.06
377.899	77.06
378.125	91.06
378.35	92.06
378.576	76.06
378.802	95.06
379.027	87.06
379.253	93.06
379.478	96.06
379.704	103.06
379.929	80.06
380.155	96.06
380.38	94.06
380.606	96.06
380.831	93.06
381.057	93.06
381.282	84.06
381.507	94.06
381.733	98.06
381.958	90.06
382.184	97.06
382.409	88.06
382.634	95.06
382.86	93.06
383.085	95.06
383.31	98.06
383.535	108.06
383.761	102.06
383.986	90.06
384.211	90.06
384.436	105.06
384.662	87.06
384.887	95.06
385.112	104.06
385.337	98.06
385.562	109.06
385.787	97.06
386.013	102.06
386.238	102.06
386.463	100.06
386.688	105.06
386.913	104.06
387.138	98.06
387.363	104.06
387.588	104.06
387.813	109.06
388.038	84.06
388.263	106.06
388.488	94.06
388.713	92.06
388.938	75.06
389.163	92.06
389.387	84.06
389.612	98.06
389.837	87.06
390.062	107.06
390.287	98.06
390.512	98.06
390.736	90.06
390.961	83.06
391.186	93.06
391.411	96.06
391.636	95.06
391.86	86.06
392.085	88.06
392.31	90.06
392.534	79.06
392.759	79.06
392.984	87.06
393.208	94.06
393.433	95.06
393.658	87.06
393.882	87.06
394.107	83.06
394.331	68.06
394.556	89.06
394.78	83.06
395.005	84.06
395.229	97.06
395.454	92.06
395.678	94.06
395.903	84.06
396.127	87.06
396.352	103.06
396.576	95.06
396.801	88.06
397.025	99.06
397.249	93.06
397.474	85.06
397.698	89.06
397.922	83.06
398.147	73.06
398.371	83.06
398.595	92.06
398.82	81.06
399.044	92.06
399.268	102.06
399.492	90.06
399.717	96.06
399.941	96.06
400.165	88.06
400.389	89.06
400.613	79.06
400.837	83.06
401.062	97.06
401.286	92.06
401.51	90.06
401.734	79.06
401.958	97.06
402.182	127.06
402.406	137.06
402.63	119.06
402.854	86.06
403.078	103.06
403.302	85.06
403.526	79.06
403.75	96.06
403.974	105.06
404.198	94.06
404.422	99.06
404.645	92.06
404.869	91.06
405.093	100.06
405.317	100.06
405.541	99.06
405.765	93.06
405.988	112.06
406.212	171.06
406.436	225.06
406.66	126.06
406.883	109.06
407.107	108.06
407.331	79.06
407.555	96.06
407.778	98.06
408.002	97.06
408.226	95.06
408.449	91.06
408.673	92.06
408.896	104.06
409.12	91.06
409.344	95.06
409.567	98.06
409.791	84.06
410.014	98.06
410.238	102.06
410.461	102.06
410.685	102.06
410.908	88.06
411.132	118.06
411.355	108.06
411.578	85.06
411.802	97.06
412.025	82.06
412.249	98.06
412.472	88.06
412.695	91.06
412.919	93.06
413.142	81.06
413.365	95.06
413.589	85.06
413.812	97.06
414.035	98.06
414.258	90.06
414.482	107.06
414.705	101.06
414.928	96.06
415.151	96.06
415.374	101.06
415.597	89.06
415.821	93.06
416.044	99.06
416.267	93.06
416.49	99.06
416.713	75.06
416.936	89.06
417.159	101.06
417.382	88.06
417.605	96.06
417.828	73.06
418.051	87.06
418.274	91.06
418.497	89.06
418.72	91.06
418.943	84.06
419.166	93.06
419.389	93.06
419.611	90.06
419.834	97.06
420.057	83.06
420.28	99.06
420.503	83.06
420.726	93.06
420.948	85.06
421.171	95.06
421.394	76.06
421.617	89.06
421.839	97.06
422.062	103.06
422.285	91.06
422.507	106.06
422.73	108.06
422.953	88.06
423.175	91.06
423.398	91.06
423.621	104.06
423.843	100.06
424.066	97.06
424.288	82.06
424.511	89.06
424.733	87.06
424.956	89.06
425.178	97.06
425.401	86.06
425.623	91.06
425.846	89.06
426.068	96.06
426.291	98.06
426.513	97.06
426.735	82.06
426.958	94.06
427.18	103.06
427.402	134.06
427.625	160.06
427.847	124.06
428.069	119.06
428.292	96.06
428.514	89.06
428.736	89.06
428.958	79.06
429.181	85.06
429.403	95.06
429.625	95.06
429.847	74.06
430.069	99.06
430.292	92.06
430.514	114.06
430.736	86.06
430.958	87.06
431.18	72.06
431.402	85.06
431.624	82.06
431.846	83.06
432.068	99.06
432.29	93.06
432.512	88.06
432.734	74.06
432.956	103.06
433.178	115.06
433.4	96.06
433.622	100.06
433.844	92.06
434.066	88.06
434.287	97.06
434.509	87.06
434.731	99.06
434.953	93.06
435.175	85.06
435.397	94.06
435.618	107.06
435.84	103.06
436.062	118.06
436.284	118.06
436.505	91.06
436.727	85.06
436.949	84.06
437.17	105.06
437.392	98.06
437.614	70.06
437.835	109.06
438.057	120.06
438.278	116.06
438.5	112.06
438.721	121.06
438.943	109.06
439.165	92.06
439.386	92.06
439.608	97.06
439.829	96.06
440.05	116.06
440.272	128.06
440.493	111.06
440.715	81.06
440.936	84.06
441.158	99.06
441.379	93.06
441.6	95.06
441.822	98.06
442.043	96.06
442.264	107.06
442.486	103.06
442.707	95.06
442.928	96.06
443.149	131.06
443.371	118.06
443.592	109.06
443.813	113.06
444.034	113.06
444.255	112.06
444.476	100.06
444.698	100.06
444.919	86.06
445.14	129.06
445.361	125.06
445.582	104.06
445.803	132.06
446.024	113.06
446.245	131.06
446.466	104.06
446.687	97.06
446.908	81.06
447.129	81.06
447.35	86.06
447.571	99.06
447.792	97.06
448.013	104.06
448.234	108.06
448.455	96.06
448.675	108.06
448.896	103.06
449.117	103.06
449.338	109.06
449.559	126.06
449.779	122.06
450	95.06
450.221	87.06
450.442	91.06
450.662	103.06
450.883	104.06
451.104	103.06
451.324	79.06
451.545	84.06
451.766	81.06
451.986	96.06
452.207	88.06
452.428	88.06
452.648	97.06
452.869	100.06
453.089	108.06
453.31	110.06
453.53	91.06
453.751	95.06
453.971	103.06
454.192	108.06
454.412	99.06
454.633	84.06
454.853	86.06
455.073	76.06
455.294	97.06
455.514	93.06
455.734	83.06
455.955	88.06
456.175	76.06
456.395	84.06
456.616	87.06
456.836	96.06
457.056	100.06
457.276	86.06
457.497	84.06
457.717	80.06
457.937	93.06
458.157	87.06
458.377	84.06
458.598	96.06
458.818	133.06
459.038	150.06
459.258	121.06
459.478	96.06
459.698	98.06
459.918	87.06
460.138	97.06
460.358	83.06
460.578	86.06
460.798	88.06
461.018	85.06
461.238	84.06
461.458	97.06
461.678	84.06
461.898	87.06
462.118	95.06
462.338	92.06
462.558	81.06
462.777	76.06
462.997	83.06
463.217	77.06
463.437	85.06
463.657	92.06
463.876	72.06
464.096	81.06
464.316	82.06
464.536	96.06
464.755	92.06
464.975	108.06
465.195	163.06
465.414	154.06
465.634	89.06
465.854	95.06
466.073	90.06
466.293	95.06
466.512	84.06
466.732	80.06
466.951	111.06
467.171	89.06
467.391	99.06
467.61	107.06
467.829	94.06
468.049	98.06
468.268	99.06
468.488	93.06
468.707	85.06
468.927	91.06
469.146	101.06
469.365	97.06
469.585	80.06
469.804	82.06
470.023	85.06
470.243	92.06
470.462	106.06
470.681	109.06
470.901	77.06
471.12	85.06
471.339	95.06
471.558	89.06
471.777	99.06
471.997	91.06
472.216	106.06
472.435	116.06
472.654	98.06
472.873	88.06
473.092	87.06
473.311	84.06
473.53	87.06
473.749	86.06
473.968	106.06
474.187	107.06
474.406	88.06
474.625	92.06
474.844	99.06
475.063	91.06
475.282	92.06
475.501	83.06
475.72	87.06
475.939	92.06
476.158	95.06
476.377	81.06
476.596	80.06
476.814	92.06
477.033	102.06
477.252	97.06
477.471	89.06
477.69	91.06
477.908	88.06
478.127	95.06
478.346	93.06
478.564	98.06
478.783	95.06
479.002	75.06
479.22	93.06
479.439	108.06
479.658	95.06
479.876	92.06
480.095	99.06
480.313	88.06
480.532	95.06
480.751	89.06
480.969	120.06
481.188	180.06
481.406	130.06
481.624	98.06
481.843	100.06
482.061	90.06
482.28	98.06
482.498	98.06
482.717	95.06
482.935	95.06
483.153	90.06
483.372	91.06
483.59	100.06
483.808	92.06
484.027	96.06
484.245	88.06
484.463	108.06
484.681	104.06
484.9	99.06
485.118	102.06
485.336	105.06
485.554	97.06
485.772	103.06
485.99	104.06
486.209	114.06
486.427	103.06
486.645	105.06
486.863	110.06
487.081	107.06
487.299	107.06
487.517	101.06
487.735	103.06
487.953	90.06
488.171	93.06
488.389	92.06
488.607	92.06
488.825	96.06
489.043	85.06
489.261	99.06
489.479	75.06
489.696	79.06
489.914	91.06
490.132	102.06
490.35	90.06
490.568	91.06
490.786	97.06
491.003	90.06
491.221	90.06
491.439	85.06
491.657	88.06
491.874	92.06
492.092	94.06
492.31	88.06
492.527	82.06
492.745	108.06
492.963	96.06
493.18	102.06
493.398	100.06
493.615	87.06
493.833	95.06
494.05	86.06
494.268	97.06
494.485	99.06
494.703	91.06
494.92	101.06
495.138	66.06
495.355	84.06
495.573	91.06
495.79	91.06
496.008	105.06
496.225	95.06
496.442	99.06
496.66	89.06
496.877	96.06
497.094	106.06
497.312	82.06
497.529	86.06
497.746	88.06
497.963	88.06
498.181	100.06
498.398	86.06
498.615	99.06
498.832	104.06
499.049	103.06
499.267	81.06
499.484	92.06
499.701	87.06
499.918	95.06
500.135	99.06
500.352	103.06
500.569	97.06
500.786	110.06
501.003	85.06
501.22	88.06
501.437	97.06
501.654	92.06
501.871	115.06
502.088	97.06
502.305	85.06
502.522	89.06
502.739	96.06
502.956	84.06
503.172	98.06
503.389	99.06
503.606	112.06
503.823	95.06
504.04	105.06
504.256	108.06
504.473	89.06
504.69	95.06
504.907	98.06
505.123	98.06
505.34	91.06
505.557	89.06
505.773	85.06
505.99	83.06
506.207	95.06
506.423	92.06
506.64	69.06
506.856	87.06
507.073	76.06
507.289	108.06
507.506	103.06
507.722	106.06
507.939	106.06
508.155	92.06
508.372	98.06
508.588	104.06
508.805	98.06
509.021	91.06
509.238	112.06
509.454	95.06
509.67	105.06
509.887	123.06
510.103	114.06
510.319	215.06
510.536	739.06
510.752	2283.06
510.968	647.06
511.184	172.06
511.401	122.06
511.617	93.06
511.833	88.06
512.049	95.06
512.265	104.06
512.481	89.06
512.698	85.06
512.914	94.06
513.13	89.06
513.346	86.06
513.562	99.06
513.778	95.06
513.994	88.06
514.21	101.06
514.426	119.06
514.642	119.06
514.858	113.06
515.074	163.06
515.29	447.06
515.506	1417.06
515.721	504.06
515.937	137.06
516.153	106.06
516.369	87.06
516.585	98.06
516.801	79.06
517.016	96.06
517.232	99.06
517.448	95.06
517.664	100.06
517.879	87.06
518.095	107.06
518.311	105.06
518.527	93.06
518.742	96.06
518.958	90.06
519.173	96.06
519.389	105.06
519.605	90.06
519.82	87.06
520.036	105.06
520.251	109.06
520.467	119.06
520.682	89.06
520.898	108.06
521.113	109.06
521.329	147.06
521.544	210.06
521.76	539.06
521.975	2340.06
522.19	1393.06
522.406	295.06
522.621	120.06
522.836	102.06
523.052	108.06
523.267	86.06
523.482	105.06
523.698	115.06
523.913	128.06
524.128	98.06
524.343	98.06
524.559	85.06
524.774	97.06
524.989	88.06
525.204	118.06
525.419	104.06
525.634	99.06
525.849	89.06
526.064	81.06
526.28	88.06
526.495	88.06
526.71	99.06
526.925	81.06
527.14	87.06
527.355	95.06
527.57	75.06
527.785	89.06
527.999	79.06
528.214	89.06
528.429	98.06
528.644	89.06
528.859	100.06
529.074	98.06
529.289	127.06
529.503	183.06
529.718	95.06
529.933	94.06
530.148	87.06
530.363	99.06
530.577	98.06
530.792	100.06
531.007	93.06
531.221	85.06
531.436	93.06
531.651	96.06
531.865	91.06
532.08	83.06
532.295	104.06
532.509	93.06
532.724	100.06
532.938	112.06
533.153	97.06
533.367	92.06
533.582	100.06
533.796	94.06
534.011	90.06
534.225	102.06
534.44	96.06
534.654	97.06
534.868	84.06
535.083	89.06
535.297	93.06
535.511	100.06
535.726	106.06
535.94	89.06
536.154	95.06
536.369	97.06
536.583	93.06
536.797	95.06
537.011	96.06
537.225	83.06
537.44	91.06
537.654	93.06
537.868	95.06
538.082	88.06
538.296	86.06
538.51	86.06
538.724	99.06
538.938	91.06
539.153	90.06
539.367	91.06
539.581	91.06
539.795	86.06
540.009	83.06
540.222	85.06
540.436	85.06
540.65	95.06
540.864	97.06
541.078	106.06
541.292	98.06
541.506	102.06
541.72	95.06
541.934	87.06
542.147	90.06
542.361	97.06
542.575	92.06
542.789	91.06
543.002	96.06
543.216	104.06
543.43	92.06
543.644	99.06
543.857	105.06
544.071	101.06
544.285	90.06
544.498	76.06
544.712	96.06
544.925	72.06
545.139	102.06
545.352	112.06
545.566	85.06
545.779	88.06
545.993	91.06
546.206	90.06
546.42	82.06
546.633	86.06
546.847	96.06
547.06	83.06
547.274	82.06
547.487	91.06
547.7	78.06
547.914	88.06
548.127	93.06
548.34	71.06
548.554	84.06
548.767	85.06
548.98	102.06
549.193	93.06
549.407	92.06
549.62	107.06
549.833	90.06
550.046	91.06
550.259	92.06
550.473	104.06
550.686	91.06
550.899	91.06
551.112	92.06
551.325	88.06
551.538	99.06
551.751	83.06
551.964	89.06
552.177	89.06
552.39	90.06
552.603	88.06
552.816	87.06
553.029	93.06
553.242	101.06
553.455	90.06
553.667	103.06
553.88	93.06
554.093	86.06
554.306	88.06
554.519	104.06
554.732	93.06
554.944	97.06
555.157	93.06
555.37	97.06
555.583	86.06
555.795	100.06
556.008	97.06
556.221	100.06
556.433	82.06
556.646	96.06
556.859	87.06
557.071	97.06
557.284	95.06
557.496	101.06
557.709	93.06
557.921	80.06
558.134	93.06
558.346	85.06
558.559	86.06
558.771	101.06
558.984	101.06
559.196	100.06
559.409	95.06
559.621	83.06
559.833	85.06
560.046	80.06
560.258	85.06
560.47	82.06
560.683	83.06
560.895	96.06
561.107	82.06
561.32	82.06
561.532	95.06
561.744	85.06
561.956	82.06
562.168	103.06
562.381	93.06
562.593	77.06
562.805	91.06
563.017	95.06
563.229	99.06
563.441	91.06
563.653	96.06
563.865	97.06
564.077	83.06
564.289	91.06
564.501	93.06
564.713	93.06
564.925	87.06
565.137	101.06
565.349	96.06
565.561	95.06
565.773	102.06
565.985	84.06
566.197	100.06
566.408	85.06
566.62	94.06
566.832	83.06
567.044	77.06
567.255	93.06
567.467	81.06
567.679	91.06
567.891	71.06
568.102	90.06
568.314	91.06
568.526	90.06
568.737	84.06
568.949	77.06
569.161	91.06
569.372	81.06
569.584	86.06
569.795	101.06
570.007	106.06
570.218	240.06
570.43	122.06
570.641	99.06
570.853	88.06
571.064	99.06
571.276	86.06
571.487	89.06
571.698	95.06
571.91	89.06
572.121	95.06
572.333	81.06
572.544	89.06
572.755	82.06
572.966	93.06
573.178	102.06
573.389	90.06
573.6	92.06
573.811	96.06
574.023	90.06
574.234	62.06
574.445	97.06
574.656	85.06
574.867	85.06
575.078	84.06
575.289	91.06
575.501	95.06
575.712	100.06
575.923	92.06
576.134	94.06
576.345	81.06
576.556	102.06
576.767	84.06
576.978	79.06
577.188	93.06
577.399	102.06
577.61	98.06
577.821	97.06
578.032	113.06
578.243	271.06
578.454	739.06
578.665	219.06
578.875	109.06
579.086	97.06
579.297	99.06
579.508	84.06
579.718	91.06
579.929	93.06
580.14	95.06
580.35	96.06
580.561	93.06
580.772	97.06
580.982	75.06
581.193	88.06
581.403	91.06
581.614	87.06
581.825	86.06
582.035	84.06
582.246	91.06
582.456	84.06
582.667	89.06
582.877	94.06
583.087	97.06
583.298	97.06
583.508	82.06
583.719	69.06
583.929	83.06
584.139	97.06
584.35	77.06
584.56	111.06
584.77	91.06
584.981	93.06
585.191	100.06
585.401	81.06
585.611	73.06
585.821	97.06
586.032	97.06
586.242	85.06
586.452	70.06
586.662	83.06
586.872	83.06
587.082	90.06
587.292	95.06
587.502	77.06
587.713	79.06
587.923	86.06
588.133	84.06
588.343	83.06
588.553	71.06
588.762	87.06
588.972	85.06
589.182	97.06
589.392	69.06
589.602	92.06
589.812	88.06
590.022	90.06
590.232	83.06
590.441	79.06
590.651	83.06
590.861	98.06
591.071	88.06
591.281	92.06
591.49	83.06
591.7	83.06
591.91	80.06
592.119	92.06
592.329	101.06
592.539	103.06
592.748	92.06
592.958	88.06
593.167	84.06
593.377	91.06
593.587	82.06
593.796	91.06
594.006	104.06
594.215	89.06
594.424	83.06
594.634	101.06
594.843	69.06
595.053	87.06
595.262	89.06
595.472	84.06
595.681	73.06
595.89	77.06
596.1	97.06
596.309	85.06
596.518	70.06
596.727	81.06
596.937	85.06
597.146	94.06
597.355	76.06
597.564	84.06
597.774	93.06
597.983	101.06
598.192	84.06
598.401	83.06
598.61	84.06
598.819	91.06
599.028	81.06
599.237	89.06
599.446	93.06
599.655	101.06
599.864	88.06
600.073	93.06
600.282	85.06
600.491	97.06
600.7	88.06
600.909	85.06
601.118	112.06
601.327	99.06
601.536	101.06
601.745	77.06
601.953	91.06
602.162	95.06
602.371	100.06
602.58	88.06
602.789	97.06
602.997	81.06
603.206	90.06
603.415	74.06
603.623	95.06
603.832	71.06
604.041	87.06
604.249	90.06
604.458	95.06
604.666	85.06
604.875	82.06
605.084	80.06
605.292	87.06
605.501	103.06
605.709	98.06
605.918	77.06
606.126	87.06
606.334	88.06
606.543	90.06
606.751	90.06
606.96	81.06
607.168	96.06
607.376	102.06
607.585	85.06
607.793	76.06
608.001	75.06
608.21	95.06
608.418	87.06
608.626	95.06
608.834	100.06
609.043	90.06
609.251	88.06
609.459	87.06
609.667	75.06
609.875	84.06
610.083	87.06
610.291	75.06
610.499	91.06
610.707	79.06
610.916	82.06
611.124	86.06
611.332	81.06
611.54	88.06
611.748	91.06
611.955	91.06
612.163	89.06
612.371	89.06
612.579	93.06
612.787	100.06
612.995	83.06
613.203	88.06
613.411	79.06
613.618	84.06
613.826	89.06
614.034	91.06
614.242	71.06
614.449	86.06
614.657	92.06
614.865	86.06
615.072	82.06
615.28	88.06
615.488	89.06
615.695	86.06
615.903	100.06
616.111	93.06
616.318	109.06
616.526	104.06
616.733	114.06
616.941	83.06
617.148	90.06
617.356	99.06
617.563	83.06
617.771	99.06
617.978	84.06
618.185	91.06
618.393	89.06
618.6	85.06
618.807	81.06
619.015	91.06
619.222	80.06
619.429	93.06
619.637	86.06
619.844	74.06
620.051	85.06
620.258	93.06
620.466	100.06
620.673	79.06
620.88	87.06
621.087	76.06
621.294	92.06
621.501	77.06
621.708	87.06
621.915	83.06
622.122	72.06
622.329	83.06
622.536	77.06
622.743	83.06
622.95	92.06
623.157	89.06
623.364	95.06
623.571	86.06
623.778	77.06
623.985	101.06
624.192	84.06
624.399	84.06
624.606	80.06
624.812	89.06
625.019	95.06
625.226	91.06
625.433	90.06
625.639	107.06
625.846	85.06
626.053	72.06
626.259	90.06
626.466	79.06
626.673	90.06
626.879	87.06
627.086	86.06
627.293	92.06
627.499	81.06
627.706	90.06
627.912	76.06
628.119	89.06
628.325	79.06
628.532	81.06
628.738	88.06
628.945	85.06
629.151	93.06
629.357	82.06
629.564	85.06
629.77	75.06
629.976	76.06
630.183	84.06
630.389	89.06
630.595	90.06
630.802	105.06
631.008	72.06
631.214	87.06
631.42	93.06
631.627	76.06
631.833	89.06
632.039	81.06
632.245	81.06
632.451	93.06
632.657	80.06
632.863	100.06
633.069	100.06
633.275	82.06
633.481	98.06
633.688	84.06
633.893	81.06
634.099	90.06
634.305	83.06
634.511	88.06
634.717	80.06
634.923	74.06
635.129	97.06
635.335	69.06
635.541	81.06
635.747	85.06
635.952	80.06
636.158	77.06
636.364	96.06
636.57	85.06
636.775	76.06
636.981	75.06
637.187	76.06
637.392	71.06
637.598	88.06
637.804	77.06
638.009	79.06
638.215	83.06
638.421	88.06
638.626	79.06
638.832	80.06
639.037	85.06
639.243	95.06
639.448	92.06
639.654	89.06
639.859	83.06
640.065	89.06
640.27	86.06
640.475	75.06
640.681	95.06
640.886	100.06
641.091	83.06
641.297	95.06
641.502	89.06
641.707	93.06
641.913	92.06
642.118	81.06
642.323	76.06
642.528	94.06
642.733	91.06
642.939	89.06
643.144	86.06
643.349	95.06
643.554	90.06
643.759	76.06
643.964	76.06
644.169	100.06
644.374	85.06
644.579	94.06
644.784	89.06
644.989	91.06
645.194	88.06
645.399	87.06
645.604	89.06
645.809	98.06
646.014	87.06
646.219	93.06
646.423	76.06
646.628	92.06
646.833	85.06
647.038	93.06
647.243	92.06
647.447	93.06
647.652	90.06
647.857	86.06
648.062	92.06
648.266	83.06
648.471	107.06
648.676	87.06
648.88	101.06
649.085	90.06
649.289	95.06
649.494	102.06
649.698	137.06
649.903	107.06
650.107	89.06
650.312	76.06
650.516	90.06
650.721	87.06
650.925	87.06
651.13	88.06
651.334	88.06
651.539	75.06
651.743	83.06
651.947	90.06
652.152	85.06
652.356	79.06
652.56	90.06
652.764	95.06
652.969	87.06
653.173	95.06
653.377	93.06
653.581	87.06
653.785	77.06
653.99	76.06
654.194	88.06
654.398	94.06
654.602	90.06
654.806	76.06
655.01	119.06
655.214	95.06
655.418	89.06
655.622	83.06
655.826	84.06
656.03	97.06
656.234	83.06
656.438	96.06
656.642	89.06
656.846	93.06
657.049	107.06
657.253	84.06
657.457	94.06
657.661	95.06
657.865	79.06
658.068	79.06
658.272	81.06
658.476	76.06
658.68	68.06
658.883	84.06
659.087	94.06
659.291	79.06
659.494	76.06
659.698	83.06
659.901	90.06
660.105	66.06
660.309	80.06
660.512	88.06
660.716	79.06
660.919	82.06
661.123	86.06
661.326	98.06
661.53	83.06
661.733	72.06
661.936	75.06
662.14	78.06
662.343	90.06
662.546	76.06
662.75	89.06
662.953	79.06
663.156	95.06
663.36	85.06
663.563	79.06
663.766	87.06
663.969	86.06
664.173	72.06
664.376	79.06
664.579	79.06
664.782	77.06
664.985	79.06
665.188	84.06
665.391	92.06
665.594	72.06
665.797	75.06
666	84.06
666.203	80.06
666.406	84.06
666.609	82.06
666.812	86.06
667.015	82.06
667.218	81.06
667.421	95.06
667.624	71.06
667.827	86.06
668.03	97.06
668.232	83.06
668.435	87.06
668.638	92.06
668.841	85.06
669.043	86.06
669.246	81.06
669.449	67.06
669.651	73.06
669.854	83.06
670.057	71.06
670.259	71.06
670.462	82.06
670.665	92.06
670.867	85.06
671.07	77.06
671.272	83.06
671.475	85.06
671.677	85.06
671.88	71.06
672.082	81.06
672.284	98.06
672.487	65.06
672.689	71.06
672.892	92.06
