Data from Uncirc_1985_H10_HRD10591_00022.txt Node
Date: Wed Jan 03 12:18:21 EST 2024
User: Yrep
Spectrometer: HR+D1059
Trigger mode: 1
Integration Time (sec): 1.000000E-1
Scans to average: 1
Electric dark correction enabled: true
Nonlinearity correction enabled: false
Boxcar width: 0
XAxis mode: Wavelengths
Number of Pixels in Spectrum: 2048
>>>>>Begin Spectral Data<<<<<
223.165	-15.94
223.4	-15.94
223.635	-15.94
223.869	-19.94
224.104	-26.94
224.338	-23.94
224.573	-19.94
224.808	-18.94
225.042	-8.94
225.277	-12.94
225.511	12.06
225.746	15.06
225.98	8.06
226.215	19.06
226.449	19.06
226.683	25.06
226.918	29.06
227.152	20.06
227.387	30.06
227.621	46.06
227.856	55.06
228.09	44.06
228.324	63.06
228.559	51.06
228.793	58.06
229.027	72.06
229.262	73.06
229.496	64.06
229.73	77.06
229.964	73.06
230.199	72.06
230.433	84.06
230.667	94.06
230.901	75.06
231.136	75.06
231.37	78.06
231.604	74.06
231.838	83.06
232.072	100.06
232.306	82.06
232.541	80.06
232.775	75.06
233.009	88.06
233.243	78.06
233.477	92.06
233.711	96.06
233.945	82.06
234.179	95.06
234.413	86.06
234.647	70.06
234.881	77.06
235.115	92.06
235.349	72.06
235.583	84.06
235.817	87.06
236.051	95.06
236.285	89.06
236.519	87.06
236.753	79.06
236.987	84.06
237.221	96.06
237.455	71.06
237.689	86.06
237.922	68.06
238.156	74.06
238.39	80.06
238.624	77.06
238.858	90.06
239.091	83.06
239.325	75.06
239.559	80.06
239.793	96.06
240.027	73.06
240.26	67.06
240.494	67.06
240.728	71.06
240.961	83.06
241.195	79.06
241.429	80.06
241.662	83.06
241.896	79.06
242.13	87.06
242.363	74.06
242.597	82.06
242.83	97.06
243.064	79.06
243.298	82.06
243.531	90.06
243.765	71.06
243.998	89.06
244.232	87.06
244.465	86.06
244.699	80.06
244.932	79.06
245.166	79.06
245.399	76.06
245.633	96.06
245.866	90.06
246.099	82.06
246.333	72.06
246.566	79.06
246.8	88.06
247.033	84.06
247.266	82.06
247.5	90.06
247.733	72.06
247.966	82.06
248.2	77.06
248.433	88.06
248.666	92.06
248.899	88.06
249.133	95.06
249.366	100.06
249.599	113.06
249.832	82.06
250.066	94.06
250.299	93.06
250.532	86.06
250.765	84.06
250.998	86.06
251.231	83.06
251.465	75.06
251.698	71.06
251.931	94.06
252.164	76.06
252.397	83.06
252.63	67.06
252.863	92.06
253.096	78.06
253.329	100.06
253.562	80.06
253.795	76.06
254.028	83.06
254.261	78.06
254.494	85.06
254.727	75.06
254.96	91.06
255.193	72.06
255.426	84.06
255.659	93.06
255.892	100.06
256.124	87.06
256.357	91.06
256.59	80.06
256.823	74.06
257.056	85.06
257.289	72.06
257.521	85.06
257.754	74.06
257.987	86.06
258.22	78.06
258.452	102.06
258.685	77.06
258.918	83.06
259.151	94.06
259.383	69.06
259.616	85.06
259.849	86.06
260.081	77.06
260.314	88.06
260.547	83.06
260.779	72.06
261.012	90.06
261.244	86.06
261.477	96.06
261.71	102.06
261.942	107.06
262.175	92.06
262.407	105.06
262.64	95.06
262.872	94.06
263.105	89.06
263.337	97.06
263.57	82.06
263.802	78.06
264.035	93.06
264.267	88.06
264.499	77.06
264.732	92.06
264.964	85.06
265.197	82.06
265.429	79.06
265.661	72.06
265.894	89.06
266.126	98.06
266.358	90.06
266.591	82.06
266.823	76.06
267.055	87.06
267.287	93.06
267.52	95.06
267.752	85.06
267.984	85.06
268.216	88.06
268.448	76.06
268.681	78.06
268.913	82.06
269.145	98.06
269.377	75.06
269.609	79.06
269.841	90.06
270.073	90.06
270.306	89.06
270.538	90.06
270.77	84.06
271.002	91.06
271.234	83.06
271.466	86.06
271.698	98.06
271.93	96.06
272.162	86.06
272.394	89.06
272.626	82.06
272.858	88.06
273.09	78.06
273.322	74.06
273.553	77.06
273.785	88.06
274.017	97.06
274.249	96.06
274.481	94.06
274.713	88.06
274.945	90.06
275.176	97.06
275.408	77.06
275.64	83.06
275.872	87.06
276.104	91.06
276.335	111.06
276.567	115.06
276.799	103.06
277.031	86.06
277.262	79.06
277.494	99.06
277.726	92.06
277.957	81.06
278.189	89.06
278.421	83.06
278.652	103.06
278.884	83.06
279.115	82.06
279.347	95.06
279.579	97.06
279.81	76.06
280.042	96.06
280.273	90.06
280.505	96.06
280.736	100.06
280.968	92.06
281.199	90.06
281.431	75.06
281.662	81.06
281.894	86.06
282.125	85.06
282.356	131.06
282.588	138.06
282.819	103.06
283.051	93.06
283.282	85.06
283.513	103.06
283.745	94.06
283.976	95.06
284.207	88.06
284.439	88.06
284.67	88.06
284.901	83.06
285.132	79.06
285.364	85.06
285.595	90.06
285.826	94.06
286.057	90.06
286.288	88.06
286.52	101.06
286.751	87.06
286.982	86.06
287.213	90.06
287.444	89.06
287.675	101.06
287.906	97.06
288.138	98.06
288.369	89.06
288.6	99.06
288.831	82.06
289.062	93.06
289.293	96.06
289.524	90.06
289.755	87.06
289.986	106.06
290.217	89.06
290.448	93.06
290.679	98.06
290.91	84.06
291.141	92.06
291.371	97.06
291.602	89.06
291.833	92.06
292.064	100.06
292.295	88.06
292.526	96.06
292.757	94.06
292.987	82.06
293.218	96.06
293.449	98.06
293.68	86.06
293.91	93.06
294.141	97.06
294.372	98.06
294.603	75.06
294.833	84.06
295.064	105.06
295.295	93.06
295.525	94.06
295.756	97.06
295.987	132.06
296.217	137.06
296.448	101.06
296.679	102.06
296.909	105.06
297.14	92.06
297.37	99.06
297.601	102.06
297.831	100.06
298.062	91.06
298.292	99.06
298.523	94.06
298.753	100.06
298.984	97.06
299.214	100.06
299.445	84.06
299.675	101.06
299.905	92.06
300.136	86.06
300.366	89.06
300.597	101.06
300.827	88.06
301.057	93.06
301.288	97.06
301.518	105.06
301.748	94.06
301.979	110.06
302.209	87.06
302.439	94.06
302.669	98.06
302.9	95.06
303.13	95.06
303.36	100.06
303.59	103.06
303.82	105.06
304.051	99.06
304.281	91.06
304.511	96.06
304.741	84.06
304.971	98.06
305.201	98.06
305.431	95.06
305.661	89.06
305.891	98.06
306.121	98.06
306.352	106.06
306.582	88.06
306.812	90.06
307.042	78.06
307.272	106.06
307.502	102.06
307.731	102.06
307.961	97.06
308.191	93.06
308.421	95.06
308.651	98.06
308.881	84.06
309.111	76.06
309.341	93.06
309.571	99.06
309.8	99.06
310.03	100.06
310.26	96.06
310.49	86.06
310.72	93.06
310.949	103.06
311.179	100.06
311.409	88.06
311.639	83.06
311.868	107.06
312.098	89.06
312.328	100.06
312.557	102.06
312.787	90.06
313.017	103.06
313.246	95.06
313.476	99.06
313.706	82.06
313.935	90.06
314.165	89.06
314.394	91.06
314.624	104.06
314.853	90.06
315.083	106.06
315.312	85.06
315.542	99.06
315.771	90.06
316.001	91.06
316.23	106.06
316.46	100.06
316.689	72.06
316.919	94.06
317.148	94.06
317.377	90.06
317.607	90.06
317.836	89.06
318.065	98.06
318.295	91.06
318.524	95.06
318.753	99.06
318.983	104.06
319.212	106.06
319.441	111.06
319.67	115.06
319.9	103.06
320.129	91.06
320.358	92.06
320.587	90.06
320.816	93.06
321.046	96.06
321.275	114.06
321.504	86.06
321.733	96.06
321.962	95.06
322.191	104.06
322.42	100.06
322.649	102.06
322.878	114.06
323.108	107.06
323.337	135.06
323.566	133.06
323.795	159.06
324.024	198.06
324.253	344.06
324.482	750.06
324.71	1585.06
324.939	2054.06
325.168	756.06
325.397	241.06
325.626	143.06
325.855	116.06
326.084	112.06
326.313	140.06
326.542	141.06
326.77	213.06
326.999	432.06
327.228	877.06
327.457	1579.06
327.686	1262.06
327.914	349.06
328.143	181.06
328.372	133.06
328.6	131.06
328.829	119.06
329.058	114.06
329.287	119.06
329.515	99.06
329.744	118.06
329.972	115.06
330.201	102.06
330.43	112.06
330.658	126.06
330.887	127.06
331.115	121.06
331.344	105.06
331.572	122.06
331.801	102.06
332.03	110.06
332.258	98.06
332.486	101.06
332.715	110.06
332.943	95.06
333.172	103.06
333.4	103.06
333.629	93.06
333.857	116.06
334.085	100.06
334.314	111.06
334.542	122.06
334.771	109.06
334.999	107.06
335.227	111.06
335.455	103.06
335.684	87.06
335.912	86.06
336.14	82.06
336.369	94.06
336.597	107.06
336.825	98.06
337.053	91.06
337.281	90.06
337.51	99.06
337.738	98.06
337.966	100.06
338.194	93.06
338.422	100.06
338.65	101.06
338.878	88.06
339.106	86.06
339.334	89.06
339.562	98.06
339.79	96.06
340.018	88.06
340.246	100.06
340.474	93.06
340.702	85.06
340.93	96.06
341.158	93.06
341.386	109.06
341.614	105.06
341.842	102.06
342.07	97.06
342.298	109.06
342.526	88.06
342.754	94.06
342.981	97.06
343.209	98.06
343.437	101.06
343.665	91.06
343.893	109.06
344.12	88.06
344.348	103.06
344.576	78.06
344.804	91.06
345.031	100.06
345.259	98.06
345.487	95.06
345.714	97.06
345.942	92.06
346.17	93.06
346.397	101.06
346.625	98.06
346.853	84.06
347.08	90.06
347.308	95.06
347.535	101.06
347.763	106.06
347.99	104.06
348.218	94.06
348.445	88.06
348.673	97.06
348.9	103.06
349.128	112.06
349.355	102.06
349.583	93.06
349.81	106.06
350.037	79.06
350.265	87.06
350.492	103.06
350.72	98.06
350.947	102.06
351.174	98.06
351.402	106.06
351.629	109.06
351.856	98.06
352.083	101.06
352.311	96.06
352.538	101.06
352.765	104.06
352.992	117.06
353.22	111.06
353.447	120.06
353.674	116.06
353.901	102.06
354.128	99.06
354.355	110.06
354.583	109.06
354.81	100.06
355.037	101.06
355.264	104.06
355.491	100.06
355.718	106.06
355.945	98.06
356.172	114.06
356.399	109.06
356.626	95.06
356.853	88.06
357.08	120.06
357.307	95.06
357.534	100.06
357.761	90.06
357.988	110.06
358.215	104.06
358.441	102.06
358.668	89.06
358.895	93.06
359.122	93.06
359.349	90.06
359.576	102.06
359.802	94.06
360.029	111.06
360.256	108.06
360.483	93.06
360.709	84.06
360.936	79.06
361.163	103.06
361.39	88.06
361.616	89.06
361.843	91.06
362.07	92.06
362.296	92.06
362.523	101.06
362.749	89.06
362.976	90.06
363.203	93.06
363.429	86.06
363.656	101.06
363.882	95.06
364.109	114.06
364.335	95.06
364.562	91.06
364.788	103.06
365.015	107.06
365.241	95.06
365.468	115.06
365.694	114.06
365.92	91.06
366.147	102.06
366.373	86.06
366.599	89.06
366.826	106.06
367.052	83.06
367.278	90.06
367.505	96.06
367.731	102.06
367.957	98.06
368.184	90.06
368.41	78.06
368.636	112.06
368.862	126.06
369.089	110.06
369.315	119.06
369.541	98.06
369.767	98.06
369.993	94.06
370.219	90.06
370.445	88.06
370.672	94.06
370.898	102.06
371.124	96.06
371.35	101.06
371.576	89.06
371.802	98.06
372.028	93.06
372.254	95.06
372.48	102.06
372.706	90.06
372.932	96.06
373.158	93.06
373.384	80.06
373.61	94.06
373.835	105.06
374.061	96.06
374.287	99.06
374.513	79.06
374.739	109.06
374.965	103.06
375.191	110.06
375.416	100.06
375.642	98.06
375.868	111.06
376.094	103.06
376.319	88.06
376.545	108.06
376.771	95.06
376.997	92.06
377.222	98.06
377.448	86.06
377.674	105.06
377.899	87.06
378.125	94.06
378.35	99.06
378.576	82.06
378.802	92.06
379.027	96.06
379.253	100.06
379.478	71.06
379.704	93.06
379.929	90.06
380.155	105.06
380.38	100.06
380.606	106.06
380.831	93.06
381.057	113.06
381.282	93.06
381.507	101.06
381.733	108.06
381.958	103.06
382.184	90.06
382.409	76.06
382.634	113.06
382.86	108.06
383.085	112.06
383.31	101.06
383.535	118.06
383.761	99.06
383.986	90.06
384.211	87.06
384.436	97.06
384.662	98.06
384.887	110.06
385.112	85.06
385.337	108.06
385.562	107.06
385.787	94.06
386.013	107.06
386.238	114.06
386.463	101.06
386.688	119.06
386.913	109.06
387.138	101.06
387.363	98.06
387.588	102.06
387.813	122.06
388.038	116.06
388.263	116.06
388.488	111.06
388.713	100.06
388.938	101.06
389.163	106.06
389.387	84.06
389.612	95.06
389.837	98.06
390.062	101.06
390.287	98.06
390.512	103.06
390.736	89.06
390.961	97.06
391.186	103.06
391.411	105.06
391.636	103.06
391.86	88.06
392.085	94.06
392.31	78.06
392.534	91.06
392.759	106.06
392.984	94.06
393.208	84.06
393.433	100.06
393.658	100.06
393.882	99.06
394.107	82.06
394.331	80.06
394.556	82.06
394.78	80.06
395.005	86.06
395.229	93.06
395.454	98.06
395.678	82.06
395.903	79.06
396.127	86.06
396.352	86.06
396.576	101.06
396.801	90.06
397.025	90.06
397.249	95.06
397.474	75.06
397.698	101.06
397.922	95.06
398.147	102.06
398.371	89.06
398.595	78.06
398.82	86.06
399.044	99.06
399.268	88.06
399.492	89.06
399.717	92.06
399.941	95.06
400.165	94.06
400.389	99.06
400.613	91.06
400.837	83.06
401.062	77.06
401.286	88.06
401.51	90.06
401.734	90.06
401.958	95.06
402.182	126.06
402.406	134.06
402.63	119.06
402.854	95.06
403.078	86.06
403.302	106.06
403.526	110.06
403.75	97.06
403.974	93.06
404.198	98.06
404.422	84.06
404.645	108.06
404.869	91.06
405.093	91.06
405.317	107.06
405.541	109.06
405.765	97.06
405.988	122.06
406.212	152.06
406.436	188.06
406.66	140.06
406.883	107.06
407.107	105.06
407.331	109.06
407.555	99.06
407.778	91.06
408.002	93.06
408.226	89.06
408.449	90.06
408.673	89.06
408.896	93.06
409.12	92.06
409.344	94.06
409.567	91.06
409.791	106.06
410.014	98.06
410.238	93.06
410.461	96.06
410.685	90.06
410.908	105.06
411.132	100.06
411.355	93.06
411.578	97.06
411.802	91.06
412.025	94.06
412.249	79.06
412.472	96.06
412.695	100.06
412.919	88.06
413.142	78.06
413.365	84.06
413.589	87.06
413.812	87.06
414.035	88.06
414.258	95.06
414.482	99.06
414.705	90.06
414.928	99.06
415.151	92.06
415.374	107.06
415.597	84.06
415.821	99.06
416.044	89.06
416.267	86.06
416.49	83.06
416.713	94.06
416.936	87.06
417.159	90.06
417.382	88.06
417.605	84.06
417.828	91.06
418.051	116.06
418.274	83.06
418.497	92.06
418.72	90.06
418.943	98.06
419.166	91.06
419.389	87.06
419.611	96.06
419.834	108.06
420.057	87.06
420.28	102.06
420.503	87.06
420.726	91.06
420.948	79.06
421.171	87.06
421.394	94.06
421.617	90.06
421.839	97.06
422.062	94.06
422.285	92.06
422.507	99.06
422.73	107.06
422.953	112.06
423.175	106.06
423.398	78.06
423.621	93.06
423.843	104.06
424.066	95.06
424.288	93.06
424.511	91.06
424.733	89.06
424.956	109.06
425.178	86.06
425.401	103.06
425.623	96.06
425.846	108.06
426.068	103.06
426.291	82.06
426.513	98.06
426.735	92.06
426.958	109.06
427.18	93.06
427.402	136.06
427.625	153.06
427.847	108.06
428.069	95.06
428.292	90.06
428.514	90.06
428.736	84.06
428.958	94.06
429.181	88.06
429.403	95.06
429.625	107.06
429.847	96.06
430.069	92.06
430.292	80.06
430.514	86.06
430.736	80.06
430.958	88.06
431.18	88.06
431.402	90.06
431.624	84.06
431.846	83.06
432.068	87.06
432.29	91.06
432.512	91.06
432.734	97.06
432.956	93.06
433.178	99.06
433.4	95.06
433.622	94.06
433.844	100.06
434.066	95.06
434.287	90.06
434.509	86.06
434.731	91.06
434.953	82.06
435.175	99.06
435.397	97.06
435.618	93.06
435.84	94.06
436.062	123.06
436.284	111.06
436.505	94.06
436.727	112.06
436.949	99.06
437.17	87.06
437.392	105.06
437.614	92.06
437.835	94.06
438.057	118.06
438.278	111.06
438.5	95.06
438.721	123.06
438.943	108.06
439.165	94.06
439.386	98.06
439.608	94.06
439.829	98.06
440.05	121.06
440.272	131.06
440.493	100.06
440.715	92.06
440.936	85.06
441.158	95.06
441.379	78.06
441.6	92.06
441.822	107.06
442.043	99.06
442.264	112.06
442.486	98.06
442.707	93.06
442.928	114.06
443.149	138.06
443.371	116.06
443.592	98.06
443.813	102.06
444.034	107.06
444.255	103.06
444.476	94.06
444.698	80.06
444.919	89.06
445.14	119.06
445.361	126.06
445.582	123.06
445.803	121.06
446.024	135.06
446.245	123.06
446.466	114.06
446.687	91.06
446.908	88.06
447.129	82.06
447.35	92.06
447.571	84.06
447.792	94.06
448.013	109.06
448.234	106.06
448.455	88.06
448.675	103.06
448.896	124.06
449.117	95.06
449.338	95.06
449.559	106.06
449.779	111.06
450	91.06
450.221	91.06
450.442	80.06
450.662	101.06
450.883	97.06
451.104	110.06
451.324	78.06
451.545	88.06
451.766	84.06
451.986	92.06
452.207	88.06
452.428	89.06
452.648	81.06
452.869	115.06
453.089	116.06
453.31	98.06
453.53	98.06
453.751	93.06
453.971	93.06
454.192	103.06
454.412	83.06
454.633	88.06
454.853	93.06
455.073	88.06
455.294	88.06
455.514	93.06
455.734	91.06
455.955	71.06
456.175	92.06
456.395	89.06
456.616	83.06
456.836	76.06
457.056	93.06
457.276	96.06
457.497	86.06
457.717	93.06
457.937	85.06
458.157	94.06
458.377	98.06
458.598	114.06
458.818	129.06
459.038	136.06
459.258	105.06
459.478	90.06
459.698	87.06
459.918	101.06
460.138	100.06
460.358	101.06
460.578	84.06
460.798	82.06
461.018	80.06
461.238	75.06
461.458	95.06
461.678	98.06
461.898	79.06
462.118	84.06
462.338	86.06
462.558	82.06
462.777	91.06
462.997	88.06
463.217	94.06
463.437	90.06
463.657	90.06
463.876	94.06
464.096	104.06
464.316	83.06
464.536	96.06
464.755	85.06
464.975	107.06
465.195	127.06
465.414	144.06
465.634	92.06
465.854	93.06
466.073	91.06
466.293	87.06
466.512	92.06
466.732	92.06
466.951	92.06
467.171	86.06
467.391	92.06
467.61	98.06
467.829	94.06
468.049	100.06
468.268	91.06
468.488	94.06
468.707	81.06
468.927	86.06
469.146	95.06
469.365	88.06
469.585	96.06
469.804	98.06
470.023	90.06
470.243	85.06
470.462	96.06
470.681	106.06
470.901	106.06
471.12	103.06
471.339	90.06
471.558	101.06
471.777	107.06
471.997	91.06
472.216	105.06
472.435	111.06
472.654	88.06
472.873	103.06
473.092	97.06
473.311	88.06
473.53	93.06
473.749	88.06
473.968	92.06
474.187	96.06
474.406	94.06
474.625	104.06
474.844	80.06
475.063	90.06
475.282	95.06
475.501	85.06
475.72	97.06
475.939	76.06
476.158	87.06
476.377	94.06
476.596	88.06
476.814	82.06
477.033	92.06
477.252	78.06
477.471	95.06
477.69	108.06
477.908	93.06
478.127	98.06
478.346	75.06
478.564	89.06
478.783	86.06
479.002	92.06
479.22	99.06
479.439	101.06
479.658	96.06
479.876	94.06
480.095	88.06
480.313	95.06
480.532	90.06
480.751	92.06
480.969	104.06
481.188	136.06
481.406	123.06
481.624	107.06
481.843	89.06
482.061	85.06
482.28	94.06
482.498	96.06
482.717	94.06
482.935	96.06
483.153	100.06
483.372	98.06
483.59	101.06
483.808	91.06
484.027	102.06
484.245	93.06
484.463	91.06
484.681	99.06
484.9	102.06
485.118	94.06
485.336	112.06
485.554	91.06
485.772	93.06
485.99	104.06
486.209	93.06
486.427	103.06
486.645	107.06
486.863	116.06
487.081	105.06
487.299	82.06
487.517	102.06
487.735	103.06
487.953	95.06
488.171	84.06
488.389	96.06
488.607	94.06
488.825	98.06
489.043	96.06
489.261	95.06
489.479	94.06
489.696	74.06
489.914	95.06
490.132	89.06
490.35	91.06
490.568	86.06
490.786	110.06
491.003	109.06
491.221	86.06
491.439	102.06
491.657	90.06
491.874	88.06
492.092	94.06
492.31	100.06
492.527	95.06
492.745	92.06
492.963	94.06
493.18	97.06
493.398	83.06
493.615	106.06
493.833	88.06
494.05	90.06
494.268	70.06
494.485	82.06
494.703	82.06
494.92	79.06
495.138	83.06
495.355	75.06
495.573	82.06
495.79	90.06
496.008	88.06
496.225	84.06
496.442	89.06
496.66	103.06
496.877	100.06
497.094	92.06
497.312	92.06
497.529	102.06
497.746	90.06
497.963	102.06
498.181	90.06
498.398	98.06
498.615	106.06
498.832	98.06
499.049	91.06
499.267	97.06
499.484	111.06
499.701	107.06
499.918	96.06
500.135	92.06
500.352	91.06
500.569	91.06
500.786	91.06
501.003	95.06
501.22	118.06
501.437	97.06
501.654	100.06
501.871	107.06
502.088	79.06
502.305	102.06
502.522	100.06
502.739	97.06
502.956	100.06
503.172	92.06
503.389	116.06
503.606	98.06
503.823	90.06
504.04	92.06
504.256	93.06
504.473	116.06
504.69	97.06
504.907	105.06
505.123	88.06
505.34	88.06
505.557	91.06
505.773	84.06
505.99	98.06
506.207	107.06
506.423	83.06
506.64	82.06
506.856	100.06
507.073	85.06
507.289	91.06
507.506	88.06
507.722	100.06
507.939	112.06
508.155	89.06
508.372	94.06
508.588	98.06
508.805	97.06
509.021	98.06
509.238	96.06
509.454	114.06
509.67	104.06
509.887	107.06
510.103	137.06
510.319	202.06
510.536	668.06
510.752	2030.06
510.968	582.06
511.184	149.06
511.401	104.06
511.617	93.06
511.833	92.06
512.049	98.06
512.265	100.06
512.481	91.06
512.698	99.06
512.914	101.06
513.13	92.06
513.346	94.06
513.562	96.06
513.778	113.06
513.994	103.06
514.21	110.06
514.426	122.06
514.642	124.06
514.858	122.06
515.074	147.06
515.29	391.06
515.506	1197.06
515.721	442.06
515.937	148.06
516.153	110.06
516.369	94.06
516.585	99.06
516.801	81.06
517.016	88.06
517.232	96.06
517.448	86.06
517.664	97.06
517.879	100.06
518.095	86.06
518.311	86.06
518.527	86.06
518.742	94.06
518.958	94.06
519.173	101.06
519.389	108.06
519.605	102.06
519.82	104.06
520.036	95.06
520.251	131.06
520.467	123.06
520.682	97.06
520.898	110.06
521.113	120.06
521.329	121.06
521.544	184.06
521.76	464.06
521.975	1945.06
522.19	1170.06
522.406	264.06
522.621	118.06
522.836	111.06
523.052	92.06
523.267	100.06
523.482	104.06
523.698	97.06
523.913	122.06
524.128	109.06
524.343	95.06
524.559	79.06
524.774	83.06
524.989	103.06
525.204	116.06
525.419	98.06
525.634	90.06
525.849	89.06
526.064	85.06
526.28	92.06
526.495	99.06
526.71	88.06
526.925	101.06
527.14	104.06
527.355	94.06
527.57	107.06
527.785	110.06
527.999	94.06
528.214	101.06
528.429	76.06
528.644	87.06
528.859	91.06
529.074	74.06
529.289	124.06
529.503	162.06
529.718	110.06
529.933	97.06
530.148	84.06
530.363	91.06
530.577	88.06
530.792	98.06
531.007	104.06
531.221	114.06
531.436	100.06
531.651	110.06
531.865	93.06
532.08	95.06
532.295	96.06
532.509	99.06
532.724	95.06
532.938	100.06
533.153	104.06
533.367	91.06
533.582	88.06
533.796	95.06
534.011	84.06
534.225	87.06
534.44	77.06
534.654	89.06
534.868	92.06
535.083	92.06
535.297	90.06
535.511	101.06
535.726	112.06
535.94	90.06
536.154	92.06
536.369	85.06
536.583	92.06
536.797	102.06
537.011	78.06
537.225	94.06
537.44	99.06
537.654	98.06
537.868	83.06
538.082	90.06
538.296	92.06
538.51	83.06
538.724	98.06
538.938	79.06
539.153	86.06
539.367	101.06
539.581	88.06
539.795	103.06
540.009	95.06
540.222	115.06
540.436	100.06
540.65	93.06
540.864	93.06
541.078	103.06
541.292	91.06
541.506	107.06
541.72	102.06
541.934	87.06
542.147	95.06
542.361	94.06
542.575	105.06
542.789	84.06
543.002	98.06
543.216	107.06
543.43	85.06
543.644	85.06
543.857	98.06
544.071	91.06
544.285	96.06
544.498	100.06
544.712	82.06
544.925	85.06
545.139	86.06
545.352	89.06
545.566	102.06
545.779	88.06
545.993	100.06
546.206	89.06
546.42	91.06
546.633	86.06
546.847	100.06
547.06	96.06
547.274	102.06
547.487	105.06
547.7	86.06
547.914	85.06
548.127	95.06
548.34	91.06
548.554	93.06
548.767	83.06
548.98	95.06
549.193	103.06
549.407	94.06
549.62	91.06
549.833	78.06
550.046	94.06
550.259	101.06
550.473	77.06
550.686	93.06
550.899	100.06
551.112	89.06
551.325	92.06
551.538	90.06
551.751	97.06
551.964	88.06
552.177	66.06
552.39	92.06
552.603	90.06
552.816	77.06
553.029	85.06
553.242	101.06
553.455	107.06
553.667	101.06
553.88	111.06
554.093	105.06
554.306	92.06
554.519	79.06
554.732	93.06
554.944	90.06
555.157	93.06
555.37	98.06
555.583	86.06
555.795	99.06
556.008	92.06
556.221	112.06
556.433	90.06
556.646	96.06
556.859	92.06
557.071	89.06
557.284	80.06
557.496	102.06
557.709	93.06
557.921	91.06
558.134	87.06
558.346	91.06
558.559	95.06
558.771	102.06
558.984	82.06
559.196	82.06
559.409	89.06
559.621	90.06
559.833	96.06
560.046	96.06
560.258	76.06
560.47	98.06
560.683	93.06
560.895	104.06
561.107	96.06
561.32	104.06
561.532	95.06
561.744	106.06
561.956	99.06
562.168	98.06
562.381	85.06
562.593	98.06
562.805	87.06
563.017	89.06
563.229	110.06
563.441	84.06
563.653	84.06
563.865	110.06
564.077	93.06
564.289	94.06
564.501	102.06
564.713	106.06
564.925	100.06
565.137	110.06
565.349	99.06
565.561	82.06
565.773	90.06
565.985	82.06
566.197	96.06
566.408	91.06
566.62	97.06
566.832	79.06
567.044	94.06
567.255	88.06
567.467	112.06
567.679	90.06
567.891	87.06
568.102	90.06
568.314	92.06
568.526	98.06
568.737	94.06
568.949	88.06
569.161	78.06
569.372	90.06
569.584	94.06
569.795	91.06
570.007	122.06
570.218	217.06
570.43	131.06
570.641	107.06
570.853	89.06
571.064	90.06
571.276	93.06
571.487	84.06
571.698	95.06
571.91	88.06
572.121	103.06
572.333	98.06
572.544	94.06
572.755	84.06
572.966	106.06
573.178	86.06
573.389	90.06
573.6	99.06
573.811	90.06
574.023	80.06
574.234	89.06
574.445	93.06
574.656	103.06
574.867	104.06
575.078	101.06
575.289	96.06
575.501	88.06
575.712	86.06
575.923	92.06
576.134	104.06
576.345	92.06
576.556	102.06
576.767	91.06
576.978	88.06
577.188	96.06
577.399	97.06
577.61	93.06
577.821	87.06
578.032	124.06
578.243	241.06
578.454	686.06
578.665	200.06
578.875	92.06
579.086	100.06
579.297	83.06
579.508	88.06
579.718	111.06
579.929	114.06
580.14	108.06
580.35	90.06
580.561	78.06
580.772	77.06
580.982	86.06
581.193	100.06
581.403	100.06
581.614	84.06
581.825	85.06
582.035	94.06
582.246	75.06
582.456	95.06
582.667	91.06
582.877	87.06
583.087	86.06
583.298	95.06
583.508	89.06
583.719	82.06
583.929	93.06
584.139	83.06
584.35	82.06
584.56	89.06
584.77	83.06
584.981	96.06
585.191	91.06
585.401	91.06
585.611	89.06
585.821	92.06
586.032	96.06
586.242	92.06
586.452	90.06
586.662	77.06
586.872	84.06
587.082	79.06
587.292	92.06
587.502	88.06
587.713	95.06
587.923	99.06
588.133	90.06
588.343	78.06
588.553	92.06
588.762	95.06
588.972	110.06
589.182	106.06
589.392	90.06
589.602	98.06
589.812	87.06
590.022	84.06
590.232	78.06
590.441	98.06
590.651	92.06
590.861	94.06
591.071	93.06
591.281	85.06
591.49	83.06
591.7	88.06
591.91	94.06
592.119	88.06
592.329	94.06
592.539	106.06
592.748	83.06
592.958	79.06
593.167	92.06
593.377	69.06
593.587	106.06
593.796	106.06
594.006	84.06
594.215	109.06
594.424	86.06
594.634	87.06
594.843	73.06
595.053	92.06
595.262	85.06
595.472	70.06
595.681	87.06
595.89	85.06
596.1	86.06
596.309	100.06
596.518	79.06
596.727	97.06
596.937	102.06
597.146	102.06
597.355	76.06
597.564	90.06
597.774	86.06
597.983	86.06
598.192	89.06
598.401	101.06
598.61	96.06
598.819	94.06
599.028	77.06
599.237	96.06
599.446	94.06
599.655	76.06
599.864	94.06
600.073	88.06
600.282	97.06
600.491	90.06
600.7	67.06
600.909	86.06
601.118	78.06
601.327	95.06
601.536	105.06
601.745	93.06
601.953	91.06
602.162	88.06
602.371	82.06
602.58	94.06
602.789	90.06
602.997	81.06
603.206	89.06
603.415	89.06
603.623	80.06
603.832	88.06
604.041	87.06
604.249	96.06
604.458	102.06
604.666	94.06
604.875	82.06
605.084	100.06
605.292	98.06
605.501	95.06
605.709	85.06
605.918	85.06
606.126	95.06
606.334	88.06
606.543	86.06
606.751	94.06
606.96	103.06
607.168	88.06
607.376	98.06
607.585	100.06
607.793	92.06
608.001	86.06
608.21	89.06
608.418	94.06
608.626	84.06
608.834	92.06
609.043	85.06
609.251	83.06
609.459	106.06
609.667	97.06
609.875	96.06
610.083	85.06
610.291	90.06
610.499	99.06
610.707	109.06
610.916	90.06
611.124	92.06
611.332	114.06
611.54	106.06
611.748	90.06
611.955	77.06
612.163	84.06
612.371	96.06
612.579	88.06
612.787	98.06
612.995	98.06
613.203	98.06
613.411	89.06
613.618	94.06
613.826	87.06
614.034	84.06
614.242	89.06
614.449	98.06
614.657	79.06
614.865	98.06
615.072	67.06
615.28	88.06
615.488	90.06
615.695	94.06
615.903	110.06
616.111	117.06
616.318	107.06
616.526	110.06
616.733	83.06
616.941	92.06
617.148	90.06
617.356	99.06
617.563	90.06
617.771	100.06
617.978	80.06
618.185	99.06
618.393	101.06
618.6	100.06
618.807	92.06
619.015	94.06
619.222	100.06
619.429	78.06
619.637	74.06
619.844	85.06
620.051	107.06
620.258	97.06
620.466	79.06
620.673	86.06
620.88	93.06
621.087	94.06
621.294	78.06
621.501	77.06
621.708	88.06
621.915	91.06
622.122	83.06
622.329	90.06
622.536	90.06
622.743	84.06
622.95	89.06
623.157	89.06
623.364	82.06
623.571	90.06
623.778	73.06
623.985	90.06
624.192	86.06
624.399	100.06
624.606	102.06
624.812	90.06
625.019	90.06
625.226	84.06
625.433	94.06
625.639	98.06
625.846	98.06
626.053	97.06
626.259	91.06
626.466	79.06
626.673	73.06
626.879	85.06
627.086	74.06
627.293	82.06
627.499	90.06
627.706	79.06
627.912	94.06
628.119	84.06
628.325	89.06
628.532	87.06
628.738	84.06
628.945	90.06
629.151	89.06
629.357	97.06
629.564	89.06
629.77	95.06
629.976	74.06
630.183	84.06
630.389	90.06
630.595	90.06
630.802	92.06
631.008	88.06
631.214	83.06
631.42	96.06
631.627	90.06
631.833	77.06
632.039	77.06
632.245	96.06
632.451	94.06
632.657	94.06
632.863	99.06
633.069	100.06
633.275	75.06
633.481	90.06
633.688	76.06
633.893	73.06
634.099	88.06
634.305	95.06
634.511	95.06
634.717	94.06
634.923	87.06
635.129	84.06
635.335	95.06
635.541	83.06
635.747	86.06
635.952	94.06
636.158	90.06
636.364	83.06
636.57	89.06
636.775	89.06
636.981	84.06
637.187	88.06
637.392	92.06
637.598	88.06
637.804	82.06
638.009	75.06
638.215	88.06
638.421	95.06
638.626	83.06
638.832	101.06
639.037	73.06
639.243	91.06
639.448	90.06
639.654	92.06
639.859	99.06
640.065	76.06
640.27	86.06
640.475	102.06
640.681	95.06
640.886	90.06
641.091	76.06
641.297	89.06
641.502	90.06
641.707	82.06
641.913	96.06
642.118	94.06
642.323	87.06
642.528	82.06
642.733	79.06
642.939	105.06
643.144	88.06
643.349	76.06
643.554	92.06
643.759	86.06
643.964	82.06
644.169	96.06
644.374	87.06
644.579	86.06
644.784	87.06
644.989	84.06
645.194	86.06
645.399	98.06
645.604	96.06
645.809	87.06
646.014	82.06
646.219	95.06
646.423	83.06
646.628	87.06
646.833	78.06
647.038	94.06
647.243	94.06
647.447	98.06
647.652	86.06
647.857	89.06
648.062	101.06
648.266	89.06
648.471	103.06
648.676	102.06
648.88	83.06
649.085	94.06
649.289	90.06
649.494	87.06
649.698	133.06
649.903	110.06
650.107	91.06
650.312	88.06
650.516	77.06
650.721	83.06
650.925	78.06
651.13	93.06
651.334	102.06
651.539	90.06
651.743	82.06
651.947	80.06
652.152	94.06
652.356	108.06
652.56	94.06
652.764	109.06
652.969	95.06
653.173	95.06
653.377	104.06
653.581	84.06
653.785	79.06
653.99	85.06
654.194	91.06
654.398	92.06
654.602	90.06
654.806	94.06
655.01	102.06
655.214	93.06
655.418	84.06
655.622	88.06
655.826	96.06
656.03	93.06
656.234	102.06
656.438	100.06
656.642	104.06
656.846	95.06
657.049	88.06
657.253	88.06
657.457	103.06
657.661	85.06
657.865	100.06
658.068	88.06
658.272	83.06
658.476	91.06
658.68	77.06
658.883	74.06
659.087	79.06
659.291	94.06
659.494	100.06
659.698	91.06
659.901	90.06
660.105	88.06
660.309	85.06
660.512	89.06
660.716	87.06
660.919	89.06
661.123	97.06
661.326	84.06
661.53	98.06
661.733	92.06
661.936	85.06
662.14	75.06
662.343	68.06
662.546	70.06
662.75	86.06
662.953	101.06
663.156	84.06
663.36	78.06
663.563	92.06
663.766	90.06
663.969	92.06
664.173	83.06
664.376	90.06
664.579	89.06
664.782	69.06
664.985	86.06
665.188	90.06
665.391	92.06
665.594	94.06
665.797	78.06
666	79.06
666.203	79.06
666.406	94.06
666.609	89.06
666.812	90.06
667.015	99.06
667.218	89.06
667.421	89.06
667.624	94.06
667.827	87.06
668.03	84.06
668.232	88.06
668.435	79.06
668.638	96.06
668.841	75.06
669.043	90.06
669.246	98.06
669.449	94.06
669.651	83.06
669.854	76.06
670.057	104.06
670.259	73.06
670.462	82.06
670.665	87.06
670.867	88.06
671.07	76.06
671.272	94.06
671.475	93.06
671.677	87.06
671.88	86.06
672.082	84.06
672.284	83.06
672.487	91.06
672.689	94.06
672.892	79.06
