Data from Uncirc_1985_H10_HRD10591_00019.txt Node
Date: Wed Jan 03 12:18:21 EST 2024
User: Yrep
Spectrometer: HR+D1059
Trigger mode: 1
Integration Time (sec): 1.000000E-1
Scans to average: 1
Electric dark correction enabled: true
Nonlinearity correction enabled: false
Boxcar width: 0
XAxis mode: Wavelengths
Number of Pixels in Spectrum: 2048
>>>>>Begin Spectral Data<<<<<
223.165	-14.88
223.4	-14.88
223.635	-14.88
223.869	-13.88
224.104	-16.88
224.338	-12.88
224.573	-17.88
224.808	-13.88
225.042	-1.88
225.277	8.12
225.511	-0.88
225.746	-1.88
225.98	16.12
226.215	-0.88
226.449	13.12
226.683	20.12
226.918	19.12
227.152	19.12
227.387	34.12
227.621	40.12
227.856	52.12
228.09	46.12
228.324	53.12
228.559	59.12
228.793	46.12
229.027	69.12
229.262	68.12
229.496	66.12
229.73	88.12
229.964	85.12
230.199	82.12
230.433	69.12
230.667	88.12
230.901	79.12
231.136	80.12
231.37	81.12
231.604	74.12
231.838	83.12
232.072	88.12
232.306	90.12
232.541	102.12
232.775	92.12
233.009	90.12
233.243	79.12
233.477	69.12
233.711	85.12
233.945	71.12
234.179	95.12
234.413	81.12
234.647	79.12
234.881	97.12
235.115	83.12
235.349	97.12
235.583	83.12
235.817	80.12
236.051	92.12
236.285	77.12
236.519	81.12
236.753	77.12
236.987	93.12
237.221	77.12
237.455	80.12
237.689	75.12
237.922	89.12
238.156	81.12
238.39	78.12
238.624	85.12
238.858	76.12
239.091	65.12
239.325	86.12
239.559	83.12
239.793	81.12
240.027	73.12
240.26	90.12
240.494	85.12
240.728	74.12
240.961	90.12
241.195	70.12
241.429	78.12
241.662	73.12
241.896	79.12
242.13	93.12
242.363	83.12
242.597	82.12
242.83	84.12
243.064	85.12
243.298	77.12
243.531	82.12
243.765	77.12
243.998	92.12
244.232	99.12
244.465	91.12
244.699	68.12
244.932	81.12
245.166	69.12
245.399	79.12
245.633	83.12
245.866	73.12
246.099	86.12
246.333	89.12
246.566	87.12
246.8	86.12
247.033	91.12
247.266	92.12
247.5	63.12
247.733	81.12
247.966	84.12
248.2	78.12
248.433	85.12
248.666	82.12
248.899	81.12
249.133	77.12
249.366	107.12
249.599	104.12
249.832	81.12
250.066	89.12
250.299	82.12
250.532	70.12
250.765	77.12
250.998	74.12
251.231	86.12
251.465	102.12
251.698	84.12
251.931	73.12
252.164	73.12
252.397	69.12
252.63	81.12
252.863	76.12
253.096	99.12
253.329	78.12
253.562	89.12
253.795	77.12
254.028	77.12
254.261	101.12
254.494	92.12
254.727	92.12
254.96	93.12
255.193	85.12
255.426	79.12
255.659	81.12
255.892	83.12
256.124	77.12
256.357	84.12
256.59	85.12
256.823	89.12
257.056	83.12
257.289	81.12
257.521	86.12
257.754	81.12
257.987	74.12
258.22	86.12
258.452	92.12
258.685	89.12
258.918	88.12
259.151	95.12
259.383	82.12
259.616	83.12
259.849	70.12
260.081	67.12
260.314	87.12
260.547	79.12
260.779	89.12
261.012	83.12
261.244	91.12
261.477	93.12
261.71	76.12
261.942	111.12
262.175	107.12
262.407	82.12
262.64	95.12
262.872	105.12
263.105	77.12
263.337	78.12
263.57	77.12
263.802	79.12
264.035	80.12
264.267	76.12
264.499	81.12
264.732	90.12
264.964	72.12
265.197	99.12
265.429	85.12
265.661	88.12
265.894	68.12
266.126	86.12
266.358	90.12
266.591	103.12
266.823	81.12
267.055	78.12
267.287	83.12
267.52	85.12
267.752	100.12
267.984	75.12
268.216	87.12
268.448	81.12
268.681	77.12
268.913	79.12
269.145	74.12
269.377	76.12
269.609	84.12
269.841	96.12
270.073	78.12
270.306	85.12
270.538	102.12
270.77	84.12
271.002	84.12
271.234	80.12
271.466	86.12
271.698	85.12
271.93	86.12
272.162	83.12
272.394	88.12
272.626	86.12
272.858	81.12
273.09	91.12
273.322	86.12
273.553	74.12
273.785	77.12
274.017	87.12
274.249	85.12
274.481	79.12
274.713	81.12
274.945	89.12
275.176	72.12
275.408	87.12
275.64	84.12
275.872	98.12
276.104	100.12
276.335	75.12
276.567	108.12
276.799	110.12
277.031	84.12
277.262	89.12
277.494	82.12
277.726	94.12
277.957	105.12
278.189	87.12
278.421	90.12
278.652	93.12
278.884	79.12
279.115	91.12
279.347	85.12
279.579	87.12
279.81	84.12
280.042	75.12
280.273	95.12
280.505	78.12
280.736	93.12
280.968	93.12
281.199	79.12
281.431	95.12
281.662	90.12
281.894	89.12
282.125	105.12
282.356	118.12
282.588	134.12
282.819	100.12
283.051	103.12
283.282	95.12
283.513	81.12
283.745	86.12
283.976	92.12
284.207	101.12
284.439	85.12
284.67	93.12
284.901	73.12
285.132	99.12
285.364	81.12
285.595	81.12
285.826	98.12
286.057	101.12
286.288	86.12
286.52	102.12
286.751	83.12
286.982	83.12
287.213	97.12
287.444	74.12
287.675	101.12
287.906	88.12
288.138	98.12
288.369	93.12
288.6	85.12
288.831	93.12
289.062	91.12
289.293	87.12
289.524	86.12
289.755	90.12
289.986	85.12
290.217	89.12
290.448	80.12
290.679	94.12
290.91	100.12
291.141	90.12
291.371	97.12
291.602	78.12
291.833	87.12
292.064	87.12
292.295	95.12
292.526	120.12
292.757	89.12
292.987	86.12
293.218	90.12
293.449	99.12
293.68	99.12
293.91	88.12
294.141	91.12
294.372	93.12
294.603	93.12
294.833	84.12
295.064	93.12
295.295	92.12
295.525	84.12
295.756	86.12
295.987	110.12
296.217	131.12
296.448	121.12
296.679	88.12
296.909	99.12
297.14	97.12
297.37	95.12
297.601	94.12
297.831	83.12
298.062	84.12
298.292	76.12
298.523	88.12
298.753	80.12
298.984	83.12
299.214	99.12
299.445	85.12
299.675	88.12
299.905	82.12
300.136	92.12
300.366	93.12
300.597	87.12
300.827	98.12
301.057	95.12
301.288	111.12
301.518	109.12
301.748	91.12
301.979	108.12
302.209	91.12
302.439	81.12
302.669	77.12
302.9	83.12
303.13	101.12
303.36	96.12
303.59	94.12
303.82	94.12
304.051	94.12
304.281	103.12
304.511	94.12
304.741	104.12
304.971	97.12
305.201	90.12
305.431	88.12
305.661	95.12
305.891	103.12
306.121	109.12
306.352	90.12
306.582	90.12
306.812	108.12
307.042	103.12
307.272	103.12
307.502	103.12
307.731	98.12
307.961	89.12
308.191	90.12
308.421	97.12
308.651	75.12
308.881	102.12
309.111	94.12
309.341	101.12
309.571	89.12
309.8	98.12
310.03	99.12
310.26	95.12
310.49	83.12
310.72	109.12
310.949	116.12
311.179	97.12
311.409	91.12
311.639	97.12
311.868	93.12
312.098	89.12
312.328	104.12
312.557	95.12
312.787	107.12
313.017	85.12
313.246	97.12
313.476	92.12
313.706	100.12
313.935	110.12
314.165	97.12
314.394	107.12
314.624	93.12
314.853	92.12
315.083	96.12
315.312	91.12
315.542	88.12
315.771	93.12
316.001	93.12
316.23	88.12
316.46	87.12
316.689	96.12
316.919	99.12
317.148	104.12
317.377	96.12
317.607	101.12
317.836	89.12
318.065	85.12
318.295	92.12
318.524	96.12
318.753	85.12
318.983	106.12
319.212	90.12
319.441	106.12
319.67	105.12
319.9	87.12
320.129	85.12
320.358	100.12
320.587	85.12
320.816	95.12
321.046	112.12
321.275	107.12
321.504	99.12
321.733	102.12
321.962	95.12
322.191	104.12
322.42	100.12
322.649	115.12
322.878	107.12
323.108	121.12
323.337	96.12
323.566	131.12
323.795	148.12
324.024	188.12
324.253	361.12
324.482	752.12
324.71	1520.12
324.939	1965.12
325.168	742.12
325.397	223.12
325.626	155.12
325.855	118.12
326.084	132.12
326.313	136.12
326.542	163.12
326.77	203.12
326.999	425.12
327.228	843.12
327.457	1539.12
327.686	1280.12
327.914	348.12
328.143	173.12
328.372	133.12
328.6	127.12
328.829	96.12
329.058	130.12
329.287	124.12
329.515	101.12
329.744	98.12
329.972	117.12
330.201	106.12
330.43	110.12
330.658	127.12
330.887	140.12
331.115	111.12
331.344	109.12
331.572	94.12
331.801	89.12
332.03	97.12
332.258	106.12
332.486	96.12
332.715	105.12
332.943	92.12
333.172	93.12
333.4	98.12
333.629	89.12
333.857	99.12
334.085	97.12
334.314	104.12
334.542	106.12
334.771	111.12
334.999	96.12
335.227	92.12
335.455	102.12
335.684	89.12
335.912	94.12
336.14	107.12
336.369	104.12
336.597	95.12
336.825	101.12
337.053	107.12
337.281	78.12
337.51	81.12
337.738	100.12
337.966	94.12
338.194	94.12
338.422	95.12
338.65	104.12
338.878	81.12
339.106	87.12
339.334	93.12
339.562	90.12
339.79	108.12
340.018	96.12
340.246	90.12
340.474	102.12
340.702	104.12
340.93	101.12
341.158	91.12
341.386	101.12
341.614	105.12
341.842	92.12
342.07	105.12
342.298	103.12
342.526	100.12
342.754	96.12
342.981	102.12
343.209	94.12
343.437	96.12
343.665	101.12
343.893	101.12
344.12	89.12
344.348	103.12
344.576	85.12
344.804	86.12
345.031	104.12
345.259	101.12
345.487	89.12
345.714	102.12
345.942	89.12
346.17	98.12
346.397	99.12
346.625	92.12
346.853	79.12
347.08	94.12
347.308	81.12
347.535	94.12
347.763	105.12
347.99	106.12
348.218	91.12
348.445	99.12
348.673	93.12
348.9	101.12
349.128	104.12
349.355	91.12
349.583	84.12
349.81	86.12
350.037	90.12
350.265	85.12
350.492	89.12
350.72	93.12
350.947	93.12
351.174	106.12
351.402	101.12
351.629	102.12
351.856	97.12
352.083	105.12
352.311	104.12
352.538	118.12
352.765	107.12
352.992	119.12
353.22	116.12
353.447	109.12
353.674	108.12
353.901	106.12
354.128	99.12
354.355	80.12
354.583	104.12
354.81	98.12
355.037	83.12
355.264	103.12
355.491	99.12
355.718	94.12
355.945	111.12
356.172	98.12
356.399	85.12
356.626	103.12
356.853	91.12
357.08	90.12
357.307	96.12
357.534	102.12
357.761	100.12
357.988	92.12
358.215	98.12
358.441	87.12
358.668	85.12
358.895	97.12
359.122	90.12
359.349	93.12
359.576	90.12
359.802	92.12
360.029	113.12
360.256	121.12
360.483	106.12
360.709	88.12
360.936	114.12
361.163	98.12
361.39	85.12
361.616	84.12
361.843	86.12
362.07	96.12
362.296	97.12
362.523	97.12
362.749	107.12
362.976	101.12
363.203	101.12
363.429	87.12
363.656	125.12
363.882	93.12
364.109	79.12
364.335	90.12
364.562	95.12
364.788	82.12
365.015	94.12
365.241	89.12
365.468	115.12
365.694	109.12
365.92	101.12
366.147	83.12
366.373	93.12
366.599	87.12
366.826	93.12
367.052	102.12
367.278	92.12
367.505	92.12
367.731	86.12
367.957	100.12
368.184	96.12
368.41	114.12
368.636	117.12
368.862	110.12
369.089	113.12
369.315	99.12
369.541	99.12
369.767	102.12
369.993	81.12
370.219	81.12
370.445	98.12
370.672	85.12
370.898	102.12
371.124	95.12
371.35	97.12
371.576	102.12
371.802	93.12
372.028	97.12
372.254	97.12
372.48	92.12
372.706	89.12
372.932	94.12
373.158	91.12
373.384	68.12
373.61	96.12
373.835	91.12
374.061	88.12
374.287	99.12
374.513	88.12
374.739	85.12
374.965	90.12
375.191	81.12
375.416	95.12
375.642	97.12
375.868	86.12
376.094	98.12
376.319	87.12
376.545	91.12
376.771	87.12
376.997	71.12
377.222	93.12
377.448	96.12
377.674	95.12
377.899	89.12
378.125	91.12
378.35	94.12
378.576	105.12
378.802	106.12
379.027	92.12
379.253	84.12
379.478	90.12
379.704	91.12
379.929	93.12
380.155	83.12
380.38	99.12
380.606	88.12
380.831	85.12
381.057	103.12
381.282	97.12
381.507	93.12
381.733	103.12
381.958	90.12
382.184	91.12
382.409	105.12
382.634	94.12
382.86	106.12
383.085	95.12
383.31	106.12
383.535	108.12
383.761	104.12
383.986	94.12
384.211	106.12
384.436	102.12
384.662	100.12
384.887	106.12
385.112	103.12
385.337	97.12
385.562	112.12
385.787	101.12
386.013	108.12
386.238	111.12
386.463	111.12
386.688	101.12
386.913	99.12
387.138	108.12
387.363	100.12
387.588	103.12
387.813	99.12
388.038	110.12
388.263	123.12
388.488	106.12
388.713	89.12
388.938	81.12
389.163	93.12
389.387	99.12
389.612	103.12
389.837	103.12
390.062	101.12
390.287	105.12
390.512	102.12
390.736	87.12
390.961	86.12
391.186	84.12
391.411	105.12
391.636	92.12
391.86	87.12
392.085	90.12
392.31	79.12
392.534	92.12
392.759	71.12
392.984	81.12
393.208	95.12
393.433	106.12
393.658	91.12
393.882	91.12
394.107	100.12
394.331	89.12
394.556	79.12
394.78	95.12
395.005	79.12
395.229	98.12
395.454	89.12
395.678	101.12
395.903	86.12
396.127	93.12
396.352	91.12
396.576	105.12
396.801	96.12
397.025	100.12
397.249	85.12
397.474	87.12
397.698	91.12
397.922	88.12
398.147	99.12
398.371	82.12
398.595	79.12
398.82	85.12
399.044	91.12
399.268	79.12
399.492	106.12
399.717	91.12
399.941	85.12
400.165	87.12
400.389	86.12
400.613	99.12
400.837	97.12
401.062	97.12
401.286	92.12
401.51	89.12
401.734	98.12
401.958	100.12
402.182	124.12
402.406	149.12
402.63	111.12
402.854	93.12
403.078	99.12
403.302	86.12
403.526	102.12
403.75	85.12
403.974	77.12
404.198	83.12
404.422	85.12
404.645	83.12
404.869	84.12
405.093	91.12
405.317	89.12
405.541	98.12
405.765	94.12
405.988	116.12
406.212	158.12
406.436	200.12
406.66	128.12
406.883	96.12
407.107	97.12
407.331	103.12
407.555	93.12
407.778	106.12
408.002	89.12
408.226	89.12
408.449	89.12
408.673	91.12
408.896	93.12
409.12	86.12
409.344	93.12
409.567	103.12
409.791	84.12
410.014	100.12
410.238	94.12
410.461	97.12
410.685	114.12
410.908	98.12
411.132	104.12
411.355	96.12
411.578	74.12
411.802	89.12
412.025	85.12
412.249	90.12
412.472	86.12
412.695	98.12
412.919	91.12
413.142	92.12
413.365	95.12
413.589	95.12
413.812	93.12
414.035	88.12
414.258	91.12
414.482	104.12
414.705	87.12
414.928	93.12
415.151	77.12
415.374	89.12
415.597	98.12
415.821	94.12
416.044	78.12
416.267	94.12
416.49	85.12
416.713	98.12
416.936	102.12
417.159	101.12
417.382	87.12
417.605	98.12
417.828	97.12
418.051	91.12
418.274	93.12
418.497	85.12
418.72	89.12
418.943	98.12
419.166	82.12
419.389	93.12
419.611	85.12
419.834	80.12
420.057	92.12
420.28	82.12
420.503	77.12
420.726	94.12
420.948	93.12
421.171	100.12
421.394	103.12
421.617	83.12
421.839	105.12
422.062	88.12
422.285	100.12
422.507	97.12
422.73	98.12
422.953	84.12
423.175	96.12
423.398	85.12
423.621	89.12
423.843	86.12
424.066	93.12
424.288	90.12
424.511	92.12
424.733	103.12
424.956	101.12
425.178	106.12
425.401	93.12
425.623	94.12
425.846	89.12
426.068	95.12
426.291	96.12
426.513	95.12
426.735	82.12
426.958	96.12
427.18	95.12
427.402	117.12
427.625	157.12
427.847	133.12
428.069	96.12
428.292	97.12
428.514	88.12
428.736	79.12
428.958	103.12
429.181	90.12
429.403	93.12
429.625	90.12
429.847	85.12
430.069	93.12
430.292	101.12
430.514	86.12
430.736	90.12
430.958	101.12
431.18	88.12
431.402	102.12
431.624	97.12
431.846	95.12
432.068	90.12
432.29	78.12
432.512	86.12
432.734	92.12
432.956	82.12
433.178	102.12
433.4	102.12
433.622	99.12
433.844	91.12
434.066	84.12
434.287	89.12
434.509	93.12
434.731	90.12
434.953	85.12
435.175	89.12
435.397	92.12
435.618	88.12
435.84	113.12
436.062	112.12
436.284	117.12
436.505	104.12
436.727	115.12
436.949	93.12
437.17	89.12
437.392	93.12
437.614	90.12
437.835	99.12
438.057	118.12
438.278	108.12
438.5	110.12
438.721	117.12
438.943	103.12
439.165	95.12
439.386	100.12
439.608	93.12
439.829	100.12
440.05	111.12
440.272	114.12
440.493	99.12
440.715	105.12
440.936	93.12
441.158	102.12
441.379	100.12
441.6	100.12
441.822	102.12
442.043	97.12
442.264	95.12
442.486	94.12
442.707	103.12
442.928	94.12
443.149	127.12
443.371	138.12
443.592	122.12
443.813	101.12
444.034	106.12
444.255	99.12
444.476	91.12
444.698	87.12
444.919	81.12
445.14	134.12
445.361	109.12
445.582	115.12
445.803	112.12
446.024	132.12
446.245	121.12
446.466	123.12
446.687	104.12
446.908	91.12
447.129	78.12
447.35	78.12
447.571	91.12
447.792	78.12
448.013	101.12
448.234	91.12
448.455	101.12
448.675	117.12
448.896	113.12
449.117	102.12
449.338	87.12
449.559	121.12
449.779	132.12
450	99.12
450.221	111.12
450.442	90.12
450.662	91.12
450.883	110.12
451.104	117.12
451.324	95.12
451.545	90.12
451.766	76.12
451.986	90.12
452.207	102.12
452.428	91.12
452.648	108.12
452.869	97.12
453.089	118.12
453.31	111.12
453.53	83.12
453.751	102.12
453.971	108.12
454.192	106.12
454.412	79.12
454.633	92.12
454.853	74.12
455.073	92.12
455.294	88.12
455.514	108.12
455.734	96.12
455.955	97.12
456.175	89.12
456.395	86.12
456.616	102.12
456.836	92.12
457.056	89.12
457.276	78.12
457.497	89.12
457.717	99.12
457.937	84.12
458.157	93.12
458.377	90.12
458.598	116.12
458.818	140.12
459.038	145.12
459.258	110.12
459.478	87.12
459.698	91.12
459.918	99.12
460.138	102.12
460.358	101.12
460.578	97.12
460.798	89.12
461.018	91.12
461.238	98.12
461.458	84.12
461.678	88.12
461.898	109.12
462.118	85.12
462.338	86.12
462.558	73.12
462.777	93.12
462.997	92.12
463.217	70.12
463.437	93.12
463.657	89.12
463.876	89.12
464.096	95.12
464.316	88.12
464.536	90.12
464.755	99.12
464.975	112.12
465.195	133.12
465.414	141.12
465.634	92.12
465.854	109.12
466.073	106.12
466.293	90.12
466.512	92.12
466.732	84.12
466.951	94.12
467.171	106.12
467.391	104.12
467.61	101.12
467.829	100.12
468.049	95.12
468.268	99.12
468.488	89.12
468.707	84.12
468.927	93.12
469.146	94.12
469.365	97.12
469.585	81.12
469.804	89.12
470.023	104.12
470.243	93.12
470.462	103.12
470.681	81.12
470.901	78.12
471.12	102.12
471.339	92.12
471.558	86.12
471.777	82.12
471.997	76.12
472.216	115.12
472.435	112.12
472.654	103.12
472.873	85.12
473.092	87.12
473.311	102.12
473.53	83.12
473.749	96.12
473.968	104.12
474.187	91.12
474.406	97.12
474.625	88.12
474.844	83.12
475.063	87.12
475.282	98.12
475.501	96.12
475.72	93.12
475.939	101.12
476.158	105.12
476.377	91.12
476.596	86.12
476.814	83.12
477.033	97.12
477.252	93.12
477.471	87.12
477.69	101.12
477.908	85.12
478.127	99.12
478.346	96.12
478.564	103.12
478.783	102.12
479.002	96.12
479.22	90.12
479.439	91.12
479.658	104.12
479.876	92.12
480.095	90.12
480.313	78.12
480.532	105.12
480.751	94.12
480.969	98.12
481.188	126.12
481.406	117.12
481.624	91.12
481.843	95.12
482.061	86.12
482.28	89.12
482.498	97.12
482.717	70.12
482.935	95.12
483.153	99.12
483.372	87.12
483.59	95.12
483.808	115.12
484.027	95.12
484.245	85.12
484.463	89.12
484.681	78.12
484.9	93.12
485.118	95.12
485.336	94.12
485.554	98.12
485.772	99.12
485.99	105.12
486.209	104.12
486.427	109.12
486.645	117.12
486.863	110.12
487.081	107.12
487.299	98.12
487.517	97.12
487.735	93.12
487.953	88.12
488.171	94.12
488.389	95.12
488.607	93.12
488.825	97.12
489.043	89.12
489.261	90.12
489.479	86.12
489.696	103.12
489.914	94.12
490.132	92.12
490.35	115.12
490.568	96.12
490.786	93.12
491.003	88.12
491.221	86.12
491.439	93.12
491.657	96.12
491.874	87.12
492.092	101.12
492.31	106.12
492.527	85.12
492.745	104.12
492.963	93.12
493.18	101.12
493.398	89.12
493.615	90.12
493.833	110.12
494.05	89.12
494.268	86.12
494.485	88.12
494.703	85.12
494.92	95.12
495.138	92.12
495.355	85.12
495.573	111.12
495.79	83.12
496.008	104.12
496.225	109.12
496.442	101.12
496.66	94.12
496.877	89.12
497.094	99.12
497.312	108.12
497.529	81.12
497.746	89.12
497.963	89.12
498.181	94.12
498.398	95.12
498.615	119.12
498.832	103.12
499.049	91.12
499.267	102.12
499.484	102.12
499.701	100.12
499.918	73.12
500.135	96.12
500.352	102.12
500.569	102.12
500.786	89.12
501.003	95.12
501.22	100.12
501.437	105.12
501.654	92.12
501.871	113.12
502.088	95.12
502.305	95.12
502.522	93.12
502.739	101.12
502.956	102.12
503.172	102.12
503.389	101.12
503.606	107.12
503.823	100.12
504.04	88.12
504.256	85.12
504.473	77.12
504.69	81.12
504.907	93.12
505.123	94.12
505.34	97.12
505.557	97.12
505.773	89.12
505.99	87.12
506.207	90.12
506.423	96.12
506.64	92.12
506.856	92.12
507.073	89.12
507.289	99.12
507.506	82.12
507.722	111.12
507.939	103.12
508.155	90.12
508.372	95.12
508.588	86.12
508.805	102.12
509.021	103.12
509.238	107.12
509.454	102.12
509.67	107.12
509.887	103.12
510.103	134.12
510.319	211.12
510.536	715.12
510.752	2147.12
510.968	585.12
511.184	141.12
511.401	119.12
511.617	108.12
511.833	91.12
512.049	107.12
512.265	92.12
512.481	98.12
512.698	94.12
512.914	91.12
513.13	104.12
513.346	99.12
513.562	100.12
513.778	97.12
513.994	92.12
514.21	114.12
514.426	120.12
514.642	137.12
514.858	107.12
515.074	152.12
515.29	394.12
515.506	1227.12
515.721	451.12
515.937	134.12
516.153	121.12
516.369	101.12
516.585	94.12
516.801	106.12
517.016	100.12
517.232	104.12
517.448	105.12
517.664	100.12
517.879	88.12
518.095	83.12
518.311	87.12
518.527	93.12
518.742	94.12
518.958	90.12
519.173	107.12
519.389	101.12
519.605	117.12
519.82	98.12
520.036	109.12
520.251	120.12
520.467	129.12
520.682	100.12
520.898	94.12
521.113	107.12
521.329	117.12
521.544	189.12
521.76	487.12
521.975	2023.12
522.19	1193.12
522.406	260.12
522.621	109.12
522.836	102.12
523.052	105.12
523.267	97.12
523.482	95.12
523.698	105.12
523.913	114.12
524.128	114.12
524.343	96.12
524.559	99.12
524.774	97.12
524.989	97.12
525.204	97.12
525.419	108.12
525.634	97.12
525.849	114.12
526.064	102.12
526.28	89.12
526.495	91.12
526.71	95.12
526.925	94.12
527.14	91.12
527.355	95.12
527.57	89.12
527.785	92.12
527.999	93.12
528.214	92.12
528.429	105.12
528.644	80.12
528.859	81.12
529.074	91.12
529.289	119.12
529.503	154.12
529.718	102.12
529.933	83.12
530.148	99.12
530.363	103.12
530.577	83.12
530.792	86.12
531.007	99.12
531.221	93.12
531.436	105.12
531.651	99.12
531.865	91.12
532.08	95.12
532.295	103.12
532.509	92.12
532.724	100.12
532.938	93.12
533.153	100.12
533.367	98.12
533.582	98.12
533.796	105.12
534.011	96.12
534.225	101.12
534.44	94.12
534.654	105.12
534.868	101.12
535.083	101.12
535.297	118.12
535.511	102.12
535.726	108.12
535.94	91.12
536.154	91.12
536.369	86.12
536.583	100.12
536.797	75.12
537.011	105.12
537.225	102.12
537.44	103.12
537.654	93.12
537.868	89.12
538.082	111.12
538.296	90.12
538.51	101.12
538.724	97.12
538.938	94.12
539.153	95.12
539.367	95.12
539.581	95.12
539.795	95.12
540.009	95.12
540.222	96.12
540.436	102.12
540.65	102.12
540.864	95.12
541.078	96.12
541.292	99.12
541.506	102.12
541.72	96.12
541.934	99.12
542.147	93.12
542.361	78.12
542.575	78.12
542.789	97.12
543.002	95.12
543.216	93.12
543.43	89.12
543.644	108.12
543.857	107.12
544.071	89.12
544.285	113.12
544.498	104.12
544.712	105.12
544.925	85.12
545.139	103.12
545.352	86.12
545.566	104.12
545.779	121.12
545.993	79.12
546.206	90.12
546.42	89.12
546.633	100.12
546.847	93.12
547.06	91.12
547.274	93.12
547.487	97.12
547.7	78.12
547.914	76.12
548.127	89.12
548.34	94.12
548.554	95.12
548.767	98.12
548.98	73.12
549.193	92.12
549.407	84.12
549.62	93.12
549.833	98.12
550.046	96.12
550.259	81.12
550.473	83.12
550.686	100.12
550.899	110.12
551.112	97.12
551.325	90.12
551.538	95.12
551.751	108.12
551.964	117.12
552.177	96.12
552.39	92.12
552.603	107.12
552.816	97.12
553.029	87.12
553.242	87.12
553.455	101.12
553.667	118.12
553.88	105.12
554.093	85.12
554.306	78.12
554.519	117.12
554.732	81.12
554.944	93.12
555.157	93.12
555.37	90.12
555.583	99.12
555.795	102.12
556.008	92.12
556.221	87.12
556.433	88.12
556.646	101.12
556.859	96.12
557.071	88.12
557.284	94.12
557.496	90.12
557.709	104.12
557.921	76.12
558.134	93.12
558.346	94.12
558.559	92.12
558.771	88.12
558.984	90.12
559.196	95.12
559.409	103.12
559.621	94.12
559.833	88.12
560.046	90.12
560.258	81.12
560.47	99.12
560.683	97.12
560.895	85.12
561.107	98.12
561.32	101.12
561.532	99.12
561.744	92.12
561.956	92.12
562.168	82.12
562.381	85.12
562.593	97.12
562.805	100.12
563.017	97.12
563.229	91.12
563.441	94.12
563.653	85.12
563.865	84.12
564.077	92.12
564.289	86.12
564.501	105.12
564.713	87.12
564.925	83.12
565.137	86.12
565.349	92.12
565.561	100.12
565.773	86.12
565.985	82.12
566.197	89.12
566.408	86.12
566.62	91.12
566.832	83.12
567.044	94.12
567.255	73.12
567.467	82.12
567.679	98.12
567.891	77.12
568.102	89.12
568.314	84.12
568.526	80.12
568.737	99.12
568.949	92.12
569.161	94.12
569.372	86.12
569.584	78.12
569.795	91.12
570.007	109.12
570.218	238.12
570.43	148.12
570.641	76.12
570.853	97.12
571.064	83.12
571.276	97.12
571.487	87.12
571.698	98.12
571.91	76.12
572.121	92.12
572.333	97.12
572.544	91.12
572.755	108.12
572.966	67.12
573.178	88.12
573.389	70.12
573.6	92.12
573.811	81.12
574.023	106.12
574.234	93.12
574.445	83.12
574.656	94.12
574.867	83.12
575.078	99.12
575.289	95.12
575.501	97.12
575.712	101.12
575.923	98.12
576.134	92.12
576.345	94.12
576.556	96.12
576.767	94.12
576.978	93.12
577.188	89.12
577.399	82.12
577.61	78.12
577.821	101.12
578.032	115.12
578.243	261.12
578.454	715.12
578.665	207.12
578.875	101.12
579.086	108.12
579.297	88.12
579.508	83.12
579.718	89.12
579.929	90.12
580.14	104.12
580.35	81.12
580.561	85.12
580.772	93.12
580.982	100.12
581.193	101.12
581.403	99.12
581.614	92.12
581.825	90.12
582.035	98.12
582.246	92.12
582.456	97.12
582.667	98.12
582.877	95.12
583.087	80.12
583.298	92.12
583.508	97.12
583.719	101.12
583.929	100.12
584.139	97.12
584.35	101.12
584.56	98.12
584.77	73.12
584.981	90.12
585.191	92.12
585.401	98.12
585.611	96.12
585.821	93.12
586.032	95.12
586.242	93.12
586.452	98.12
586.662	90.12
586.872	80.12
587.082	89.12
587.292	87.12
587.502	74.12
587.713	85.12
587.923	81.12
588.133	82.12
588.343	88.12
588.553	85.12
588.762	95.12
588.972	99.12
589.182	107.12
589.392	92.12
589.602	93.12
589.812	98.12
590.022	93.12
590.232	87.12
590.441	101.12
590.651	90.12
590.861	85.12
591.071	101.12
591.281	89.12
591.49	97.12
591.7	86.12
591.91	77.12
592.119	92.12
592.329	108.12
592.539	91.12
592.748	87.12
592.958	99.12
593.167	96.12
593.377	93.12
593.587	104.12
593.796	74.12
594.006	79.12
594.215	97.12
594.424	82.12
594.634	91.12
594.843	91.12
595.053	73.12
595.262	87.12
595.472	79.12
595.681	94.12
595.89	89.12
596.1	71.12
596.309	87.12
596.518	94.12
596.727	88.12
596.937	85.12
597.146	88.12
597.355	88.12
597.564	75.12
597.774	100.12
597.983	90.12
598.192	94.12
598.401	87.12
598.61	87.12
598.819	89.12
599.028	101.12
599.237	85.12
599.446	86.12
599.655	84.12
599.864	95.12
600.073	81.12
600.282	92.12
600.491	83.12
600.7	106.12
600.909	95.12
601.118	85.12
601.327	85.12
601.536	93.12
601.745	82.12
601.953	91.12
602.162	98.12
602.371	92.12
602.58	99.12
602.789	78.12
602.997	79.12
603.206	78.12
603.415	95.12
603.623	91.12
603.832	86.12
604.041	92.12
604.249	82.12
604.458	93.12
604.666	92.12
604.875	82.12
605.084	104.12
605.292	76.12
605.501	89.12
605.709	91.12
605.918	81.12
606.126	85.12
606.334	103.12
606.543	98.12
606.751	106.12
606.96	96.12
607.168	76.12
607.376	102.12
607.585	77.12
607.793	88.12
608.001	83.12
608.21	89.12
608.418	81.12
608.626	84.12
608.834	90.12
609.043	84.12
609.251	102.12
609.459	90.12
609.667	85.12
609.875	104.12
610.083	85.12
610.291	93.12
610.499	83.12
610.707	85.12
610.916	86.12
611.124	92.12
611.332	89.12
611.54	94.12
611.748	78.12
611.955	82.12
612.163	81.12
612.371	88.12
612.579	99.12
612.787	105.12
612.995	92.12
613.203	97.12
613.411	88.12
613.618	77.12
613.826	77.12
614.034	87.12
614.242	92.12
614.449	73.12
614.657	85.12
614.865	94.12
615.072	90.12
615.28	90.12
615.488	101.12
615.695	107.12
615.903	102.12
616.111	100.12
616.318	98.12
616.526	92.12
616.733	102.12
616.941	99.12
617.148	92.12
617.356	77.12
617.563	95.12
617.771	85.12
617.978	81.12
618.185	100.12
618.393	81.12
618.6	77.12
618.807	84.12
619.015	87.12
619.222	98.12
619.429	98.12
619.637	93.12
619.844	97.12
620.051	100.12
620.258	78.12
620.466	82.12
620.673	87.12
620.88	95.12
621.087	85.12
621.294	82.12
621.501	81.12
621.708	84.12
621.915	92.12
622.122	88.12
622.329	102.12
622.536	83.12
622.743	93.12
622.95	86.12
623.157	94.12
623.364	85.12
623.571	76.12
623.778	93.12
623.985	101.12
624.192	94.12
624.399	89.12
624.606	96.12
624.812	94.12
625.019	79.12
625.226	77.12
625.433	85.12
625.639	95.12
625.846	82.12
626.053	79.12
626.259	87.12
626.466	83.12
626.673	64.12
626.879	88.12
627.086	78.12
627.293	86.12
627.499	81.12
627.706	97.12
627.912	110.12
628.119	94.12
628.325	94.12
628.532	92.12
628.738	87.12
628.945	89.12
629.151	95.12
629.357	86.12
629.564	87.12
629.77	103.12
629.976	87.12
630.183	77.12
630.389	75.12
630.595	86.12
630.802	77.12
631.008	79.12
631.214	79.12
631.42	75.12
631.627	89.12
631.833	85.12
632.039	67.12
632.245	90.12
632.451	87.12
632.657	97.12
632.863	70.12
633.069	76.12
633.275	85.12
633.481	77.12
633.688	87.12
633.893	93.12
634.099	83.12
634.305	98.12
634.511	80.12
634.717	89.12
634.923	99.12
635.129	89.12
635.335	87.12
635.541	89.12
635.747	75.12
635.952	83.12
636.158	85.12
636.364	89.12
636.57	105.12
636.775	97.12
636.981	79.12
637.187	75.12
637.392	77.12
637.598	84.12
637.804	87.12
638.009	79.12
638.215	94.12
638.421	92.12
638.626	80.12
638.832	106.12
639.037	84.12
639.243	95.12
639.448	91.12
639.654	83.12
639.859	86.12
640.065	92.12
640.27	92.12
640.475	78.12
640.681	78.12
640.886	86.12
641.091	92.12
641.297	90.12
641.502	77.12
641.707	85.12
641.913	83.12
642.118	91.12
642.323	92.12
642.528	82.12
642.733	91.12
642.939	83.12
643.144	91.12
643.349	77.12
643.554	96.12
643.759	87.12
643.964	79.12
644.169	93.12
644.374	89.12
644.579	94.12
644.784	92.12
644.989	90.12
645.194	100.12
645.399	93.12
645.604	87.12
645.809	89.12
646.014	81.12
646.219	78.12
646.423	85.12
646.628	72.12
646.833	92.12
647.038	83.12
647.243	86.12
647.447	94.12
647.652	86.12
647.857	97.12
648.062	102.12
648.266	87.12
648.471	83.12
648.676	106.12
648.88	98.12
649.085	97.12
649.289	86.12
649.494	93.12
649.698	125.12
649.903	83.12
650.107	85.12
650.312	92.12
650.516	93.12
650.721	93.12
650.925	85.12
651.13	73.12
651.334	92.12
651.539	87.12
651.743	79.12
651.947	90.12
652.152	93.12
652.356	98.12
652.56	94.12
652.764	86.12
652.969	87.12
653.173	84.12
653.377	93.12
653.581	87.12
653.785	84.12
653.99	63.12
654.194	83.12
654.398	100.12
654.602	94.12
654.806	93.12
655.01	101.12
655.214	87.12
655.418	83.12
655.622	81.12
655.826	91.12
656.03	93.12
656.234	98.12
656.438	85.12
656.642	101.12
656.846	83.12
657.049	90.12
657.253	75.12
657.457	76.12
657.661	92.12
657.865	77.12
658.068	70.12
658.272	87.12
658.476	90.12
658.68	86.12
658.883	84.12
659.087	89.12
659.291	81.12
659.494	86.12
659.698	94.12
659.901	84.12
660.105	67.12
660.309	76.12
660.512	78.12
660.716	93.12
660.919	87.12
661.123	86.12
661.326	75.12
661.53	91.12
661.733	85.12
661.936	87.12
662.14	81.12
662.343	89.12
662.546	91.12
662.75	79.12
662.953	84.12
663.156	94.12
663.36	88.12
663.563	89.12
663.766	87.12
663.969	71.12
664.173	89.12
664.376	89.12
664.579	83.12
664.782	88.12
664.985	86.12
665.188	78.12
665.391	89.12
665.594	89.12
665.797	83.12
666	86.12
666.203	94.12
666.406	85.12
666.609	92.12
666.812	81.12
667.015	77.12
667.218	90.12
667.421	96.12
667.624	77.12
667.827	95.12
668.03	79.12
668.232	74.12
668.435	82.12
668.638	93.12
668.841	89.12
669.043	85.12
669.246	98.12
669.449	94.12
669.651	91.12
669.854	85.12
670.057	95.12
670.259	87.12
670.462	76.12
670.665	82.12
670.867	77.12
671.07	87.12
671.272	71.12
671.475	84.12
671.677	77.12
671.88	92.12
672.082	85.12
672.284	89.12
672.487	77.12
672.689	74.12
672.892	85.12
