Data from Uncirc_1985_H10_HRD10591_00062.txt Node
Date: Wed Jan 03 12:18:29 EST 2024
User: Yrep
Spectrometer: HR+D1059
Trigger mode: 1
Integration Time (sec): 1.000000E-1
Scans to average: 1
Electric dark correction enabled: true
Nonlinearity correction enabled: false
Boxcar width: 0
XAxis mode: Wavelengths
Number of Pixels in Spectrum: 2048
>>>>>Begin Spectral Data<<<<<
223.165	-26.81
223.4	-26.81
223.635	-26.81
223.869	-18.81
224.104	-11.81
224.338	-11.81
224.573	-7.81
224.808	-15.81
225.042	-17.81
225.277	-7.81
225.511	-9.81
225.746	-3.81
225.98	8.19
226.215	15.19
226.449	18.19
226.683	29.19
226.918	28.19
227.152	33.19
227.387	50.19
227.621	48.19
227.856	46.19
228.09	48.19
228.324	43.19
228.559	63.19
228.793	68.19
229.027	55.19
229.262	67.19
229.496	83.19
229.73	85.19
229.964	78.19
230.199	61.19
230.433	84.19
230.667	74.19
230.901	73.19
231.136	80.19
231.37	74.19
231.604	78.19
231.838	79.19
232.072	78.19
232.306	69.19
232.541	85.19
232.775	86.19
233.009	92.19
233.243	77.19
233.477	85.19
233.711	89.19
233.945	84.19
234.179	90.19
234.413	79.19
234.647	90.19
234.881	80.19
235.115	69.19
235.349	82.19
235.583	69.19
235.817	88.19
236.051	81.19
236.285	68.19
236.519	82.19
236.753	84.19
236.987	77.19
237.221	101.19
237.455	73.19
237.689	89.19
237.922	83.19
238.156	63.19
238.39	84.19
238.624	71.19
238.858	88.19
239.091	86.19
239.325	80.19
239.559	73.19
239.793	82.19
240.027	74.19
240.26	85.19
240.494	77.19
240.728	65.19
240.961	75.19
241.195	71.19
241.429	68.19
241.662	70.19
241.896	80.19
242.13	70.19
242.363	78.19
242.597	90.19
242.83	85.19
243.064	77.19
243.298	74.19
243.531	83.19
243.765	76.19
243.998	85.19
244.232	88.19
244.465	91.19
244.699	92.19
244.932	80.19
245.166	86.19
245.399	86.19
245.633	81.19
245.866	82.19
246.099	91.19
246.333	82.19
246.566	77.19
246.8	84.19
247.033	72.19
247.266	80.19
247.5	77.19
247.733	89.19
247.966	84.19
248.2	89.19
248.433	65.19
248.666	82.19
248.899	76.19
249.133	89.19
249.366	109.19
249.599	105.19
249.832	76.19
250.066	86.19
250.299	75.19
250.532	86.19
250.765	86.19
250.998	87.19
251.231	77.19
251.465	83.19
251.698	91.19
251.931	100.19
252.164	80.19
252.397	73.19
252.63	101.19
252.863	87.19
253.096	86.19
253.329	90.19
253.562	87.19
253.795	84.19
254.028	76.19
254.261	62.19
254.494	81.19
254.727	84.19
254.96	82.19
255.193	90.19
255.426	90.19
255.659	83.19
255.892	105.19
256.124	90.19
256.357	65.19
256.59	89.19
256.823	86.19
257.056	81.19
257.289	86.19
257.521	82.19
257.754	86.19
257.987	91.19
258.22	82.19
258.452	78.19
258.685	76.19
258.918	86.19
259.151	82.19
259.383	86.19
259.616	93.19
259.849	81.19
260.081	73.19
260.314	82.19
260.547	83.19
260.779	82.19
261.012	82.19
261.244	90.19
261.477	99.19
261.71	91.19
261.942	116.19
262.175	105.19
262.407	70.19
262.64	89.19
262.872	80.19
263.105	82.19
263.337	103.19
263.57	96.19
263.802	84.19
264.035	81.19
264.267	76.19
264.499	93.19
264.732	91.19
264.964	80.19
265.197	92.19
265.429	84.19
265.661	101.19
265.894	92.19
266.126	90.19
266.358	86.19
266.591	84.19
266.823	96.19
267.055	94.19
267.287	89.19
267.52	85.19
267.752	93.19
267.984	90.19
268.216	88.19
268.448	78.19
268.681	89.19
268.913	83.19
269.145	101.19
269.377	90.19
269.609	76.19
269.841	96.19
270.073	91.19
270.306	82.19
270.538	82.19
270.77	75.19
271.002	82.19
271.234	83.19
271.466	86.19
271.698	82.19
271.93	94.19
272.162	108.19
272.394	93.19
272.626	86.19
272.858	86.19
273.09	87.19
273.322	80.19
273.553	81.19
273.785	74.19
274.017	95.19
274.249	78.19
274.481	92.19
274.713	93.19
274.945	85.19
275.176	104.19
275.408	92.19
275.64	85.19
275.872	81.19
276.104	87.19
276.335	92.19
276.567	96.19
276.799	115.19
277.031	95.19
277.262	90.19
277.494	93.19
277.726	80.19
277.957	91.19
278.189	98.19
278.421	86.19
278.652	87.19
278.884	91.19
279.115	81.19
279.347	87.19
279.579	95.19
279.81	97.19
280.042	81.19
280.273	89.19
280.505	94.19
280.736	89.19
280.968	92.19
281.199	90.19
281.431	88.19
281.662	81.19
281.894	99.19
282.125	103.19
282.356	131.19
282.588	141.19
282.819	101.19
283.051	109.19
283.282	81.19
283.513	87.19
283.745	83.19
283.976	93.19
284.207	89.19
284.439	83.19
284.67	80.19
284.901	80.19
285.132	93.19
285.364	91.19
285.595	94.19
285.826	86.19
286.057	106.19
286.288	89.19
286.52	81.19
286.751	87.19
286.982	85.19
287.213	90.19
287.444	82.19
287.675	94.19
287.906	81.19
288.138	88.19
288.369	96.19
288.6	109.19
288.831	96.19
289.062	88.19
289.293	99.19
289.524	80.19
289.755	92.19
289.986	86.19
290.217	84.19
290.448	86.19
290.679	86.19
290.91	91.19
291.141	96.19
291.371	92.19
291.602	77.19
291.833	96.19
292.064	91.19
292.295	88.19
292.526	102.19
292.757	90.19
292.987	90.19
293.218	82.19
293.449	92.19
293.68	77.19
293.91	92.19
294.141	100.19
294.372	93.19
294.603	75.19
294.833	88.19
295.064	88.19
295.295	70.19
295.525	94.19
295.756	105.19
295.987	125.19
296.217	139.19
296.448	124.19
296.679	113.19
296.909	93.19
297.14	93.19
297.37	83.19
297.601	94.19
297.831	80.19
298.062	101.19
298.292	92.19
298.523	86.19
298.753	99.19
298.984	92.19
299.214	100.19
299.445	90.19
299.675	92.19
299.905	95.19
300.136	106.19
300.366	87.19
300.597	75.19
300.827	93.19
301.057	109.19
301.288	106.19
301.518	100.19
301.748	90.19
301.979	118.19
302.209	103.19
302.439	96.19
302.669	89.19
302.9	90.19
303.13	83.19
303.36	100.19
303.59	103.19
303.82	108.19
304.051	94.19
304.281	100.19
304.511	90.19
304.741	96.19
304.971	89.19
305.201	104.19
305.431	84.19
305.661	88.19
305.891	92.19
306.121	90.19
306.352	89.19
306.582	100.19
306.812	90.19
307.042	98.19
307.272	64.19
307.502	92.19
307.731	109.19
307.961	80.19
308.191	88.19
308.421	93.19
308.651	87.19
308.881	89.19
309.111	104.19
309.341	87.19
309.571	101.19
309.8	96.19
310.03	97.19
310.26	96.19
310.49	92.19
310.72	94.19
310.949	97.19
311.179	95.19
311.409	93.19
311.639	80.19
311.868	97.19
312.098	95.19
312.328	112.19
312.557	102.19
312.787	111.19
313.017	94.19
313.246	100.19
313.476	103.19
313.706	88.19
313.935	86.19
314.165	105.19
314.394	98.19
314.624	109.19
314.853	89.19
315.083	104.19
315.312	111.19
315.542	94.19
315.771	88.19
316.001	96.19
316.23	95.19
316.46	88.19
316.689	92.19
316.919	84.19
317.148	97.19
317.377	101.19
317.607	94.19
317.836	97.19
318.065	97.19
318.295	100.19
318.524	86.19
318.753	104.19
318.983	91.19
319.212	102.19
319.441	101.19
319.67	97.19
319.9	101.19
320.129	93.19
320.358	82.19
320.587	101.19
320.816	105.19
321.046	98.19
321.275	92.19
321.504	99.19
321.733	93.19
321.962	93.19
322.191	108.19
322.42	114.19
322.649	104.19
322.878	106.19
323.108	119.19
323.337	123.19
323.566	127.19
323.795	140.19
324.024	195.19
324.253	351.19
324.482	735.19
324.71	1579.19
324.939	2031.19
325.168	760.19
325.397	229.19
325.626	148.19
325.855	133.19
326.084	119.19
326.313	137.19
326.542	147.19
326.77	216.19
326.999	412.19
327.228	853.19
327.457	1552.19
327.686	1227.19
327.914	346.19
328.143	188.19
328.372	150.19
328.6	141.19
328.829	107.19
329.058	129.19
329.287	116.19
329.515	100.19
329.744	92.19
329.972	111.19
330.201	131.19
330.43	171.19
330.658	130.19
330.887	131.19
331.115	116.19
331.344	103.19
331.572	93.19
331.801	110.19
332.03	99.19
332.258	98.19
332.486	97.19
332.715	95.19
332.943	100.19
333.172	94.19
333.4	93.19
333.629	106.19
333.857	114.19
334.085	108.19
334.314	128.19
334.542	156.19
334.771	145.19
334.999	110.19
335.227	93.19
335.455	94.19
335.684	89.19
335.912	97.19
336.14	94.19
336.369	91.19
336.597	96.19
336.825	91.19
337.053	95.19
337.281	96.19
337.51	89.19
337.738	89.19
337.966	80.19
338.194	94.19
338.422	92.19
338.65	86.19
338.878	103.19
339.106	91.19
339.334	104.19
339.562	73.19
339.79	92.19
340.018	91.19
340.246	100.19
340.474	93.19
340.702	102.19
340.93	95.19
341.158	94.19
341.386	99.19
341.614	91.19
341.842	104.19
342.07	94.19
342.298	85.19
342.526	83.19
342.754	81.19
342.981	90.19
343.209	92.19
343.437	102.19
343.665	102.19
343.893	97.19
344.12	103.19
344.348	103.19
344.576	92.19
344.804	90.19
345.031	87.19
345.259	94.19
345.487	99.19
345.714	102.19
345.942	98.19
346.17	96.19
346.397	80.19
346.625	102.19
346.853	91.19
347.08	81.19
347.308	100.19
347.535	86.19
347.763	96.19
347.99	93.19
348.218	105.19
348.445	109.19
348.673	101.19
348.9	81.19
349.128	102.19
349.355	79.19
349.583	85.19
349.81	98.19
350.037	94.19
350.265	93.19
350.492	89.19
350.72	94.19
350.947	96.19
351.174	116.19
351.402	108.19
351.629	96.19
351.856	89.19
352.083	98.19
352.311	108.19
352.538	111.19
352.765	100.19
352.992	107.19
353.22	112.19
353.447	126.19
353.674	101.19
353.901	109.19
354.128	96.19
354.355	97.19
354.583	102.19
354.81	106.19
355.037	97.19
355.264	107.19
355.491	93.19
355.718	69.19
355.945	74.19
356.172	88.19
356.399	93.19
356.626	86.19
356.853	80.19
357.08	88.19
357.307	88.19
357.534	85.19
357.761	91.19
357.988	92.19
358.215	93.19
358.441	91.19
358.668	99.19
358.895	82.19
359.122	93.19
359.349	79.19
359.576	90.19
359.802	105.19
360.029	103.19
360.256	93.19
360.483	117.19
360.709	108.19
360.936	89.19
361.163	92.19
361.39	90.19
361.616	94.19
361.843	71.19
362.07	94.19
362.296	93.19
362.523	87.19
362.749	98.19
362.976	95.19
363.203	102.19
363.429	93.19
363.656	94.19
363.882	100.19
364.109	84.19
364.335	98.19
364.562	89.19
364.788	102.19
365.015	98.19
365.241	99.19
365.468	101.19
365.694	100.19
365.92	99.19
366.147	85.19
366.373	96.19
366.599	84.19
366.826	80.19
367.052	85.19
367.278	101.19
367.505	94.19
367.731	89.19
367.957	83.19
368.184	84.19
368.41	113.19
368.636	97.19
368.862	114.19
369.089	117.19
369.315	95.19
369.541	84.19
369.767	78.19
369.993	76.19
370.219	94.19
370.445	86.19
370.672	83.19
370.898	84.19
371.124	103.19
371.35	86.19
371.576	79.19
371.802	92.19
372.028	94.19
372.254	82.19
372.48	90.19
372.706	87.19
372.932	91.19
373.158	104.19
373.384	98.19
373.61	99.19
373.835	92.19
374.061	86.19
374.287	94.19
374.513	82.19
374.739	66.19
374.965	94.19
375.191	80.19
375.416	83.19
375.642	86.19
375.868	90.19
376.094	97.19
376.319	96.19
376.545	87.19
376.771	99.19
376.997	100.19
377.222	100.19
377.448	99.19
377.674	85.19
377.899	74.19
378.125	96.19
378.35	96.19
378.576	85.19
378.802	88.19
379.027	73.19
379.253	99.19
379.478	79.19
379.704	90.19
379.929	100.19
380.155	89.19
380.38	97.19
380.606	95.19
380.831	92.19
381.057	104.19
381.282	81.19
381.507	88.19
381.733	97.19
381.958	104.19
382.184	93.19
382.409	92.19
382.634	105.19
382.86	100.19
383.085	86.19
383.31	81.19
383.535	101.19
383.761	86.19
383.986	93.19
384.211	98.19
384.436	92.19
384.662	93.19
384.887	100.19
385.112	98.19
385.337	90.19
385.562	100.19
385.787	100.19
386.013	91.19
386.238	103.19
386.463	100.19
386.688	92.19
386.913	106.19
387.138	103.19
387.363	88.19
387.588	98.19
387.813	93.19
388.038	111.19
388.263	109.19
388.488	99.19
388.713	89.19
388.938	97.19
389.163	103.19
389.387	84.19
389.612	85.19
389.837	98.19
390.062	96.19
390.287	101.19
390.512	78.19
390.736	92.19
390.961	94.19
391.186	102.19
391.411	86.19
391.636	90.19
391.86	98.19
392.085	91.19
392.31	91.19
392.534	88.19
392.759	88.19
392.984	90.19
393.208	94.19
393.433	100.19
393.658	90.19
393.882	68.19
394.107	81.19
394.331	98.19
394.556	104.19
394.78	100.19
395.005	84.19
395.229	96.19
395.454	81.19
395.678	91.19
395.903	87.19
396.127	84.19
396.352	91.19
396.576	95.19
396.801	77.19
397.025	85.19
397.249	81.19
397.474	73.19
397.698	94.19
397.922	85.19
398.147	93.19
398.371	86.19
398.595	97.19
398.82	91.19
399.044	97.19
399.268	101.19
399.492	95.19
399.717	97.19
399.941	90.19
400.165	107.19
400.389	85.19
400.613	99.19
400.837	94.19
401.062	76.19
401.286	81.19
401.51	86.19
401.734	91.19
401.958	100.19
402.182	130.19
402.406	153.19
402.63	105.19
402.854	94.19
403.078	93.19
403.302	84.19
403.526	77.19
403.75	90.19
403.974	76.19
404.198	88.19
404.422	84.19
404.645	81.19
404.869	75.19
405.093	96.19
405.317	109.19
405.541	106.19
405.765	105.19
405.988	112.19
406.212	162.19
406.436	219.19
406.66	132.19
406.883	104.19
407.107	90.19
407.331	86.19
407.555	92.19
407.778	105.19
408.002	99.19
408.226	95.19
408.449	70.19
408.673	88.19
408.896	91.19
409.12	96.19
409.344	88.19
409.567	80.19
409.791	90.19
410.014	94.19
410.238	93.19
410.461	88.19
410.685	99.19
410.908	100.19
411.132	101.19
411.355	108.19
411.578	108.19
411.802	77.19
412.025	90.19
412.249	92.19
412.472	103.19
412.695	99.19
412.919	96.19
413.142	93.19
413.365	75.19
413.589	82.19
413.812	79.19
414.035	100.19
414.258	93.19
414.482	78.19
414.705	88.19
414.928	93.19
415.151	84.19
415.374	89.19
415.597	90.19
415.821	92.19
416.044	87.19
416.267	89.19
416.49	84.19
416.713	95.19
416.936	77.19
417.159	84.19
417.382	98.19
417.605	84.19
417.828	100.19
418.051	109.19
418.274	108.19
418.497	94.19
418.72	97.19
418.943	70.19
419.166	98.19
419.389	91.19
419.611	88.19
419.834	81.19
420.057	76.19
420.28	95.19
420.503	96.19
420.726	73.19
420.948	93.19
421.171	88.19
421.394	84.19
421.617	102.19
421.839	88.19
422.062	82.19
422.285	92.19
422.507	91.19
422.73	88.19
422.953	106.19
423.175	95.19
423.398	85.19
423.621	96.19
423.843	80.19
424.066	75.19
424.288	96.19
424.511	99.19
424.733	107.19
424.956	101.19
425.178	108.19
425.401	101.19
425.623	103.19
425.846	96.19
426.068	94.19
426.291	92.19
426.513	86.19
426.735	88.19
426.958	95.19
427.18	104.19
427.402	125.19
427.625	158.19
427.847	125.19
428.069	119.19
428.292	108.19
428.514	88.19
428.736	83.19
428.958	89.19
429.181	92.19
429.403	78.19
429.625	97.19
429.847	100.19
430.069	109.19
430.292	102.19
430.514	77.19
430.736	96.19
430.958	77.19
431.18	74.19
431.402	92.19
431.624	99.19
431.846	96.19
432.068	86.19
432.29	104.19
432.512	106.19
432.734	94.19
432.956	82.19
433.178	98.19
433.4	77.19
433.622	95.19
433.844	89.19
434.066	96.19
434.287	94.19
434.509	88.19
434.731	92.19
434.953	87.19
435.175	87.19
435.397	78.19
435.618	96.19
435.84	109.19
436.062	125.19
436.284	118.19
436.505	100.19
436.727	89.19
436.949	115.19
437.17	91.19
437.392	90.19
437.614	99.19
437.835	107.19
438.057	125.19
438.278	112.19
438.5	91.19
438.721	96.19
438.943	101.19
439.165	93.19
439.386	76.19
439.608	97.19
439.829	90.19
440.05	110.19
440.272	134.19
440.493	97.19
440.715	85.19
440.936	84.19
441.158	88.19
441.379	89.19
441.6	101.19
441.822	106.19
442.043	101.19
442.264	105.19
442.486	98.19
442.707	103.19
442.928	111.19
443.149	117.19
443.371	117.19
443.592	121.19
443.813	126.19
444.034	94.19
444.255	90.19
444.476	87.19
444.698	96.19
444.919	92.19
445.14	145.19
445.361	117.19
445.582	117.19
445.803	135.19
446.024	124.19
446.245	125.19
446.466	110.19
446.687	90.19
446.908	90.19
447.129	96.19
447.35	92.19
447.571	88.19
447.792	102.19
448.013	96.19
448.234	107.19
448.455	111.19
448.675	107.19
448.896	116.19
449.117	100.19
449.338	97.19
449.559	130.19
449.779	124.19
450	101.19
450.221	99.19
450.442	97.19
450.662	95.19
450.883	110.19
451.104	109.19
451.324	98.19
451.545	90.19
451.766	96.19
451.986	98.19
452.207	102.19
452.428	96.19
452.648	92.19
452.869	109.19
453.089	107.19
453.31	133.19
453.53	90.19
453.751	96.19
453.971	118.19
454.192	108.19
454.412	88.19
454.633	82.19
454.853	94.19
455.073	88.19
455.294	105.19
455.514	116.19
455.734	94.19
455.955	96.19
456.175	67.19
456.395	84.19
456.616	88.19
456.836	81.19
457.056	94.19
457.276	102.19
457.497	77.19
457.717	86.19
457.937	94.19
458.157	89.19
458.377	114.19
458.598	106.19
458.818	139.19
459.038	152.19
459.258	94.19
459.478	96.19
459.698	74.19
459.918	96.19
460.138	89.19
460.358	90.19
460.578	85.19
460.798	92.19
461.018	93.19
461.238	92.19
461.458	96.19
461.678	85.19
461.898	83.19
462.118	85.19
462.338	90.19
462.558	86.19
462.777	71.19
462.997	80.19
463.217	104.19
463.437	99.19
463.657	92.19
463.876	70.19
464.096	96.19
464.316	86.19
464.536	93.19
464.755	83.19
464.975	82.19
465.195	165.19
465.414	147.19
465.634	99.19
465.854	105.19
466.073	88.19
466.293	87.19
466.512	90.19
466.732	82.19
466.951	87.19
467.171	80.19
467.391	90.19
467.61	96.19
467.829	98.19
468.049	85.19
468.268	111.19
468.488	88.19
468.707	88.19
468.927	88.19
469.146	85.19
469.365	87.19
469.585	87.19
469.804	91.19
470.023	99.19
470.243	90.19
470.462	101.19
470.681	103.19
470.901	84.19
471.12	86.19
471.339	90.19
471.558	94.19
471.777	92.19
471.997	85.19
472.216	123.19
472.435	171.19
472.654	99.19
472.873	94.19
473.092	97.19
473.311	85.19
473.53	94.19
473.749	93.19
473.968	93.19
474.187	118.19
474.406	110.19
474.625	91.19
474.844	92.19
475.063	90.19
475.282	86.19
475.501	89.19
475.72	96.19
475.939	92.19
476.158	87.19
476.377	100.19
476.596	90.19
476.814	93.19
477.033	94.19
477.252	93.19
477.471	84.19
477.69	88.19
477.908	98.19
478.127	91.19
478.346	105.19
478.564	81.19
478.783	100.19
479.002	94.19
479.22	87.19
479.439	106.19
479.658	92.19
479.876	94.19
480.095	89.19
480.313	91.19
480.532	108.19
480.751	93.19
480.969	126.19
481.188	261.19
481.406	162.19
481.624	99.19
481.843	91.19
482.061	92.19
482.28	83.19
482.498	84.19
482.717	85.19
482.935	92.19
483.153	97.19
483.372	92.19
483.59	86.19
483.808	89.19
484.027	87.19
484.245	86.19
484.463	75.19
484.681	92.19
484.9	96.19
485.118	89.19
485.336	96.19
485.554	88.19
485.772	97.19
485.99	86.19
486.209	116.19
486.427	101.19
486.645	119.19
486.863	113.19
487.081	102.19
487.299	97.19
487.517	101.19
487.735	100.19
487.953	91.19
488.171	103.19
488.389	105.19
488.607	100.19
488.825	82.19
489.043	94.19
489.261	91.19
489.479	75.19
489.696	86.19
489.914	84.19
490.132	79.19
490.35	88.19
490.568	84.19
490.786	96.19
491.003	101.19
491.221	84.19
491.439	96.19
491.657	91.19
491.874	101.19
492.092	89.19
492.31	94.19
492.527	82.19
492.745	87.19
492.963	97.19
493.18	96.19
493.398	100.19
493.615	94.19
493.833	100.19
494.05	94.19
494.268	92.19
494.485	85.19
494.703	84.19
494.92	97.19
495.138	89.19
495.355	103.19
495.573	92.19
495.79	71.19
496.008	91.19
496.225	98.19
496.442	100.19
496.66	83.19
496.877	72.19
497.094	97.19
497.312	98.19
497.529	93.19
497.746	86.19
497.963	100.19
498.181	98.19
498.398	96.19
498.615	91.19
498.832	99.19
499.049	90.19
499.267	88.19
499.484	105.19
499.701	89.19
499.918	101.19
500.135	80.19
500.352	97.19
500.569	76.19
500.786	94.19
501.003	107.19
501.22	91.19
501.437	91.19
501.654	93.19
501.871	100.19
502.088	86.19
502.305	88.19
502.522	92.19
502.739	85.19
502.956	97.19
503.172	93.19
503.389	92.19
503.606	94.19
503.823	86.19
504.04	90.19
504.256	85.19
504.473	93.19
504.69	89.19
504.907	91.19
505.123	85.19
505.34	91.19
505.557	91.19
505.773	101.19
505.99	92.19
506.207	88.19
506.423	93.19
506.64	90.19
506.856	98.19
507.073	96.19
507.289	108.19
507.506	98.19
507.722	109.19
507.939	102.19
508.155	78.19
508.372	88.19
508.588	101.19
508.805	97.19
509.021	89.19
509.238	100.19
509.454	95.19
509.67	106.19
509.887	104.19
510.103	138.19
510.319	222.19
510.536	772.19
510.752	2376.19
510.968	638.19
511.184	144.19
511.401	116.19
511.617	98.19
511.833	105.19
512.049	91.19
512.265	93.19
512.481	81.19
512.698	106.19
512.914	81.19
513.13	75.19
513.346	89.19
513.562	107.19
513.778	101.19
513.994	102.19
514.21	114.19
514.426	121.19
514.642	144.19
514.858	125.19
515.074	144.19
515.29	426.19
515.506	1424.19
515.721	508.19
515.937	145.19
516.153	112.19
516.369	96.19
516.585	114.19
516.801	106.19
517.016	87.19
517.232	92.19
517.448	101.19
517.664	86.19
517.879	95.19
518.095	88.19
518.311	97.19
518.527	82.19
518.742	103.19
518.958	100.19
519.173	88.19
519.389	93.19
519.605	99.19
519.82	94.19
520.036	115.19
520.251	127.19
520.467	122.19
520.682	109.19
520.898	111.19
521.113	111.19
521.329	132.19
521.544	195.19
521.76	527.19
521.975	2331.19
522.19	1349.19
522.406	293.19
522.621	114.19
522.836	102.19
523.052	100.19
523.267	77.19
523.482	96.19
523.698	102.19
523.913	118.19
524.128	92.19
524.343	90.19
524.559	96.19
524.774	88.19
524.989	89.19
525.204	113.19
525.419	109.19
525.634	96.19
525.849	90.19
526.064	93.19
526.28	98.19
526.495	84.19
526.71	93.19
526.925	90.19
527.14	93.19
527.355	81.19
527.57	82.19
527.785	81.19
527.999	86.19
528.214	96.19
528.429	96.19
528.644	82.19
528.859	88.19
529.074	86.19
529.289	114.19
529.503	173.19
529.718	100.19
529.933	105.19
530.148	95.19
530.363	103.19
530.577	87.19
530.792	86.19
531.007	99.19
531.221	92.19
531.436	72.19
531.651	90.19
531.865	96.19
532.08	97.19
532.295	92.19
532.509	98.19
532.724	84.19
532.938	89.19
533.153	87.19
533.367	93.19
533.582	92.19
533.796	92.19
534.011	92.19
534.225	97.19
534.44	91.19
534.654	94.19
534.868	84.19
535.083	99.19
535.297	100.19
535.511	96.19
535.726	94.19
535.94	108.19
536.154	93.19
536.369	101.19
536.583	98.19
536.797	79.19
537.011	96.19
537.225	93.19
537.44	81.19
537.654	96.19
537.868	98.19
538.082	91.19
538.296	88.19
538.51	82.19
538.724	90.19
538.938	101.19
539.153	105.19
539.367	108.19
539.581	118.19
539.795	88.19
540.009	96.19
540.222	91.19
540.436	85.19
540.65	94.19
540.864	108.19
541.078	92.19
541.292	92.19
541.506	89.19
541.72	101.19
541.934	89.19
542.147	78.19
542.361	86.19
542.575	94.19
542.789	85.19
543.002	92.19
543.216	106.19
543.43	118.19
543.644	92.19
543.857	99.19
544.071	97.19
544.285	86.19
544.498	73.19
544.712	84.19
544.925	88.19
545.139	95.19
545.352	106.19
545.566	88.19
545.779	102.19
545.993	85.19
546.206	104.19
546.42	93.19
546.633	82.19
546.847	79.19
547.06	90.19
547.274	94.19
547.487	93.19
547.7	96.19
547.914	84.19
548.127	98.19
548.34	85.19
548.554	91.19
548.767	86.19
548.98	97.19
549.193	93.19
549.407	93.19
549.62	81.19
549.833	96.19
550.046	91.19
550.259	98.19
550.473	84.19
550.686	84.19
550.899	85.19
551.112	94.19
551.325	81.19
551.538	91.19
551.751	89.19
551.964	116.19
552.177	101.19
552.39	84.19
552.603	89.19
552.816	88.19
553.029	92.19
553.242	90.19
553.455	98.19
553.667	103.19
553.88	113.19
554.093	88.19
554.306	94.19
554.519	103.19
554.732	86.19
554.944	93.19
555.157	97.19
555.37	85.19
555.583	85.19
555.795	104.19
556.008	100.19
556.221	97.19
556.433	96.19
556.646	90.19
556.859	92.19
557.071	96.19
557.284	73.19
557.496	83.19
557.709	86.19
557.921	93.19
558.134	91.19
558.346	93.19
558.559	95.19
558.771	98.19
558.984	81.19
559.196	89.19
559.409	89.19
559.621	90.19
559.833	92.19
560.046	82.19
560.258	97.19
560.47	107.19
560.683	94.19
560.895	88.19
561.107	86.19
561.32	93.19
561.532	84.19
561.744	86.19
561.956	101.19
562.168	98.19
562.381	82.19
562.593	91.19
562.805	96.19
563.017	96.19
563.229	91.19
563.441	88.19
563.653	85.19
563.865	88.19
564.077	93.19
564.289	93.19
564.501	86.19
564.713	90.19
564.925	93.19
565.137	109.19
565.349	88.19
565.561	91.19
565.773	103.19
565.985	107.19
566.197	95.19
566.408	81.19
566.62	85.19
566.832	100.19
567.044	94.19
567.255	103.19
567.467	80.19
567.679	93.19
567.891	89.19
568.102	92.19
568.314	91.19
568.526	97.19
568.737	71.19
568.949	80.19
569.161	84.19
569.372	92.19
569.584	81.19
569.795	111.19
570.007	125.19
570.218	237.19
570.43	152.19
570.641	102.19
570.853	75.19
571.064	91.19
571.276	86.19
571.487	78.19
571.698	96.19
571.91	92.19
572.121	98.19
572.333	94.19
572.544	91.19
572.755	75.19
572.966	100.19
573.178	79.19
573.389	96.19
573.6	100.19
573.811	86.19
574.023	93.19
574.234	93.19
574.445	98.19
574.656	86.19
574.867	84.19
575.078	96.19
575.289	99.19
575.501	84.19
575.712	83.19
575.923	85.19
576.134	94.19
576.345	86.19
576.556	91.19
576.767	82.19
576.978	103.19
577.188	96.19
577.399	94.19
577.61	90.19
577.821	99.19
578.032	113.19
578.243	284.19
578.454	758.19
578.665	197.19
578.875	105.19
579.086	86.19
579.297	93.19
579.508	97.19
579.718	90.19
579.929	87.19
580.14	88.19
580.35	93.19
580.561	88.19
580.772	90.19
580.982	103.19
581.193	85.19
581.403	94.19
581.614	92.19
581.825	82.19
582.035	93.19
582.246	102.19
582.456	81.19
582.667	82.19
582.877	94.19
583.087	96.19
583.298	88.19
583.508	91.19
583.719	89.19
583.929	95.19
584.139	86.19
584.35	100.19
584.56	90.19
584.77	77.19
584.981	88.19
585.191	99.19
585.401	92.19
585.611	96.19
585.821	84.19
586.032	86.19
586.242	106.19
586.452	81.19
586.662	78.19
586.872	94.19
587.082	90.19
587.292	88.19
587.502	93.19
587.713	97.19
587.923	80.19
588.133	73.19
588.343	88.19
588.553	89.19
588.762	87.19
588.972	91.19
589.182	90.19
589.392	86.19
589.602	84.19
589.812	92.19
590.022	84.19
590.232	97.19
590.441	77.19
590.651	76.19
590.861	91.19
591.071	84.19
591.281	89.19
591.49	93.19
591.7	93.19
591.91	91.19
592.119	95.19
592.329	101.19
592.539	92.19
592.748	98.19
592.958	88.19
593.167	85.19
593.377	92.19
593.587	98.19
593.796	91.19
594.006	89.19
594.215	86.19
594.424	82.19
594.634	98.19
594.843	101.19
595.053	85.19
595.262	103.19
595.472	84.19
595.681	86.19
595.89	100.19
596.1	102.19
596.309	90.19
596.518	90.19
596.727	84.19
596.937	90.19
597.146	75.19
597.355	96.19
597.564	106.19
597.774	94.19
597.983	92.19
598.192	78.19
598.401	87.19
598.61	97.19
598.819	97.19
599.028	87.19
599.237	94.19
599.446	88.19
599.655	93.19
599.864	88.19
600.073	92.19
600.282	96.19
600.491	88.19
600.7	91.19
600.909	95.19
601.118	88.19
601.327	95.19
601.536	96.19
601.745	84.19
601.953	102.19
602.162	95.19
602.371	96.19
602.58	89.19
602.789	96.19
602.997	96.19
603.206	92.19
603.415	87.19
603.623	98.19
603.832	99.19
604.041	92.19
604.249	79.19
604.458	83.19
604.666	92.19
604.875	84.19
605.084	87.19
605.292	82.19
605.501	95.19
605.709	80.19
605.918	86.19
606.126	91.19
606.334	77.19
606.543	97.19
606.751	83.19
606.96	79.19
607.168	87.19
607.376	90.19
607.585	88.19
607.793	85.19
608.001	82.19
608.21	78.19
608.418	92.19
608.626	84.19
608.834	84.19
609.043	92.19
609.251	81.19
609.459	80.19
609.667	97.19
609.875	102.19
610.083	91.19
610.291	95.19
610.499	91.19
610.707	80.19
610.916	74.19
611.124	92.19
611.332	90.19
611.54	92.19
611.748	83.19
611.955	91.19
612.163	78.19
612.371	79.19
612.579	90.19
612.787	84.19
612.995	88.19
613.203	95.19
613.411	85.19
613.618	90.19
613.826	90.19
614.034	103.19
614.242	87.19
614.449	77.19
614.657	82.19
614.865	106.19
615.072	89.19
615.28	90.19
615.488	83.19
615.695	92.19
615.903	89.19
616.111	110.19
616.318	99.19
616.526	92.19
616.733	87.19
616.941	87.19
617.148	93.19
617.356	90.19
617.563	81.19
617.771	90.19
617.978	82.19
618.185	93.19
618.393	80.19
618.6	85.19
618.807	91.19
619.015	90.19
619.222	83.19
619.429	99.19
619.637	86.19
619.844	87.19
620.051	94.19
620.258	91.19
620.466	91.19
620.673	86.19
620.88	77.19
621.087	84.19
621.294	98.19
621.501	100.19
621.708	84.19
621.915	96.19
622.122	82.19
622.329	81.19
622.536	73.19
622.743	76.19
622.95	91.19
623.157	86.19
623.364	84.19
623.571	80.19
623.778	83.19
623.985	88.19
624.192	83.19
624.399	88.19
624.606	82.19
624.812	76.19
625.019	98.19
625.226	86.19
625.433	92.19
625.639	96.19
625.846	77.19
626.053	75.19
626.259	86.19
626.466	95.19
626.673	93.19
626.879	98.19
627.086	98.19
627.293	88.19
627.499	90.19
627.706	86.19
627.912	87.19
628.119	81.19
628.325	84.19
628.532	93.19
628.738	77.19
628.945	96.19
629.151	84.19
629.357	84.19
629.564	90.19
629.77	82.19
629.976	106.19
630.183	87.19
630.389	86.19
630.595	94.19
630.802	83.19
631.008	85.19
631.214	100.19
631.42	84.19
631.627	96.19
631.833	78.19
632.039	85.19
632.245	98.19
632.451	92.19
632.657	80.19
632.863	85.19
633.069	95.19
633.275	94.19
633.481	87.19
633.688	86.19
633.893	96.19
634.099	93.19
634.305	80.19
634.511	77.19
634.717	76.19
634.923	77.19
635.129	100.19
635.335	78.19
635.541	89.19
635.747	88.19
635.952	89.19
636.158	90.19
636.364	99.19
636.57	84.19
636.775	85.19
636.981	81.19
637.187	91.19
637.392	88.19
637.598	84.19
637.804	86.19
638.009	84.19
638.215	82.19
638.421	90.19
638.626	89.19
638.832	92.19
639.037	84.19
639.243	89.19
639.448	92.19
639.654	85.19
639.859	82.19
640.065	70.19
640.27	89.19
640.475	77.19
640.681	98.19
640.886	95.19
641.091	87.19
641.297	86.19
641.502	86.19
641.707	82.19
641.913	82.19
642.118	71.19
642.323	85.19
642.528	77.19
642.733	79.19
642.939	95.19
643.144	100.19
643.349	76.19
643.554	76.19
643.759	104.19
643.964	77.19
644.169	92.19
644.374	87.19
644.579	86.19
644.784	84.19
644.989	94.19
645.194	80.19
645.399	82.19
645.604	78.19
645.809	89.19
646.014	78.19
646.219	69.19
646.423	86.19
646.628	92.19
646.833	80.19
647.038	81.19
647.243	74.19
647.447	96.19
647.652	82.19
647.857	102.19
648.062	87.19
648.266	102.19
648.471	100.19
648.676	102.19
648.88	81.19
649.085	99.19
649.289	102.19
649.494	88.19
649.698	144.19
649.903	101.19
650.107	92.19
650.312	105.19
650.516	86.19
650.721	86.19
650.925	85.19
651.13	80.19
651.334	72.19
651.539	92.19
651.743	96.19
651.947	80.19
652.152	87.19
652.356	95.19
652.56	82.19
652.764	84.19
652.969	89.19
653.173	67.19
653.377	101.19
653.581	91.19
653.785	93.19
653.99	78.19
654.194	86.19
654.398	85.19
654.602	70.19
654.806	101.19
655.01	90.19
655.214	91.19
655.418	84.19
655.622	93.19
655.826	86.19
656.03	90.19
656.234	92.19
656.438	89.19
656.642	99.19
656.846	86.19
657.049	83.19
657.253	87.19
657.457	90.19
657.661	92.19
657.865	84.19
658.068	81.19
658.272	77.19
658.476	95.19
658.68	90.19
658.883	88.19
659.087	84.19
659.291	88.19
659.494	80.19
659.698	82.19
659.901	88.19
660.105	81.19
660.309	100.19
660.512	75.19
660.716	90.19
660.919	78.19
661.123	86.19
661.326	76.19
661.53	70.19
661.733	96.19
661.936	85.19
662.14	74.19
662.343	84.19
662.546	72.19
662.75	84.19
662.953	90.19
663.156	80.19
663.36	86.19
663.563	91.19
663.766	74.19
663.969	90.19
664.173	87.19
664.376	80.19
664.579	84.19
664.782	98.19
664.985	74.19
665.188	80.19
665.391	70.19
665.594	91.19
665.797	92.19
666	101.19
666.203	78.19
666.406	91.19
666.609	80.19
666.812	85.19
667.015	76.19
667.218	76.19
667.421	85.19
667.624	88.19
667.827	82.19
668.03	86.19
668.232	73.19
668.435	90.19
668.638	86.19
668.841	75.19
669.043	78.19
669.246	87.19
669.449	80.19
669.651	95.19
669.854	89.19
670.057	94.19
670.259	74.19
670.462	77.19
670.665	79.19
670.867	84.19
671.07	69.19
671.272	83.19
671.475	84.19
671.677	78.19
671.88	71.19
672.082	83.19
672.284	78.19
672.487	74.19
672.689	81.19
672.892	80.19
