Data from SampG_HRD10591_00008.txt Node
Date: Mon Jan 19 11:53:46 EST 2026
User: Yrep
Spectrometer: HR+D1059
Trigger mode: 0
Integration Time (sec): 3.443000E-1
Scans to average: 1
Electric dark correction enabled: true
Nonlinearity correction enabled: false
Boxcar width: 0
XAxis mode: Wavelengths
Number of Pixels in Spectrum: 2048
>>>>>Begin Spectral Data<<<<<
223.165	-33.38
223.4	-33.38
223.635	-33.38
223.869	-29.38
224.104	-21.38
224.338	-19.38
224.573	-28.38
224.808	-9.38
225.042	-0.38
225.277	-7.38
225.511	-5.38
225.746	2.62
225.98	30.62
226.215	20.62
226.449	15.62
226.683	16.62
226.918	39.62
227.152	28.62
227.387	42.62
227.621	32.62
227.856	47.62
228.09	31.62
228.324	61.62
228.559	64.62
228.793	56.62
229.027	66.62
229.262	76.62
229.496	66.62
229.73	81.62
229.964	77.62
230.199	72.62
230.433	83.62
230.667	65.62
230.901	85.62
231.136	65.62
231.37	74.62
231.604	81.62
231.838	79.62
232.072	83.62
232.306	66.62
232.541	68.62
232.775	84.62
233.009	78.62
233.243	93.62
233.477	100.62
233.711	73.62
233.945	85.62
234.179	81.62
234.413	89.62
234.647	86.62
234.881	76.62
235.115	84.62
235.349	82.62
235.583	75.62
235.817	88.62
236.051	84.62
236.285	82.62
236.519	84.62
236.753	96.62
236.987	81.62
237.221	67.62
237.455	73.62
237.689	76.62
237.922	90.62
238.156	82.62
238.39	75.62
238.624	69.62
238.858	83.62
239.091	69.62
239.325	86.62
239.559	74.62
239.793	78.62
240.027	72.62
240.26	80.62
240.494	89.62
240.728	67.62
240.961	87.62
241.195	71.62
241.429	71.62
241.662	74.62
241.896	74.62
242.13	72.62
242.363	91.62
242.597	84.62
242.83	86.62
243.064	66.62
243.298	88.62
243.531	72.62
243.765	80.62
243.998	81.62
244.232	103.62
244.465	87.62
244.699	89.62
244.932	75.62
245.166	89.62
245.399	95.62
245.633	89.62
245.866	100.62
246.099	72.62
246.333	79.62
246.566	85.62
246.8	76.62
247.033	93.62
247.266	92.62
247.5	90.62
247.733	79.62
247.966	91.62
248.2	83.62
248.433	87.62
248.666	91.62
248.899	92.62
249.133	92.62
249.366	96.62
249.599	81.62
249.832	95.62
250.066	91.62
250.299	95.62
250.532	77.62
250.765	83.62
250.998	79.62
251.231	85.62
251.465	74.62
251.698	73.62
251.931	87.62
252.164	74.62
252.397	84.62
252.63	90.62
252.863	83.62
253.096	91.62
253.329	99.62
253.562	96.62
253.795	102.62
254.028	99.62
254.261	87.62
254.494	83.62
254.727	99.62
254.96	93.62
255.193	80.62
255.426	100.62
255.659	92.62
255.892	95.62
256.124	97.62
256.357	97.62
256.59	102.62
256.823	95.62
257.056	88.62
257.289	89.62
257.521	80.62
257.754	92.62
257.987	88.62
258.22	88.62
258.452	106.62
258.685	84.62
258.918	91.62
259.151	85.62
259.383	100.62
259.616	87.62
259.849	94.62
260.081	110.62
260.314	101.62
260.547	100.62
260.779	103.62
261.012	100.62
261.244	95.62
261.477	98.62
261.71	84.62
261.942	88.62
262.175	91.62
262.407	97.62
262.64	107.62
262.872	91.62
263.105	101.62
263.337	116.62
263.57	98.62
263.802	97.62
264.035	94.62
264.267	94.62
264.499	96.62
264.732	104.62
264.964	105.62
265.197	100.62
265.429	95.62
265.661	85.62
265.894	95.62
266.126	109.62
266.358	93.62
266.591	97.62
266.823	81.62
267.055	97.62
267.287	100.62
267.52	104.62
267.752	114.62
267.984	105.62
268.216	100.62
268.448	105.62
268.681	113.62
268.913	94.62
269.145	108.62
269.377	94.62
269.609	107.62
269.841	110.62
270.073	97.62
270.306	89.62
270.538	99.62
270.77	107.62
271.002	112.62
271.234	99.62
271.466	87.62
271.698	111.62
271.93	94.62
272.162	107.62
272.394	112.62
272.626	97.62
272.858	102.62
273.09	113.62
273.322	112.62
273.553	101.62
273.785	112.62
274.017	116.62
274.249	99.62
274.481	98.62
274.713	105.62
274.945	102.62
275.176	97.62
275.408	119.62
275.64	107.62
275.872	99.62
276.104	115.62
276.335	111.62
276.567	118.62
276.799	104.62
277.031	105.62
277.262	109.62
277.494	120.62
277.726	106.62
277.957	101.62
278.189	109.62
278.421	107.62
278.652	104.62
278.884	95.62
279.115	110.62
279.347	112.62
279.579	104.62
279.81	106.62
280.042	94.62
280.273	111.62
280.505	109.62
280.736	107.62
280.968	112.62
281.199	124.62
281.431	93.62
281.662	123.62
281.894	105.62
282.125	99.62
282.356	113.62
282.588	115.62
282.819	105.62
283.051	116.62
283.282	95.62
283.513	118.62
283.745	122.62
283.976	112.62
284.207	109.62
284.439	112.62
284.67	110.62
284.901	110.62
285.132	113.62
285.364	122.62
285.595	119.62
285.826	127.62
286.057	109.62
286.288	112.62
286.52	98.62
286.751	108.62
286.982	98.62
287.213	95.62
287.444	119.62
287.675	107.62
287.906	111.62
288.138	117.62
288.369	112.62
288.6	112.62
288.831	113.62
289.062	134.62
289.293	120.62
289.524	103.62
289.755	105.62
289.986	103.62
290.217	103.62
290.448	119.62
290.679	123.62
290.91	125.62
291.141	107.62
291.371	128.62
291.602	106.62
291.833	108.62
292.064	105.62
292.295	111.62
292.526	123.62
292.757	116.62
292.987	108.62
293.218	117.62
293.449	121.62
293.68	113.62
293.91	116.62
294.141	118.62
294.372	128.62
294.603	141.62
294.833	119.62
295.064	109.62
295.295	109.62
295.525	125.62
295.756	127.62
295.987	133.62
296.217	119.62
296.448	124.62
296.679	117.62
296.909	131.62
297.14	115.62
297.37	131.62
297.601	127.62
297.831	108.62
298.062	129.62
298.292	127.62
298.523	139.62
298.753	117.62
298.984	118.62
299.214	143.62
299.445	131.62
299.675	117.62
299.905	135.62
300.136	100.62
300.366	119.62
300.597	109.62
300.827	125.62
301.057	116.62
301.288	120.62
301.518	109.62
301.748	112.62
301.979	169.62
302.209	111.62
302.439	136.62
302.669	124.62
302.9	116.62
303.13	123.62
303.36	122.62
303.59	119.62
303.82	116.62
304.051	131.62
304.281	137.62
304.511	131.62
304.741	117.62
304.971	131.62
305.201	127.62
305.431	120.62
305.661	119.62
305.891	124.62
306.121	117.62
306.352	109.62
306.582	106.62
306.812	110.62
307.042	125.62
307.272	108.62
307.502	125.62
307.731	121.62
307.961	117.62
308.191	121.62
308.421	124.62
308.651	128.62
308.881	134.62
309.111	120.62
309.341	119.62
309.571	127.62
309.8	144.62
310.03	122.62
310.26	111.62
310.49	127.62
310.72	106.62
310.949	123.62
311.179	125.62
311.409	127.62
311.639	114.62
311.868	135.62
312.098	125.62
312.328	108.62
312.557	124.62
312.787	133.62
313.017	134.62
313.246	132.62
313.476	109.62
313.706	112.62
313.935	115.62
314.165	124.62
314.394	135.62
314.624	131.62
314.853	131.62
315.083	133.62
315.312	119.62
315.542	134.62
315.771	140.62
316.001	125.62
316.23	135.62
316.46	132.62
316.689	128.62
316.919	127.62
317.148	125.62
317.377	122.62
317.607	136.62
317.836	122.62
318.065	140.62
318.295	134.62
318.524	128.62
318.753	122.62
318.983	113.62
319.212	128.62
319.441	139.62
319.67	127.62
319.9	119.62
320.129	128.62
320.358	107.62
320.587	138.62
320.816	119.62
321.046	141.62
321.275	128.62
321.504	119.62
321.733	124.62
321.962	131.62
322.191	118.62
322.42	115.62
322.649	127.62
322.878	136.62
323.108	131.62
323.337	136.62
323.566	123.62
323.795	129.62
324.024	140.62
324.253	115.62
324.482	123.62
324.71	125.62
324.939	126.62
325.168	122.62
325.397	125.62
325.626	132.62
325.855	121.62
326.084	133.62
326.313	129.62
326.542	136.62
326.77	140.62
326.999	127.62
327.228	159.62
327.457	127.62
327.686	127.62
327.914	124.62
328.143	147.62
328.372	116.62
328.6	133.62
328.829	127.62
329.058	124.62
329.287	139.62
329.515	126.62
329.744	138.62
329.972	131.62
330.201	129.62
330.43	145.62
330.658	131.62
330.887	131.62
331.115	114.62
331.344	138.62
331.572	138.62
331.801	152.62
332.03	132.62
332.258	137.62
332.486	139.62
332.715	127.62
332.943	152.62
333.172	172.62
333.4	149.62
333.629	153.62
333.857	145.62
334.085	134.62
334.314	138.62
334.542	145.62
334.771	154.62
334.999	134.62
335.227	147.62
335.455	152.62
335.684	135.62
335.912	143.62
336.14	132.62
336.369	144.62
336.597	140.62
336.825	136.62
337.053	134.62
337.281	143.62
337.51	132.62
337.738	136.62
337.966	128.62
338.194	143.62
338.422	138.62
338.65	144.62
338.878	129.62
339.106	120.62
339.334	149.62
339.562	125.62
339.79	125.62
340.018	127.62
340.246	127.62
340.474	124.62
340.702	131.62
340.93	139.62
341.158	135.62
341.386	135.62
341.614	148.62
341.842	124.62
342.07	132.62
342.298	139.62
342.526	144.62
342.754	131.62
342.981	136.62
343.209	139.62
343.437	183.62
343.665	137.62
343.893	161.62
344.12	149.62
344.348	138.62
344.576	133.62
344.804	140.62
345.031	129.62
345.259	131.62
345.487	137.62
345.714	136.62
345.942	122.62
346.17	123.62
346.397	137.62
346.625	131.62
346.853	132.62
347.08	131.62
347.308	143.62
347.535	118.62
347.763	130.62
347.99	130.62
348.218	127.62
348.445	132.62
348.673	127.62
348.9	143.62
349.128	135.62
349.355	121.62
349.583	128.62
349.81	136.62
350.037	137.62
350.265	127.62
350.492	117.62
350.72	133.62
350.947	137.62
351.174	139.62
351.402	128.62
351.629	132.62
351.856	124.62
352.083	114.62
352.311	131.62
352.538	113.62
352.765	145.62
352.992	139.62
353.22	128.62
353.447	121.62
353.674	133.62
353.901	134.62
354.128	128.62
354.355	127.62
354.583	138.62
354.81	133.62
355.037	125.62
355.264	124.62
355.491	125.62
355.718	128.62
355.945	146.62
356.172	120.62
356.399	142.62
356.626	138.62
356.853	135.62
357.08	146.62
357.307	117.62
357.534	122.62
357.761	129.62
357.988	125.62
358.215	134.62
358.441	115.62
358.668	130.62
358.895	126.62
359.122	125.62
359.349	122.62
359.576	131.62
359.802	128.62
360.029	127.62
360.256	143.62
360.483	128.62
360.709	128.62
360.936	127.62
361.163	134.62
361.39	145.62
361.616	133.62
361.843	129.62
362.07	124.62
362.296	117.62
362.523	131.62
362.749	123.62
362.976	133.62
363.203	130.62
363.429	152.62
363.656	134.62
363.882	118.62
364.109	139.62
364.335	129.62
364.562	128.62
364.788	130.62
365.015	137.62
365.241	129.62
365.468	130.62
365.694	124.62
365.92	140.62
366.147	140.62
366.373	108.62
366.599	128.62
366.826	131.62
367.052	116.62
367.278	145.62
367.505	140.62
367.731	131.62
367.957	117.62
368.184	122.62
368.41	118.62
368.636	135.62
368.862	128.62
369.089	128.62
369.315	133.62
369.541	130.62
369.767	138.62
369.993	134.62
370.219	140.62
370.445	126.62
370.672	128.62
370.898	132.62
371.124	139.62
371.35	125.62
371.576	138.62
371.802	157.62
372.028	134.62
372.254	121.62
372.48	132.62
372.706	135.62
372.932	132.62
373.158	119.62
373.384	145.62
373.61	148.62
373.835	122.62
374.061	143.62
374.287	134.62
374.513	139.62
374.739	128.62
374.965	149.62
375.191	137.62
375.416	143.62
375.642	146.62
375.868	144.62
376.094	139.62
376.319	137.62
376.545	132.62
376.771	138.62
376.997	153.62
377.222	139.62
377.448	132.62
377.674	144.62
377.899	144.62
378.125	146.62
378.35	152.62
378.576	143.62
378.802	132.62
379.027	135.62
379.253	150.62
379.478	136.62
379.704	130.62
379.929	129.62
380.155	135.62
380.38	140.62
380.606	140.62
380.831	136.62
381.057	145.62
381.282	148.62
381.507	137.62
381.733	135.62
381.958	135.62
382.184	133.62
382.409	140.62
382.634	151.62
382.86	140.62
383.085	146.62
383.31	151.62
383.535	147.62
383.761	152.62
383.986	150.62
384.211	134.62
384.436	149.62
384.662	157.62
384.887	152.62
385.112	140.62
385.337	139.62
385.562	160.62
385.787	147.62
386.013	160.62
386.238	140.62
386.463	152.62
386.688	174.62
386.913	150.62
387.138	137.62
387.363	149.62
387.588	149.62
387.813	150.62
388.038	153.62
388.263	149.62
388.488	129.62
388.713	145.62
388.938	144.62
389.163	158.62
389.387	160.62
389.612	148.62
389.837	149.62
390.062	172.62
390.287	161.62
390.512	149.62
390.736	147.62
390.961	153.62
391.186	157.62
391.411	150.62
391.636	163.62
391.86	140.62
392.085	154.62
392.31	157.62
392.534	167.62
392.759	169.62
392.984	161.62
393.208	167.62
393.433	160.62
393.658	157.62
393.882	151.62
394.107	163.62
394.331	138.62
394.556	161.62
394.78	149.62
395.005	157.62
395.229	150.62
395.454	160.62
395.678	158.62
395.903	157.62
396.127	167.62
396.352	159.62
396.576	155.62
396.801	171.62
397.025	148.62
397.249	150.62
397.474	177.62
397.698	159.62
397.922	156.62
398.147	156.62
398.371	172.62
398.595	157.62
398.82	163.62
399.044	188.62
399.268	207.62
399.492	223.62
399.717	219.62
399.941	215.62
400.165	204.62
400.389	195.62
400.613	175.62
400.837	173.62
401.062	179.62
401.286	148.62
401.51	171.62
401.734	174.62
401.958	156.62
402.182	181.62
402.406	159.62
402.63	186.62
402.854	177.62
403.078	171.62
403.302	184.62
403.526	185.62
403.75	182.62
403.974	205.62
404.198	186.62
404.422	192.62
404.645	185.62
404.869	197.62
405.093	186.62
405.317	188.62
405.541	185.62
405.765	198.62
405.988	177.62
406.212	186.62
406.436	174.62
406.66	195.62
406.883	198.62
407.107	201.62
407.331	188.62
407.555	210.62
407.778	200.62
408.002	196.62
408.226	181.62
408.449	192.62
408.673	183.62
408.896	202.62
409.12	178.62
409.344	189.62
409.567	198.62
409.791	199.62
410.014	180.62
410.238	186.62
410.461	188.62
410.685	171.62
410.908	176.62
411.132	199.62
411.355	168.62
411.578	158.62
411.802	173.62
412.025	175.62
412.249	177.62
412.472	173.62
412.695	188.62
412.919	161.62
413.142	177.62
413.365	172.62
413.589	170.62
413.812	170.62
414.035	184.62
414.258	181.62
414.482	181.62
414.705	184.62
414.928	185.62
415.151	179.62
415.374	172.62
415.597	170.62
415.821	161.62
416.044	176.62
416.267	163.62
416.49	164.62
416.713	184.62
416.936	174.62
417.159	172.62
417.382	157.62
417.605	153.62
417.828	185.62
418.051	172.62
418.274	177.62
418.497	179.62
418.72	183.62
418.943	177.62
419.166	181.62
419.389	180.62
419.611	187.62
419.834	179.62
420.057	177.62
420.28	177.62
420.503	172.62
420.726	173.62
420.948	161.62
421.171	157.62
421.394	150.62
421.617	167.62
421.839	167.62
422.062	164.62
422.285	151.62
422.507	164.62
422.73	155.62
422.953	174.62
423.175	181.62
423.398	179.62
423.621	191.62
423.843	187.62
424.066	149.62
424.288	175.62
424.511	200.62
424.733	189.62
424.956	188.62
425.178	165.62
425.401	175.62
425.623	182.62
425.846	158.62
426.068	167.62
426.291	173.62
426.513	166.62
426.735	172.62
426.958	172.62
427.18	157.62
427.402	166.62
427.625	163.62
427.847	142.62
428.069	143.62
428.292	164.62
428.514	152.62
428.736	157.62
428.958	158.62
429.181	154.62
429.403	157.62
429.625	146.62
429.847	163.62
430.069	159.62
430.292	165.62
430.514	172.62
430.736	151.62
430.958	164.62
431.18	144.62
431.402	146.62
431.624	156.62
431.846	149.62
432.068	169.62
432.29	162.62
432.512	171.62
432.734	153.62
432.956	160.62
433.178	176.62
433.4	159.62
433.622	163.62
433.844	163.62
434.066	164.62
434.287	156.62
434.509	176.62
434.731	170.62
434.953	165.62
435.175	164.62
435.397	153.62
435.618	167.62
435.84	159.62
436.062	146.62
436.284	150.62
436.505	148.62
436.727	154.62
436.949	164.62
437.17	164.62
437.392	164.62
437.614	169.62
437.835	155.62
438.057	153.62
438.278	150.62
438.5	150.62
438.721	165.62
438.943	172.62
439.165	167.62
439.386	168.62
439.608	162.62
439.829	167.62
440.05	160.62
440.272	139.62
440.493	143.62
440.715	173.62
440.936	179.62
441.158	173.62
441.379	163.62
441.6	173.62
441.822	172.62
442.043	164.62
442.264	164.62
442.486	158.62
442.707	161.62
442.928	176.62
443.149	166.62
443.371	184.62
443.592	167.62
443.813	189.62
444.034	190.62
444.255	184.62
444.476	170.62
444.698	191.62
444.919	180.62
445.14	460.62
445.361	296.62
445.582	178.62
445.803	163.62
446.024	159.62
446.245	177.62
446.466	162.62
446.687	140.62
446.908	165.62
447.129	166.62
447.35	168.62
447.571	148.62
447.792	162.62
448.013	154.62
448.234	148.62
448.455	162.62
448.675	145.62
448.896	159.62
449.117	157.62
449.338	144.62
449.559	140.62
449.779	135.62
450	152.62
450.221	161.62
450.442	144.62
450.662	146.62
450.883	147.62
451.104	154.62
451.324	149.62
451.545	157.62
451.766	148.62
451.986	141.62
452.207	139.62
452.428	141.62
452.648	154.62
452.869	145.62
453.089	149.62
453.31	142.62
453.53	143.62
453.751	133.62
453.971	147.62
454.192	127.62
454.412	135.62
454.633	143.62
454.853	151.62
455.073	147.62
455.294	130.62
455.514	145.62
455.734	161.62
455.955	132.62
456.175	137.62
456.395	149.62
456.616	143.62
456.836	158.62
457.056	145.62
457.276	147.62
457.497	143.62
457.717	147.62
457.937	151.62
458.157	144.62
458.377	163.62
458.598	133.62
458.818	145.62
459.038	160.62
459.258	149.62
459.478	168.62
459.698	168.62
459.918	170.62
460.138	173.62
460.358	191.62
460.578	178.62
460.798	169.62
461.018	181.62
461.238	175.62
461.458	170.62
461.678	185.62
461.898	169.62
462.118	192.62
462.338	191.62
462.558	195.62
462.777	208.62
462.997	210.62
463.217	209.62
463.437	204.62
463.657	196.62
463.876	179.62
464.096	189.62
464.316	210.62
464.536	189.62
464.755	192.62
464.975	173.62
465.195	180.62
465.414	176.62
465.634	171.62
465.854	150.62
466.073	153.62
466.293	156.62
466.512	159.62
466.732	139.62
466.951	157.62
467.171	148.62
467.391	149.62
467.61	163.62
467.829	160.62
468.049	149.62
468.268	151.62
468.488	148.62
468.707	145.62
468.927	136.62
469.146	137.62
469.365	143.62
469.585	161.62
469.804	155.62
470.023	161.62
470.243	168.62
470.462	162.62
470.681	154.62
470.901	147.62
471.12	150.62
471.339	150.62
471.558	155.62
471.777	146.62
471.997	148.62
472.216	155.62
472.435	154.62
472.654	169.62
472.873	149.62
473.092	171.62
473.311	139.62
473.53	155.62
473.749	149.62
473.968	152.62
474.187	159.62
474.406	147.62
474.625	162.62
474.844	155.62
475.063	152.62
475.282	166.62
475.501	144.62
475.72	159.62
475.939	143.62
476.158	133.62
476.377	156.62
476.596	159.62
476.814	159.62
477.033	147.62
477.252	141.62
477.471	171.62
477.69	160.62
477.908	155.62
478.127	189.62
478.346	181.62
478.564	152.62
478.783	183.62
479.002	149.62
479.22	181.62
479.439	177.62
479.658	167.62
479.876	173.62
480.095	176.62
480.313	184.62
480.532	179.62
480.751	188.62
480.969	161.62
481.188	170.62
481.406	167.62
481.624	168.62
481.843	173.62
482.061	163.62
482.28	160.62
482.498	176.62
482.717	171.62
482.935	166.62
483.153	173.62
483.372	154.62
483.59	170.62
483.808	168.62
484.027	168.62
484.245	170.62
484.463	136.62
484.681	163.62
484.9	156.62
485.118	169.62
485.336	153.62
485.554	150.62
485.772	165.62
485.99	175.62
486.209	188.62
486.427	173.62
486.645	167.62
486.863	182.62
487.081	171.62
487.299	157.62
487.517	176.62
487.735	168.62
487.953	161.62
488.171	169.62
488.389	165.62
488.607	176.62
488.825	169.62
489.043	156.62
489.261	165.62
489.479	143.62
489.696	174.62
489.914	184.62
490.132	168.62
490.35	160.62
490.568	179.62
490.786	172.62
491.003	175.62
491.221	163.62
491.439	181.62
491.657	179.62
491.874	172.62
492.092	168.62
492.31	187.62
492.527	158.62
492.745	151.62
492.963	175.62
493.18	179.62
493.398	183.62
493.615	173.62
493.833	175.62
494.05	183.62
494.268	159.62
494.485	172.62
494.703	175.62
494.92	186.62
495.138	176.62
495.355	183.62
495.573	177.62
495.79	149.62
496.008	189.62
496.225	171.62
496.442	159.62
496.66	188.62
496.877	167.62
497.094	186.62
497.312	187.62
497.529	178.62
497.746	182.62
497.963	198.62
498.181	195.62
498.398	202.62
498.615	229.62
498.832	211.62
499.049	240.62
499.267	257.62
499.484	263.62
499.701	291.62
499.918	337.62
500.135	355.62
500.352	388.62
500.569	380.62
500.786	363.62
501.003	357.62
501.22	335.62
501.437	293.62
501.654	250.62
501.871	253.62
502.088	212.62
502.305	228.62
502.522	227.62
502.739	210.62
502.956	210.62
503.172	210.62
503.389	196.62
503.606	197.62
503.823	171.62
504.04	185.62
504.256	185.62
504.473	204.62
504.69	205.62
504.907	197.62
505.123	196.62
505.34	185.62
505.557	172.62
505.773	173.62
505.99	155.62
506.207	173.62
506.423	168.62
506.64	156.62
506.856	159.62
507.073	159.62
507.289	172.62
507.506	169.62
507.722	164.62
507.939	172.62
508.155	169.62
508.372	167.62
508.588	149.62
508.805	157.62
509.021	155.62
509.238	168.62
509.454	150.62
509.67	159.62
509.887	167.62
510.103	139.62
510.319	152.62
510.536	177.62
510.752	145.62
510.968	161.62
511.184	153.62
511.401	151.62
511.617	162.62
511.833	148.62
512.049	169.62
512.265	165.62
512.481	137.62
512.698	153.62
512.914	166.62
513.13	165.62
513.346	153.62
513.562	159.62
513.778	161.62
513.994	132.62
514.21	151.62
514.426	151.62
514.642	168.62
514.858	161.62
515.074	155.62
515.29	173.62
515.506	179.62
515.721	164.62
515.937	173.62
516.153	171.62
516.369	159.62
516.585	168.62
516.801	166.62
517.016	195.62
517.232	182.62
517.448	182.62
517.664	188.62
517.879	186.62
518.095	190.62
518.311	201.62
518.527	177.62
518.742	174.62
518.958	161.62
519.173	180.62
519.389	174.62
519.605	176.62
519.82	165.62
520.036	169.62
520.251	168.62
520.467	152.62
520.682	147.62
520.898	180.62
521.113	158.62
521.329	155.62
521.544	157.62
521.76	152.62
521.975	169.62
522.19	144.62
522.406	141.62
522.621	165.62
522.836	151.62
523.052	169.62
523.267	132.62
523.482	163.62
523.698	132.62
523.913	158.62
524.128	159.62
524.343	156.62
524.559	160.62
524.774	145.62
524.989	165.62
525.204	151.62
525.419	163.62
525.634	139.62
525.849	159.62
526.064	144.62
526.28	159.62
526.495	154.62
526.71	165.62
526.925	146.62
527.14	144.62
527.355	149.62
527.57	146.62
527.785	143.62
527.999	150.62
528.214	140.62
528.429	164.62
528.644	168.62
528.859	165.62
529.074	164.62
529.289	149.62
529.503	152.62
529.718	158.62
529.933	138.62
530.148	132.62
530.363	163.62
530.577	149.62
530.792	163.62
531.007	141.62
531.221	144.62
531.436	123.62
531.651	143.62
531.865	135.62
532.08	143.62
532.295	130.62
532.509	153.62
532.724	145.62
532.938	173.62
533.153	143.62
533.367	149.62
533.582	132.62
533.796	147.62
534.011	140.62
534.225	133.62
534.44	143.62
534.654	136.62
534.868	137.62
535.083	146.62
535.297	149.62
535.511	179.62
535.726	170.62
535.94	138.62
536.154	146.62
536.369	129.62
536.583	124.62
536.797	155.62
537.011	141.62
537.225	158.62
537.44	132.62
537.654	162.62
537.868	154.62
538.082	154.62
538.296	134.62
538.51	136.62
538.724	124.62
538.938	155.62
539.153	146.62
539.367	142.62
539.581	136.62
539.795	138.62
540.009	152.62
540.222	155.62
540.436	149.62
540.65	140.62
540.864	144.62
541.078	139.62
541.292	137.62
541.506	160.62
541.72	145.62
541.934	151.62
542.147	136.62
542.361	133.62
542.575	127.62
542.789	139.62
543.002	138.62
543.216	155.62
543.43	151.62
543.644	165.62
543.857	145.62
544.071	134.62
544.285	145.62
544.498	137.62
544.712	147.62
544.925	133.62
545.139	144.62
545.352	149.62
545.566	150.62
545.779	156.62
545.993	136.62
546.206	155.62
546.42	133.62
546.633	147.62
546.847	176.62
547.06	131.62
547.274	148.62
547.487	147.62
547.7	135.62
547.914	137.62
548.127	148.62
548.34	136.62
548.554	133.62
548.767	144.62
548.98	147.62
549.193	153.62
549.407	142.62
549.62	152.62
549.833	142.62
550.046	135.62
550.259	140.62
550.473	145.62
550.686	149.62
550.899	144.62
551.112	142.62
551.325	149.62
551.538	138.62
551.751	140.62
551.964	132.62
552.177	148.62
552.39	137.62
552.603	145.62
552.816	157.62
553.029	152.62
553.242	139.62
553.455	149.62
553.667	143.62
553.88	176.62
554.093	157.62
554.306	144.62
554.519	153.62
554.732	166.62
554.944	133.62
555.157	143.62
555.37	135.62
555.583	129.62
555.795	145.62
556.008	132.62
556.221	141.62
556.433	139.62
556.646	141.62
556.859	134.62
557.071	146.62
557.284	144.62
557.496	133.62
557.709	150.62
557.921	135.62
558.134	129.62
558.346	135.62
558.559	120.62
558.771	115.62
558.984	135.62
559.196	131.62
559.409	132.62
559.621	146.62
559.833	145.62
560.046	144.62
560.258	130.62
560.47	135.62
560.683	148.62
560.895	130.62
561.107	131.62
561.32	138.62
561.532	140.62
561.744	137.62
561.956	108.62
562.168	115.62
562.381	136.62
562.593	135.62
562.805	127.62
563.017	145.62
563.229	137.62
563.441	146.62
563.653	134.62
563.865	139.62
564.077	148.62
564.289	140.62
564.501	155.62
564.713	136.62
564.925	148.62
565.137	153.62
565.349	147.62
565.561	159.62
565.773	159.62
565.985	171.62
566.197	168.62
566.408	163.62
566.62	174.62
566.832	169.62
567.044	172.62
567.255	196.62
567.467	188.62
567.679	196.62
567.891	223.62
568.102	211.62
568.314	191.62
568.526	173.62
568.737	172.62
568.949	148.62
569.161	137.62
569.372	139.62
569.584	152.62
569.795	151.62
570.007	152.62
570.218	152.62
570.43	137.62
570.641	126.62
570.853	137.62
571.064	136.62
571.276	146.62
571.487	123.62
571.698	133.62
571.91	119.62
572.121	130.62
572.333	134.62
572.544	122.62
572.755	129.62
572.966	135.62
573.178	126.62
573.389	121.62
573.6	125.62
573.811	123.62
574.023	127.62
574.234	131.62
574.445	123.62
574.656	127.62
574.867	123.62
575.078	121.62
575.289	124.62
575.501	128.62
575.712	130.62
575.923	94.62
576.134	130.62
576.345	105.62
576.556	126.62
576.767	122.62
576.978	121.62
577.188	125.62
577.399	127.62
577.61	108.62
577.821	128.62
578.032	122.62
578.243	126.62
578.454	123.62
578.665	121.62
578.875	115.62
579.086	132.62
579.297	114.62
579.508	118.62
579.718	143.62
579.929	131.62
580.14	116.62
580.35	111.62
580.561	116.62
580.772	122.62
580.982	103.62
581.193	116.62
581.403	112.62
581.614	105.62
581.825	131.62
582.035	109.62
582.246	133.62
582.456	134.62
582.667	103.62
582.877	113.62
583.087	105.62
583.298	129.62
583.508	109.62
583.719	112.62
583.929	122.62
584.139	114.62
584.35	130.62
584.56	123.62
584.77	123.62
584.981	117.62
585.191	121.62
585.401	104.62
585.611	109.62
585.821	118.62
586.032	106.62
586.242	121.62
586.452	117.62
586.662	117.62
586.872	108.62
587.082	125.62
587.292	109.62
587.502	117.62
587.713	131.62
587.923	121.62
588.133	98.62
588.343	127.62
588.553	139.62
588.762	146.62
588.972	127.62
589.182	124.62
589.392	117.62
589.602	117.62
589.812	121.62
590.022	124.62
590.232	113.62
590.441	114.62
590.651	120.62
590.861	128.62
591.071	117.62
591.281	119.62
591.49	122.62
591.7	106.62
591.91	137.62
592.119	120.62
592.329	119.62
592.539	111.62
592.748	114.62
592.958	121.62
593.167	127.62
593.377	120.62
593.587	158.62
593.796	122.62
594.006	120.62
594.215	139.62
594.424	135.62
594.634	127.62
594.843	120.62
595.053	109.62
595.262	122.62
595.472	123.62
595.681	116.62
595.89	104.62
596.1	105.62
596.309	116.62
596.518	120.62
596.727	120.62
596.937	103.62
597.146	112.62
597.355	113.62
597.564	122.62
597.774	119.62
597.983	116.62
598.192	112.62
598.401	114.62
598.61	111.62
598.819	122.62
599.028	111.62
599.237	117.62
599.446	99.62
599.655	99.62
599.864	111.62
600.073	106.62
600.282	122.62
600.491	100.62
600.7	110.62
600.909	106.62
601.118	116.62
601.327	119.62
601.536	117.62
601.745	113.62
601.953	118.62
602.162	105.62
602.371	112.62
602.58	109.62
602.789	103.62
602.997	106.62
603.206	110.62
603.415	108.62
603.623	99.62
603.832	107.62
604.041	103.62
604.249	112.62
604.458	102.62
604.666	111.62
604.875	115.62
605.084	107.62
605.292	108.62
605.501	112.62
605.709	105.62
605.918	106.62
606.126	106.62
606.334	87.62
606.543	115.62
606.751	113.62
606.96	98.62
607.168	109.62
607.376	116.62
607.585	108.62
607.793	104.62
608.001	98.62
608.21	111.62
608.418	117.62
608.626	90.62
608.834	106.62
609.043	118.62
609.251	105.62
609.459	92.62
609.667	102.62
609.875	112.62
610.083	96.62
610.291	106.62
610.499	103.62
610.707	103.62
610.916	118.62
611.124	104.62
611.332	97.62
611.54	104.62
611.748	102.62
611.955	105.62
612.163	98.62
612.371	111.62
612.579	93.62
612.787	109.62
612.995	117.62
613.203	120.62
613.411	108.62
613.618	96.62
613.826	98.62
614.034	92.62
614.242	111.62
614.449	101.62
614.657	109.62
614.865	107.62
615.072	96.62
615.28	99.62
615.488	113.62
615.695	99.62
615.903	119.62
616.111	108.62
616.318	120.62
616.526	117.62
616.733	109.62
616.941	112.62
617.148	117.62
617.356	124.62
617.563	123.62
617.771	120.62
617.978	97.62
618.185	105.62
618.393	99.62
618.6	108.62
618.807	97.62
619.015	113.62
619.222	112.62
619.429	116.62
619.637	115.62
619.844	115.62
620.051	100.62
620.258	124.62
620.466	113.62
620.673	98.62
620.88	96.62
621.087	104.62
621.294	110.62
621.501	100.62
621.708	93.62
621.915	98.62
622.122	105.62
622.329	113.62
622.536	124.62
622.743	99.62
622.95	113.62
623.157	96.62
623.364	105.62
623.571	94.62
623.778	98.62
623.985	113.62
624.192	103.62
624.399	95.62
624.606	110.62
624.812	102.62
625.019	96.62
625.226	100.62
625.433	114.62
625.639	94.62
625.846	114.62
626.053	96.62
626.259	101.62
626.466	99.62
626.673	104.62
626.879	96.62
627.086	109.62
627.293	108.62
627.499	106.62
627.706	93.62
627.912	100.62
628.119	111.62
628.325	103.62
628.532	114.62
628.738	98.62
628.945	103.62
629.151	103.62
629.357	115.62
629.564	105.62
629.77	95.62
629.976	104.62
630.183	99.62
630.389	95.62
630.595	85.62
630.802	93.62
631.008	99.62
631.214	104.62
631.42	107.62
631.627	87.62
631.833	107.62
632.039	87.62
632.245	96.62
632.451	100.62
632.657	105.62
632.863	101.62
633.069	91.62
633.275	99.62
633.481	92.62
633.688	83.62
633.893	107.62
634.099	91.62
634.305	83.62
634.511	99.62
634.717	111.62
634.923	90.62
635.129	87.62
635.335	109.62
635.541	98.62
635.747	95.62
635.952	102.62
636.158	99.62
636.364	105.62
636.57	100.62
636.775	100.62
636.981	112.62
637.187	109.62
637.392	100.62
637.598	108.62
637.804	105.62
638.009	96.62
638.215	113.62
638.421	84.62
638.626	90.62
638.832	101.62
639.037	92.62
639.243	85.62
639.448	95.62
639.654	100.62
639.859	95.62
640.065	92.62
640.27	111.62
640.475	109.62
640.681	96.62
640.886	101.62
641.091	103.62
641.297	106.62
641.502	98.62
641.707	91.62
641.913	99.62
642.118	89.62
642.323	72.62
642.528	115.62
642.733	92.62
642.939	112.62
643.144	107.62
643.349	103.62
643.554	101.62
643.759	109.62
643.964	96.62
644.169	100.62
644.374	88.62
644.579	92.62
644.784	80.62
644.989	99.62
645.194	99.62
645.399	105.62
645.604	85.62
645.809	86.62
646.014	111.62
646.219	92.62
646.423	90.62
646.628	92.62
646.833	85.62
647.038	100.62
647.243	114.62
647.447	99.62
647.652	101.62
647.857	92.62
648.062	95.62
648.266	79.62
648.471	96.62
648.676	98.62
648.88	99.62
649.085	96.62
649.289	99.62
649.494	85.62
649.698	93.62
649.903	89.62
650.107	106.62
650.312	112.62
650.516	87.62
650.721	92.62
650.925	90.62
651.13	97.62
651.334	90.62
651.539	90.62
651.743	86.62
651.947	91.62
652.152	95.62
652.356	86.62
652.56	103.62
652.764	91.62
652.969	103.62
653.173	86.62
653.377	88.62
653.581	92.62
653.785	80.62
653.99	92.62
654.194	79.62
654.398	95.62
654.602	83.62
654.806	76.62
655.01	79.62
655.214	95.62
655.418	100.62
655.622	85.62
655.826	82.62
656.03	84.62
656.234	91.62
656.438	100.62
656.642	95.62
656.846	76.62
657.049	89.62
657.253	104.62
657.457	83.62
657.661	92.62
657.865	88.62
658.068	89.62
658.272	84.62
658.476	83.62
658.68	85.62
658.883	97.62
659.087	85.62
659.291	99.62
659.494	101.62
659.698	81.62
659.901	75.62
660.105	81.62
660.309	88.62
660.512	91.62
660.716	94.62
660.919	88.62
661.123	83.62
661.326	81.62
661.53	68.62
661.733	83.62
661.936	82.62
662.14	76.62
662.343	79.62
662.546	91.62
662.75	87.62
662.953	80.62
663.156	113.62
663.36	72.62
663.563	77.62
663.766	75.62
663.969	87.62
664.173	68.62
664.376	88.62
664.579	73.62
664.782	66.62
664.985	79.62
665.188	80.62
665.391	79.62
665.594	90.62
665.797	85.62
666	73.62
666.203	87.62
666.406	86.62
666.609	77.62
666.812	79.62
667.015	85.62
667.218	81.62
667.421	75.62
667.624	68.62
667.827	89.62
668.03	85.62
668.232	90.62
668.435	68.62
668.638	74.62
668.841	88.62
669.043	84.62
669.246	80.62
669.449	76.62
669.651	66.62
669.854	76.62
670.057	86.62
670.259	75.62
670.462	82.62
670.665	71.62
670.867	79.62
671.07	80.62
671.272	86.62
671.475	98.62
671.677	102.62
671.88	84.62
672.082	59.62
672.284	85.62
672.487	79.62
672.689	67.62
672.892	90.62
