Data from 17600_3_HRD10591_00033.txt Node
Date: Mon Jan 19 14:09:40 EST 2026
User: Yrep
Spectrometer: HR+D1059
Trigger mode: 1
Integration Time (sec): 1.000000E-1
Scans to average: 1
Electric dark correction enabled: true
Nonlinearity correction enabled: false
Boxcar width: 0
XAxis mode: Wavelengths
Number of Pixels in Spectrum: 2048
>>>>>Begin Spectral Data<<<<<
223.165	-20.25
223.4	-20.25
223.635	-20.25
223.869	-12.25
224.104	-15.25
224.338	-8.25
224.573	-10.25
224.808	-16.25
225.042	-11.25
225.277	-8.25
225.511	-5.25
225.746	-8.25
225.98	19.75
226.215	4.75
226.449	21.75
226.683	18.75
226.918	20.75
227.152	29.75
227.387	37.75
227.621	30.75
227.856	37.75
228.09	50.75
228.324	33.75
228.559	44.75
228.793	54.75
229.027	63.75
229.262	65.75
229.496	53.75
229.73	45.75
229.964	60.75
230.199	69.75
230.433	59.75
230.667	70.75
230.901	75.75
231.136	77.75
231.37	63.75
231.604	75.75
231.838	71.75
232.072	88.75
232.306	71.75
232.541	75.75
232.775	60.75
233.009	80.75
233.243	69.75
233.477	83.75
233.711	78.75
233.945	82.75
234.179	62.75
234.413	79.75
234.647	59.75
234.881	83.75
235.115	55.75
235.349	78.75
235.583	97.75
235.817	72.75
236.051	80.75
236.285	65.75
236.519	73.75
236.753	73.75
236.987	66.75
237.221	71.75
237.455	76.75
237.689	59.75
237.922	75.75
238.156	68.75
238.39	85.75
238.624	83.75
238.858	75.75
239.091	83.75
239.325	68.75
239.559	60.75
239.793	92.75
240.027	81.75
240.26	68.75
240.494	55.75
240.728	64.75
240.961	63.75
241.195	79.75
241.429	84.75
241.662	69.75
241.896	72.75
242.13	77.75
242.363	69.75
242.597	71.75
242.83	67.75
243.064	79.75
243.298	80.75
243.531	68.75
243.765	84.75
243.998	68.75
244.232	89.75
244.465	65.75
244.699	64.75
244.932	77.75
245.166	71.75
245.399	79.75
245.633	77.75
245.866	63.75
246.099	69.75
246.333	73.75
246.566	62.75
246.8	80.75
247.033	73.75
247.266	76.75
247.5	79.75
247.733	85.75
247.966	77.75
248.2	78.75
248.433	80.75
248.666	82.75
248.899	77.75
249.133	80.75
249.366	64.75
249.599	67.75
249.832	70.75
250.066	75.75
250.299	63.75
250.532	72.75
250.765	72.75
250.998	75.75
251.231	67.75
251.465	70.75
251.698	79.75
251.931	76.75
252.164	79.75
252.397	78.75
252.63	77.75
252.863	74.75
253.096	79.75
253.329	84.75
253.562	83.75
253.795	85.75
254.028	76.75
254.261	80.75
254.494	73.75
254.727	72.75
254.96	70.75
255.193	75.75
255.426	73.75
255.659	81.75
255.892	71.75
256.124	75.75
256.357	69.75
256.59	79.75
256.823	70.75
257.056	71.75
257.289	80.75
257.521	78.75
257.754	74.75
257.987	88.75
258.22	76.75
258.452	83.75
258.685	81.75
258.918	66.75
259.151	61.75
259.383	75.75
259.616	77.75
259.849	70.75
260.081	79.75
260.314	65.75
260.547	71.75
260.779	70.75
261.012	75.75
261.244	67.75
261.477	79.75
261.71	63.75
261.942	79.75
262.175	87.75
262.407	77.75
262.64	79.75
262.872	78.75
263.105	64.75
263.337	93.75
263.57	72.75
263.802	67.75
264.035	69.75
264.267	70.75
264.499	73.75
264.732	68.75
264.964	89.75
265.197	71.75
265.429	70.75
265.661	66.75
265.894	68.75
266.126	68.75
266.358	63.75
266.591	77.75
266.823	77.75
267.055	87.75
267.287	79.75
267.52	71.75
267.752	81.75
267.984	83.75
268.216	73.75
268.448	83.75
268.681	65.75
268.913	78.75
269.145	67.75
269.377	84.75
269.609	73.75
269.841	83.75
270.073	66.75
270.306	66.75
270.538	75.75
270.77	90.75
271.002	79.75
271.234	76.75
271.466	69.75
271.698	69.75
271.93	86.75
272.162	69.75
272.394	75.75
272.626	69.75
272.858	70.75
273.09	80.75
273.322	76.75
273.553	88.75
273.785	72.75
274.017	79.75
274.249	71.75
274.481	81.75
274.713	73.75
274.945	71.75
275.176	86.75
275.408	73.75
275.64	74.75
275.872	67.75
276.104	67.75
276.335	90.75
276.567	87.75
276.799	77.75
277.031	66.75
277.262	82.75
277.494	86.75
277.726	72.75
277.957	75.75
278.189	61.75
278.421	80.75
278.652	79.75
278.884	79.75
279.115	86.75
279.347	71.75
279.579	79.75
279.81	82.75
280.042	75.75
280.273	70.75
280.505	89.75
280.736	78.75
280.968	90.75
281.199	74.75
281.431	69.75
281.662	84.75
281.894	87.75
282.125	63.75
282.356	88.75
282.588	77.75
282.819	81.75
283.051	89.75
283.282	85.75
283.513	84.75
283.745	62.75
283.976	72.75
284.207	69.75
284.439	79.75
284.67	79.75
284.901	82.75
285.132	72.75
285.364	83.75
285.595	78.75
285.826	71.75
286.057	91.75
286.288	76.75
286.52	91.75
286.751	84.75
286.982	87.75
287.213	64.75
287.444	89.75
287.675	81.75
287.906	74.75
288.138	84.75
288.369	72.75
288.6	71.75
288.831	76.75
289.062	77.75
289.293	61.75
289.524	85.75
289.755	82.75
289.986	89.75
290.217	91.75
290.448	91.75
290.679	90.75
290.91	83.75
291.141	83.75
291.371	78.75
291.602	76.75
291.833	81.75
292.064	88.75
292.295	93.75
292.526	87.75
292.757	84.75
292.987	91.75
293.218	73.75
293.449	74.75
293.68	74.75
293.91	79.75
294.141	76.75
294.372	89.75
294.603	88.75
294.833	72.75
295.064	79.75
295.295	78.75
295.525	82.75
295.756	80.75
295.987	80.75
296.217	77.75
296.448	87.75
296.679	80.75
296.909	84.75
297.14	87.75
297.37	79.75
297.601	88.75
297.831	88.75
298.062	70.75
298.292	100.75
298.523	86.75
298.753	79.75
298.984	79.75
299.214	81.75
299.445	89.75
299.675	85.75
299.905	85.75
300.136	72.75
300.366	85.75
300.597	83.75
300.827	81.75
301.057	79.75
301.288	88.75
301.518	82.75
301.748	80.75
301.979	82.75
302.209	88.75
302.439	79.75
302.669	79.75
302.9	73.75
303.13	78.75
303.36	85.75
303.59	82.75
303.82	81.75
304.051	75.75
304.281	73.75
304.511	84.75
304.741	70.75
304.971	84.75
305.201	93.75
305.431	85.75
305.661	87.75
305.891	84.75
306.121	81.75
306.352	68.75
306.582	84.75
306.812	88.75
307.042	62.75
307.272	69.75
307.502	87.75
307.731	86.75
307.961	95.75
308.191	82.75
308.421	96.75
308.651	99.75
308.881	77.75
309.111	75.75
309.341	71.75
309.571	78.75
309.8	59.75
310.03	55.75
310.26	74.75
310.49	85.75
310.72	67.75
310.949	89.75
311.179	77.75
311.409	74.75
311.639	85.75
311.868	87.75
312.098	87.75
312.328	68.75
312.557	68.75
312.787	82.75
313.017	82.75
313.246	90.75
313.476	81.75
313.706	76.75
313.935	92.75
314.165	82.75
314.394	77.75
314.624	79.75
314.853	70.75
315.083	79.75
315.312	87.75
315.542	80.75
315.771	94.75
316.001	81.75
316.23	84.75
316.46	81.75
316.689	78.75
316.919	66.75
317.148	86.75
317.377	93.75
317.607	82.75
317.836	83.75
318.065	81.75
318.295	71.75
318.524	73.75
318.753	88.75
318.983	84.75
319.212	77.75
319.441	81.75
319.67	94.75
319.9	67.75
320.129	83.75
320.358	77.75
320.587	86.75
320.816	76.75
321.046	85.75
321.275	92.75
321.504	84.75
321.733	85.75
321.962	89.75
322.191	81.75
322.42	82.75
322.649	85.75
322.878	79.75
323.108	86.75
323.337	86.75
323.566	86.75
323.795	88.75
324.024	77.75
324.253	73.75
324.482	79.75
324.71	88.75
324.939	85.75
325.168	75.75
325.397	81.75
325.626	83.75
325.855	71.75
326.084	78.75
326.313	81.75
326.542	87.75
326.77	75.75
326.999	79.75
327.228	83.75
327.457	86.75
327.686	68.75
327.914	65.75
328.143	80.75
328.372	79.75
328.6	80.75
328.829	81.75
329.058	84.75
329.287	77.75
329.515	78.75
329.744	86.75
329.972	82.75
330.201	73.75
330.43	81.75
330.658	80.75
330.887	83.75
331.115	104.75
331.344	75.75
331.572	95.75
331.801	68.75
332.03	77.75
332.258	70.75
332.486	77.75
332.715	80.75
332.943	84.75
333.172	74.75
333.4	78.75
333.629	81.75
333.857	77.75
334.085	78.75
334.314	85.75
334.542	70.75
334.771	78.75
334.999	81.75
335.227	74.75
335.455	65.75
335.684	77.75
335.912	91.75
336.14	93.75
336.369	89.75
336.597	88.75
336.825	99.75
337.053	87.75
337.281	77.75
337.51	73.75
337.738	81.75
337.966	72.75
338.194	73.75
338.422	79.75
338.65	78.75
338.878	74.75
339.106	89.75
339.334	92.75
339.562	76.75
339.79	75.75
340.018	81.75
340.246	73.75
340.474	83.75
340.702	79.75
340.93	73.75
341.158	81.75
341.386	91.75
341.614	85.75
341.842	80.75
342.07	78.75
342.298	83.75
342.526	85.75
342.754	92.75
342.981	78.75
343.209	94.75
343.437	90.75
343.665	85.75
343.893	84.75
344.12	77.75
344.348	74.75
344.576	80.75
344.804	82.75
345.031	79.75
345.259	79.75
345.487	81.75
345.714	84.75
345.942	78.75
346.17	83.75
346.397	74.75
346.625	72.75
346.853	93.75
347.08	85.75
347.308	93.75
347.535	77.75
347.763	71.75
347.99	76.75
348.218	82.75
348.445	88.75
348.673	77.75
348.9	76.75
349.128	81.75
349.355	77.75
349.583	80.75
349.81	88.75
350.037	84.75
350.265	85.75
350.492	83.75
350.72	86.75
350.947	83.75
351.174	84.75
351.402	65.75
351.629	89.75
351.856	81.75
352.083	69.75
352.311	71.75
352.538	84.75
352.765	75.75
352.992	89.75
353.22	96.75
353.447	79.75
353.674	83.75
353.901	94.75
354.128	71.75
354.355	65.75
354.583	60.75
354.81	90.75
355.037	57.75
355.264	85.75
355.491	98.75
355.718	83.75
355.945	77.75
356.172	65.75
356.399	56.75
356.626	77.75
356.853	79.75
357.08	74.75
357.307	92.75
357.534	92.75
357.761	84.75
357.988	80.75
358.215	85.75
358.441	82.75
358.668	89.75
358.895	80.75
359.122	77.75
359.349	80.75
359.576	85.75
359.802	67.75
360.029	91.75
360.256	83.75
360.483	64.75
360.709	82.75
360.936	87.75
361.163	83.75
361.39	87.75
361.616	82.75
361.843	69.75
362.07	87.75
362.296	89.75
362.523	80.75
362.749	87.75
362.976	87.75
363.203	76.75
363.429	77.75
363.656	88.75
363.882	86.75
364.109	77.75
364.335	89.75
364.562	82.75
364.788	73.75
365.015	85.75
365.241	78.75
365.468	83.75
365.694	81.75
365.92	93.75
366.147	83.75
366.373	80.75
366.599	79.75
366.826	86.75
367.052	83.75
367.278	82.75
367.505	92.75
367.731	93.75
367.957	79.75
368.184	80.75
368.41	76.75
368.636	60.75
368.862	88.75
369.089	74.75
369.315	77.75
369.541	84.75
369.767	83.75
369.993	73.75
370.219	73.75
370.445	78.75
370.672	75.75
370.898	79.75
371.124	82.75
371.35	53.75
371.576	71.75
371.802	66.75
372.028	79.75
372.254	79.75
372.48	80.75
372.706	100.75
372.932	83.75
373.158	83.75
373.384	89.75
373.61	77.75
373.835	74.75
374.061	83.75
374.287	72.75
374.513	85.75
374.739	77.75
374.965	85.75
375.191	78.75
375.416	96.75
375.642	71.75
375.868	84.75
376.094	102.75
376.319	79.75
376.545	65.75
376.771	73.75
376.997	80.75
377.222	82.75
377.448	86.75
377.674	84.75
377.899	87.75
378.125	76.75
378.35	71.75
378.576	79.75
378.802	75.75
379.027	69.75
379.253	74.75
379.478	67.75
379.704	73.75
379.929	75.75
380.155	80.75
380.38	83.75
380.606	73.75
380.831	86.75
381.057	89.75
381.282	93.75
381.507	84.75
381.733	88.75
381.958	69.75
382.184	81.75
382.409	72.75
382.634	92.75
382.86	91.75
383.085	85.75
383.31	86.75
383.535	73.75
383.761	84.75
383.986	88.75
384.211	76.75
384.436	88.75
384.662	83.75
384.887	94.75
385.112	89.75
385.337	76.75
385.562	77.75
385.787	88.75
386.013	63.75
386.238	101.75
386.463	81.75
386.688	103.75
386.913	99.75
387.138	87.75
387.363	72.75
387.588	84.75
387.813	95.75
388.038	91.75
388.263	85.75
388.488	84.75
388.713	65.75
388.938	88.75
389.163	79.75
389.387	67.75
389.612	85.75
389.837	71.75
390.062	81.75
390.287	70.75
390.512	75.75
390.736	103.75
390.961	88.75
391.186	82.75
391.411	69.75
391.636	91.75
391.86	85.75
392.085	71.75
392.31	75.75
392.534	97.75
392.759	93.75
392.984	91.75
393.208	114.75
393.433	131.75
393.658	122.75
393.882	84.75
394.107	79.75
394.331	81.75
394.556	66.75
394.78	83.75
395.005	73.75
395.229	71.75
395.454	62.75
395.678	77.75
395.903	71.75
396.127	82.75
396.352	81.75
396.576	87.75
396.801	89.75
397.025	123.75
397.249	91.75
397.474	90.75
397.698	84.75
397.922	86.75
398.147	78.75
398.371	80.75
398.595	77.75
398.82	77.75
399.044	86.75
399.268	75.75
399.492	73.75
399.717	85.75
399.941	72.75
400.165	93.75
400.389	68.75
400.613	85.75
400.837	92.75
401.062	81.75
401.286	65.75
401.51	67.75
401.734	85.75
401.958	71.75
402.182	86.75
402.406	83.75
402.63	84.75
402.854	85.75
403.078	80.75
403.302	67.75
403.526	77.75
403.75	80.75
403.974	79.75
404.198	82.75
404.422	79.75
404.645	67.75
404.869	76.75
405.093	73.75
405.317	87.75
405.541	75.75
405.765	83.75
405.988	60.75
406.212	81.75
406.436	70.75
406.66	70.75
406.883	81.75
407.107	93.75
407.331	82.75
407.555	91.75
407.778	80.75
408.002	91.75
408.226	78.75
408.449	87.75
408.673	81.75
408.896	82.75
409.12	79.75
409.344	79.75
409.567	101.75
409.791	78.75
410.014	66.75
410.238	85.75
410.461	85.75
410.685	81.75
410.908	60.75
411.132	73.75
411.355	86.75
411.578	77.75
411.802	79.75
412.025	89.75
412.249	80.75
412.472	77.75
412.695	77.75
412.919	73.75
413.142	79.75
413.365	72.75
413.589	89.75
413.812	80.75
414.035	79.75
414.258	70.75
414.482	86.75
414.705	72.75
414.928	87.75
415.151	79.75
415.374	78.75
415.597	81.75
415.821	80.75
416.044	88.75
416.267	79.75
416.49	80.75
416.713	73.75
416.936	95.75
417.159	77.75
417.382	62.75
417.605	77.75
417.828	80.75
418.051	78.75
418.274	67.75
418.497	69.75
418.72	71.75
418.943	79.75
419.166	71.75
419.389	77.75
419.611	75.75
419.834	80.75
420.057	93.75
420.28	83.75
420.503	72.75
420.726	88.75
420.948	78.75
421.171	65.75
421.394	78.75
421.617	89.75
421.839	79.75
422.062	84.75
422.285	68.75
422.507	86.75
422.73	117.75
422.953	117.75
423.175	77.75
423.398	66.75
423.621	88.75
423.843	83.75
424.066	80.75
424.288	71.75
424.511	88.75
424.733	86.75
424.956	91.75
425.178	76.75
425.401	83.75
425.623	79.75
425.846	70.75
426.068	77.75
426.291	62.75
426.513	77.75
426.735	77.75
426.958	94.75
427.18	77.75
427.402	89.75
427.625	91.75
427.847	88.75
428.069	77.75
428.292	86.75
428.514	88.75
428.736	88.75
428.958	76.75
429.181	80.75
429.403	85.75
429.625	83.75
429.847	91.75
430.069	86.75
430.292	79.75
430.514	93.75
430.736	83.75
430.958	87.75
431.18	63.75
431.402	84.75
431.624	80.75
431.846	89.75
432.068	92.75
432.29	78.75
432.512	73.75
432.734	86.75
432.956	78.75
433.178	70.75
433.4	73.75
433.622	82.75
433.844	79.75
434.066	92.75
434.287	83.75
434.509	89.75
434.731	84.75
434.953	85.75
435.175	66.75
435.397	97.75
435.618	78.75
435.84	85.75
436.062	88.75
436.284	77.75
436.505	64.75
436.727	69.75
436.949	78.75
437.17	72.75
437.392	73.75
437.614	82.75
437.835	64.75
438.057	75.75
438.278	89.75
438.5	79.75
438.721	78.75
438.943	76.75
439.165	84.75
439.386	70.75
439.608	80.75
439.829	85.75
440.05	85.75
440.272	85.75
440.493	78.75
440.715	79.75
440.936	73.75
441.158	72.75
441.379	82.75
441.6	83.75
441.822	73.75
442.043	83.75
442.264	84.75
442.486	89.75
442.707	95.75
442.928	89.75
443.149	67.75
443.371	95.75
443.592	102.75
443.813	95.75
444.034	77.75
444.255	85.75
444.476	68.75
444.698	80.75
444.919	88.75
445.14	144.75
445.361	117.75
445.582	100.75
445.803	86.75
446.024	79.75
446.245	88.75
446.466	78.75
446.687	71.75
446.908	80.75
447.129	80.75
447.35	92.75
447.571	87.75
447.792	89.75
448.013	81.75
448.234	83.75
448.455	75.75
448.675	88.75
448.896	84.75
449.117	85.75
449.338	74.75
449.559	89.75
449.779	73.75
450	85.75
450.221	78.75
450.442	77.75
450.662	83.75
450.883	91.75
451.104	72.75
451.324	77.75
451.545	72.75
451.766	82.75
451.986	72.75
452.207	63.75
452.428	77.75
452.648	77.75
452.869	79.75
453.089	76.75
453.31	81.75
453.53	96.75
453.751	79.75
453.971	71.75
454.192	79.75
454.412	71.75
454.633	85.75
454.853	70.75
455.073	77.75
455.294	63.75
455.514	85.75
455.734	93.75
455.955	63.75
456.175	90.75
456.395	80.75
456.616	92.75
456.836	78.75
457.056	94.75
457.276	79.75
457.497	85.75
457.717	78.75
457.937	69.75
458.157	73.75
458.377	68.75
458.598	80.75
458.818	65.75
459.038	86.75
459.258	95.75
459.478	82.75
459.698	83.75
459.918	92.75
460.138	77.75
460.358	85.75
460.578	82.75
460.798	88.75
461.018	86.75
461.238	76.75
461.458	81.75
461.678	81.75
461.898	84.75
462.118	80.75
462.338	74.75
462.558	84.75
462.777	77.75
462.997	77.75
463.217	85.75
463.437	73.75
463.657	67.75
463.876	86.75
464.096	77.75
464.316	83.75
464.536	89.75
464.755	88.75
464.975	86.75
465.195	69.75
465.414	72.75
465.634	88.75
465.854	75.75
466.073	77.75
466.293	63.75
466.512	79.75
466.732	62.75
466.951	77.75
467.171	75.75
467.391	76.75
467.61	89.75
467.829	79.75
468.049	73.75
468.268	68.75
468.488	100.75
468.707	70.75
468.927	81.75
469.146	79.75
469.365	77.75
469.585	82.75
469.804	77.75
470.023	87.75
470.243	96.75
470.462	93.75
470.681	74.75
470.901	60.75
471.12	87.75
471.339	72.75
471.558	73.75
471.777	88.75
471.997	69.75
472.216	82.75
472.435	86.75
472.654	95.75
472.873	85.75
473.092	104.75
473.311	82.75
473.53	68.75
473.749	78.75
473.968	92.75
474.187	75.75
474.406	92.75
474.625	64.75
474.844	78.75
475.063	79.75
475.282	66.75
475.501	86.75
475.72	88.75
475.939	77.75
476.158	68.75
476.377	75.75
476.596	87.75
476.814	87.75
477.033	81.75
477.252	81.75
477.471	74.75
477.69	83.75
477.908	76.75
478.127	78.75
478.346	85.75
478.564	77.75
478.783	73.75
479.002	75.75
479.22	80.75
479.439	83.75
479.658	80.75
479.876	73.75
480.095	76.75
480.313	71.75
480.532	77.75
480.751	67.75
480.969	82.75
481.188	81.75
481.406	97.75
481.624	83.75
481.843	81.75
482.061	77.75
482.28	66.75
482.498	71.75
482.717	76.75
482.935	81.75
483.153	73.75
483.372	71.75
483.59	89.75
483.808	88.75
484.027	80.75
484.245	81.75
484.463	78.75
484.681	74.75
484.9	81.75
485.118	89.75
485.336	94.75
485.554	77.75
485.772	81.75
485.99	93.75
486.209	74.75
486.427	72.75
486.645	69.75
486.863	72.75
487.081	65.75
487.299	66.75
487.517	85.75
487.735	69.75
487.953	89.75
488.171	96.75
488.389	86.75
488.607	88.75
488.825	82.75
489.043	71.75
489.261	63.75
489.479	77.75
489.696	78.75
489.914	80.75
490.132	77.75
490.35	70.75
490.568	88.75
490.786	78.75
491.003	81.75
491.221	83.75
491.439	86.75
491.657	84.75
491.874	87.75
492.092	81.75
492.31	81.75
492.527	79.75
492.745	81.75
492.963	84.75
493.18	71.75
493.398	88.75
493.615	66.75
493.833	71.75
494.05	71.75
494.268	77.75
494.485	77.75
494.703	79.75
494.92	76.75
495.138	67.75
495.355	83.75
495.573	91.75
495.79	93.75
496.008	77.75
496.225	83.75
496.442	91.75
496.66	91.75
496.877	80.75
497.094	83.75
497.312	73.75
497.529	84.75
497.746	83.75
497.963	81.75
498.181	81.75
498.398	95.75
498.615	82.75
498.832	80.75
499.049	84.75
499.267	89.75
499.484	67.75
499.701	81.75
499.918	73.75
500.135	72.75
500.352	87.75
500.569	66.75
500.786	83.75
501.003	80.75
501.22	97.75
501.437	80.75
501.654	83.75
501.871	90.75
502.088	93.75
502.305	81.75
502.522	82.75
502.739	80.75
502.956	79.75
503.172	80.75
503.389	63.75
503.606	81.75
503.823	96.75
504.04	99.75
504.256	76.75
504.473	61.75
504.69	72.75
504.907	75.75
505.123	76.75
505.34	80.75
505.557	91.75
505.773	74.75
505.99	89.75
506.207	77.75
506.423	83.75
506.64	81.75
506.856	71.75
507.073	85.75
507.289	87.75
507.506	77.75
507.722	63.75
507.939	78.75
508.155	86.75
508.372	74.75
508.588	73.75
508.805	78.75
509.021	80.75
509.238	83.75
509.454	85.75
509.67	79.75
509.887	85.75
510.103	72.75
510.319	73.75
510.536	83.75
510.752	76.75
510.968	79.75
511.184	83.75
511.401	72.75
511.617	83.75
511.833	89.75
512.049	85.75
512.265	85.75
512.481	83.75
512.698	78.75
512.914	87.75
513.13	80.75
513.346	88.75
513.562	78.75
513.778	87.75
513.994	72.75
514.21	83.75
514.426	93.75
514.642	81.75
514.858	79.75
515.074	84.75
515.29	83.75
515.506	83.75
515.721	84.75
515.937	81.75
516.153	70.75
516.369	82.75
516.585	58.75
516.801	81.75
517.016	69.75
517.232	63.75
517.448	77.75
517.664	80.75
517.879	94.75
518.095	83.75
518.311	84.75
518.527	86.75
518.742	93.75
518.958	95.75
519.173	88.75
519.389	85.75
519.605	88.75
519.82	80.75
520.036	80.75
520.251	68.75
520.467	67.75
520.682	89.75
520.898	85.75
521.113	83.75
521.329	88.75
521.544	77.75
521.76	76.75
521.975	76.75
522.19	76.75
522.406	80.75
522.621	77.75
522.836	79.75
523.052	81.75
523.267	88.75
523.482	79.75
523.698	67.75
523.913	98.75
524.128	84.75
524.343	68.75
524.559	82.75
524.774	79.75
524.989	79.75
525.204	94.75
525.419	86.75
525.634	91.75
525.849	73.75
526.064	96.75
526.28	85.75
526.495	99.75
526.71	98.75
526.925	87.75
527.14	93.75
527.355	99.75
527.57	91.75
527.785	90.75
527.999	88.75
528.214	87.75
528.429	83.75
528.644	84.75
528.859	81.75
529.074	100.75
529.289	86.75
529.503	86.75
529.718	85.75
529.933	77.75
530.148	91.75
530.363	72.75
530.577	65.75
530.792	85.75
531.007	80.75
531.221	85.75
531.436	79.75
531.651	70.75
531.865	69.75
532.08	85.75
532.295	83.75
532.509	77.75
532.724	70.75
532.938	73.75
533.153	81.75
533.367	79.75
533.582	87.75
533.796	84.75
534.011	71.75
534.225	75.75
534.44	74.75
534.654	82.75
534.868	89.75
535.083	71.75
535.297	77.75
535.511	83.75
535.726	73.75
535.94	84.75
536.154	89.75
536.369	82.75
536.583	83.75
536.797	83.75
537.011	81.75
537.225	79.75
537.44	85.75
537.654	95.75
537.868	65.75
538.082	83.75
538.296	65.75
538.51	88.75
538.724	80.75
538.938	77.75
539.153	83.75
539.367	103.75
539.581	86.75
539.795	93.75
540.009	71.75
540.222	81.75
540.436	75.75
540.65	84.75
540.864	85.75
541.078	80.75
541.292	75.75
541.506	87.75
541.72	67.75
541.934	78.75
542.147	79.75
542.361	95.75
542.575	87.75
542.789	62.75
543.002	73.75
543.216	86.75
543.43	95.75
543.644	88.75
543.857	88.75
544.071	82.75
544.285	77.75
544.498	80.75
544.712	72.75
544.925	87.75
545.139	88.75
545.352	81.75
545.566	76.75
545.779	80.75
545.993	73.75
546.206	79.75
546.42	73.75
546.633	92.75
546.847	87.75
547.06	86.75
547.274	92.75
547.487	81.75
547.7	93.75
547.914	96.75
548.127	89.75
548.34	94.75
548.554	86.75
548.767	88.75
548.98	91.75
549.193	86.75
549.407	100.75
549.62	94.75
549.833	83.75
550.046	96.75
550.259	94.75
550.473	107.75
550.686	90.75
550.899	110.75
551.112	107.75
551.325	102.75
551.538	115.75
551.751	109.75
551.964	122.75
552.177	94.75
552.39	110.75
552.603	101.75
552.816	105.75
553.029	111.75
553.242	117.75
553.455	101.75
553.667	107.75
553.88	104.75
554.093	103.75
554.306	107.75
554.519	127.75
554.732	134.75
554.944	108.75
555.157	104.75
555.37	114.75
555.583	119.75
555.795	95.75
556.008	109.75
556.221	107.75
556.433	104.75
556.646	115.75
556.859	83.75
557.071	95.75
557.284	94.75
557.496	82.75
557.709	90.75
557.921	78.75
558.134	103.75
558.346	87.75
558.559	90.75
558.771	95.75
558.984	95.75
559.196	97.75
559.409	109.75
559.621	92.75
559.833	87.75
560.046	98.75
560.258	84.75
560.47	103.75
560.683	83.75
560.895	87.75
561.107	93.75
561.32	89.75
561.532	86.75
561.744	89.75
561.956	80.75
562.168	83.75
562.381	94.75
562.593	82.75
562.805	77.75
563.017	93.75
563.229	91.75
563.441	86.75
563.653	88.75
563.865	91.75
564.077	73.75
564.289	75.75
564.501	77.75
564.713	69.75
564.925	76.75
565.137	77.75
565.349	88.75
565.561	94.75
565.773	71.75
565.985	88.75
566.197	72.75
566.408	96.75
566.62	84.75
566.832	77.75
567.044	66.75
567.255	79.75
567.467	92.75
567.679	83.75
567.891	87.75
568.102	91.75
568.314	75.75
568.526	79.75
568.737	92.75
568.949	71.75
569.161	93.75
569.372	81.75
569.584	79.75
569.795	72.75
570.007	73.75
570.218	88.75
570.43	85.75
570.641	73.75
570.853	63.75
571.064	69.75
571.276	80.75
571.487	87.75
571.698	88.75
571.91	81.75
572.121	80.75
572.333	86.75
572.544	75.75
572.755	78.75
572.966	69.75
573.178	75.75
573.389	94.75
573.6	94.75
573.811	79.75
574.023	76.75
574.234	87.75
574.445	85.75
574.656	77.75
574.867	73.75
575.078	96.75
575.289	86.75
575.501	90.75
575.712	73.75
575.923	74.75
576.134	77.75
576.345	81.75
576.556	74.75
576.767	81.75
576.978	100.75
577.188	79.75
577.399	85.75
577.61	84.75
577.821	87.75
578.032	96.75
578.243	72.75
578.454	87.75
578.665	98.75
578.875	78.75
579.086	66.75
579.297	89.75
579.508	96.75
579.718	87.75
579.929	95.75
580.14	85.75
580.35	75.75
580.561	91.75
580.772	78.75
580.982	74.75
581.193	99.75
581.403	81.75
581.614	79.75
581.825	83.75
582.035	65.75
582.246	86.75
582.456	68.75
582.667	80.75
582.877	86.75
583.087	67.75
583.298	71.75
583.508	90.75
583.719	99.75
583.929	80.75
584.139	87.75
584.35	83.75
584.56	87.75
584.77	77.75
584.981	79.75
585.191	89.75
585.401	82.75
585.611	88.75
585.821	86.75
586.032	75.75
586.242	79.75
586.452	103.75
586.662	85.75
586.872	79.75
587.082	88.75
587.292	79.75
587.502	87.75
587.713	86.75
587.923	85.75
588.133	80.75
588.343	81.75
588.553	83.75
588.762	107.75
588.972	94.75
589.182	145.75
589.392	128.75
589.602	101.75
589.812	141.75
590.022	114.75
590.232	93.75
590.441	81.75
590.651	73.75
590.861	85.75
591.071	73.75
591.281	87.75
591.49	89.75
591.7	85.75
591.91	83.75
592.119	79.75
592.329	89.75
592.539	80.75
592.748	90.75
592.958	86.75
593.167	82.75
593.377	86.75
593.587	80.75
593.796	86.75
594.006	89.75
594.215	79.75
594.424	90.75
594.634	81.75
594.843	79.75
595.053	83.75
595.262	95.75
595.472	72.75
595.681	83.75
595.89	94.75
596.1	91.75
596.309	103.75
596.518	92.75
596.727	79.75
596.937	95.75
597.146	90.75
597.355	92.75
597.564	87.75
597.774	95.75
597.983	93.75
598.192	84.75
598.401	84.75
598.61	93.75
598.819	94.75
599.028	83.75
599.237	87.75
599.446	92.75
599.655	95.75
599.864	96.75
600.073	87.75
600.282	100.75
600.491	85.75
600.7	107.75
600.909	86.75
601.118	92.75
601.327	94.75
601.536	110.75
601.745	89.75
601.953	77.75
602.162	100.75
602.371	74.75
602.58	102.75
602.789	94.75
602.997	85.75
603.206	92.75
603.415	82.75
603.623	85.75
603.832	92.75
604.041	94.75
604.249	88.75
604.458	97.75
604.666	77.75
604.875	110.75
605.084	95.75
605.292	80.75
605.501	108.75
605.709	81.75
605.918	101.75
606.126	98.75
606.334	104.75
606.543	100.75
606.751	90.75
606.96	107.75
607.168	91.75
607.376	91.75
607.585	93.75
607.793	108.75
608.001	103.75
608.21	85.75
608.418	99.75
608.626	98.75
608.834	100.75
609.043	94.75
609.251	85.75
609.459	111.75
609.667	109.75
609.875	100.75
610.083	97.75
610.291	92.75
610.499	113.75
610.707	96.75
610.916	93.75
611.124	94.75
611.332	108.75
611.54	99.75
611.748	97.75
611.955	104.75
612.163	90.75
612.371	124.75
612.579	120.75
612.787	100.75
612.995	107.75
613.203	102.75
613.411	95.75
613.618	105.75
613.826	105.75
614.034	104.75
614.242	107.75
614.449	101.75
614.657	97.75
614.865	96.75
615.072	103.75
615.28	105.75
615.488	127.75
615.695	92.75
615.903	100.75
616.111	109.75
616.318	119.75
616.526	127.75
616.733	125.75
616.941	102.75
617.148	99.75
617.356	107.75
617.563	115.75
617.771	89.75
617.978	103.75
618.185	116.75
618.393	97.75
618.6	110.75
618.807	113.75
619.015	96.75
619.222	90.75
619.429	100.75
619.637	104.75
619.844	102.75
620.051	110.75
620.258	100.75
620.466	101.75
620.673	105.75
620.88	98.75
621.087	112.75
621.294	115.75
621.501	99.75
621.708	109.75
621.915	96.75
622.122	95.75
622.329	112.75
622.536	112.75
622.743	93.75
622.95	98.75
623.157	97.75
623.364	102.75
623.571	111.75
623.778	109.75
623.985	104.75
624.192	103.75
624.399	95.75
624.606	110.75
624.812	107.75
625.019	118.75
625.226	100.75
625.433	98.75
625.639	87.75
625.846	111.75
626.053	99.75
626.259	83.75
626.466	108.75
626.673	107.75
626.879	87.75
627.086	100.75
627.293	94.75
627.499	91.75
627.706	105.75
627.912	107.75
628.119	98.75
628.325	98.75
628.532	93.75
628.738	93.75
628.945	98.75
629.151	78.75
629.357	82.75
629.564	80.75
629.77	91.75
629.976	86.75
630.183	98.75
630.389	87.75
630.595	80.75
630.802	98.75
631.008	91.75
631.214	87.75
631.42	91.75
631.627	87.75
631.833	76.75
632.039	81.75
632.245	88.75
632.451	84.75
632.657	84.75
632.863	78.75
633.069	67.75
633.275	85.75
633.481	92.75
633.688	89.75
633.893	96.75
634.099	70.75
634.305	85.75
634.511	71.75
634.717	88.75
634.923	86.75
635.129	71.75
635.335	82.75
635.541	74.75
635.747	87.75
635.952	81.75
636.158	93.75
636.364	85.75
636.57	84.75
636.775	83.75
636.981	91.75
637.187	79.75
637.392	72.75
637.598	71.75
637.804	94.75
638.009	73.75
638.215	87.75
638.421	85.75
638.626	89.75
638.832	77.75
639.037	87.75
639.243	91.75
639.448	79.75
639.654	98.75
639.859	87.75
640.065	78.75
640.27	83.75
640.475	81.75
640.681	83.75
640.886	83.75
641.091	81.75
641.297	79.75
641.502	78.75
641.707	77.75
641.913	93.75
642.118	84.75
642.323	86.75
642.528	100.75
642.733	82.75
642.939	77.75
643.144	82.75
643.349	71.75
643.554	93.75
643.759	78.75
643.964	87.75
644.169	98.75
644.374	84.75
644.579	95.75
644.784	80.75
644.989	79.75
645.194	73.75
645.399	80.75
645.604	84.75
645.809	80.75
646.014	94.75
646.219	84.75
646.423	94.75
646.628	93.75
646.833	75.75
647.038	83.75
647.243	84.75
647.447	84.75
647.652	97.75
647.857	72.75
648.062	79.75
648.266	91.75
648.471	81.75
648.676	81.75
648.88	89.75
649.085	89.75
649.289	77.75
649.494	80.75
649.698	87.75
649.903	75.75
650.107	84.75
650.312	72.75
650.516	82.75
650.721	67.75
650.925	70.75
651.13	93.75
651.334	71.75
651.539	96.75
651.743	91.75
651.947	72.75
652.152	93.75
652.356	88.75
652.56	88.75
652.764	83.75
652.969	84.75
653.173	81.75
653.377	70.75
653.581	73.75
653.785	81.75
653.99	73.75
654.194	81.75
654.398	74.75
654.602	80.75
654.806	77.75
655.01	80.75
655.214	79.75
655.418	83.75
655.622	84.75
655.826	72.75
656.03	83.75
656.234	70.75
656.438	90.75
656.642	84.75
656.846	85.75
657.049	85.75
657.253	94.75
657.457	89.75
657.661	99.75
657.865	70.75
658.068	71.75
658.272	79.75
658.476	81.75
658.68	69.75
658.883	69.75
659.087	80.75
659.291	96.75
659.494	72.75
659.698	83.75
659.901	74.75
660.105	87.75
660.309	74.75
660.512	83.75
660.716	68.75
660.919	79.75
661.123	87.75
661.326	85.75
661.53	73.75
661.733	80.75
661.936	81.75
662.14	70.75
662.343	80.75
662.546	90.75
662.75	73.75
662.953	74.75
663.156	88.75
663.36	79.75
663.563	89.75
663.766	73.75
663.969	78.75
664.173	62.75
664.376	63.75
664.579	95.75
664.782	79.75
664.985	63.75
665.188	72.75
665.391	81.75
665.594	74.75
665.797	77.75
666	85.75
666.203	66.75
666.406	67.75
666.609	64.75
666.812	83.75
667.015	79.75
667.218	81.75
667.421	76.75
667.624	82.75
667.827	84.75
668.03	78.75
668.232	88.75
668.435	62.75
668.638	79.75
668.841	81.75
669.043	83.75
669.246	64.75
669.449	75.75
669.651	71.75
669.854	78.75
670.057	76.75
670.259	79.75
670.462	84.75
670.665	93.75
670.867	74.75
671.07	77.75
671.272	73.75
671.475	81.75
671.677	84.75
671.88	79.75
672.082	81.75
672.284	90.75
672.487	100.75
672.689	77.75
672.892	81.75
