Data from 17600_3_HRD10591_00007.txt Node
Date: Mon Jan 19 14:09:27 EST 2026
User: Yrep
Spectrometer: HR+D1059
Trigger mode: 1
Integration Time (sec): 1.000000E-1
Scans to average: 1
Electric dark correction enabled: true
Nonlinearity correction enabled: false
Boxcar width: 0
XAxis mode: Wavelengths
Number of Pixels in Spectrum: 2048
>>>>>Begin Spectral Data<<<<<
223.165	-11.62
223.4	-11.62
223.635	-11.62
223.869	-25.62
224.104	-13.62
224.338	-21.62
224.573	-16.62
224.808	-8.62
225.042	5.38
225.277	-2.62
225.511	-7.62
225.746	-2.62
225.98	0.38
226.215	24.38
226.449	29.38
226.683	13.38
226.918	8.38
227.152	29.38
227.387	42.38
227.621	23.38
227.856	46.38
228.09	51.38
228.324	51.38
228.559	57.38
228.793	57.38
229.027	55.38
229.262	75.38
229.496	57.38
229.73	67.38
229.964	72.38
230.199	66.38
230.433	85.38
230.667	71.38
230.901	76.38
231.136	73.38
231.37	66.38
231.604	61.38
231.838	90.38
232.072	75.38
232.306	83.38
232.541	83.38
232.775	61.38
233.009	75.38
233.243	77.38
233.477	90.38
233.711	81.38
233.945	81.38
234.179	71.38
234.413	75.38
234.647	96.38
234.881	81.38
235.115	69.38
235.349	81.38
235.583	85.38
235.817	79.38
236.051	64.38
236.285	80.38
236.519	69.38
236.753	77.38
236.987	71.38
237.221	72.38
237.455	89.38
237.689	84.38
237.922	85.38
238.156	94.38
238.39	79.38
238.624	89.38
238.858	86.38
239.091	75.38
239.325	76.38
239.559	74.38
239.793	67.38
240.027	83.38
240.26	72.38
240.494	63.38
240.728	78.38
240.961	79.38
241.195	74.38
241.429	64.38
241.662	69.38
241.896	69.38
242.13	72.38
242.363	72.38
242.597	87.38
242.83	88.38
243.064	82.38
243.298	73.38
243.531	63.38
243.765	77.38
243.998	81.38
244.232	77.38
244.465	69.38
244.699	77.38
244.932	73.38
245.166	76.38
245.399	67.38
245.633	67.38
245.866	83.38
246.099	63.38
246.333	62.38
246.566	89.38
246.8	73.38
247.033	86.38
247.266	59.38
247.5	81.38
247.733	74.38
247.966	74.38
248.2	91.38
248.433	83.38
248.666	78.38
248.899	71.38
249.133	88.38
249.366	87.38
249.599	74.38
249.832	77.38
250.066	83.38
250.299	80.38
250.532	83.38
250.765	79.38
250.998	79.38
251.231	75.38
251.465	80.38
251.698	67.38
251.931	79.38
252.164	74.38
252.397	84.38
252.63	83.38
252.863	81.38
253.096	75.38
253.329	75.38
253.562	72.38
253.795	95.38
254.028	85.38
254.261	78.38
254.494	67.38
254.727	89.38
254.96	73.38
255.193	97.38
255.426	89.38
255.659	77.38
255.892	68.38
256.124	90.38
256.357	78.38
256.59	64.38
256.823	80.38
257.056	56.38
257.289	78.38
257.521	85.38
257.754	78.38
257.987	81.38
258.22	85.38
258.452	81.38
258.685	77.38
258.918	74.38
259.151	66.38
259.383	83.38
259.616	82.38
259.849	83.38
260.081	83.38
260.314	82.38
260.547	81.38
260.779	70.38
261.012	86.38
261.244	81.38
261.477	73.38
261.71	82.38
261.942	83.38
262.175	74.38
262.407	77.38
262.64	67.38
262.872	73.38
263.105	79.38
263.337	86.38
263.57	75.38
263.802	69.38
264.035	71.38
264.267	75.38
264.499	74.38
264.732	75.38
264.964	81.38
265.197	82.38
265.429	77.38
265.661	81.38
265.894	88.38
266.126	86.38
266.358	90.38
266.591	89.38
266.823	87.38
267.055	91.38
267.287	91.38
267.52	93.38
267.752	79.38
267.984	86.38
268.216	78.38
268.448	82.38
268.681	99.38
268.913	90.38
269.145	73.38
269.377	85.38
269.609	88.38
269.841	71.38
270.073	82.38
270.306	90.38
270.538	78.38
270.77	73.38
271.002	79.38
271.234	83.38
271.466	83.38
271.698	94.38
271.93	81.38
272.162	73.38
272.394	80.38
272.626	79.38
272.858	78.38
273.09	90.38
273.322	77.38
273.553	95.38
273.785	82.38
274.017	79.38
274.249	85.38
274.481	81.38
274.713	89.38
274.945	89.38
275.176	85.38
275.408	82.38
275.64	76.38
275.872	91.38
276.104	87.38
276.335	96.38
276.567	81.38
276.799	84.38
277.031	86.38
277.262	77.38
277.494	97.38
277.726	77.38
277.957	77.38
278.189	84.38
278.421	76.38
278.652	86.38
278.884	78.38
279.115	74.38
279.347	77.38
279.579	75.38
279.81	93.38
280.042	87.38
280.273	81.38
280.505	89.38
280.736	89.38
280.968	79.38
281.199	83.38
281.431	85.38
281.662	82.38
281.894	74.38
282.125	83.38
282.356	69.38
282.588	77.38
282.819	93.38
283.051	90.38
283.282	75.38
283.513	83.38
283.745	87.38
283.976	81.38
284.207	90.38
284.439	76.38
284.67	85.38
284.901	85.38
285.132	80.38
285.364	101.38
285.595	83.38
285.826	61.38
286.057	81.38
286.288	90.38
286.52	82.38
286.751	74.38
286.982	93.38
287.213	82.38
287.444	97.38
287.675	81.38
287.906	75.38
288.138	97.38
288.369	83.38
288.6	90.38
288.831	80.38
289.062	84.38
289.293	82.38
289.524	87.38
289.755	95.38
289.986	82.38
290.217	80.38
290.448	68.38
290.679	80.38
290.91	99.38
291.141	88.38
291.371	83.38
291.602	73.38
291.833	79.38
292.064	86.38
292.295	82.38
292.526	74.38
292.757	85.38
292.987	76.38
293.218	76.38
293.449	72.38
293.68	95.38
293.91	87.38
294.141	87.38
294.372	87.38
294.603	89.38
294.833	87.38
295.064	82.38
295.295	77.38
295.525	86.38
295.756	84.38
295.987	94.38
296.217	75.38
296.448	74.38
296.679	75.38
296.909	76.38
297.14	85.38
297.37	83.38
297.601	97.38
297.831	87.38
298.062	83.38
298.292	80.38
298.523	79.38
298.753	76.38
298.984	84.38
299.214	91.38
299.445	74.38
299.675	84.38
299.905	89.38
300.136	93.38
300.366	86.38
300.597	85.38
300.827	95.38
301.057	79.38
301.288	80.38
301.518	84.38
301.748	104.38
301.979	90.38
302.209	95.38
302.439	91.38
302.669	91.38
302.9	86.38
303.13	93.38
303.36	80.38
303.59	74.38
303.82	83.38
304.051	82.38
304.281	91.38
304.511	88.38
304.741	76.38
304.971	87.38
305.201	84.38
305.431	83.38
305.661	84.38
305.891	81.38
306.121	87.38
306.352	80.38
306.582	83.38
306.812	93.38
307.042	94.38
307.272	94.38
307.502	65.38
307.731	75.38
307.961	76.38
308.191	89.38
308.421	103.38
308.651	105.38
308.881	89.38
309.111	89.38
309.341	101.38
309.571	83.38
309.8	93.38
310.03	93.38
310.26	72.38
310.49	98.38
310.72	81.38
310.949	81.38
311.179	93.38
311.409	79.38
311.639	96.38
311.868	82.38
312.098	88.38
312.328	88.38
312.557	82.38
312.787	87.38
313.017	89.38
313.246	88.38
313.476	94.38
313.706	69.38
313.935	80.38
314.165	81.38
314.394	81.38
314.624	88.38
314.853	96.38
315.083	93.38
315.312	85.38
315.542	86.38
315.771	94.38
316.001	109.38
316.23	100.38
316.46	96.38
316.689	65.38
316.919	85.38
317.148	72.38
317.377	98.38
317.607	98.38
317.836	98.38
318.065	121.38
318.295	98.38
318.524	97.38
318.753	88.38
318.983	94.38
319.212	81.38
319.441	90.38
319.67	93.38
319.9	93.38
320.129	84.38
320.358	87.38
320.587	81.38
320.816	75.38
321.046	102.38
321.275	107.38
321.504	88.38
321.733	98.38
321.962	79.38
322.191	94.38
322.42	101.38
322.649	95.38
322.878	89.38
323.108	98.38
323.337	93.38
323.566	90.38
323.795	85.38
324.024	93.38
324.253	75.38
324.482	87.38
324.71	97.38
324.939	83.38
325.168	88.38
325.397	76.38
325.626	98.38
325.855	88.38
326.084	72.38
326.313	75.38
326.542	86.38
326.77	77.38
326.999	86.38
327.228	95.38
327.457	73.38
327.686	80.38
327.914	95.38
328.143	78.38
328.372	100.38
328.6	88.38
328.829	99.38
329.058	95.38
329.287	88.38
329.515	93.38
329.744	88.38
329.972	88.38
330.201	78.38
330.43	95.38
330.658	88.38
330.887	91.38
331.115	91.38
331.344	88.38
331.572	90.38
331.801	86.38
332.03	80.38
332.258	66.38
332.486	81.38
332.715	95.38
332.943	83.38
333.172	89.38
333.4	88.38
333.629	95.38
333.857	89.38
334.085	79.38
334.314	81.38
334.542	84.38
334.771	89.38
334.999	88.38
335.227	89.38
335.455	99.38
335.684	96.38
335.912	92.38
336.14	95.38
336.369	97.38
336.597	109.38
336.825	89.38
337.053	75.38
337.281	109.38
337.51	103.38
337.738	97.38
337.966	78.38
338.194	81.38
338.422	95.38
338.65	85.38
338.878	90.38
339.106	81.38
339.334	101.38
339.562	93.38
339.79	82.38
340.018	73.38
340.246	88.38
340.474	86.38
340.702	102.38
340.93	92.38
341.158	84.38
341.386	86.38
341.614	91.38
341.842	87.38
342.07	86.38
342.298	87.38
342.526	88.38
342.754	89.38
342.981	77.38
343.209	99.38
343.437	92.38
343.665	89.38
343.893	95.38
344.12	99.38
344.348	86.38
344.576	99.38
344.804	99.38
345.031	92.38
345.259	101.38
345.487	95.38
345.714	91.38
345.942	83.38
346.17	96.38
346.397	82.38
346.625	85.38
346.853	81.38
347.08	79.38
347.308	87.38
347.535	84.38
347.763	95.38
347.99	70.38
348.218	85.38
348.445	82.38
348.673	83.38
348.9	93.38
349.128	87.38
349.355	92.38
349.583	90.38
349.81	93.38
350.037	96.38
350.265	81.38
350.492	84.38
350.72	82.38
350.947	84.38
351.174	105.38
351.402	83.38
351.629	89.38
351.856	87.38
352.083	88.38
352.311	90.38
352.538	82.38
352.765	90.38
352.992	91.38
353.22	78.38
353.447	77.38
353.674	86.38
353.901	105.38
354.128	94.38
354.355	81.38
354.583	82.38
354.81	87.38
355.037	91.38
355.264	98.38
355.491	104.38
355.718	87.38
355.945	86.38
356.172	96.38
356.399	79.38
356.626	76.38
356.853	99.38
357.08	91.38
357.307	69.38
357.534	96.38
357.761	89.38
357.988	103.38
358.215	110.38
358.441	85.38
358.668	84.38
358.895	95.38
359.122	83.38
359.349	87.38
359.576	83.38
359.802	93.38
360.029	97.38
360.256	93.38
360.483	97.38
360.709	101.38
360.936	92.38
361.163	90.38
361.39	76.38
361.616	91.38
361.843	101.38
362.07	96.38
362.296	97.38
362.523	92.38
362.749	105.38
362.976	124.38
363.203	111.38
363.429	100.38
363.656	99.38
363.882	92.38
364.109	104.38
364.335	134.38
364.562	137.38
364.788	119.38
365.015	90.38
365.241	99.38
365.468	105.38
365.694	82.38
365.92	89.38
366.147	81.38
366.373	95.38
366.599	79.38
366.826	83.38
367.052	94.38
367.278	108.38
367.505	102.38
367.731	103.38
367.957	91.38
368.184	89.38
368.41	96.38
368.636	92.38
368.862	89.38
369.089	87.38
369.315	93.38
369.541	95.38
369.767	87.38
369.993	79.38
370.219	88.38
370.445	94.38
370.672	106.38
370.898	102.38
371.124	94.38
371.35	88.38
371.576	103.38
371.802	88.38
372.028	90.38
372.254	91.38
372.48	93.38
372.706	99.38
372.932	90.38
373.158	108.38
373.384	106.38
373.61	120.38
373.835	128.38
374.061	101.38
374.287	89.38
374.513	105.38
374.739	88.38
374.965	97.38
375.191	107.38
375.416	109.38
375.642	85.38
375.868	97.38
376.094	89.38
376.319	99.38
376.545	81.38
376.771	79.38
376.997	97.38
377.222	81.38
377.448	95.38
377.674	73.38
377.899	91.38
378.125	85.38
378.35	93.38
378.576	82.38
378.802	95.38
379.027	90.38
379.253	102.38
379.478	87.38
379.704	83.38
379.929	98.38
380.155	90.38
380.38	96.38
380.606	73.38
380.831	110.38
381.057	102.38
381.282	91.38
381.507	89.38
381.733	104.38
381.958	125.38
382.184	98.38
382.409	105.38
382.634	94.38
382.86	102.38
383.085	93.38
383.31	101.38
383.535	112.38
383.761	95.38
383.986	97.38
384.211	103.38
384.436	103.38
384.662	96.38
384.887	89.38
385.112	87.38
385.337	106.38
385.562	93.38
385.787	85.38
386.013	104.38
386.238	88.38
386.463	83.38
386.688	91.38
386.913	92.38
387.138	110.38
387.363	99.38
387.588	104.38
387.813	105.38
388.038	100.38
388.263	112.38
388.488	91.38
388.713	116.38
388.938	109.38
389.163	108.38
389.387	97.38
389.612	85.38
389.837	101.38
390.062	99.38
390.287	102.38
390.512	99.38
390.736	94.38
390.961	91.38
391.186	104.38
391.411	85.38
391.636	102.38
391.86	99.38
392.085	109.38
392.31	91.38
392.534	115.38
392.759	131.38
392.984	210.38
393.208	365.38
393.433	539.38
393.658	405.38
393.882	180.38
394.107	125.38
394.331	137.38
394.556	150.38
394.78	127.38
395.005	101.38
395.229	106.38
395.454	105.38
395.678	109.38
395.903	133.38
396.127	149.38
396.352	168.38
396.576	217.38
396.801	352.38
397.025	440.38
397.249	233.38
397.474	148.38
397.698	119.38
397.922	109.38
398.147	97.38
398.371	87.38
398.595	100.38
398.82	100.38
399.044	94.38
399.268	107.38
399.492	90.38
399.717	78.38
399.941	94.38
400.165	80.38
400.389	82.38
400.613	102.38
400.837	86.38
401.062	91.38
401.286	96.38
401.51	77.38
401.734	99.38
401.958	86.38
402.182	85.38
402.406	100.38
402.63	94.38
402.854	96.38
403.078	101.38
403.302	93.38
403.526	106.38
403.75	95.38
403.974	100.38
404.198	103.38
404.422	115.38
404.645	101.38
404.869	91.38
405.093	94.38
405.317	87.38
405.541	99.38
405.765	76.38
405.988	90.38
406.212	115.38
406.436	100.38
406.66	87.38
406.883	97.38
407.107	84.38
407.331	90.38
407.555	111.38
407.778	148.38
408.002	150.38
408.226	94.38
408.449	83.38
408.673	91.38
408.896	95.38
409.12	103.38
409.344	113.38
409.567	90.38
409.791	108.38
410.014	113.38
410.238	103.38
410.461	87.38
410.685	95.38
410.908	98.38
411.132	94.38
411.355	94.38
411.578	99.38
411.802	81.38
412.025	88.38
412.249	85.38
412.472	87.38
412.695	93.38
412.919	89.38
413.142	99.38
413.365	104.38
413.589	79.38
413.812	88.38
414.035	95.38
414.258	93.38
414.482	78.38
414.705	97.38
414.928	85.38
415.151	83.38
415.374	79.38
415.597	87.38
415.821	100.38
416.044	86.38
416.267	98.38
416.49	71.38
416.713	87.38
416.936	91.38
417.159	78.38
417.382	97.38
417.605	83.38
417.828	95.38
418.051	99.38
418.274	92.38
418.497	89.38
418.72	88.38
418.943	88.38
419.166	87.38
419.389	97.38
419.611	84.38
419.834	98.38
420.057	101.38
420.28	93.38
420.503	88.38
420.726	94.38
420.948	99.38
421.171	111.38
421.394	117.38
421.617	155.38
421.839	157.38
422.062	147.38
422.285	170.38
422.507	261.38
422.73	370.38
422.953	323.38
423.175	213.38
423.398	157.38
423.621	120.38
423.843	100.38
424.066	107.38
424.288	86.38
424.511	94.38
424.733	95.38
424.956	98.38
425.178	96.38
425.401	92.38
425.623	77.38
425.846	84.38
426.068	96.38
426.291	95.38
426.513	97.38
426.735	94.38
426.958	97.38
427.18	97.38
427.402	113.38
427.625	102.38
427.847	103.38
428.069	97.38
428.292	135.38
428.514	133.38
428.736	109.38
428.958	127.38
429.181	148.38
429.403	99.38
429.625	88.38
429.847	126.38
430.069	166.38
430.292	191.38
430.514	176.38
430.736	136.38
430.958	124.38
431.18	102.38
431.402	86.38
431.624	103.38
431.846	133.38
432.068	139.38
432.29	90.38
432.512	101.38
432.734	90.38
432.956	91.38
433.178	88.38
433.4	84.38
433.622	97.38
433.844	95.38
434.066	85.38
434.287	95.38
434.509	97.38
434.731	100.38
434.953	89.38
435.175	93.38
435.397	97.38
435.618	110.38
435.84	107.38
436.062	90.38
436.284	85.38
436.505	79.38
436.727	87.38
436.949	91.38
437.17	80.38
437.392	87.38
437.614	88.38
437.835	96.38
438.057	70.38
438.278	85.38
438.5	89.38
438.721	89.38
438.943	103.38
439.165	90.38
439.386	93.38
439.608	109.38
439.829	78.38
440.05	97.38
440.272	85.38
440.493	91.38
440.715	94.38
440.936	87.38
441.158	88.38
441.379	93.38
441.6	102.38
441.822	90.38
442.043	101.38
442.264	100.38
442.486	148.38
442.707	178.38
442.928	128.38
443.149	109.38
443.371	152.38
443.592	257.38
443.813	204.38
444.034	99.38
444.255	86.38
444.476	102.38
444.698	89.38
444.919	93.38
445.14	196.38
445.361	197.38
445.582	282.38
445.803	248.38
446.024	117.38
446.245	91.38
446.466	105.38
446.687	87.38
446.908	100.38
447.129	89.38
447.35	101.38
447.571	88.38
447.792	83.38
448.013	85.38
448.234	85.38
448.455	84.38
448.675	91.38
448.896	79.38
449.117	88.38
449.338	92.38
449.559	81.38
449.779	77.38
450	93.38
450.221	97.38
450.442	90.38
450.662	88.38
450.883	84.38
451.104	88.38
451.324	75.38
451.545	89.38
451.766	86.38
451.986	67.38
452.207	101.38
452.428	93.38
452.648	90.38
452.869	114.38
453.089	101.38
453.31	95.38
453.53	85.38
453.751	84.38
453.971	88.38
454.192	86.38
454.412	103.38
454.633	83.38
454.853	94.38
455.073	87.38
455.294	90.38
455.514	100.38
455.734	90.38
455.955	91.38
456.175	93.38
456.395	93.38
456.616	99.38
456.836	93.38
457.056	102.38
457.276	69.38
457.497	111.38
457.717	112.38
457.937	106.38
458.157	143.38
458.377	143.38
458.598	121.38
458.818	117.38
459.038	103.38
459.258	94.38
459.478	95.38
459.698	91.38
459.918	86.38
460.138	101.38
460.358	87.38
460.578	111.38
460.798	113.38
461.018	133.38
461.238	93.38
461.458	109.38
461.678	80.38
461.898	93.38
462.118	102.38
462.338	95.38
462.558	86.38
462.777	91.38
462.997	86.38
463.217	98.38
463.437	81.38
463.657	67.38
463.876	81.38
464.096	83.38
464.316	85.38
464.536	79.38
464.755	104.38
464.975	106.38
465.195	88.38
465.414	88.38
465.634	89.38
465.854	97.38
466.073	103.38
466.293	85.38
466.512	81.38
466.732	83.38
466.951	87.38
467.171	87.38
467.391	88.38
467.61	82.38
467.829	79.38
468.049	101.38
468.268	95.38
468.488	88.38
468.707	91.38
468.927	84.38
469.146	80.38
469.365	89.38
469.585	87.38
469.804	97.38
470.023	86.38
470.243	100.38
470.462	81.38
470.681	88.38
470.901	87.38
471.12	85.38
471.339	98.38
471.558	89.38
471.777	98.38
471.997	87.38
472.216	93.38
472.435	80.38
472.654	91.38
472.873	86.38
473.092	110.38
473.311	88.38
473.53	90.38
473.749	87.38
473.968	85.38
474.187	99.38
474.406	81.38
474.625	84.38
474.844	93.38
475.063	90.38
475.282	99.38
475.501	90.38
475.72	98.38
475.939	98.38
476.158	95.38
476.377	101.38
476.596	104.38
476.814	97.38
477.033	94.38
477.252	102.38
477.471	89.38
477.69	93.38
477.908	88.38
478.127	99.38
478.346	94.38
478.564	78.38
478.783	85.38
479.002	90.38
479.22	82.38
479.439	86.38
479.658	81.38
479.876	93.38
480.095	82.38
480.313	105.38
480.532	99.38
480.751	82.38
480.969	82.38
481.188	94.38
481.406	91.38
481.624	97.38
481.843	95.38
482.061	90.38
482.28	97.38
482.498	91.38
482.717	97.38
482.935	103.38
483.153	94.38
483.372	89.38
483.59	95.38
483.808	96.38
484.027	97.38
484.245	88.38
484.463	98.38
484.681	101.38
484.9	97.38
485.118	98.38
485.336	101.38
485.554	95.38
485.772	88.38
485.99	99.38
486.209	89.38
486.427	93.38
486.645	85.38
486.863	102.38
487.081	99.38
487.299	112.38
487.517	90.38
487.735	118.38
487.953	202.38
488.171	146.38
488.389	94.38
488.607	111.38
488.825	99.38
489.043	104.38
489.261	95.38
489.479	90.38
489.696	98.38
489.914	96.38
490.132	101.38
490.35	87.38
490.568	110.38
490.786	86.38
491.003	89.38
491.221	93.38
491.439	101.38
491.657	86.38
491.874	95.38
492.092	90.38
492.31	103.38
492.527	85.38
492.745	101.38
492.963	90.38
493.18	95.38
493.398	92.38
493.615	100.38
493.833	89.38
494.05	92.38
494.268	100.38
494.485	84.38
494.703	88.38
494.92	88.38
495.138	89.38
495.355	82.38
495.573	93.38
495.79	89.38
496.008	98.38
496.225	100.38
496.442	99.38
496.66	102.38
496.877	105.38
497.094	109.38
497.312	88.38
497.529	84.38
497.746	101.38
497.963	97.38
498.181	82.38
498.398	104.38
498.615	91.38
498.832	110.38
499.049	96.38
499.267	92.38
499.484	96.38
499.701	106.38
499.918	90.38
500.135	115.38
500.352	93.38
500.569	73.38
500.786	106.38
501.003	100.38
501.22	95.38
501.437	89.38
501.654	89.38
501.871	103.38
502.088	94.38
502.305	93.38
502.522	103.38
502.739	110.38
502.956	97.38
503.172	97.38
503.389	99.38
503.606	100.38
503.823	101.38
504.04	109.38
504.256	138.38
504.473	134.38
504.69	91.38
504.907	93.38
505.123	87.38
505.34	93.38
505.557	77.38
505.773	74.38
505.99	87.38
506.207	82.38
506.423	99.38
506.64	87.38
506.856	90.38
507.073	101.38
507.289	99.38
507.506	99.38
507.722	99.38
507.939	90.38
508.155	92.38
508.372	98.38
508.588	96.38
508.805	90.38
509.021	97.38
509.238	81.38
509.454	87.38
509.67	98.38
509.887	95.38
510.103	91.38
510.319	79.38
510.536	88.38
510.752	100.38
510.968	91.38
511.184	74.38
511.401	89.38
511.617	85.38
511.833	87.38
512.049	84.38
512.265	101.38
512.481	87.38
512.698	98.38
512.914	85.38
513.13	83.38
513.346	98.38
513.562	89.38
513.778	91.38
513.994	95.38
514.21	83.38
514.426	100.38
514.642	81.38
514.858	85.38
515.074	88.38
515.29	95.38
515.506	95.38
515.721	96.38
515.937	93.38
516.153	86.38
516.369	87.38
516.585	92.38
516.801	89.38
517.016	83.38
517.232	100.38
517.448	103.38
517.664	99.38
517.879	81.38
518.095	95.38
518.311	109.38
518.527	117.38
518.742	133.38
518.958	182.38
519.173	202.38
519.389	112.38
519.605	86.38
519.82	91.38
520.036	89.38
520.251	85.38
520.467	99.38
520.682	93.38
520.898	95.38
521.113	101.38
521.329	87.38
521.544	89.38
521.76	101.38
521.975	97.38
522.19	94.38
522.406	102.38
522.621	105.38
522.836	99.38
523.052	97.38
523.267	78.38
523.482	103.38
523.698	119.38
523.913	102.38
524.128	105.38
524.343	93.38
524.559	91.38
524.774	103.38
524.989	97.38
525.204	97.38
525.419	100.38
525.634	100.38
525.849	113.38
526.064	142.38
526.28	232.38
526.495	323.38
526.71	350.38
526.925	226.38
527.14	307.38
527.355	272.38
527.57	117.38
527.785	104.38
527.999	89.38
528.214	100.38
528.429	97.38
528.644	96.38
528.859	102.38
529.074	99.38
529.289	119.38
529.503	117.38
529.718	110.38
529.933	95.38
530.148	99.38
530.363	121.38
530.577	117.38
530.792	117.38
531.007	109.38
531.221	98.38
531.436	97.38
531.651	114.38
531.865	111.38
532.08	98.38
532.295	122.38
532.509	127.38
532.724	106.38
532.938	126.38
533.153	114.38
533.367	105.38
533.582	112.38
533.796	120.38
534.011	113.38
534.225	107.38
534.44	109.38
534.654	123.38
534.868	116.38
535.083	189.38
535.297	157.38
535.511	104.38
535.726	119.38
535.94	117.38
536.154	109.38
536.369	114.38
536.583	115.38
536.797	120.38
537.011	98.38
537.225	123.38
537.44	121.38
537.654	115.38
537.868	109.38
538.082	122.38
538.296	110.38
538.51	122.38
538.724	122.38
538.938	109.38
539.153	111.38
539.367	133.38
539.581	113.38
539.795	120.38
540.009	115.38
540.222	112.38
540.436	106.38
540.65	128.38
540.864	104.38
541.078	109.38
541.292	123.38
541.506	120.38
541.72	123.38
541.934	120.38
542.147	123.38
542.361	129.38
542.575	100.38
542.789	125.38
543.002	110.38
543.216	131.38
543.43	110.38
543.644	148.38
543.857	133.38
544.071	126.38
544.285	122.38
544.498	116.38
544.712	118.38
544.925	130.38
545.139	121.38
545.352	119.38
545.566	146.38
545.779	126.38
545.993	135.38
546.206	122.38
546.42	133.38
546.633	149.38
546.847	155.38
547.06	170.38
547.274	199.38
547.487	220.38
547.7	267.38
547.914	265.38
548.127	284.38
548.34	291.38
548.554	287.38
548.767	283.38
548.98	315.38
549.193	299.38
549.407	307.38
549.62	319.38
549.833	326.38
550.046	387.38
550.259	390.38
550.473	410.38
550.686	422.38
550.899	492.38
551.112	500.38
551.325	541.38
551.538	534.38
551.751	553.38
551.964	545.38
552.177	528.38
552.39	535.38
552.603	538.38
552.816	523.38
553.029	528.38
553.242	546.38
553.455	520.38
553.667	591.38
553.88	614.38
554.093	610.38
554.306	664.38
554.519	640.38
554.732	628.38
554.944	625.38
555.157	607.38
555.37	573.38
555.583	557.38
555.795	549.38
556.008	496.38
556.221	470.38
556.433	457.38
556.646	414.38
556.859	393.38
557.071	365.38
557.284	338.38
557.496	343.38
557.709	302.38
557.921	296.38
558.134	276.38
558.346	309.38
558.559	301.38
558.771	273.38
558.984	386.38
559.196	479.38
559.409	302.38
559.621	375.38
559.833	303.38
560.046	358.38
560.258	290.38
560.47	315.38
560.683	209.38
560.895	174.38
561.107	177.38
561.32	160.38
561.532	157.38
561.744	134.38
561.956	152.38
562.168	164.38
562.381	167.38
562.593	153.38
562.805	142.38
563.017	137.38
563.229	132.38
563.441	139.38
563.653	132.38
563.865	135.38
564.077	138.38
564.289	139.38
564.501	114.38
564.713	137.38
564.925	126.38
565.137	123.38
565.349	134.38
565.561	130.38
565.773	131.38
565.985	127.38
566.197	134.38
566.408	130.38
566.62	127.38
566.832	103.38
567.044	129.38
567.255	119.38
567.467	103.38
567.679	127.38
567.891	129.38
568.102	118.38
568.314	139.38
568.526	131.38
568.737	122.38
568.949	125.38
569.161	126.38
569.372	113.38
569.584	121.38
569.795	125.38
570.007	145.38
570.218	117.38
570.43	127.38
570.641	139.38
570.853	134.38
571.064	116.38
571.276	135.38
571.487	123.38
571.698	109.38
571.91	129.38
572.121	145.38
572.333	132.38
572.544	126.38
572.755	128.38
572.966	117.38
573.178	119.38
573.389	117.38
573.6	116.38
573.811	141.38
574.023	126.38
574.234	122.38
574.445	125.38
574.656	125.38
574.867	123.38
575.078	115.38
575.289	99.38
575.501	101.38
575.712	96.38
575.923	106.38
576.134	125.38
576.345	98.38
576.556	116.38
576.767	113.38
576.978	109.38
577.188	118.38
577.399	113.38
577.61	110.38
577.821	123.38
578.032	106.38
578.243	109.38
578.454	102.38
578.665	119.38
578.875	110.38
579.086	112.38
579.297	119.38
579.508	113.38
579.718	114.38
579.929	118.38
580.14	112.38
580.35	111.38
580.561	110.38
580.772	109.38
580.982	118.38
581.193	119.38
581.403	87.38
581.614	100.38
581.825	121.38
582.035	123.38
582.246	118.38
582.456	120.38
582.667	113.38
582.877	116.38
583.087	104.38
583.298	102.38
583.508	111.38
583.719	130.38
583.929	117.38
584.139	105.38
584.35	98.38
584.56	114.38
584.77	121.38
584.981	98.38
585.191	115.38
585.401	127.38
585.611	120.38
585.821	203.38
586.032	305.38
586.242	161.38
586.452	139.38
586.662	120.38
586.872	130.38
587.082	117.38
587.292	127.38
587.502	141.38
587.713	138.38
587.923	129.38
588.133	158.38
588.343	149.38
588.553	147.38
588.762	189.38
588.972	348.38
589.182	707.38
589.392	555.38
589.602	393.38
589.812	635.38
590.022	404.38
590.232	224.38
590.441	175.38
590.651	153.38
590.861	168.38
591.071	155.38
591.281	162.38
591.49	166.38
591.7	167.38
591.91	163.38
592.119	167.38
592.329	159.38
592.539	161.38
592.748	165.38
592.958	166.38
593.167	173.38
593.377	163.38
593.587	187.38
593.796	185.38
594.006	197.38
594.215	193.38
594.424	196.38
594.634	216.38
594.843	214.38
595.053	212.38
595.262	213.38
595.472	250.38
595.681	239.38
595.89	261.38
596.1	247.38
596.309	232.38
596.518	257.38
596.727	280.38
596.937	298.38
597.146	308.38
597.355	318.38
597.564	302.38
597.774	308.38
597.983	292.38
598.192	289.38
598.401	302.38
598.61	327.38
598.819	342.38
599.028	324.38
599.237	323.38
599.446	328.38
599.655	318.38
599.864	314.38
600.073	306.38
600.282	325.38
600.491	337.38
600.7	358.38
600.909	338.38
601.118	328.38
601.327	305.38
601.536	292.38
601.745	304.38
601.953	289.38
602.162	280.38
602.371	299.38
602.58	328.38
602.789	298.38
602.997	323.38
603.206	315.38
603.415	329.38
603.623	348.38
603.832	334.38
604.041	316.38
604.249	303.38
604.458	331.38
604.666	347.38
604.875	355.38
605.084	361.38
605.292	375.38
605.501	354.38
605.709	368.38
605.918	382.38
606.126	391.38
606.334	388.38
606.543	399.38
606.751	397.38
606.96	379.38
607.168	365.38
607.376	337.38
607.585	365.38
607.793	366.38
608.001	320.38
608.21	359.38
608.418	347.38
608.626	357.38
608.834	356.38
609.043	383.38
609.251	403.38
609.459	377.38
609.667	378.38
609.875	404.38
610.083	406.38
610.291	417.38
610.499	500.38
610.707	431.38
610.916	398.38
611.124	377.38
611.332	416.38
611.54	405.38
611.748	435.38
611.955	437.38
612.163	458.38
612.371	565.38
612.579	531.38
612.787	471.38
612.995	460.38
613.203	454.38
613.411	437.38
613.618	425.38
613.826	452.38
614.034	455.38
614.242	469.38
614.449	445.38
614.657	474.38
614.865	466.38
615.072	460.38
615.28	454.38
615.488	474.38
615.695	472.38
615.903	473.38
616.111	501.38
616.318	605.38
616.526	639.38
616.733	537.38
616.941	525.38
617.148	575.38
617.356	509.38
617.563	473.38
617.771	493.38
617.978	479.38
618.185	460.38
618.393	479.38
618.6	463.38
618.807	460.38
619.015	461.38
619.222	432.38
619.429	459.38
619.637	458.38
619.844	455.38
620.051	451.38
620.258	448.38
620.466	461.38
620.673	449.38
620.88	430.38
621.087	463.38
621.294	467.38
621.501	466.38
621.708	483.38
621.915	465.38
622.122	461.38
622.329	460.38
622.536	480.38
622.743	464.38
622.95	476.38
623.157	478.38
623.364	468.38
623.571	463.38
623.778	471.38
623.985	456.38
624.192	459.38
624.399	463.38
624.606	452.38
624.812	468.38
625.019	453.38
625.226	443.38
625.433	452.38
625.639	434.38
625.846	428.38
626.053	403.38
626.259	389.38
626.466	356.38
626.673	371.38
626.879	358.38
627.086	346.38
627.293	323.38
627.499	321.38
627.706	306.38
627.912	284.38
628.119	267.38
628.325	255.38
628.532	246.38
628.738	228.38
628.945	215.38
629.151	211.38
629.357	191.38
629.564	192.38
629.77	181.38
629.976	173.38
630.183	176.38
630.389	160.38
630.595	155.38
630.802	161.38
631.008	165.38
631.214	145.38
631.42	148.38
631.627	138.38
631.833	147.38
632.039	152.38
632.245	147.38
632.451	139.38
632.657	129.38
632.863	130.38
633.069	139.38
633.275	149.38
633.481	139.38
633.688	139.38
633.893	133.38
634.099	145.38
634.305	150.38
634.511	139.38
634.717	141.38
634.923	149.38
635.129	148.38
635.335	147.38
635.541	129.38
635.747	138.38
635.952	145.38
636.158	145.38
636.364	155.38
636.57	154.38
636.775	130.38
636.981	143.38
637.187	158.38
637.392	138.38
637.598	152.38
637.804	138.38
638.009	129.38
638.215	139.38
638.421	151.38
638.626	132.38
638.832	152.38
639.037	133.38
639.243	136.38
639.448	138.38
639.654	151.38
639.859	125.38
640.065	127.38
640.27	132.38
640.475	136.38
640.681	136.38
640.886	125.38
641.091	139.38
641.297	148.38
641.502	134.38
641.707	143.38
641.913	139.38
642.118	129.38
642.323	125.38
642.528	135.38
642.733	142.38
642.939	126.38
643.144	151.38
643.349	145.38
643.554	139.38
643.759	143.38
643.964	175.38
644.169	210.38
644.374	150.38
644.579	126.38
644.784	140.38
644.989	132.38
645.194	178.38
645.399	149.38
645.604	127.38
645.809	135.38
646.014	135.38
646.219	148.38
646.423	202.38
646.628	160.38
646.833	135.38
647.038	141.38
647.243	150.38
647.447	129.38
647.652	127.38
647.857	100.38
648.062	116.38
648.266	135.38
648.471	126.38
648.676	128.38
648.88	128.38
649.085	105.38
649.289	123.38
649.494	142.38
649.698	131.38
649.903	111.38
650.107	129.38
650.312	127.38
650.516	101.38
650.721	97.38
650.925	91.38
651.13	95.38
651.334	106.38
651.539	100.38
651.743	78.38
651.947	105.38
652.152	88.38
652.356	79.38
652.56	105.38
652.764	94.38
652.969	98.38
653.173	108.38
653.377	77.38
653.581	93.38
653.785	90.38
653.99	88.38
654.194	89.38
654.398	86.38
654.602	85.38
654.806	97.38
655.01	80.38
655.214	81.38
655.418	85.38
655.622	100.38
655.826	88.38
656.03	88.38
656.234	93.38
656.438	83.38
656.642	88.38
656.846	88.38
657.049	95.38
657.253	86.38
657.457	88.38
657.661	81.38
657.865	89.38
658.068	93.38
658.272	89.38
658.476	78.38
658.68	87.38
658.883	86.38
659.087	82.38
659.291	92.38
659.494	85.38
659.698	91.38
659.901	101.38
660.105	95.38
660.309	84.38
660.512	90.38
660.716	71.38
660.919	81.38
661.123	85.38
661.326	87.38
661.53	85.38
661.733	95.38
661.936	95.38
662.14	100.38
662.343	95.38
662.546	74.38
662.75	99.38
662.953	91.38
663.156	91.38
663.36	92.38
663.563	81.38
663.766	90.38
663.969	84.38
664.173	86.38
664.376	71.38
664.579	79.38
664.782	89.38
664.985	91.38
665.188	79.38
665.391	91.38
665.594	76.38
665.797	78.38
666	75.38
666.203	74.38
666.406	83.38
666.609	82.38
666.812	90.38
667.015	94.38
667.218	89.38
667.421	86.38
667.624	86.38
667.827	90.38
668.03	83.38
668.232	67.38
668.435	83.38
668.638	74.38
668.841	75.38
669.043	83.38
669.246	87.38
669.449	71.38
669.651	89.38
669.854	79.38
670.057	79.38
670.259	81.38
670.462	85.38
670.665	87.38
670.867	83.38
671.07	99.38
671.272	78.38
671.475	94.38
671.677	76.38
671.88	79.38
672.082	77.38
672.284	93.38
672.487	93.38
672.689	62.38
672.892	79.38
