Data from Circ_2018_H10_HRD10591_00035.txt Node
Date: Wed Jan 03 09:56:09 EST 2024
User: Yrep
Spectrometer: HR+D1059
Trigger mode: 1
Integration Time (sec): 1.000000E-1
Scans to average: 1
Electric dark correction enabled: true
Nonlinearity correction enabled: false
Boxcar width: 0
XAxis mode: Wavelengths
Number of Pixels in Spectrum: 2048
>>>>>Begin Spectral Data<<<<<
223.165	-23.62
223.4	-23.62
223.635	-23.62
223.869	-10.62
224.104	-18.62
224.338	-22.62
224.573	-12.62
224.808	-4.62
225.042	-6.62
225.277	10.38
225.511	-23.62
225.746	1.38
225.98	3.38
226.215	4.38
226.449	16.38
226.683	23.38
226.918	27.38
227.152	36.38
227.387	33.38
227.621	38.38
227.856	61.38
228.09	50.38
228.324	53.38
228.559	62.38
228.793	63.38
229.027	73.38
229.262	69.38
229.496	70.38
229.73	78.38
229.964	79.38
230.199	65.38
230.433	77.38
230.667	83.38
230.901	87.38
231.136	87.38
231.37	84.38
231.604	82.38
231.838	81.38
232.072	78.38
232.306	82.38
232.541	84.38
232.775	84.38
233.009	87.38
233.243	87.38
233.477	105.38
233.711	69.38
233.945	90.38
234.179	79.38
234.413	79.38
234.647	87.38
234.881	84.38
235.115	67.38
235.349	96.38
235.583	85.38
235.817	77.38
236.051	62.38
236.285	73.38
236.519	67.38
236.753	82.38
236.987	78.38
237.221	79.38
237.455	94.38
237.689	85.38
237.922	78.38
238.156	77.38
238.39	74.38
238.624	80.38
238.858	84.38
239.091	78.38
239.325	97.38
239.559	72.38
239.793	71.38
240.027	70.38
240.26	74.38
240.494	83.38
240.728	86.38
240.961	77.38
241.195	81.38
241.429	81.38
241.662	87.38
241.896	85.38
242.13	80.38
242.363	83.38
242.597	77.38
242.83	81.38
243.064	71.38
243.298	102.38
243.531	80.38
243.765	71.38
243.998	77.38
244.232	92.38
244.465	74.38
244.699	84.38
244.932	73.38
245.166	83.38
245.399	78.38
245.633	80.38
245.866	66.38
246.099	83.38
246.333	79.38
246.566	91.38
246.8	85.38
247.033	65.38
247.266	69.38
247.5	82.38
247.733	88.38
247.966	84.38
248.2	83.38
248.433	88.38
248.666	92.38
248.899	101.38
249.133	106.38
249.366	91.38
249.599	94.38
249.832	81.38
250.066	86.38
250.299	84.38
250.532	81.38
250.765	86.38
250.998	86.38
251.231	82.38
251.465	82.38
251.698	65.38
251.931	73.38
252.164	88.38
252.397	90.38
252.63	70.38
252.863	89.38
253.096	63.38
253.329	72.38
253.562	97.38
253.795	89.38
254.028	76.38
254.261	81.38
254.494	81.38
254.727	88.38
254.96	87.38
255.193	77.38
255.426	77.38
255.659	86.38
255.892	63.38
256.124	73.38
256.357	82.38
256.59	89.38
256.823	86.38
257.056	93.38
257.289	83.38
257.521	87.38
257.754	88.38
257.987	75.38
258.22	76.38
258.452	92.38
258.685	79.38
258.918	80.38
259.151	84.38
259.383	87.38
259.616	84.38
259.849	75.38
260.081	80.38
260.314	77.38
260.547	81.38
260.779	83.38
261.012	72.38
261.244	88.38
261.477	91.38
261.71	97.38
261.942	113.38
262.175	118.38
262.407	95.38
262.64	82.38
262.872	97.38
263.105	91.38
263.337	79.38
263.57	85.38
263.802	83.38
264.035	97.38
264.267	79.38
264.499	90.38
264.732	94.38
264.964	84.38
265.197	94.38
265.429	73.38
265.661	78.38
265.894	71.38
266.126	83.38
266.358	80.38
266.591	83.38
266.823	97.38
267.055	77.38
267.287	99.38
267.52	99.38
267.752	86.38
267.984	85.38
268.216	82.38
268.448	86.38
268.681	109.38
268.913	102.38
269.145	77.38
269.377	80.38
269.609	93.38
269.841	81.38
270.073	94.38
270.306	91.38
270.538	86.38
270.77	82.38
271.002	97.38
271.234	91.38
271.466	79.38
271.698	87.38
271.93	77.38
272.162	82.38
272.394	84.38
272.626	86.38
272.858	79.38
273.09	83.38
273.322	83.38
273.553	101.38
273.785	92.38
274.017	84.38
274.249	89.38
274.481	91.38
274.713	101.38
274.945	73.38
275.176	79.38
275.408	86.38
275.64	80.38
275.872	93.38
276.104	90.38
276.335	98.38
276.567	86.38
276.799	117.38
277.031	90.38
277.262	78.38
277.494	74.38
277.726	83.38
277.957	75.38
278.189	94.38
278.421	88.38
278.652	86.38
278.884	99.38
279.115	98.38
279.347	83.38
279.579	91.38
279.81	90.38
280.042	77.38
280.273	81.38
280.505	96.38
280.736	86.38
280.968	83.38
281.199	91.38
281.431	97.38
281.662	87.38
281.894	99.38
282.125	104.38
282.356	128.38
282.588	158.38
282.819	128.38
283.051	85.38
283.282	94.38
283.513	85.38
283.745	83.38
283.976	82.38
284.207	78.38
284.439	83.38
284.67	107.38
284.901	89.38
285.132	98.38
285.364	80.38
285.595	86.38
285.826	90.38
286.057	90.38
286.288	89.38
286.52	86.38
286.751	83.38
286.982	92.38
287.213	95.38
287.444	93.38
287.675	82.38
287.906	84.38
288.138	87.38
288.369	93.38
288.6	89.38
288.831	85.38
289.062	83.38
289.293	83.38
289.524	79.38
289.755	92.38
289.986	91.38
290.217	87.38
290.448	88.38
290.679	97.38
290.91	91.38
291.141	82.38
291.371	85.38
291.602	75.38
291.833	97.38
292.064	89.38
292.295	87.38
292.526	87.38
292.757	97.38
292.987	108.38
293.218	88.38
293.449	92.38
293.68	98.38
293.91	90.38
294.141	86.38
294.372	87.38
294.603	98.38
294.833	99.38
295.064	94.38
295.295	96.38
295.525	92.38
295.756	91.38
295.987	105.38
296.217	141.38
296.448	142.38
296.679	104.38
296.909	105.38
297.14	100.38
297.37	90.38
297.601	95.38
297.831	92.38
298.062	112.38
298.292	81.38
298.523	86.38
298.753	95.38
298.984	95.38
299.214	97.38
299.445	89.38
299.675	83.38
299.905	91.38
300.136	89.38
300.366	87.38
300.597	107.38
300.827	102.38
301.057	104.38
301.288	113.38
301.518	90.38
301.748	100.38
301.979	101.38
302.209	91.38
302.439	89.38
302.669	90.38
302.9	87.38
303.13	94.38
303.36	97.38
303.59	103.38
303.82	103.38
304.051	87.38
304.281	100.38
304.511	92.38
304.741	94.38
304.971	94.38
305.201	88.38
305.431	102.38
305.661	85.38
305.891	98.38
306.121	84.38
306.352	115.38
306.582	101.38
306.812	90.38
307.042	78.38
307.272	103.38
307.502	87.38
307.731	92.38
307.961	86.38
308.191	95.38
308.421	91.38
308.651	74.38
308.881	93.38
309.111	107.38
309.341	110.38
309.571	119.38
309.8	92.38
310.03	92.38
310.26	101.38
310.49	97.38
310.72	97.38
310.949	105.38
311.179	102.38
311.409	107.38
311.639	103.38
311.868	108.38
312.098	104.38
312.328	97.38
312.557	121.38
312.787	113.38
313.017	90.38
313.246	102.38
313.476	87.38
313.706	91.38
313.935	104.38
314.165	95.38
314.394	109.38
314.624	108.38
314.853	105.38
315.083	73.38
315.312	90.38
315.542	89.38
315.771	99.38
316.001	97.38
316.23	78.38
316.46	102.38
316.689	103.38
316.919	105.38
317.148	86.38
317.377	99.38
317.607	101.38
317.836	99.38
318.065	89.38
318.295	95.38
318.524	92.38
318.753	99.38
318.983	93.38
319.212	111.38
319.441	106.38
319.67	118.38
319.9	89.38
320.129	94.38
320.358	93.38
320.587	105.38
320.816	91.38
321.046	120.38
321.275	91.38
321.504	101.38
321.733	99.38
321.962	110.38
322.191	99.38
322.42	104.38
322.649	113.38
322.878	107.38
323.108	133.38
323.337	123.38
323.566	138.38
323.795	161.38
324.024	230.38
324.253	446.38
324.482	912.38
324.71	1895.38
324.939	2437.38
325.168	920.38
325.397	274.38
325.626	165.38
325.855	139.38
326.084	115.38
326.313	137.38
326.542	151.38
326.77	253.38
326.999	507.38
327.228	977.38
327.457	1857.38
327.686	1469.38
327.914	418.38
328.143	199.38
328.372	166.38
328.6	138.38
328.829	122.38
329.058	140.38
329.287	140.38
329.515	126.38
329.744	114.38
329.972	104.38
330.201	128.38
330.43	143.38
330.658	146.38
330.887	157.38
331.115	131.38
331.344	104.38
331.572	93.38
331.801	107.38
332.03	109.38
332.258	103.38
332.486	95.38
332.715	91.38
332.943	109.38
333.172	91.38
333.4	80.38
333.629	111.38
333.857	118.38
334.085	131.38
334.314	121.38
334.542	139.38
334.771	143.38
334.999	105.38
335.227	101.38
335.455	90.38
335.684	99.38
335.912	89.38
336.14	90.38
336.369	97.38
336.597	112.38
336.825	109.38
337.053	92.38
337.281	88.38
337.51	97.38
337.738	104.38
337.966	107.38
338.194	108.38
338.422	96.38
338.65	90.38
338.878	109.38
339.106	99.38
339.334	95.38
339.562	89.38
339.79	91.38
340.018	102.38
340.246	90.38
340.474	90.38
340.702	113.38
340.93	99.38
341.158	113.38
341.386	100.38
341.614	105.38
341.842	108.38
342.07	103.38
342.298	101.38
342.526	98.38
342.754	100.38
342.981	108.38
343.209	92.38
343.437	92.38
343.665	92.38
343.893	84.38
344.12	97.38
344.348	102.38
344.576	100.38
344.804	104.38
345.031	95.38
345.259	106.38
345.487	104.38
345.714	102.38
345.942	105.38
346.17	98.38
346.397	88.38
346.625	95.38
346.853	109.38
347.08	103.38
347.308	88.38
347.535	109.38
347.763	104.38
347.99	100.38
348.218	109.38
348.445	104.38
348.673	94.38
348.9	101.38
349.128	103.38
349.355	92.38
349.583	92.38
349.81	90.38
350.037	106.38
350.265	76.38
350.492	86.38
350.72	95.38
350.947	94.38
351.174	117.38
351.402	129.38
351.629	107.38
351.856	98.38
352.083	106.38
352.311	125.38
352.538	106.38
352.765	108.38
352.992	111.38
353.22	127.38
353.447	115.38
353.674	98.38
353.901	93.38
354.128	107.38
354.355	95.38
354.583	110.38
354.81	107.38
355.037	104.38
355.264	115.38
355.491	95.38
355.718	96.38
355.945	94.38
356.172	93.38
356.399	84.38
356.626	92.38
356.853	98.38
357.08	93.38
357.307	92.38
357.534	96.38
357.761	98.38
357.988	102.38
358.215	92.38
358.441	99.38
358.668	88.38
358.895	99.38
359.122	95.38
359.349	83.38
359.576	97.38
359.802	103.38
360.029	113.38
360.256	117.38
360.483	98.38
360.709	98.38
360.936	93.38
361.163	99.38
361.39	92.38
361.616	90.38
361.843	105.38
362.07	105.38
362.296	88.38
362.523	91.38
362.749	93.38
362.976	103.38
363.203	95.38
363.429	88.38
363.656	84.38
363.882	97.38
364.109	103.38
364.335	104.38
364.562	92.38
364.788	105.38
365.015	98.38
365.241	104.38
365.468	118.38
365.694	110.38
365.92	82.38
366.147	109.38
366.373	84.38
366.599	86.38
366.826	82.38
367.052	93.38
367.278	90.38
367.505	100.38
367.731	98.38
367.957	95.38
368.184	97.38
368.41	96.38
368.636	119.38
368.862	118.38
369.089	115.38
369.315	97.38
369.541	93.38
369.767	95.38
369.993	114.38
370.219	94.38
370.445	92.38
370.672	95.38
370.898	97.38
371.124	89.38
371.35	86.38
371.576	93.38
371.802	90.38
372.028	96.38
372.254	98.38
372.48	80.38
372.706	99.38
372.932	96.38
373.158	102.38
373.384	93.38
373.61	94.38
373.835	89.38
374.061	101.38
374.287	99.38
374.513	100.38
374.739	88.38
374.965	95.38
375.191	90.38
375.416	100.38
375.642	97.38
375.868	85.38
376.094	83.38
376.319	88.38
376.545	101.38
376.771	95.38
376.997	86.38
377.222	88.38
377.448	90.38
377.674	102.38
377.899	83.38
378.125	102.38
378.35	103.38
378.576	106.38
378.802	91.38
379.027	101.38
379.253	91.38
379.478	93.38
379.704	83.38
379.929	91.38
380.155	90.38
380.38	99.38
380.606	88.38
380.831	93.38
381.057	98.38
381.282	99.38
381.507	84.38
381.733	91.38
381.958	95.38
382.184	94.38
382.409	106.38
382.634	104.38
382.86	90.38
383.085	102.38
383.31	106.38
383.535	115.38
383.761	111.38
383.986	92.38
384.211	98.38
384.436	107.38
384.662	99.38
384.887	98.38
385.112	104.38
385.337	101.38
385.562	113.38
385.787	97.38
386.013	98.38
386.238	107.38
386.463	108.38
386.688	119.38
386.913	119.38
387.138	115.38
387.363	108.38
387.588	101.38
387.813	102.38
388.038	89.38
388.263	120.38
388.488	105.38
388.713	99.38
388.938	92.38
389.163	100.38
389.387	79.38
389.612	91.38
389.837	100.38
390.062	90.38
390.287	90.38
390.512	95.38
390.736	86.38
390.961	93.38
391.186	91.38
391.411	94.38
391.636	95.38
391.86	91.38
392.085	91.38
392.31	102.38
392.534	89.38
392.759	91.38
392.984	101.38
393.208	80.38
393.433	91.38
393.658	93.38
393.882	94.38
394.107	92.38
394.331	88.38
394.556	94.38
394.78	100.38
395.005	101.38
395.229	87.38
395.454	77.38
395.678	84.38
395.903	92.38
396.127	102.38
396.352	102.38
396.576	83.38
396.801	93.38
397.025	81.38
397.249	83.38
397.474	87.38
397.698	99.38
397.922	90.38
398.147	88.38
398.371	81.38
398.595	89.38
398.82	84.38
399.044	83.38
399.268	93.38
399.492	73.38
399.717	81.38
399.941	86.38
400.165	94.38
400.389	89.38
400.613	93.38
400.837	89.38
401.062	92.38
401.286	94.38
401.51	90.38
401.734	110.38
401.958	115.38
402.182	131.38
402.406	169.38
402.63	129.38
402.854	85.38
403.078	101.38
403.302	81.38
403.526	93.38
403.75	89.38
403.974	91.38
404.198	85.38
404.422	86.38
404.645	80.38
404.869	101.38
405.093	94.38
405.317	118.38
405.541	108.38
405.765	107.38
405.988	141.38
406.212	205.38
406.436	269.38
406.66	172.38
406.883	92.38
407.107	101.38
407.331	100.38
407.555	109.38
407.778	106.38
408.002	109.38
408.226	90.38
408.449	90.38
408.673	89.38
408.896	95.38
409.12	102.38
409.344	97.38
409.567	87.38
409.791	92.38
410.014	94.38
410.238	91.38
410.461	86.38
410.685	93.38
410.908	114.38
411.132	116.38
411.355	98.38
411.578	109.38
411.802	105.38
412.025	97.38
412.249	101.38
412.472	97.38
412.695	93.38
412.919	105.38
413.142	101.38
413.365	81.38
413.589	99.38
413.812	86.38
414.035	97.38
414.258	95.38
414.482	102.38
414.705	90.38
414.928	92.38
415.151	95.38
415.374	81.38
415.597	87.38
415.821	87.38
416.044	80.38
416.267	93.38
416.49	84.38
416.713	99.38
416.936	95.38
417.159	100.38
417.382	80.38
417.605	93.38
417.828	90.38
418.051	94.38
418.274	85.38
418.497	107.38
418.72	94.38
418.943	91.38
419.166	81.38
419.389	82.38
419.611	95.38
419.834	87.38
420.057	98.38
420.28	87.38
420.503	102.38
420.726	76.38
420.948	84.38
421.171	105.38
421.394	89.38
421.617	102.38
421.839	96.38
422.062	97.38
422.285	101.38
422.507	97.38
422.73	129.38
422.953	103.38
423.175	79.38
423.398	90.38
423.621	90.38
423.843	81.38
424.066	90.38
424.288	93.38
424.511	87.38
424.733	92.38
424.956	127.38
425.178	94.38
425.401	89.38
425.623	104.38
425.846	97.38
426.068	99.38
426.291	92.38
426.513	89.38
426.735	82.38
426.958	94.38
427.18	110.38
427.402	144.38
427.625	184.38
427.847	139.38
428.069	121.38
428.292	98.38
428.514	96.38
428.736	100.38
428.958	85.38
429.181	102.38
429.403	91.38
429.625	71.38
429.847	91.38
430.069	112.38
430.292	81.38
430.514	98.38
430.736	93.38
430.958	83.38
431.18	82.38
431.402	99.38
431.624	86.38
431.846	94.38
432.068	76.38
432.29	83.38
432.512	94.38
432.734	90.38
432.956	100.38
433.178	89.38
433.4	103.38
433.622	102.38
433.844	98.38
434.066	83.38
434.287	107.38
434.509	96.38
434.731	89.38
434.953	86.38
435.175	81.38
435.397	90.38
435.618	92.38
435.84	104.38
436.062	122.38
436.284	131.38
436.505	95.38
436.727	107.38
436.949	81.38
437.17	87.38
437.392	87.38
437.614	110.38
437.835	114.38
438.057	111.38
438.278	125.38
438.5	106.38
438.721	123.38
438.943	109.38
439.165	93.38
439.386	84.38
439.608	99.38
439.829	111.38
440.05	132.38
440.272	162.38
440.493	92.38
440.715	84.38
440.936	83.38
441.158	101.38
441.379	105.38
441.6	105.38
441.822	103.38
442.043	111.38
442.264	107.38
442.486	125.38
442.707	101.38
442.928	116.38
443.149	143.38
443.371	129.38
443.592	116.38
443.813	109.38
444.034	104.38
444.255	101.38
444.476	80.38
444.698	78.38
444.919	90.38
445.14	136.38
445.361	134.38
445.582	127.38
445.803	148.38
446.024	144.38
446.245	147.38
446.466	109.38
446.687	97.38
446.908	89.38
447.129	85.38
447.35	79.38
447.571	84.38
447.792	101.38
448.013	113.38
448.234	121.38
448.455	108.38
448.675	117.38
448.896	98.38
449.117	99.38
449.338	93.38
449.559	140.38
449.779	137.38
450	117.38
450.221	90.38
450.442	97.38
450.662	98.38
450.883	115.38
451.104	112.38
451.324	102.38
451.545	99.38
451.766	90.38
451.986	92.38
452.207	87.38
452.428	91.38
452.648	107.38
452.869	126.38
453.089	122.38
453.31	132.38
453.53	96.38
453.751	94.38
453.971	102.38
454.192	113.38
454.412	105.38
454.633	89.38
454.853	91.38
455.073	99.38
455.294	86.38
455.514	106.38
455.734	95.38
455.955	87.38
456.175	82.38
456.395	104.38
456.616	97.38
456.836	92.38
457.056	90.38
457.276	93.38
457.497	81.38
457.717	82.38
457.937	82.38
458.157	84.38
458.377	88.38
458.598	116.38
458.818	179.38
459.038	180.38
459.258	127.38
459.478	93.38
459.698	97.38
459.918	104.38
460.138	83.38
460.358	103.38
460.578	95.38
460.798	91.38
461.018	83.38
461.238	76.38
461.458	94.38
461.678	101.38
461.898	79.38
462.118	82.38
462.338	95.38
462.558	89.38
462.777	95.38
462.997	104.38
463.217	77.38
463.437	84.38
463.657	78.38
463.876	88.38
464.096	95.38
464.316	94.38
464.536	99.38
464.755	100.38
464.975	108.38
465.195	210.38
465.414	182.38
465.634	106.38
465.854	89.38
466.073	90.38
466.293	87.38
466.512	92.38
466.732	97.38
466.951	98.38
467.171	98.38
467.391	102.38
467.61	103.38
467.829	102.38
468.049	96.38
468.268	111.38
468.488	88.38
468.707	91.38
468.927	76.38
469.146	85.38
469.365	85.38
469.585	94.38
469.804	99.38
470.023	113.38
470.243	110.38
470.462	103.38
470.681	106.38
470.901	92.38
471.12	87.38
471.339	79.38
471.558	93.38
471.777	95.38
471.997	89.38
472.216	124.38
472.435	141.38
472.654	111.38
472.873	85.38
473.092	97.38
473.311	87.38
473.53	93.38
473.749	95.38
473.968	102.38
474.187	104.38
474.406	110.38
474.625	81.38
474.844	77.38
475.063	101.38
475.282	91.38
475.501	106.38
475.72	88.38
475.939	88.38
476.158	89.38
476.377	89.38
476.596	109.38
476.814	92.38
477.033	97.38
477.252	83.38
477.471	87.38
477.69	99.38
477.908	115.38
478.127	84.38
478.346	98.38
478.564	91.38
478.783	99.38
479.002	102.38
479.22	106.38
479.439	103.38
479.658	112.38
479.876	101.38
480.095	101.38
480.313	98.38
480.532	79.38
480.751	87.38
480.969	108.38
481.188	211.38
481.406	177.38
481.624	98.38
481.843	100.38
482.061	77.38
482.28	104.38
482.498	75.38
482.717	70.38
482.935	82.38
483.153	104.38
483.372	101.38
483.59	88.38
483.808	86.38
484.027	80.38
484.245	83.38
484.463	91.38
484.681	103.38
484.9	85.38
485.118	101.38
485.336	93.38
485.554	101.38
485.772	96.38
485.99	93.38
486.209	89.38
486.427	120.38
486.645	101.38
486.863	110.38
487.081	113.38
487.299	109.38
487.517	93.38
487.735	102.38
487.953	93.38
488.171	99.38
488.389	99.38
488.607	115.38
488.825	89.38
489.043	93.38
489.261	86.38
489.479	84.38
489.696	95.38
489.914	87.38
490.132	93.38
490.35	95.38
490.568	86.38
490.786	88.38
491.003	91.38
491.221	109.38
491.439	89.38
491.657	102.38
491.874	89.38
492.092	87.38
492.31	89.38
492.527	77.38
492.745	83.38
492.963	86.38
493.18	78.38
493.398	88.38
493.615	103.38
493.833	85.38
494.05	74.38
494.268	89.38
494.485	77.38
494.703	93.38
494.92	87.38
495.138	97.38
495.355	88.38
495.573	90.38
495.79	99.38
496.008	95.38
496.225	75.38
496.442	72.38
496.66	87.38
496.877	87.38
497.094	105.38
497.312	98.38
497.529	85.38
497.746	99.38
497.963	111.38
498.181	99.38
498.398	108.38
498.615	111.38
498.832	121.38
499.049	98.38
499.267	80.38
499.484	93.38
499.701	94.38
499.918	90.38
500.135	87.38
500.352	95.38
500.569	96.38
500.786	86.38
501.003	88.38
501.22	115.38
501.437	90.38
501.654	95.38
501.871	117.38
502.088	97.38
502.305	93.38
502.522	84.38
502.739	81.38
502.956	91.38
503.172	95.38
503.389	105.38
503.606	116.38
503.823	96.38
504.04	96.38
504.256	97.38
504.473	98.38
504.69	113.38
504.907	89.38
505.123	98.38
505.34	101.38
505.557	92.38
505.773	82.38
505.99	89.38
506.207	80.38
506.423	99.38
506.64	87.38
506.856	86.38
507.073	97.38
507.289	94.38
507.506	98.38
507.722	108.38
507.939	113.38
508.155	79.38
508.372	96.38
508.588	108.38
508.805	95.38
509.021	101.38
509.238	99.38
509.454	101.38
509.67	101.38
509.887	103.38
510.103	148.38
510.319	244.38
510.536	913.38
510.752	3084.38
510.968	859.38
511.184	184.38
511.401	115.38
511.617	99.38
511.833	94.38
512.049	100.38
512.265	94.38
512.481	96.38
512.698	92.38
512.914	107.38
513.13	94.38
513.346	97.38
513.562	94.38
513.778	93.38
513.994	102.38
514.21	110.38
514.426	126.38
514.642	162.38
514.858	145.38
515.074	188.38
515.29	574.38
515.506	1987.38
515.721	741.38
515.937	171.38
516.153	128.38
516.369	97.38
516.585	87.38
516.801	90.38
517.016	100.38
517.232	96.38
517.448	95.38
517.664	101.38
517.879	93.38
518.095	97.38
518.311	87.38
518.527	93.38
518.742	101.38
518.958	89.38
519.173	104.38
519.389	105.38
519.605	95.38
519.82	113.38
520.036	98.38
520.251	129.38
520.467	145.38
520.682	110.38
520.898	104.38
521.113	134.38
521.329	169.38
521.544	237.38
521.76	742.38
521.975	3361.38
522.19	2045.38
522.406	420.38
522.621	145.38
522.836	109.38
523.052	98.38
523.267	107.38
523.482	104.38
523.698	100.38
523.913	122.38
524.128	111.38
524.343	96.38
524.559	91.38
524.774	89.38
524.989	98.38
525.204	131.38
525.419	91.38
525.634	91.38
525.849	92.38
526.064	93.38
526.28	81.38
526.495	78.38
526.71	77.38
526.925	85.38
527.14	86.38
527.355	96.38
527.57	90.38
527.785	93.38
527.999	104.38
528.214	94.38
528.429	102.38
528.644	106.38
528.859	83.38
529.074	96.38
529.289	141.38
529.503	218.38
529.718	110.38
529.933	96.38
530.148	96.38
530.363	89.38
530.577	102.38
530.792	94.38
531.007	89.38
531.221	98.38
531.436	90.38
531.651	90.38
531.865	86.38
532.08	75.38
532.295	81.38
532.509	97.38
532.724	90.38
532.938	100.38
533.153	105.38
533.367	92.38
533.582	92.38
533.796	94.38
534.011	98.38
534.225	90.38
534.44	99.38
534.654	114.38
534.868	93.38
535.083	90.38
535.297	101.38
535.511	121.38
535.726	112.38
535.94	97.38
536.154	91.38
536.369	87.38
536.583	109.38
536.797	106.38
537.011	99.38
537.225	104.38
537.44	105.38
537.654	100.38
537.868	99.38
538.082	84.38
538.296	100.38
538.51	100.38
538.724	90.38
538.938	101.38
539.153	99.38
539.367	110.38
539.581	103.38
539.795	95.38
540.009	89.38
540.222	92.38
540.436	85.38
540.65	84.38
540.864	97.38
541.078	103.38
541.292	77.38
541.506	99.38
541.72	78.38
541.934	86.38
542.147	85.38
542.361	93.38
542.575	82.38
542.789	95.38
543.002	114.38
543.216	98.38
543.43	100.38
543.644	93.38
543.857	101.38
544.071	90.38
544.285	88.38
544.498	88.38
544.712	88.38
544.925	99.38
545.139	80.38
545.352	88.38
545.566	89.38
545.779	80.38
545.993	71.38
546.206	90.38
546.42	88.38
546.633	91.38
546.847	89.38
547.06	86.38
547.274	91.38
547.487	99.38
547.7	77.38
547.914	87.38
548.127	99.38
548.34	82.38
548.554	95.38
548.767	95.38
548.98	88.38
549.193	92.38
549.407	91.38
549.62	84.38
549.833	72.38
550.046	91.38
550.259	91.38
550.473	88.38
550.686	92.38
550.899	89.38
551.112	76.38
551.325	79.38
551.538	82.38
551.751	93.38
551.964	86.38
552.177	91.38
552.39	82.38
552.603	93.38
552.816	84.38
553.029	82.38
553.242	98.38
553.455	103.38
553.667	109.38
553.88	102.38
554.093	95.38
554.306	88.38
554.519	95.38
554.732	94.38
554.944	85.38
555.157	101.38
555.37	102.38
555.583	96.38
555.795	107.38
556.008	100.38
556.221	98.38
556.433	102.38
556.646	100.38
556.859	113.38
557.071	77.38
557.284	91.38
557.496	101.38
557.709	100.38
557.921	100.38
558.134	94.38
558.346	98.38
558.559	92.38
558.771	79.38
558.984	82.38
559.196	101.38
559.409	91.38
559.621	84.38
559.833	104.38
560.046	79.38
560.258	89.38
560.47	87.38
560.683	83.38
560.895	91.38
561.107	88.38
561.32	91.38
561.532	92.38
561.744	99.38
561.956	88.38
562.168	84.38
562.381	102.38
562.593	99.38
562.805	98.38
563.017	94.38
563.229	93.38
563.441	92.38
563.653	78.38
563.865	97.38
564.077	88.38
564.289	90.38
564.501	90.38
564.713	79.38
564.925	100.38
565.137	113.38
565.349	84.38
565.561	86.38
565.773	80.38
565.985	95.38
566.197	97.38
566.408	85.38
566.62	78.38
566.832	89.38
567.044	109.38
567.255	92.38
567.467	95.38
567.679	80.38
567.891	90.38
568.102	85.38
568.314	85.38
568.526	82.38
568.737	82.38
568.949	88.38
569.161	89.38
569.372	76.38
569.584	97.38
569.795	103.38
570.007	129.38
570.218	287.38
570.43	148.38
570.641	97.38
570.853	94.38
571.064	90.38
571.276	93.38
571.487	88.38
571.698	94.38
571.91	83.38
572.121	95.38
572.333	84.38
572.544	93.38
572.755	100.38
572.966	90.38
573.178	94.38
573.389	90.38
573.6	101.38
573.811	105.38
574.023	102.38
574.234	86.38
574.445	101.38
574.656	90.38
574.867	80.38
575.078	89.38
575.289	86.38
575.501	94.38
575.712	86.38
575.923	86.38
576.134	85.38
576.345	102.38
576.556	95.38
576.767	86.38
576.978	97.38
577.188	98.38
577.399	97.38
577.61	98.38
577.821	106.38
578.032	116.38
578.243	300.38
578.454	961.38
578.665	261.38
578.875	98.38
579.086	84.38
579.297	95.38
579.508	89.38
579.718	83.38
579.929	92.38
580.14	107.38
580.35	95.38
580.561	93.38
580.772	75.38
580.982	82.38
581.193	106.38
581.403	85.38
581.614	79.38
581.825	71.38
582.035	83.38
582.246	91.38
582.456	79.38
582.667	93.38
582.877	101.38
583.087	89.38
583.298	83.38
583.508	84.38
583.719	95.38
583.929	104.38
584.139	83.38
584.35	91.38
584.56	85.38
584.77	87.38
584.981	83.38
585.191	93.38
585.401	90.38
585.611	91.38
585.821	87.38
586.032	78.38
586.242	89.38
586.452	90.38
586.662	86.38
586.872	101.38
587.082	78.38
587.292	75.38
587.502	94.38
587.713	86.38
587.923	94.38
588.133	100.38
588.343	105.38
588.553	86.38
588.762	96.38
588.972	96.38
589.182	114.38
589.392	108.38
589.602	77.38
589.812	103.38
590.022	110.38
590.232	79.38
590.441	87.38
590.651	85.38
590.861	90.38
591.071	99.38
591.281	91.38
591.49	96.38
591.7	87.38
591.91	84.38
592.119	97.38
592.329	84.38
592.539	97.38
592.748	82.38
592.958	93.38
593.167	85.38
593.377	77.38
593.587	96.38
593.796	74.38
594.006	91.38
594.215	100.38
594.424	88.38
594.634	89.38
594.843	83.38
595.053	94.38
595.262	83.38
595.472	82.38
595.681	102.38
595.89	94.38
596.1	88.38
596.309	96.38
596.518	84.38
596.727	94.38
596.937	79.38
597.146	74.38
597.355	85.38
597.564	85.38
597.774	92.38
597.983	75.38
598.192	98.38
598.401	97.38
598.61	78.38
598.819	85.38
599.028	90.38
599.237	96.38
599.446	84.38
599.655	96.38
599.864	105.38
600.073	88.38
600.282	91.38
600.491	85.38
600.7	86.38
600.909	93.38
601.118	84.38
601.327	83.38
601.536	87.38
601.745	95.38
601.953	90.38
602.162	89.38
602.371	82.38
602.58	79.38
602.789	86.38
602.997	82.38
603.206	101.38
603.415	85.38
603.623	83.38
603.832	89.38
604.041	91.38
604.249	77.38
604.458	81.38
604.666	84.38
604.875	95.38
605.084	107.38
605.292	93.38
605.501	87.38
605.709	79.38
605.918	76.38
606.126	84.38
606.334	75.38
606.543	92.38
606.751	100.38
606.96	97.38
607.168	90.38
607.376	93.38
607.585	98.38
607.793	94.38
608.001	101.38
608.21	88.38
608.418	102.38
608.626	92.38
608.834	102.38
609.043	92.38
609.251	109.38
609.459	93.38
609.667	83.38
609.875	83.38
610.083	85.38
610.291	89.38
610.499	69.38
610.707	85.38
610.916	99.38
611.124	84.38
611.332	81.38
611.54	89.38
611.748	75.38
611.955	82.38
612.163	90.38
612.371	91.38
612.579	91.38
612.787	90.38
612.995	87.38
613.203	98.38
613.411	95.38
613.618	85.38
613.826	102.38
614.034	92.38
614.242	94.38
614.449	78.38
614.657	93.38
614.865	88.38
615.072	89.38
615.28	73.38
615.488	81.38
615.695	89.38
615.903	110.38
616.111	98.38
616.318	108.38
616.526	86.38
616.733	97.38
616.941	94.38
617.148	70.38
617.356	91.38
617.563	89.38
617.771	91.38
617.978	90.38
618.185	106.38
618.393	88.38
618.6	86.38
618.807	90.38
619.015	86.38
619.222	86.38
619.429	86.38
619.637	86.38
619.844	98.38
620.051	90.38
620.258	76.38
620.466	78.38
620.673	77.38
620.88	91.38
621.087	101.38
621.294	78.38
621.501	90.38
621.708	87.38
621.915	101.38
622.122	96.38
622.329	80.38
622.536	85.38
622.743	84.38
622.95	87.38
623.157	85.38
623.364	92.38
623.571	90.38
623.778	93.38
623.985	91.38
624.192	74.38
624.399	78.38
624.606	94.38
624.812	98.38
625.019	90.38
625.226	90.38
625.433	81.38
625.639	84.38
625.846	80.38
626.053	90.38
626.259	94.38
626.466	81.38
626.673	76.38
626.879	88.38
627.086	94.38
627.293	94.38
627.499	89.38
627.706	94.38
627.912	87.38
628.119	87.38
628.325	94.38
628.532	95.38
628.738	79.38
628.945	89.38
629.151	83.38
629.357	90.38
629.564	90.38
629.77	88.38
629.976	88.38
630.183	100.38
630.389	93.38
630.595	98.38
630.802	72.38
631.008	101.38
631.214	67.38
631.42	83.38
631.627	75.38
631.833	81.38
632.039	75.38
632.245	83.38
632.451	75.38
632.657	95.38
632.863	81.38
633.069	89.38
633.275	91.38
633.481	87.38
633.688	87.38
633.893	93.38
634.099	84.38
634.305	87.38
634.511	83.38
634.717	99.38
634.923	82.38
635.129	85.38
635.335	74.38
635.541	78.38
635.747	89.38
635.952	81.38
636.158	98.38
636.364	109.38
636.57	91.38
636.775	91.38
636.981	91.38
637.187	91.38
637.392	93.38
637.598	79.38
637.804	82.38
638.009	99.38
638.215	79.38
638.421	73.38
638.626	82.38
638.832	83.38
639.037	76.38
639.243	78.38
639.448	71.38
639.654	89.38
639.859	70.38
640.065	79.38
640.27	76.38
640.475	76.38
640.681	98.38
640.886	86.38
641.091	94.38
641.297	91.38
641.502	89.38
641.707	103.38
641.913	93.38
642.118	89.38
642.323	76.38
642.528	84.38
642.733	86.38
642.939	87.38
643.144	74.38
643.349	91.38
643.554	99.38
643.759	96.38
643.964	106.38
644.169	100.38
644.374	101.38
644.579	91.38
644.784	78.38
644.989	82.38
645.194	79.38
645.399	89.38
645.604	86.38
645.809	92.38
646.014	88.38
646.219	90.38
646.423	92.38
646.628	90.38
646.833	89.38
647.038	87.38
647.243	82.38
647.447	97.38
647.652	74.38
647.857	88.38
648.062	97.38
648.266	78.38
648.471	99.38
648.676	86.38
648.88	83.38
649.085	88.38
649.289	100.38
649.494	101.38
649.698	132.38
649.903	102.38
650.107	94.38
650.312	80.38
650.516	81.38
650.721	78.38
650.925	80.38
651.13	84.38
651.334	91.38
651.539	85.38
651.743	89.38
651.947	83.38
652.152	100.38
652.356	85.38
652.56	84.38
652.764	90.38
652.969	85.38
653.173	89.38
653.377	81.38
653.581	77.38
653.785	86.38
653.99	89.38
654.194	76.38
654.398	88.38
654.602	78.38
654.806	75.38
655.01	104.38
655.214	102.38
655.418	75.38
655.622	93.38
655.826	89.38
656.03	85.38
656.234	96.38
656.438	99.38
656.642	95.38
656.846	100.38
657.049	74.38
657.253	93.38
657.457	92.38
657.661	91.38
657.865	83.38
658.068	88.38
658.272	91.38
658.476	82.38
658.68	71.38
658.883	103.38
659.087	89.38
659.291	87.38
659.494	75.38
659.698	88.38
659.901	90.38
660.105	80.38
660.309	92.38
660.512	77.38
660.716	81.38
660.919	75.38
661.123	85.38
661.326	88.38
661.53	80.38
661.733	82.38
661.936	89.38
662.14	74.38
662.343	86.38
662.546	78.38
662.75	76.38
662.953	79.38
663.156	79.38
663.36	83.38
663.563	83.38
663.766	91.38
663.969	84.38
664.173	92.38
664.376	93.38
664.579	84.38
664.782	80.38
664.985	77.38
665.188	87.38
665.391	85.38
665.594	79.38
665.797	86.38
666	87.38
666.203	86.38
666.406	78.38
666.609	70.38
666.812	97.38
667.015	83.38
667.218	71.38
667.421	77.38
667.624	74.38
667.827	90.38
668.03	88.38
668.232	94.38
668.435	74.38
668.638	103.38
668.841	97.38
669.043	90.38
669.246	86.38
669.449	82.38
669.651	74.38
669.854	84.38
670.057	85.38
670.259	83.38
670.462	72.38
670.665	73.38
670.867	69.38
671.07	90.38
671.272	87.38
671.475	90.38
671.677	75.38
671.88	78.38
672.082	84.38
672.284	78.38
672.487	76.38
672.689	79.38
672.892	92.38
