Data from Circ_2018_H10_HRD10591_00048.txt Node
Date: Wed Jan 03 09:56:11 EST 2024
User: Yrep
Spectrometer: HR+D1059
Trigger mode: 1
Integration Time (sec): 1.000000E-1
Scans to average: 1
Electric dark correction enabled: true
Nonlinearity correction enabled: false
Boxcar width: 0
XAxis mode: Wavelengths
Number of Pixels in Spectrum: 2048
>>>>>Begin Spectral Data<<<<<
223.165	-16.88
223.4	-16.88
223.635	-16.88
223.869	-28.88
224.104	-30.88
224.338	-16.88
224.573	-19.88
224.808	-16.88
225.042	-5.88
225.277	0.12
225.511	-2.88
225.746	7.12
225.98	15.12
226.215	18.12
226.449	8.12
226.683	21.12
226.918	35.12
227.152	34.12
227.387	32.12
227.621	26.12
227.856	42.12
228.09	50.12
228.324	54.12
228.559	43.12
228.793	57.12
229.027	54.12
229.262	65.12
229.496	68.12
229.73	84.12
229.964	77.12
230.199	68.12
230.433	75.12
230.667	85.12
230.901	79.12
231.136	62.12
231.37	76.12
231.604	86.12
231.838	82.12
232.072	86.12
232.306	96.12
232.541	89.12
232.775	90.12
233.009	84.12
233.243	76.12
233.477	95.12
233.711	79.12
233.945	72.12
234.179	62.12
234.413	80.12
234.647	63.12
234.881	77.12
235.115	70.12
235.349	74.12
235.583	84.12
235.817	80.12
236.051	74.12
236.285	84.12
236.519	83.12
236.753	69.12
236.987	77.12
237.221	95.12
237.455	84.12
237.689	96.12
237.922	79.12
238.156	72.12
238.39	70.12
238.624	84.12
238.858	71.12
239.091	71.12
239.325	89.12
239.559	82.12
239.793	86.12
240.027	80.12
240.26	85.12
240.494	79.12
240.728	87.12
240.961	80.12
241.195	80.12
241.429	77.12
241.662	75.12
241.896	69.12
242.13	88.12
242.363	64.12
242.597	65.12
242.83	74.12
243.064	66.12
243.298	84.12
243.531	84.12
243.765	80.12
243.998	87.12
244.232	97.12
244.465	98.12
244.699	88.12
244.932	77.12
245.166	80.12
245.399	83.12
245.633	69.12
245.866	74.12
246.099	81.12
246.333	88.12
246.566	84.12
246.8	72.12
247.033	78.12
247.266	80.12
247.5	85.12
247.733	84.12
247.966	96.12
248.2	81.12
248.433	80.12
248.666	95.12
248.899	100.12
249.133	93.12
249.366	96.12
249.599	96.12
249.832	80.12
250.066	77.12
250.299	81.12
250.532	86.12
250.765	75.12
250.998	84.12
251.231	72.12
251.465	89.12
251.698	85.12
251.931	88.12
252.164	83.12
252.397	68.12
252.63	87.12
252.863	81.12
253.096	74.12
253.329	84.12
253.562	75.12
253.795	95.12
254.028	84.12
254.261	71.12
254.494	91.12
254.727	85.12
254.96	93.12
255.193	76.12
255.426	58.12
255.659	67.12
255.892	69.12
256.124	68.12
256.357	84.12
256.59	86.12
256.823	70.12
257.056	84.12
257.289	80.12
257.521	76.12
257.754	99.12
257.987	74.12
258.22	73.12
258.452	80.12
258.685	80.12
258.918	89.12
259.151	80.12
259.383	80.12
259.616	73.12
259.849	70.12
260.081	85.12
260.314	88.12
260.547	87.12
260.779	84.12
261.012	82.12
261.244	84.12
261.477	88.12
261.71	86.12
261.942	112.12
262.175	122.12
262.407	91.12
262.64	89.12
262.872	75.12
263.105	75.12
263.337	73.12
263.57	74.12
263.802	75.12
264.035	73.12
264.267	83.12
264.499	86.12
264.732	87.12
264.964	90.12
265.197	95.12
265.429	84.12
265.661	96.12
265.894	95.12
266.126	84.12
266.358	77.12
266.591	86.12
266.823	77.12
267.055	93.12
267.287	90.12
267.52	92.12
267.752	81.12
267.984	85.12
268.216	77.12
268.448	83.12
268.681	84.12
268.913	100.12
269.145	88.12
269.377	82.12
269.609	73.12
269.841	79.12
270.073	86.12
270.306	83.12
270.538	85.12
270.77	91.12
271.002	86.12
271.234	97.12
271.466	91.12
271.698	77.12
271.93	70.12
272.162	85.12
272.394	104.12
272.626	96.12
272.858	82.12
273.09	84.12
273.322	78.12
273.553	83.12
273.785	92.12
274.017	77.12
274.249	86.12
274.481	90.12
274.713	92.12
274.945	83.12
275.176	92.12
275.408	88.12
275.64	91.12
275.872	87.12
276.104	88.12
276.335	90.12
276.567	100.12
276.799	115.12
277.031	97.12
277.262	90.12
277.494	96.12
277.726	93.12
277.957	78.12
278.189	87.12
278.421	97.12
278.652	98.12
278.884	88.12
279.115	92.12
279.347	88.12
279.579	87.12
279.81	72.12
280.042	85.12
280.273	84.12
280.505	78.12
280.736	89.12
280.968	93.12
281.199	83.12
281.431	86.12
281.662	90.12
281.894	86.12
282.125	95.12
282.356	131.12
282.588	155.12
282.819	108.12
283.051	90.12
283.282	78.12
283.513	81.12
283.745	102.12
283.976	80.12
284.207	87.12
284.439	96.12
284.67	94.12
284.901	91.12
285.132	81.12
285.364	68.12
285.595	72.12
285.826	77.12
286.057	83.12
286.288	88.12
286.52	102.12
286.751	81.12
286.982	71.12
287.213	85.12
287.444	101.12
287.675	89.12
287.906	85.12
288.138	96.12
288.369	97.12
288.6	91.12
288.831	88.12
289.062	94.12
289.293	91.12
289.524	95.12
289.755	73.12
289.986	85.12
290.217	76.12
290.448	85.12
290.679	89.12
290.91	99.12
291.141	79.12
291.371	87.12
291.602	93.12
291.833	85.12
292.064	86.12
292.295	103.12
292.526	95.12
292.757	73.12
292.987	79.12
293.218	73.12
293.449	80.12
293.68	80.12
293.91	89.12
294.141	77.12
294.372	80.12
294.603	91.12
294.833	73.12
295.064	91.12
295.295	82.12
295.525	98.12
295.756	98.12
295.987	121.12
296.217	155.12
296.448	137.12
296.679	100.12
296.909	97.12
297.14	96.12
297.37	96.12
297.601	85.12
297.831	76.12
298.062	100.12
298.292	79.12
298.523	90.12
298.753	73.12
298.984	81.12
299.214	82.12
299.445	98.12
299.675	103.12
299.905	101.12
300.136	81.12
300.366	92.12
300.597	88.12
300.827	83.12
301.057	100.12
301.288	110.12
301.518	98.12
301.748	88.12
301.979	96.12
302.209	100.12
302.439	83.12
302.669	82.12
302.9	90.12
303.13	87.12
303.36	90.12
303.59	102.12
303.82	113.12
304.051	92.12
304.281	101.12
304.511	97.12
304.741	99.12
304.971	92.12
305.201	99.12
305.431	79.12
305.661	84.12
305.891	87.12
306.121	107.12
306.352	105.12
306.582	114.12
306.812	96.12
307.042	104.12
307.272	92.12
307.502	93.12
307.731	99.12
307.961	101.12
308.191	87.12
308.421	93.12
308.651	95.12
308.881	100.12
309.111	87.12
309.341	117.12
309.571	92.12
309.8	93.12
310.03	89.12
310.26	93.12
310.49	100.12
310.72	95.12
310.949	106.12
311.179	97.12
311.409	103.12
311.639	101.12
311.868	100.12
312.098	98.12
312.328	99.12
312.557	97.12
312.787	111.12
313.017	91.12
313.246	103.12
313.476	99.12
313.706	92.12
313.935	99.12
314.165	83.12
314.394	101.12
314.624	91.12
314.853	90.12
315.083	100.12
315.312	80.12
315.542	90.12
315.771	85.12
316.001	83.12
316.23	97.12
316.46	91.12
316.689	91.12
316.919	89.12
317.148	88.12
317.377	106.12
317.607	93.12
317.836	81.12
318.065	90.12
318.295	99.12
318.524	98.12
318.753	92.12
318.983	85.12
319.212	92.12
319.441	109.12
319.67	109.12
319.9	82.12
320.129	110.12
320.358	108.12
320.587	96.12
320.816	92.12
321.046	95.12
321.275	101.12
321.504	99.12
321.733	105.12
321.962	88.12
322.191	91.12
322.42	108.12
322.649	104.12
322.878	114.12
323.108	126.12
323.337	119.12
323.566	138.12
323.795	172.12
324.024	232.12
324.253	435.12
324.482	927.12
324.71	1841.12
324.939	2397.12
325.168	898.12
325.397	261.12
325.626	161.12
325.855	134.12
326.084	131.12
326.313	149.12
326.542	167.12
326.77	230.12
326.999	475.12
327.228	979.12
327.457	1779.12
327.686	1423.12
327.914	400.12
328.143	198.12
328.372	173.12
328.6	149.12
328.829	122.12
329.058	132.12
329.287	148.12
329.515	118.12
329.744	118.12
329.972	107.12
330.201	132.12
330.43	140.12
330.658	141.12
330.887	167.12
331.115	143.12
331.344	97.12
331.572	99.12
331.801	116.12
332.03	104.12
332.258	97.12
332.486	102.12
332.715	109.12
332.943	90.12
333.172	100.12
333.4	97.12
333.629	110.12
333.857	128.12
334.085	101.12
334.314	136.12
334.542	156.12
334.771	166.12
334.999	112.12
335.227	106.12
335.455	101.12
335.684	107.12
335.912	112.12
336.14	101.12
336.369	104.12
336.597	91.12
336.825	109.12
337.053	88.12
337.281	98.12
337.51	92.12
337.738	98.12
337.966	83.12
338.194	100.12
338.422	103.12
338.65	102.12
338.878	98.12
339.106	102.12
339.334	80.12
339.562	78.12
339.79	81.12
340.018	91.12
340.246	98.12
340.474	106.12
340.702	85.12
340.93	74.12
341.158	92.12
341.386	106.12
341.614	93.12
341.842	98.12
342.07	102.12
342.298	100.12
342.526	80.12
342.754	97.12
342.981	99.12
343.209	67.12
343.437	115.12
343.665	91.12
343.893	90.12
344.12	96.12
344.348	90.12
344.576	81.12
344.804	86.12
345.031	98.12
345.259	102.12
345.487	96.12
345.714	109.12
345.942	99.12
346.17	86.12
346.397	89.12
346.625	82.12
346.853	76.12
347.08	96.12
347.308	98.12
347.535	100.12
347.763	92.12
347.99	94.12
348.218	96.12
348.445	108.12
348.673	106.12
348.9	88.12
349.128	82.12
349.355	96.12
349.583	89.12
349.81	108.12
350.037	96.12
350.265	97.12
350.492	104.12
350.72	107.12
350.947	92.12
351.174	108.12
351.402	120.12
351.629	119.12
351.856	103.12
352.083	101.12
352.311	106.12
352.538	101.12
352.765	101.12
352.992	116.12
353.22	122.12
353.447	106.12
353.674	87.12
353.901	95.12
354.128	91.12
354.355	104.12
354.583	90.12
354.81	96.12
355.037	112.12
355.264	94.12
355.491	99.12
355.718	95.12
355.945	101.12
356.172	88.12
356.399	90.12
356.626	88.12
356.853	97.12
357.08	104.12
357.307	94.12
357.534	82.12
357.761	96.12
357.988	97.12
358.215	99.12
358.441	90.12
358.668	97.12
358.895	80.12
359.122	107.12
359.349	87.12
359.576	102.12
359.802	113.12
360.029	128.12
360.256	123.12
360.483	104.12
360.709	87.12
360.936	98.12
361.163	95.12
361.39	106.12
361.616	88.12
361.843	77.12
362.07	102.12
362.296	92.12
362.523	97.12
362.749	99.12
362.976	100.12
363.203	100.12
363.429	98.12
363.656	112.12
363.882	99.12
364.109	102.12
364.335	96.12
364.562	101.12
364.788	111.12
365.015	90.12
365.241	100.12
365.468	106.12
365.694	110.12
365.92	87.12
366.147	82.12
366.373	89.12
366.599	102.12
366.826	92.12
367.052	93.12
367.278	85.12
367.505	93.12
367.731	79.12
367.957	90.12
368.184	92.12
368.41	101.12
368.636	124.12
368.862	114.12
369.089	101.12
369.315	98.12
369.541	105.12
369.767	75.12
369.993	100.12
370.219	88.12
370.445	97.12
370.672	94.12
370.898	88.12
371.124	98.12
371.35	108.12
371.576	83.12
371.802	83.12
372.028	84.12
372.254	99.12
372.48	101.12
372.706	92.12
372.932	84.12
373.158	82.12
373.384	96.12
373.61	96.12
373.835	87.12
374.061	81.12
374.287	87.12
374.513	89.12
374.739	101.12
374.965	89.12
375.191	93.12
375.416	96.12
375.642	83.12
375.868	80.12
376.094	89.12
376.319	88.12
376.545	89.12
376.771	85.12
376.997	87.12
377.222	80.12
377.448	92.12
377.674	83.12
377.899	94.12
378.125	95.12
378.35	108.12
378.576	100.12
378.802	101.12
379.027	92.12
379.253	89.12
379.478	89.12
379.704	91.12
379.929	92.12
380.155	106.12
380.38	88.12
380.606	99.12
380.831	92.12
381.057	106.12
381.282	98.12
381.507	96.12
381.733	100.12
381.958	87.12
382.184	93.12
382.409	113.12
382.634	111.12
382.86	108.12
383.085	91.12
383.31	107.12
383.535	88.12
383.761	88.12
383.986	97.12
384.211	95.12
384.436	92.12
384.662	103.12
384.887	107.12
385.112	105.12
385.337	96.12
385.562	101.12
385.787	108.12
386.013	108.12
386.238	111.12
386.463	107.12
386.688	111.12
386.913	109.12
387.138	102.12
387.363	113.12
387.588	104.12
387.813	97.12
388.038	93.12
388.263	100.12
388.488	105.12
388.713	103.12
388.938	85.12
389.163	97.12
389.387	93.12
389.612	96.12
389.837	107.12
390.062	101.12
390.287	83.12
390.512	89.12
390.736	92.12
390.961	90.12
391.186	83.12
391.411	101.12
391.636	90.12
391.86	101.12
392.085	100.12
392.31	90.12
392.534	99.12
392.759	84.12
392.984	97.12
393.208	89.12
393.433	81.12
393.658	97.12
393.882	96.12
394.107	92.12
394.331	95.12
394.556	76.12
394.78	108.12
395.005	95.12
395.229	80.12
395.454	77.12
395.678	79.12
395.903	85.12
396.127	87.12
396.352	85.12
396.576	94.12
396.801	78.12
397.025	78.12
397.249	95.12
397.474	83.12
397.698	96.12
397.922	95.12
398.147	102.12
398.371	91.12
398.595	80.12
398.82	83.12
399.044	88.12
399.268	96.12
399.492	94.12
399.717	91.12
399.941	93.12
400.165	105.12
400.389	92.12
400.613	76.12
400.837	83.12
401.062	86.12
401.286	101.12
401.51	86.12
401.734	95.12
401.958	94.12
402.182	144.12
402.406	179.12
402.63	118.12
402.854	79.12
403.078	102.12
403.302	72.12
403.526	98.12
403.75	80.12
403.974	102.12
404.198	91.12
404.422	84.12
404.645	93.12
404.869	86.12
405.093	105.12
405.317	108.12
405.541	107.12
405.765	112.12
405.988	129.12
406.212	200.12
406.436	268.12
406.66	161.12
406.883	102.12
407.107	92.12
407.331	97.12
407.555	100.12
407.778	106.12
408.002	106.12
408.226	77.12
408.449	91.12
408.673	87.12
408.896	81.12
409.12	99.12
409.344	87.12
409.567	92.12
409.791	90.12
410.014	103.12
410.238	86.12
410.461	100.12
410.685	106.12
410.908	104.12
411.132	104.12
411.355	109.12
411.578	90.12
411.802	82.12
412.025	97.12
412.249	77.12
412.472	99.12
412.695	94.12
412.919	99.12
413.142	120.12
413.365	95.12
413.589	94.12
413.812	79.12
414.035	89.12
414.258	92.12
414.482	83.12
414.705	92.12
414.928	87.12
415.151	101.12
415.374	101.12
415.597	87.12
415.821	96.12
416.044	84.12
416.267	73.12
416.49	92.12
416.713	84.12
416.936	79.12
417.159	81.12
417.382	100.12
417.605	91.12
417.828	81.12
418.051	98.12
418.274	94.12
418.497	89.12
418.72	84.12
418.943	92.12
419.166	84.12
419.389	84.12
419.611	89.12
419.834	81.12
420.057	88.12
420.28	90.12
420.503	87.12
420.726	80.12
420.948	80.12
421.171	75.12
421.394	94.12
421.617	92.12
421.839	78.12
422.062	105.12
422.285	88.12
422.507	96.12
422.73	95.12
422.953	90.12
423.175	89.12
423.398	103.12
423.621	85.12
423.843	87.12
424.066	87.12
424.288	83.12
424.511	101.12
424.733	103.12
424.956	112.12
425.178	105.12
425.401	102.12
425.623	96.12
425.846	101.12
426.068	92.12
426.291	99.12
426.513	96.12
426.735	102.12
426.958	98.12
427.18	104.12
427.402	143.12
427.625	179.12
427.847	140.12
428.069	133.12
428.292	98.12
428.514	97.12
428.736	79.12
428.958	90.12
429.181	92.12
429.403	75.12
429.625	97.12
429.847	105.12
430.069	87.12
430.292	90.12
430.514	96.12
430.736	90.12
430.958	80.12
431.18	96.12
431.402	80.12
431.624	73.12
431.846	83.12
432.068	95.12
432.29	87.12
432.512	87.12
432.734	88.12
432.956	98.12
433.178	84.12
433.4	97.12
433.622	73.12
433.844	97.12
434.066	88.12
434.287	96.12
434.509	93.12
434.731	88.12
434.953	81.12
435.175	77.12
435.397	91.12
435.618	93.12
435.84	102.12
436.062	129.12
436.284	105.12
436.505	98.12
436.727	98.12
436.949	87.12
437.17	98.12
437.392	86.12
437.614	104.12
437.835	128.12
438.057	139.12
438.278	115.12
438.5	103.12
438.721	109.12
438.943	100.12
439.165	82.12
439.386	99.12
439.608	96.12
439.829	100.12
440.05	116.12
440.272	166.12
440.493	100.12
440.715	88.12
440.936	91.12
441.158	68.12
441.379	96.12
441.6	102.12
441.822	96.12
442.043	102.12
442.264	105.12
442.486	110.12
442.707	105.12
442.928	92.12
443.149	132.12
443.371	143.12
443.592	123.12
443.813	111.12
444.034	122.12
444.255	99.12
444.476	75.12
444.698	93.12
444.919	89.12
445.14	138.12
445.361	134.12
445.582	128.12
445.803	155.12
446.024	145.12
446.245	129.12
446.466	101.12
446.687	92.12
446.908	96.12
447.129	91.12
447.35	92.12
447.571	96.12
447.792	106.12
448.013	105.12
448.234	117.12
448.455	101.12
448.675	107.12
448.896	119.12
449.117	102.12
449.338	99.12
449.559	127.12
449.779	128.12
450	94.12
450.221	100.12
450.442	86.12
450.662	98.12
450.883	117.12
451.104	101.12
451.324	101.12
451.545	89.12
451.766	85.12
451.986	86.12
452.207	93.12
452.428	95.12
452.648	86.12
452.869	116.12
453.089	121.12
453.31	132.12
453.53	97.12
453.751	96.12
453.971	88.12
454.192	109.12
454.412	91.12
454.633	80.12
454.853	87.12
455.073	92.12
455.294	83.12
455.514	107.12
455.734	77.12
455.955	75.12
456.175	90.12
456.395	81.12
456.616	77.12
456.836	71.12
457.056	90.12
457.276	81.12
457.497	88.12
457.717	80.12
457.937	84.12
458.157	77.12
458.377	97.12
458.598	117.12
458.818	163.12
459.038	188.12
459.258	126.12
459.478	85.12
459.698	89.12
459.918	90.12
460.138	81.12
460.358	78.12
460.578	92.12
460.798	96.12
461.018	84.12
461.238	89.12
461.458	91.12
461.678	88.12
461.898	91.12
462.118	85.12
462.338	87.12
462.558	96.12
462.777	95.12
462.997	87.12
463.217	91.12
463.437	87.12
463.657	90.12
463.876	79.12
464.096	96.12
464.316	88.12
464.536	100.12
464.755	97.12
464.975	112.12
465.195	184.12
465.414	170.12
465.634	105.12
465.854	88.12
466.073	82.12
466.293	89.12
466.512	91.12
466.732	95.12
466.951	86.12
467.171	99.12
467.391	99.12
467.61	107.12
467.829	101.12
468.049	100.12
468.268	128.12
468.488	91.12
468.707	82.12
468.927	79.12
469.146	80.12
469.365	81.12
469.585	89.12
469.804	103.12
470.023	104.12
470.243	103.12
470.462	104.12
470.681	106.12
470.901	103.12
471.12	91.12
471.339	84.12
471.558	81.12
471.777	84.12
471.997	99.12
472.216	127.12
472.435	171.12
472.654	100.12
472.873	89.12
473.092	83.12
473.311	79.12
473.53	89.12
473.749	92.12
473.968	83.12
474.187	102.12
474.406	88.12
474.625	81.12
474.844	83.12
475.063	78.12
475.282	77.12
475.501	96.12
475.72	71.12
475.939	80.12
476.158	83.12
476.377	77.12
476.596	72.12
476.814	78.12
477.033	86.12
477.252	80.12
477.471	89.12
477.69	74.12
477.908	87.12
478.127	80.12
478.346	79.12
478.564	70.12
478.783	95.12
479.002	100.12
479.22	90.12
479.439	107.12
479.658	124.12
479.876	83.12
480.095	76.12
480.313	75.12
480.532	79.12
480.751	99.12
480.969	129.12
481.188	223.12
481.406	184.12
481.624	103.12
481.843	98.12
482.061	102.12
482.28	93.12
482.498	93.12
482.717	92.12
482.935	101.12
483.153	102.12
483.372	90.12
483.59	88.12
483.808	82.12
484.027	77.12
484.245	81.12
484.463	106.12
484.681	103.12
484.9	102.12
485.118	100.12
485.336	79.12
485.554	99.12
485.772	85.12
485.99	99.12
486.209	105.12
486.427	91.12
486.645	117.12
486.863	129.12
487.081	96.12
487.299	87.12
487.517	96.12
487.735	79.12
487.953	92.12
488.171	92.12
488.389	100.12
488.607	108.12
488.825	92.12
489.043	84.12
489.261	95.12
489.479	105.12
489.696	82.12
489.914	87.12
490.132	96.12
490.35	99.12
490.568	93.12
490.786	82.12
491.003	92.12
491.221	85.12
491.439	97.12
491.657	89.12
491.874	91.12
492.092	81.12
492.31	99.12
492.527	102.12
492.745	101.12
492.963	94.12
493.18	90.12
493.398	84.12
493.615	100.12
493.833	92.12
494.05	76.12
494.268	98.12
494.485	81.12
494.703	89.12
494.92	87.12
495.138	92.12
495.355	88.12
495.573	88.12
495.79	89.12
496.008	91.12
496.225	95.12
496.442	97.12
496.66	95.12
496.877	100.12
497.094	72.12
497.312	73.12
497.529	93.12
497.746	88.12
497.963	84.12
498.181	96.12
498.398	96.12
498.615	105.12
498.832	102.12
499.049	71.12
499.267	97.12
499.484	98.12
499.701	91.12
499.918	92.12
500.135	76.12
500.352	91.12
500.569	102.12
500.786	91.12
501.003	105.12
501.22	82.12
501.437	102.12
501.654	103.12
501.871	108.12
502.088	101.12
502.305	86.12
502.522	95.12
502.739	86.12
502.956	98.12
503.172	92.12
503.389	101.12
503.606	110.12
503.823	94.12
504.04	86.12
504.256	78.12
504.473	95.12
504.69	84.12
504.907	99.12
505.123	88.12
505.34	87.12
505.557	84.12
505.773	90.12
505.99	87.12
506.207	79.12
506.423	92.12
506.64	97.12
506.856	91.12
507.073	92.12
507.289	88.12
507.506	89.12
507.722	125.12
507.939	140.12
508.155	87.12
508.372	100.12
508.588	93.12
508.805	97.12
509.021	94.12
509.238	83.12
509.454	100.12
509.67	95.12
509.887	113.12
510.103	135.12
510.319	234.12
510.536	931.12
510.752	3157.12
510.968	887.12
511.184	170.12
511.401	133.12
511.617	101.12
511.833	83.12
512.049	101.12
512.265	87.12
512.481	99.12
512.698	89.12
512.914	96.12
513.13	88.12
513.346	96.12
513.562	98.12
513.778	99.12
513.994	103.12
514.21	108.12
514.426	121.12
514.642	152.12
514.858	137.12
515.074	190.12
515.29	579.12
515.506	2086.12
515.721	774.12
515.937	204.12
516.153	124.12
516.369	94.12
516.585	87.12
516.801	116.12
517.016	95.12
517.232	88.12
517.448	85.12
517.664	86.12
517.879	96.12
518.095	97.12
518.311	97.12
518.527	93.12
518.742	97.12
518.958	100.12
519.173	94.12
519.389	83.12
519.605	97.12
519.82	108.12
520.036	107.12
520.251	140.12
520.467	119.12
520.682	103.12
520.898	107.12
521.113	103.12
521.329	162.12
521.544	243.12
521.76	722.12
521.975	3372.12
522.19	2075.12
522.406	399.12
522.621	147.12
522.836	102.12
523.052	101.12
523.267	106.12
523.482	92.12
523.698	97.12
523.913	139.12
524.128	121.12
524.343	97.12
524.559	92.12
524.774	85.12
524.989	95.12
525.204	92.12
525.419	105.12
525.634	83.12
525.849	84.12
526.064	88.12
526.28	89.12
526.495	82.12
526.71	99.12
526.925	91.12
527.14	83.12
527.355	100.12
527.57	93.12
527.785	99.12
527.999	87.12
528.214	101.12
528.429	95.12
528.644	96.12
528.859	97.12
529.074	102.12
529.289	147.12
529.503	226.12
529.718	108.12
529.933	95.12
530.148	82.12
530.363	78.12
530.577	90.12
530.792	86.12
531.007	84.12
531.221	111.12
531.436	90.12
531.651	97.12
531.865	91.12
532.08	78.12
532.295	95.12
532.509	100.12
532.724	89.12
532.938	93.12
533.153	104.12
533.367	103.12
533.582	104.12
533.796	93.12
534.011	78.12
534.225	103.12
534.44	88.12
534.654	95.12
534.868	85.12
535.083	88.12
535.297	97.12
535.511	103.12
535.726	98.12
535.94	102.12
536.154	99.12
536.369	86.12
536.583	80.12
536.797	99.12
537.011	90.12
537.225	86.12
537.44	88.12
537.654	93.12
537.868	86.12
538.082	95.12
538.296	89.12
538.51	90.12
538.724	71.12
538.938	100.12
539.153	97.12
539.367	119.12
539.581	96.12
539.795	102.12
540.009	82.12
540.222	87.12
540.436	90.12
540.65	95.12
540.864	84.12
541.078	101.12
541.292	93.12
541.506	89.12
541.72	98.12
541.934	87.12
542.147	99.12
542.361	94.12
542.575	92.12
542.789	87.12
543.002	84.12
543.216	96.12
543.43	112.12
543.644	97.12
543.857	95.12
544.071	90.12
544.285	84.12
544.498	88.12
544.712	78.12
544.925	98.12
545.139	75.12
545.352	86.12
545.566	84.12
545.779	87.12
545.993	84.12
546.206	92.12
546.42	98.12
546.633	103.12
546.847	90.12
547.06	80.12
547.274	95.12
547.487	73.12
547.7	98.12
547.914	92.12
548.127	97.12
548.34	90.12
548.554	85.12
548.767	99.12
548.98	99.12
549.193	87.12
549.407	78.12
549.62	94.12
549.833	94.12
550.046	83.12
550.259	79.12
550.473	80.12
550.686	99.12
550.899	98.12
551.112	94.12
551.325	87.12
551.538	91.12
551.751	92.12
551.964	99.12
552.177	103.12
552.39	92.12
552.603	95.12
552.816	90.12
553.029	88.12
553.242	102.12
553.455	105.12
553.667	117.12
553.88	92.12
554.093	87.12
554.306	95.12
554.519	77.12
554.732	92.12
554.944	80.12
555.157	92.12
555.37	86.12
555.583	89.12
555.795	94.12
556.008	99.12
556.221	95.12
556.433	77.12
556.646	77.12
556.859	105.12
557.071	91.12
557.284	109.12
557.496	103.12
557.709	80.12
557.921	81.12
558.134	82.12
558.346	82.12
558.559	81.12
558.771	89.12
558.984	99.12
559.196	89.12
559.409	92.12
559.621	83.12
559.833	89.12
560.046	77.12
560.258	98.12
560.47	93.12
560.683	94.12
560.895	91.12
561.107	77.12
561.32	91.12
561.532	72.12
561.744	98.12
561.956	109.12
562.168	107.12
562.381	107.12
562.593	98.12
562.805	90.12
563.017	89.12
563.229	79.12
563.441	84.12
563.653	89.12
563.865	98.12
564.077	92.12
564.289	105.12
564.501	85.12
564.713	99.12
564.925	102.12
565.137	111.12
565.349	94.12
565.561	80.12
565.773	81.12
565.985	87.12
566.197	90.12
566.408	82.12
566.62	86.12
566.832	93.12
567.044	89.12
567.255	88.12
567.467	99.12
567.679	106.12
567.891	92.12
568.102	84.12
568.314	77.12
568.526	95.12
568.737	94.12
568.949	82.12
569.161	89.12
569.372	99.12
569.584	88.12
569.795	91.12
570.007	114.12
570.218	291.12
570.43	167.12
570.641	96.12
570.853	99.12
571.064	75.12
571.276	92.12
571.487	97.12
571.698	83.12
571.91	85.12
572.121	91.12
572.333	113.12
572.544	92.12
572.755	90.12
572.966	87.12
573.178	97.12
573.389	92.12
573.6	77.12
573.811	71.12
574.023	101.12
574.234	74.12
574.445	87.12
574.656	80.12
574.867	88.12
575.078	88.12
575.289	98.12
575.501	101.12
575.712	92.12
575.923	95.12
576.134	103.12
576.345	90.12
576.556	91.12
576.767	101.12
576.978	84.12
577.188	101.12
577.399	86.12
577.61	89.12
577.821	95.12
578.032	136.12
578.243	309.12
578.454	1005.12
578.665	266.12
578.875	104.12
579.086	90.12
579.297	107.12
579.508	97.12
579.718	94.12
579.929	103.12
580.14	72.12
580.35	85.12
580.561	88.12
580.772	84.12
580.982	92.12
581.193	84.12
581.403	83.12
581.614	86.12
581.825	89.12
582.035	76.12
582.246	92.12
582.456	97.12
582.667	74.12
582.877	82.12
583.087	85.12
583.298	89.12
583.508	83.12
583.719	88.12
583.929	95.12
584.139	83.12
584.35	86.12
584.56	93.12
584.77	89.12
584.981	91.12
585.191	83.12
585.401	89.12
585.611	83.12
585.821	85.12
586.032	88.12
586.242	85.12
586.452	92.12
586.662	85.12
586.872	94.12
587.082	95.12
587.292	77.12
587.502	80.12
587.713	76.12
587.923	88.12
588.133	89.12
588.343	82.12
588.553	88.12
588.762	88.12
588.972	90.12
589.182	101.12
589.392	92.12
589.602	88.12
589.812	94.12
590.022	91.12
590.232	97.12
590.441	79.12
590.651	88.12
590.861	90.12
591.071	97.12
591.281	90.12
591.49	97.12
591.7	89.12
591.91	82.12
592.119	108.12
592.329	90.12
592.539	102.12
592.748	87.12
592.958	88.12
593.167	83.12
593.377	86.12
593.587	96.12
593.796	93.12
594.006	77.12
594.215	87.12
594.424	75.12
594.634	87.12
594.843	75.12
595.053	95.12
595.262	90.12
595.472	88.12
595.681	88.12
595.89	87.12
596.1	81.12
596.309	76.12
596.518	93.12
596.727	89.12
596.937	88.12
597.146	91.12
597.355	96.12
597.564	81.12
597.774	78.12
597.983	79.12
598.192	89.12
598.401	98.12
598.61	102.12
598.819	82.12
599.028	79.12
599.237	81.12
599.446	95.12
599.655	94.12
599.864	86.12
600.073	91.12
600.282	88.12
600.491	77.12
600.7	84.12
600.909	85.12
601.118	77.12
601.327	87.12
601.536	91.12
601.745	86.12
601.953	89.12
602.162	91.12
602.371	82.12
602.58	85.12
602.789	89.12
602.997	85.12
603.206	76.12
603.415	87.12
603.623	83.12
603.832	85.12
604.041	76.12
604.249	98.12
604.458	89.12
604.666	84.12
604.875	84.12
605.084	88.12
605.292	80.12
605.501	76.12
605.709	95.12
605.918	81.12
606.126	93.12
606.334	88.12
606.543	68.12
606.751	80.12
606.96	69.12
607.168	80.12
607.376	91.12
607.585	87.12
607.793	86.12
608.001	82.12
608.21	99.12
608.418	94.12
608.626	74.12
608.834	78.12
609.043	80.12
609.251	85.12
609.459	83.12
609.667	87.12
609.875	80.12
610.083	91.12
610.291	86.12
610.499	91.12
610.707	84.12
610.916	99.12
611.124	87.12
611.332	88.12
611.54	90.12
611.748	86.12
611.955	83.12
612.163	77.12
612.371	85.12
612.579	78.12
612.787	88.12
612.995	81.12
613.203	88.12
613.411	95.12
613.618	74.12
613.826	84.12
614.034	81.12
614.242	89.12
614.449	81.12
614.657	105.12
614.865	80.12
615.072	85.12
615.28	77.12
615.488	85.12
615.695	87.12
615.903	106.12
616.111	95.12
616.318	104.12
616.526	112.12
616.733	93.12
616.941	93.12
617.148	91.12
617.356	100.12
617.563	95.12
617.771	91.12
617.978	89.12
618.185	92.12
618.393	88.12
618.6	93.12
618.807	82.12
619.015	78.12
619.222	88.12
619.429	81.12
619.637	93.12
619.844	94.12
620.051	77.12
620.258	81.12
620.466	90.12
620.673	79.12
620.88	82.12
621.087	74.12
621.294	79.12
621.501	83.12
621.708	93.12
621.915	85.12
622.122	83.12
622.329	83.12
622.536	97.12
622.743	67.12
622.95	93.12
623.157	89.12
623.364	80.12
623.571	82.12
623.778	86.12
623.985	80.12
624.192	82.12
624.399	83.12
624.606	78.12
624.812	86.12
625.019	90.12
625.226	92.12
625.433	86.12
625.639	74.12
625.846	85.12
626.053	91.12
626.259	92.12
626.466	95.12
626.673	80.12
626.879	102.12
627.086	84.12
627.293	75.12
627.499	84.12
627.706	91.12
627.912	73.12
628.119	64.12
628.325	90.12
628.532	85.12
628.738	80.12
628.945	81.12
629.151	87.12
629.357	74.12
629.564	72.12
629.77	84.12
629.976	102.12
630.183	94.12
630.389	82.12
630.595	88.12
630.802	70.12
631.008	92.12
631.214	84.12
631.42	92.12
631.627	91.12
631.833	89.12
632.039	86.12
632.245	84.12
632.451	81.12
632.657	84.12
632.863	78.12
633.069	84.12
633.275	76.12
633.481	92.12
633.688	97.12
633.893	81.12
634.099	75.12
634.305	75.12
634.511	76.12
634.717	74.12
634.923	74.12
635.129	78.12
635.335	92.12
635.541	80.12
635.747	91.12
635.952	78.12
636.158	71.12
636.364	94.12
636.57	93.12
636.775	77.12
636.981	83.12
637.187	85.12
637.392	81.12
637.598	85.12
637.804	91.12
638.009	82.12
638.215	98.12
638.421	80.12
638.626	85.12
638.832	93.12
639.037	95.12
639.243	92.12
639.448	86.12
639.654	99.12
639.859	91.12
640.065	97.12
640.27	102.12
640.475	81.12
640.681	73.12
640.886	91.12
641.091	96.12
641.297	97.12
641.502	86.12
641.707	73.12
641.913	96.12
642.118	72.12
642.323	83.12
642.528	98.12
642.733	84.12
642.939	93.12
643.144	81.12
643.349	90.12
643.554	88.12
643.759	83.12
643.964	74.12
644.169	90.12
644.374	78.12
644.579	81.12
644.784	84.12
644.989	86.12
645.194	81.12
645.399	90.12
645.604	78.12
645.809	101.12
646.014	90.12
646.219	93.12
646.423	85.12
646.628	94.12
646.833	83.12
647.038	85.12
647.243	60.12
647.447	90.12
647.652	99.12
647.857	80.12
648.062	67.12
648.266	81.12
648.471	89.12
648.676	104.12
648.88	91.12
649.085	88.12
649.289	99.12
649.494	105.12
649.698	138.12
649.903	100.12
650.107	85.12
650.312	84.12
650.516	71.12
650.721	88.12
650.925	73.12
651.13	93.12
651.334	81.12
651.539	93.12
651.743	67.12
651.947	81.12
652.152	75.12
652.356	65.12
652.56	85.12
652.764	85.12
652.969	80.12
653.173	73.12
653.377	75.12
653.581	83.12
653.785	77.12
653.99	99.12
654.194	84.12
654.398	83.12
654.602	87.12
654.806	92.12
655.01	94.12
655.214	69.12
655.418	103.12
655.622	74.12
655.826	96.12
656.03	82.12
656.234	82.12
656.438	84.12
656.642	101.12
656.846	91.12
657.049	82.12
657.253	95.12
657.457	81.12
657.661	89.12
657.865	81.12
658.068	85.12
658.272	83.12
658.476	69.12
658.68	81.12
658.883	82.12
659.087	86.12
659.291	72.12
659.494	81.12
659.698	75.12
659.901	77.12
660.105	86.12
660.309	88.12
660.512	60.12
660.716	84.12
660.919	82.12
661.123	73.12
661.326	81.12
661.53	81.12
661.733	90.12
661.936	88.12
662.14	74.12
662.343	102.12
662.546	81.12
662.75	87.12
662.953	72.12
663.156	65.12
663.36	69.12
663.563	83.12
663.766	85.12
663.969	87.12
664.173	80.12
664.376	80.12
664.579	77.12
664.782	84.12
664.985	80.12
665.188	90.12
665.391	88.12
665.594	65.12
665.797	80.12
666	90.12
666.203	83.12
666.406	82.12
666.609	82.12
666.812	69.12
667.015	84.12
667.218	88.12
667.421	80.12
667.624	81.12
667.827	97.12
668.03	70.12
668.232	88.12
668.435	91.12
668.638	98.12
668.841	87.12
669.043	83.12
669.246	81.12
669.449	87.12
669.651	75.12
669.854	76.12
670.057	88.12
670.259	62.12
670.462	93.12
670.665	78.12
670.867	80.12
671.07	76.12
671.272	79.12
671.475	87.12
671.677	73.12
671.88	86.12
672.082	74.12
672.284	75.12
672.487	73.12
672.689	75.12
672.892	64.12
