Data from Circ_2018_H10_HRD10591_00098.txt Node
Date: Wed Jan 03 09:56:21 EST 2024
User: Yrep
Spectrometer: HR+D1059
Trigger mode: 1
Integration Time (sec): 1.000000E-1
Scans to average: 1
Electric dark correction enabled: true
Nonlinearity correction enabled: false
Boxcar width: 0
XAxis mode: Wavelengths
Number of Pixels in Spectrum: 2048
>>>>>Begin Spectral Data<<<<<
223.165	-16.94
223.4	-16.94
223.635	-16.94
223.869	-19.94
224.104	-28.94
224.338	-24.94
224.573	-25.94
224.808	-12.94
225.042	-3.94
225.277	-0.94
225.511	15.06
225.746	1.06
225.98	2.06
226.215	10.06
226.449	17.06
226.683	16.06
226.918	38.06
227.152	35.06
227.387	34.06
227.621	30.06
227.856	43.06
228.09	37.06
228.324	48.06
228.559	59.06
228.793	51.06
229.027	51.06
229.262	58.06
229.496	66.06
229.73	86.06
229.964	72.06
230.199	68.06
230.433	95.06
230.667	84.06
230.901	59.06
231.136	73.06
231.37	66.06
231.604	81.06
231.838	77.06
232.072	89.06
232.306	78.06
232.541	86.06
232.775	73.06
233.009	78.06
233.243	77.06
233.477	72.06
233.711	62.06
233.945	77.06
234.179	68.06
234.413	63.06
234.647	78.06
234.881	70.06
235.115	63.06
235.349	70.06
235.583	91.06
235.817	78.06
236.051	72.06
236.285	62.06
236.519	70.06
236.753	74.06
236.987	71.06
237.221	77.06
237.455	81.06
237.689	66.06
237.922	65.06
238.156	72.06
238.39	65.06
238.624	64.06
238.858	74.06
239.091	57.06
239.325	79.06
239.559	66.06
239.793	80.06
240.027	85.06
240.26	77.06
240.494	68.06
240.728	69.06
240.961	59.06
241.195	82.06
241.429	84.06
241.662	61.06
241.896	64.06
242.13	75.06
242.363	65.06
242.597	71.06
242.83	74.06
243.064	86.06
243.298	71.06
243.531	71.06
243.765	72.06
243.998	75.06
244.232	85.06
244.465	83.06
244.699	80.06
244.932	76.06
245.166	79.06
245.399	89.06
245.633	77.06
245.866	76.06
246.099	69.06
246.333	71.06
246.566	73.06
246.8	79.06
247.033	81.06
247.266	81.06
247.5	74.06
247.733	79.06
247.966	75.06
248.2	84.06
248.433	75.06
248.666	85.06
248.899	75.06
249.133	89.06
249.366	92.06
249.599	94.06
249.832	80.06
250.066	78.06
250.299	78.06
250.532	76.06
250.765	89.06
250.998	86.06
251.231	71.06
251.465	80.06
251.698	68.06
251.931	71.06
252.164	75.06
252.397	68.06
252.63	77.06
252.863	81.06
253.096	62.06
253.329	78.06
253.562	80.06
253.795	73.06
254.028	80.06
254.261	74.06
254.494	73.06
254.727	77.06
254.96	73.06
255.193	74.06
255.426	75.06
255.659	80.06
255.892	75.06
256.124	87.06
256.357	72.06
256.59	73.06
256.823	90.06
257.056	73.06
257.289	70.06
257.521	84.06
257.754	80.06
257.987	77.06
258.22	72.06
258.452	69.06
258.685	79.06
258.918	79.06
259.151	83.06
259.383	77.06
259.616	76.06
259.849	74.06
260.081	72.06
260.314	71.06
260.547	71.06
260.779	78.06
261.012	73.06
261.244	100.06
261.477	90.06
261.71	105.06
261.942	111.06
262.175	121.06
262.407	88.06
262.64	80.06
262.872	82.06
263.105	86.06
263.337	88.06
263.57	80.06
263.802	92.06
264.035	82.06
264.267	72.06
264.499	72.06
264.732	81.06
264.964	76.06
265.197	77.06
265.429	83.06
265.661	65.06
265.894	69.06
266.126	82.06
266.358	82.06
266.591	88.06
266.823	76.06
267.055	76.06
267.287	90.06
267.52	78.06
267.752	83.06
267.984	85.06
268.216	74.06
268.448	68.06
268.681	80.06
268.913	72.06
269.145	61.06
269.377	81.06
269.609	71.06
269.841	82.06
270.073	85.06
270.306	85.06
270.538	83.06
270.77	82.06
271.002	86.06
271.234	100.06
271.466	78.06
271.698	79.06
271.93	87.06
272.162	82.06
272.394	86.06
272.626	91.06
272.858	99.06
273.09	87.06
273.322	87.06
273.553	79.06
273.785	84.06
274.017	73.06
274.249	72.06
274.481	80.06
274.713	77.06
274.945	90.06
275.176	86.06
275.408	75.06
275.64	81.06
275.872	83.06
276.104	95.06
276.335	80.06
276.567	86.06
276.799	99.06
277.031	96.06
277.262	97.06
277.494	71.06
277.726	87.06
277.957	97.06
278.189	83.06
278.421	67.06
278.652	89.06
278.884	96.06
279.115	89.06
279.347	82.06
279.579	82.06
279.81	74.06
280.042	72.06
280.273	94.06
280.505	74.06
280.736	82.06
280.968	104.06
281.199	81.06
281.431	89.06
281.662	92.06
281.894	96.06
282.125	89.06
282.356	103.06
282.588	130.06
282.819	97.06
283.051	82.06
283.282	70.06
283.513	83.06
283.745	84.06
283.976	82.06
284.207	84.06
284.439	79.06
284.67	88.06
284.901	83.06
285.132	92.06
285.364	79.06
285.595	94.06
285.826	76.06
286.057	94.06
286.288	87.06
286.52	89.06
286.751	74.06
286.982	78.06
287.213	98.06
287.444	84.06
287.675	74.06
287.906	101.06
288.138	78.06
288.369	83.06
288.6	92.06
288.831	89.06
289.062	89.06
289.293	83.06
289.524	80.06
289.755	97.06
289.986	79.06
290.217	74.06
290.448	94.06
290.679	73.06
290.91	80.06
291.141	79.06
291.371	88.06
291.602	85.06
291.833	84.06
292.064	92.06
292.295	85.06
292.526	92.06
292.757	93.06
292.987	88.06
293.218	81.06
293.449	77.06
293.68	84.06
293.91	93.06
294.141	91.06
294.372	89.06
294.603	94.06
294.833	91.06
295.064	79.06
295.295	84.06
295.525	103.06
295.756	92.06
295.987	102.06
296.217	141.06
296.448	128.06
296.679	108.06
296.909	81.06
297.14	90.06
297.37	90.06
297.601	95.06
297.831	97.06
298.062	89.06
298.292	90.06
298.523	82.06
298.753	93.06
298.984	90.06
299.214	82.06
299.445	88.06
299.675	86.06
299.905	85.06
300.136	79.06
300.366	90.06
300.597	82.06
300.827	104.06
301.057	96.06
301.288	104.06
301.518	96.06
301.748	93.06
301.979	98.06
302.209	103.06
302.439	87.06
302.669	95.06
302.9	79.06
303.13	90.06
303.36	104.06
303.59	90.06
303.82	115.06
304.051	91.06
304.281	82.06
304.511	97.06
304.741	87.06
304.971	94.06
305.201	86.06
305.431	80.06
305.661	93.06
305.891	84.06
306.121	95.06
306.352	111.06
306.582	101.06
306.812	87.06
307.042	89.06
307.272	78.06
307.502	103.06
307.731	102.06
307.961	84.06
308.191	73.06
308.421	92.06
308.651	96.06
308.881	103.06
309.111	93.06
309.341	95.06
309.571	103.06
309.8	82.06
310.03	79.06
310.26	89.06
310.49	93.06
310.72	109.06
310.949	100.06
311.179	112.06
311.409	82.06
311.639	97.06
311.868	93.06
312.098	101.06
312.328	85.06
312.557	95.06
312.787	114.06
313.017	88.06
313.246	79.06
313.476	94.06
313.706	96.06
313.935	97.06
314.165	90.06
314.394	98.06
314.624	86.06
314.853	100.06
315.083	89.06
315.312	105.06
315.542	95.06
315.771	101.06
316.001	108.06
316.23	73.06
316.46	79.06
316.689	83.06
316.919	100.06
317.148	97.06
317.377	112.06
317.607	86.06
317.836	89.06
318.065	98.06
318.295	88.06
318.524	92.06
318.753	76.06
318.983	92.06
319.212	108.06
319.441	106.06
319.67	92.06
319.9	85.06
320.129	89.06
320.358	79.06
320.587	92.06
320.816	100.06
321.046	88.06
321.275	104.06
321.504	95.06
321.733	96.06
321.962	85.06
322.191	95.06
322.42	110.06
322.649	104.06
322.878	98.06
323.108	123.06
323.337	140.06
323.566	131.06
323.795	155.06
324.024	197.06
324.253	419.06
324.482	901.06
324.71	1827.06
324.939	2358.06
325.168	868.06
325.397	255.06
325.626	139.06
325.855	132.06
326.084	129.06
326.313	128.06
326.542	151.06
326.77	237.06
326.999	466.06
327.228	991.06
327.457	1773.06
327.686	1377.06
327.914	396.06
328.143	204.06
328.372	161.06
328.6	137.06
328.829	111.06
329.058	137.06
329.287	130.06
329.515	116.06
329.744	87.06
329.972	127.06
330.201	137.06
330.43	161.06
330.658	147.06
330.887	154.06
331.115	127.06
331.344	88.06
331.572	90.06
331.801	92.06
332.03	100.06
332.258	92.06
332.486	102.06
332.715	86.06
332.943	108.06
333.172	109.06
333.4	90.06
333.629	116.06
333.857	120.06
334.085	128.06
334.314	141.06
334.542	175.06
334.771	167.06
334.999	113.06
335.227	100.06
335.455	95.06
335.684	90.06
335.912	102.06
336.14	93.06
336.369	94.06
336.597	112.06
336.825	97.06
337.053	102.06
337.281	86.06
337.51	82.06
337.738	96.06
337.966	108.06
338.194	109.06
338.422	105.06
338.65	95.06
338.878	102.06
339.106	82.06
339.334	87.06
339.562	91.06
339.79	80.06
340.018	83.06
340.246	87.06
340.474	103.06
340.702	87.06
340.93	88.06
341.158	103.06
341.386	109.06
341.614	103.06
341.842	87.06
342.07	92.06
342.298	101.06
342.526	99.06
342.754	100.06
342.981	78.06
343.209	86.06
343.437	110.06
343.665	98.06
343.893	98.06
344.12	88.06
344.348	80.06
344.576	81.06
344.804	97.06
345.031	96.06
345.259	88.06
345.487	89.06
345.714	90.06
345.942	90.06
346.17	92.06
346.397	89.06
346.625	96.06
346.853	101.06
347.08	108.06
347.308	93.06
347.535	105.06
347.763	96.06
347.99	97.06
348.218	108.06
348.445	106.06
348.673	101.06
348.9	102.06
349.128	87.06
349.355	87.06
349.583	83.06
349.81	87.06
350.037	93.06
350.265	83.06
350.492	84.06
350.72	101.06
350.947	105.06
351.174	102.06
351.402	97.06
351.629	97.06
351.856	104.06
352.083	107.06
352.311	97.06
352.538	113.06
352.765	101.06
352.992	126.06
353.22	119.06
353.447	99.06
353.674	92.06
353.901	89.06
354.128	104.06
354.355	94.06
354.583	91.06
354.81	109.06
355.037	76.06
355.264	109.06
355.491	95.06
355.718	92.06
355.945	90.06
356.172	94.06
356.399	79.06
356.626	97.06
356.853	86.06
357.08	88.06
357.307	86.06
357.534	84.06
357.761	93.06
357.988	100.06
358.215	82.06
358.441	88.06
358.668	90.06
358.895	87.06
359.122	71.06
359.349	80.06
359.576	95.06
359.802	99.06
360.029	122.06
360.256	110.06
360.483	96.06
360.709	89.06
360.936	90.06
361.163	85.06
361.39	99.06
361.616	95.06
361.843	84.06
362.07	86.06
362.296	99.06
362.523	81.06
362.749	85.06
362.976	86.06
363.203	103.06
363.429	79.06
363.656	90.06
363.882	86.06
364.109	91.06
364.335	90.06
364.562	97.06
364.788	85.06
365.015	90.06
365.241	89.06
365.468	108.06
365.694	92.06
365.92	89.06
366.147	93.06
366.373	84.06
366.599	92.06
366.826	80.06
367.052	89.06
367.278	95.06
367.505	79.06
367.731	98.06
367.957	83.06
368.184	80.06
368.41	95.06
368.636	120.06
368.862	122.06
369.089	87.06
369.315	100.06
369.541	91.06
369.767	92.06
369.993	81.06
370.219	91.06
370.445	77.06
370.672	87.06
370.898	86.06
371.124	95.06
371.35	89.06
371.576	84.06
371.802	82.06
372.028	76.06
372.254	87.06
372.48	97.06
372.706	70.06
372.932	76.06
373.158	90.06
373.384	89.06
373.61	87.06
373.835	85.06
374.061	85.06
374.287	93.06
374.513	99.06
374.739	92.06
374.965	78.06
375.191	81.06
375.416	97.06
375.642	92.06
375.868	71.06
376.094	78.06
376.319	82.06
376.545	95.06
376.771	100.06
376.997	93.06
377.222	84.06
377.448	99.06
377.674	81.06
377.899	92.06
378.125	80.06
378.35	78.06
378.576	93.06
378.802	94.06
379.027	90.06
379.253	82.06
379.478	65.06
379.704	93.06
379.929	92.06
380.155	86.06
380.38	94.06
380.606	96.06
380.831	89.06
381.057	93.06
381.282	93.06
381.507	95.06
381.733	84.06
381.958	94.06
382.184	103.06
382.409	94.06
382.634	108.06
382.86	98.06
383.085	101.06
383.31	100.06
383.535	105.06
383.761	89.06
383.986	90.06
384.211	89.06
384.436	99.06
384.662	84.06
384.887	108.06
385.112	97.06
385.337	105.06
385.562	87.06
385.787	71.06
386.013	103.06
386.238	113.06
386.463	98.06
386.688	108.06
386.913	104.06
387.138	89.06
387.363	82.06
387.588	96.06
387.813	92.06
388.038	90.06
388.263	112.06
388.488	93.06
388.713	97.06
388.938	108.06
389.163	92.06
389.387	97.06
389.612	80.06
389.837	89.06
390.062	99.06
390.287	84.06
390.512	87.06
390.736	94.06
390.961	90.06
391.186	85.06
391.411	79.06
391.636	108.06
391.86	83.06
392.085	85.06
392.31	93.06
392.534	82.06
392.759	97.06
392.984	82.06
393.208	83.06
393.433	74.06
393.658	81.06
393.882	89.06
394.107	81.06
394.331	93.06
394.556	79.06
394.78	81.06
395.005	86.06
395.229	79.06
395.454	81.06
395.678	63.06
395.903	80.06
396.127	96.06
396.352	81.06
396.576	95.06
396.801	83.06
397.025	86.06
397.249	82.06
397.474	92.06
397.698	84.06
397.922	88.06
398.147	85.06
398.371	84.06
398.595	86.06
398.82	88.06
399.044	78.06
399.268	93.06
399.492	80.06
399.717	90.06
399.941	82.06
400.165	82.06
400.389	94.06
400.613	98.06
400.837	93.06
401.062	81.06
401.286	84.06
401.51	83.06
401.734	93.06
401.958	106.06
402.182	137.06
402.406	172.06
402.63	121.06
402.854	88.06
403.078	90.06
403.302	83.06
403.526	81.06
403.75	81.06
403.974	82.06
404.198	88.06
404.422	84.06
404.645	86.06
404.869	74.06
405.093	92.06
405.317	117.06
405.541	97.06
405.765	92.06
405.988	112.06
406.212	182.06
406.436	272.06
406.66	168.06
406.883	94.06
407.107	97.06
407.331	85.06
407.555	108.06
407.778	96.06
408.002	88.06
408.226	92.06
408.449	81.06
408.673	87.06
408.896	90.06
409.12	94.06
409.344	88.06
409.567	80.06
409.791	84.06
410.014	86.06
410.238	92.06
410.461	85.06
410.685	89.06
410.908	94.06
411.132	105.06
411.355	93.06
411.578	88.06
411.802	74.06
412.025	87.06
412.249	89.06
412.472	81.06
412.695	102.06
412.919	72.06
413.142	97.06
413.365	91.06
413.589	95.06
413.812	98.06
414.035	96.06
414.258	79.06
414.482	98.06
414.705	78.06
414.928	75.06
415.151	92.06
415.374	86.06
415.597	89.06
415.821	89.06
416.044	77.06
416.267	90.06
416.49	85.06
416.713	78.06
416.936	97.06
417.159	72.06
417.382	81.06
417.605	82.06
417.828	112.06
418.051	96.06
418.274	82.06
418.497	84.06
418.72	86.06
418.943	81.06
419.166	82.06
419.389	93.06
419.611	76.06
419.834	92.06
420.057	88.06
420.28	85.06
420.503	81.06
420.726	76.06
420.948	95.06
421.171	79.06
421.394	94.06
421.617	90.06
421.839	86.06
422.062	86.06
422.285	72.06
422.507	98.06
422.73	107.06
422.953	91.06
423.175	68.06
423.398	91.06
423.621	79.06
423.843	80.06
424.066	73.06
424.288	74.06
424.511	85.06
424.733	104.06
424.956	111.06
425.178	114.06
425.401	94.06
425.623	96.06
425.846	94.06
426.068	93.06
426.291	76.06
426.513	91.06
426.735	82.06
426.958	80.06
427.18	97.06
427.402	126.06
427.625	168.06
427.847	141.06
428.069	112.06
428.292	97.06
428.514	78.06
428.736	85.06
428.958	70.06
429.181	74.06
429.403	74.06
429.625	78.06
429.847	96.06
430.069	109.06
430.292	97.06
430.514	92.06
430.736	83.06
430.958	85.06
431.18	66.06
431.402	86.06
431.624	86.06
431.846	77.06
432.068	90.06
432.29	88.06
432.512	77.06
432.734	83.06
432.956	78.06
433.178	89.06
433.4	94.06
433.622	94.06
433.844	92.06
434.066	93.06
434.287	90.06
434.509	72.06
434.731	86.06
434.953	78.06
435.175	82.06
435.397	89.06
435.618	88.06
435.84	106.06
436.062	111.06
436.284	114.06
436.505	100.06
436.727	99.06
436.949	91.06
437.17	96.06
437.392	88.06
437.614	78.06
437.835	84.06
438.057	108.06
438.278	120.06
438.5	100.06
438.721	106.06
438.943	89.06
439.165	78.06
439.386	89.06
439.608	95.06
439.829	100.06
440.05	128.06
440.272	151.06
440.493	108.06
440.715	87.06
440.936	82.06
441.158	96.06
441.379	93.06
441.6	85.06
441.822	88.06
442.043	97.06
442.264	90.06
442.486	99.06
442.707	86.06
442.928	103.06
443.149	122.06
443.371	138.06
443.592	117.06
443.813	109.06
444.034	102.06
444.255	94.06
444.476	94.06
444.698	73.06
444.919	84.06
445.14	134.06
445.361	109.06
445.582	108.06
445.803	148.06
446.024	117.06
446.245	135.06
446.466	105.06
446.687	83.06
446.908	93.06
447.129	85.06
447.35	92.06
447.571	88.06
447.792	97.06
448.013	104.06
448.234	96.06
448.455	102.06
448.675	97.06
448.896	112.06
449.117	96.06
449.338	105.06
449.559	118.06
449.779	121.06
450	109.06
450.221	86.06
450.442	93.06
450.662	86.06
450.883	112.06
451.104	122.06
451.324	114.06
451.545	84.06
451.766	70.06
451.986	78.06
452.207	76.06
452.428	70.06
452.648	86.06
452.869	98.06
453.089	116.06
453.31	124.06
453.53	93.06
453.751	91.06
453.971	103.06
454.192	112.06
454.412	79.06
454.633	81.06
454.853	93.06
455.073	80.06
455.294	88.06
455.514	112.06
455.734	73.06
455.955	89.06
456.175	73.06
456.395	80.06
456.616	88.06
456.836	82.06
457.056	72.06
457.276	83.06
457.497	78.06
457.717	86.06
457.937	94.06
458.157	101.06
458.377	102.06
458.598	111.06
458.818	160.06
459.038	176.06
459.258	117.06
459.478	94.06
459.698	80.06
459.918	69.06
460.138	96.06
460.358	87.06
460.578	85.06
460.798	90.06
461.018	86.06
461.238	77.06
461.458	89.06
461.678	79.06
461.898	81.06
462.118	91.06
462.338	70.06
462.558	72.06
462.777	80.06
462.997	78.06
463.217	81.06
463.437	89.06
463.657	71.06
463.876	77.06
464.096	86.06
464.316	97.06
464.536	81.06
464.755	94.06
464.975	101.06
465.195	185.06
465.414	173.06
465.634	86.06
465.854	80.06
466.073	78.06
466.293	85.06
466.512	72.06
466.732	87.06
466.951	87.06
467.171	97.06
467.391	111.06
467.61	103.06
467.829	88.06
468.049	108.06
468.268	124.06
468.488	83.06
468.707	95.06
468.927	103.06
469.146	79.06
469.365	83.06
469.585	91.06
469.804	90.06
470.023	97.06
470.243	82.06
470.462	89.06
470.681	100.06
470.901	89.06
471.12	95.06
471.339	76.06
471.558	96.06
471.777	72.06
471.997	87.06
472.216	135.06
472.435	206.06
472.654	105.06
472.873	99.06
473.092	79.06
473.311	76.06
473.53	78.06
473.749	84.06
473.968	102.06
474.187	107.06
474.406	111.06
474.625	85.06
474.844	97.06
475.063	84.06
475.282	74.06
475.501	82.06
475.72	94.06
475.939	88.06
476.158	87.06
476.377	92.06
476.596	79.06
476.814	82.06
477.033	78.06
477.252	95.06
477.471	80.06
477.69	76.06
477.908	66.06
478.127	92.06
478.346	80.06
478.564	80.06
478.783	85.06
479.002	92.06
479.22	90.06
479.439	102.06
479.658	97.06
479.876	82.06
480.095	80.06
480.313	94.06
480.532	87.06
480.751	102.06
480.969	129.06
481.188	295.06
481.406	222.06
481.624	90.06
481.843	82.06
482.061	85.06
482.28	69.06
482.498	64.06
482.717	84.06
482.935	87.06
483.153	71.06
483.372	70.06
483.59	71.06
483.808	80.06
484.027	98.06
484.245	87.06
484.463	85.06
484.681	91.06
484.9	82.06
485.118	87.06
485.336	83.06
485.554	89.06
485.772	94.06
485.99	84.06
486.209	89.06
486.427	100.06
486.645	122.06
486.863	106.06
487.081	91.06
487.299	96.06
487.517	80.06
487.735	100.06
487.953	87.06
488.171	89.06
488.389	84.06
488.607	96.06
488.825	85.06
489.043	78.06
489.261	85.06
489.479	83.06
489.696	85.06
489.914	88.06
490.132	95.06
490.35	84.06
490.568	80.06
490.786	77.06
491.003	81.06
491.221	83.06
491.439	84.06
491.657	78.06
491.874	87.06
492.092	74.06
492.31	85.06
492.527	77.06
492.745	85.06
492.963	91.06
493.18	62.06
493.398	76.06
493.615	97.06
493.833	86.06
494.05	79.06
494.268	80.06
494.485	81.06
494.703	76.06
494.92	89.06
495.138	85.06
495.355	89.06
495.573	87.06
495.79	88.06
496.008	92.06
496.225	87.06
496.442	88.06
496.66	98.06
496.877	94.06
497.094	87.06
497.312	74.06
497.529	87.06
497.746	84.06
497.963	92.06
498.181	89.06
498.398	83.06
498.615	123.06
498.832	105.06
499.049	88.06
499.267	93.06
499.484	82.06
499.701	101.06
499.918	86.06
500.135	91.06
500.352	79.06
500.569	95.06
500.786	78.06
501.003	94.06
501.22	87.06
501.437	92.06
501.654	98.06
501.871	108.06
502.088	92.06
502.305	92.06
502.522	83.06
502.739	82.06
502.956	95.06
503.172	84.06
503.389	88.06
503.606	84.06
503.823	109.06
504.04	82.06
504.256	88.06
504.473	94.06
504.69	93.06
504.907	88.06
505.123	94.06
505.34	79.06
505.557	86.06
505.773	96.06
505.99	73.06
506.207	95.06
506.423	84.06
506.64	75.06
506.856	73.06
507.073	88.06
507.289	88.06
507.506	90.06
507.722	128.06
507.939	106.06
508.155	102.06
508.372	88.06
508.588	84.06
508.805	92.06
509.021	90.06
509.238	88.06
509.454	98.06
509.67	102.06
509.887	108.06
510.103	134.06
510.319	234.06
510.536	868.06
510.752	2848.06
510.968	829.06
511.184	164.06
511.401	117.06
511.617	102.06
511.833	88.06
512.049	81.06
512.265	86.06
512.481	94.06
512.698	110.06
512.914	83.06
513.13	89.06
513.346	94.06
513.562	82.06
513.778	80.06
513.994	89.06
514.21	97.06
514.426	115.06
514.642	149.06
514.858	130.06
515.074	179.06
515.29	567.06
515.506	1869.06
515.721	703.06
515.937	178.06
516.153	102.06
516.369	96.06
516.585	99.06
516.801	90.06
517.016	89.06
517.232	87.06
517.448	80.06
517.664	76.06
517.879	95.06
518.095	88.06
518.311	83.06
518.527	97.06
518.742	74.06
518.958	74.06
519.173	91.06
519.389	84.06
519.605	98.06
519.82	85.06
520.036	93.06
520.251	133.06
520.467	112.06
520.682	98.06
520.898	107.06
521.113	108.06
521.329	141.06
521.544	214.06
521.76	688.06
521.975	3053.06
522.19	1902.06
522.406	372.06
522.621	141.06
522.836	96.06
523.052	84.06
523.267	95.06
523.482	80.06
523.698	97.06
523.913	128.06
524.128	110.06
524.343	101.06
524.559	89.06
524.774	84.06
524.989	81.06
525.204	105.06
525.419	88.06
525.634	85.06
525.849	93.06
526.064	88.06
526.28	86.06
526.495	90.06
526.71	81.06
526.925	85.06
527.14	91.06
527.355	94.06
527.57	85.06
527.785	99.06
527.999	90.06
528.214	79.06
528.429	96.06
528.644	92.06
528.859	95.06
529.074	91.06
529.289	125.06
529.503	212.06
529.718	111.06
529.933	97.06
530.148	93.06
530.363	96.06
530.577	88.06
530.792	90.06
531.007	87.06
531.221	100.06
531.436	99.06
531.651	93.06
531.865	101.06
532.08	96.06
532.295	94.06
532.509	96.06
532.724	103.06
532.938	97.06
533.153	91.06
533.367	95.06
533.582	84.06
533.796	80.06
534.011	97.06
534.225	77.06
534.44	87.06
534.654	98.06
534.868	88.06
535.083	84.06
535.297	78.06
535.511	101.06
535.726	103.06
535.94	89.06
536.154	104.06
536.369	88.06
536.583	84.06
536.797	79.06
537.011	68.06
537.225	88.06
537.44	89.06
537.654	81.06
537.868	98.06
538.082	77.06
538.296	95.06
538.51	83.06
538.724	77.06
538.938	90.06
539.153	93.06
539.367	104.06
539.581	98.06
539.795	90.06
540.009	82.06
540.222	76.06
540.436	86.06
540.65	84.06
540.864	80.06
541.078	102.06
541.292	80.06
541.506	80.06
541.72	96.06
541.934	86.06
542.147	97.06
542.361	72.06
542.575	87.06
542.789	85.06
543.002	101.06
543.216	97.06
543.43	90.06
543.644	91.06
543.857	86.06
544.071	81.06
544.285	93.06
544.498	99.06
544.712	90.06
544.925	85.06
545.139	91.06
545.352	77.06
545.566	81.06
545.779	80.06
545.993	77.06
546.206	96.06
546.42	89.06
546.633	90.06
546.847	98.06
547.06	103.06
547.274	98.06
547.487	81.06
547.7	86.06
547.914	93.06
548.127	93.06
548.34	91.06
548.554	96.06
548.767	86.06
548.98	103.06
549.193	78.06
549.407	84.06
549.62	87.06
549.833	81.06
550.046	87.06
550.259	100.06
550.473	72.06
550.686	86.06
550.899	94.06
551.112	89.06
551.325	80.06
551.538	81.06
551.751	87.06
551.964	89.06
552.177	101.06
552.39	87.06
552.603	81.06
552.816	76.06
553.029	89.06
553.242	106.06
553.455	105.06
553.667	114.06
553.88	101.06
554.093	96.06
554.306	100.06
554.519	81.06
554.732	92.06
554.944	97.06
555.157	97.06
555.37	85.06
555.583	84.06
555.795	95.06
556.008	98.06
556.221	97.06
556.433	88.06
556.646	74.06
556.859	83.06
557.071	86.06
557.284	92.06
557.496	84.06
557.709	112.06
557.921	95.06
558.134	90.06
558.346	80.06
558.559	89.06
558.771	84.06
558.984	74.06
559.196	80.06
559.409	86.06
559.621	78.06
559.833	93.06
560.046	94.06
560.258	79.06
560.47	97.06
560.683	96.06
560.895	85.06
561.107	81.06
561.32	78.06
561.532	100.06
561.744	83.06
561.956	96.06
562.168	87.06
562.381	89.06
562.593	80.06
562.805	94.06
563.017	80.06
563.229	72.06
563.441	94.06
563.653	84.06
563.865	73.06
564.077	91.06
564.289	99.06
564.501	88.06
564.713	85.06
564.925	89.06
565.137	90.06
565.349	83.06
565.561	95.06
565.773	83.06
565.985	92.06
566.197	85.06
566.408	89.06
566.62	92.06
566.832	93.06
567.044	101.06
567.255	90.06
567.467	72.06
567.679	82.06
567.891	91.06
568.102	94.06
568.314	74.06
568.526	85.06
568.737	82.06
568.949	95.06
569.161	82.06
569.372	78.06
569.584	88.06
569.795	99.06
570.007	111.06
570.218	266.06
570.43	154.06
570.641	89.06
570.853	89.06
571.064	89.06
571.276	88.06
571.487	77.06
571.698	78.06
571.91	79.06
572.121	72.06
572.333	80.06
572.544	78.06
572.755	74.06
572.966	84.06
573.178	90.06
573.389	83.06
573.6	95.06
573.811	78.06
574.023	79.06
574.234	74.06
574.445	95.06
574.656	86.06
574.867	86.06
575.078	86.06
575.289	104.06
575.501	91.06
575.712	96.06
575.923	88.06
576.134	89.06
576.345	88.06
576.556	93.06
576.767	99.06
576.978	92.06
577.188	99.06
577.399	103.06
577.61	80.06
577.821	87.06
578.032	120.06
578.243	315.06
578.454	905.06
578.665	243.06
578.875	108.06
579.086	95.06
579.297	98.06
579.508	95.06
579.718	62.06
579.929	80.06
580.14	70.06
580.35	86.06
580.561	89.06
580.772	104.06
580.982	76.06
581.193	95.06
581.403	71.06
581.614	76.06
581.825	77.06
582.035	81.06
582.246	82.06
582.456	89.06
582.667	95.06
582.877	91.06
583.087	88.06
583.298	81.06
583.508	95.06
583.719	87.06
583.929	97.06
584.139	85.06
584.35	78.06
584.56	82.06
584.77	87.06
584.981	75.06
585.191	92.06
585.401	92.06
585.611	98.06
585.821	94.06
586.032	80.06
586.242	85.06
586.452	82.06
586.662	92.06
586.872	76.06
587.082	75.06
587.292	79.06
587.502	83.06
587.713	83.06
587.923	93.06
588.133	89.06
588.343	85.06
588.553	86.06
588.762	89.06
588.972	85.06
589.182	96.06
589.392	92.06
589.602	89.06
589.812	106.06
590.022	91.06
590.232	81.06
590.441	102.06
590.651	85.06
590.861	72.06
591.071	104.06
591.281	78.06
591.49	86.06
591.7	86.06
591.91	90.06
592.119	80.06
592.329	97.06
592.539	87.06
592.748	85.06
592.958	89.06
593.167	84.06
593.377	89.06
593.587	95.06
593.796	88.06
594.006	95.06
594.215	85.06
594.424	80.06
594.634	75.06
594.843	92.06
595.053	84.06
595.262	96.06
595.472	83.06
595.681	90.06
595.89	73.06
596.1	76.06
596.309	81.06
596.518	78.06
596.727	80.06
596.937	84.06
597.146	81.06
597.355	86.06
597.564	90.06
597.774	81.06
597.983	86.06
598.192	84.06
598.401	93.06
598.61	81.06
598.819	96.06
599.028	100.06
599.237	98.06
599.446	92.06
599.655	80.06
599.864	79.06
600.073	77.06
600.282	103.06
600.491	84.06
600.7	75.06
600.909	89.06
601.118	92.06
601.327	91.06
601.536	89.06
601.745	86.06
601.953	96.06
602.162	85.06
602.371	81.06
602.58	89.06
602.789	70.06
602.997	70.06
603.206	83.06
603.415	88.06
603.623	78.06
603.832	85.06
604.041	77.06
604.249	75.06
604.458	85.06
604.666	106.06
604.875	91.06
605.084	74.06
605.292	85.06
605.501	93.06
605.709	88.06
605.918	77.06
606.126	85.06
606.334	78.06
606.543	80.06
606.751	84.06
606.96	92.06
607.168	87.06
607.376	77.06
607.585	81.06
607.793	80.06
608.001	89.06
608.21	87.06
608.418	77.06
608.626	77.06
608.834	73.06
609.043	81.06
609.251	69.06
609.459	66.06
609.667	83.06
609.875	75.06
610.083	89.06
610.291	74.06
610.499	98.06
610.707	78.06
610.916	89.06
611.124	82.06
611.332	76.06
611.54	94.06
611.748	81.06
611.955	87.06
612.163	83.06
612.371	87.06
612.579	96.06
612.787	95.06
612.995	83.06
613.203	83.06
613.411	95.06
613.618	86.06
613.826	82.06
614.034	77.06
614.242	98.06
614.449	77.06
614.657	84.06
614.865	78.06
615.072	90.06
615.28	79.06
615.488	85.06
615.695	84.06
615.903	94.06
616.111	96.06
616.318	104.06
616.526	101.06
616.733	93.06
616.941	95.06
617.148	81.06
617.356	95.06
617.563	70.06
617.771	85.06
617.978	77.06
618.185	100.06
618.393	82.06
618.6	81.06
618.807	96.06
619.015	73.06
619.222	84.06
619.429	68.06
619.637	97.06
619.844	82.06
620.051	84.06
620.258	73.06
620.466	92.06
620.673	83.06
620.88	84.06
621.087	77.06
621.294	70.06
621.501	86.06
621.708	89.06
621.915	97.06
622.122	86.06
622.329	72.06
622.536	89.06
622.743	72.06
622.95	88.06
623.157	81.06
623.364	93.06
623.571	87.06
623.778	77.06
623.985	85.06
624.192	87.06
624.399	82.06
624.606	79.06
624.812	72.06
625.019	84.06
625.226	79.06
625.433	73.06
625.639	73.06
625.846	80.06
626.053	80.06
626.259	78.06
626.466	92.06
626.673	87.06
626.879	92.06
627.086	80.06
627.293	67.06
627.499	73.06
627.706	89.06
627.912	69.06
628.119	91.06
628.325	68.06
628.532	70.06
628.738	76.06
628.945	65.06
629.151	88.06
629.357	84.06
629.564	98.06
629.77	90.06
629.976	88.06
630.183	79.06
630.389	97.06
630.595	86.06
630.802	69.06
631.008	86.06
631.214	89.06
631.42	99.06
631.627	85.06
631.833	73.06
632.039	88.06
632.245	75.06
632.451	83.06
632.657	85.06
632.863	76.06
633.069	93.06
633.275	83.06
633.481	87.06
633.688	80.06
633.893	87.06
634.099	78.06
634.305	72.06
634.511	77.06
634.717	79.06
634.923	63.06
635.129	90.06
635.335	89.06
635.541	83.06
635.747	95.06
635.952	69.06
636.158	97.06
636.364	99.06
636.57	90.06
636.775	100.06
636.981	86.06
637.187	85.06
637.392	79.06
637.598	82.06
637.804	69.06
638.009	94.06
638.215	92.06
638.421	95.06
638.626	84.06
638.832	80.06
639.037	80.06
639.243	94.06
639.448	81.06
639.654	73.06
639.859	73.06
640.065	77.06
640.27	84.06
640.475	84.06
640.681	80.06
640.886	82.06
641.091	82.06
641.297	111.06
641.502	80.06
641.707	78.06
641.913	97.06
642.118	78.06
642.323	102.06
642.528	82.06
642.733	92.06
642.939	83.06
643.144	95.06
643.349	98.06
643.554	94.06
643.759	86.06
643.964	87.06
644.169	82.06
644.374	80.06
644.579	85.06
644.784	80.06
644.989	72.06
645.194	75.06
645.399	86.06
645.604	69.06
645.809	89.06
646.014	74.06
646.219	82.06
646.423	71.06
646.628	88.06
646.833	92.06
647.038	66.06
647.243	88.06
647.447	80.06
647.652	72.06
647.857	87.06
648.062	97.06
648.266	91.06
648.471	94.06
648.676	103.06
648.88	89.06
649.085	92.06
649.289	88.06
649.494	108.06
649.698	126.06
649.903	95.06
650.107	85.06
650.312	87.06
650.516	74.06
650.721	82.06
650.925	96.06
651.13	88.06
651.334	70.06
651.539	77.06
651.743	77.06
651.947	69.06
652.152	87.06
652.356	80.06
652.56	74.06
652.764	77.06
652.969	71.06
653.173	86.06
653.377	81.06
653.581	88.06
653.785	88.06
653.99	72.06
654.194	76.06
654.398	78.06
654.602	79.06
654.806	93.06
655.01	112.06
655.214	80.06
655.418	80.06
655.622	79.06
655.826	73.06
656.03	87.06
656.234	70.06
656.438	93.06
656.642	85.06
656.846	79.06
657.049	80.06
657.253	90.06
657.457	87.06
657.661	74.06
657.865	84.06
658.068	78.06
658.272	69.06
658.476	85.06
658.68	89.06
658.883	72.06
659.087	71.06
659.291	85.06
659.494	71.06
659.698	60.06
659.901	78.06
660.105	75.06
660.309	80.06
660.512	81.06
660.716	85.06
660.919	81.06
661.123	84.06
661.326	66.06
661.53	70.06
661.733	78.06
661.936	76.06
662.14	82.06
662.343	72.06
662.546	89.06
662.75	84.06
662.953	78.06
663.156	83.06
663.36	61.06
663.563	78.06
663.766	66.06
663.969	74.06
664.173	90.06
664.376	78.06
664.579	85.06
664.782	74.06
664.985	73.06
665.188	64.06
665.391	70.06
665.594	81.06
665.797	61.06
666	61.06
666.203	80.06
666.406	74.06
666.609	76.06
666.812	77.06
667.015	71.06
667.218	71.06
667.421	74.06
667.624	89.06
667.827	80.06
668.03	85.06
668.232	74.06
668.435	77.06
668.638	73.06
668.841	68.06
669.043	80.06
669.246	73.06
669.449	73.06
669.651	85.06
669.854	75.06
670.057	84.06
670.259	87.06
670.462	81.06
670.665	84.06
670.867	84.06
671.07	76.06
671.272	82.06
671.475	80.06
671.677	71.06
671.88	70.06
672.082	68.06
672.284	96.06
672.487	64.06
672.689	78.06
672.892	73.06
