Data from Circ_2018_H10_HRD10591_00091.txt Node
Date: Wed Jan 03 09:56:20 EST 2024
User: Yrep
Spectrometer: HR+D1059
Trigger mode: 1
Integration Time (sec): 1.000000E-1
Scans to average: 1
Electric dark correction enabled: true
Nonlinearity correction enabled: false
Boxcar width: 0
XAxis mode: Wavelengths
Number of Pixels in Spectrum: 2048
>>>>>Begin Spectral Data<<<<<
223.165	-7.94
223.4	-7.94
223.635	-7.94
223.869	-24.94
224.104	-24.94
224.338	-11.94
224.573	-2.94
224.808	4.06
225.042	-6.94
225.277	-6.94
225.511	-12.94
225.746	12.06
225.98	3.06
226.215	9.06
226.449	9.06
226.683	20.06
226.918	35.06
227.152	7.06
227.387	32.06
227.621	37.06
227.856	37.06
228.09	44.06
228.324	56.06
228.559	59.06
228.793	46.06
229.027	67.06
229.262	71.06
229.496	70.06
229.73	69.06
229.964	82.06
230.199	77.06
230.433	87.06
230.667	78.06
230.901	68.06
231.136	79.06
231.37	81.06
231.604	78.06
231.838	84.06
232.072	82.06
232.306	75.06
232.541	82.06
232.775	83.06
233.009	91.06
233.243	80.06
233.477	87.06
233.711	75.06
233.945	71.06
234.179	77.06
234.413	73.06
234.647	87.06
234.881	80.06
235.115	73.06
235.349	79.06
235.583	81.06
235.817	60.06
236.051	69.06
236.285	92.06
236.519	81.06
236.753	72.06
236.987	88.06
237.221	84.06
237.455	83.06
237.689	67.06
237.922	70.06
238.156	64.06
238.39	74.06
238.624	90.06
238.858	87.06
239.091	87.06
239.325	87.06
239.559	68.06
239.793	76.06
240.027	78.06
240.26	74.06
240.494	65.06
240.728	76.06
240.961	88.06
241.195	70.06
241.429	84.06
241.662	90.06
241.896	87.06
242.13	88.06
242.363	81.06
242.597	84.06
242.83	72.06
243.064	73.06
243.298	88.06
243.531	81.06
243.765	79.06
243.998	83.06
244.232	79.06
244.465	73.06
244.699	88.06
244.932	76.06
245.166	85.06
245.399	72.06
245.633	72.06
245.866	95.06
246.099	83.06
246.333	86.06
246.566	89.06
246.8	74.06
247.033	76.06
247.266	77.06
247.5	82.06
247.733	73.06
247.966	71.06
248.2	82.06
248.433	87.06
248.666	68.06
248.899	76.06
249.133	80.06
249.366	108.06
249.599	92.06
249.832	75.06
250.066	87.06
250.299	75.06
250.532	83.06
250.765	68.06
250.998	91.06
251.231	97.06
251.465	101.06
251.698	88.06
251.931	57.06
252.164	70.06
252.397	72.06
252.63	84.06
252.863	69.06
253.096	72.06
253.329	73.06
253.562	84.06
253.795	80.06
254.028	67.06
254.261	76.06
254.494	78.06
254.727	90.06
254.96	88.06
255.193	78.06
255.426	76.06
255.659	84.06
255.892	91.06
256.124	84.06
256.357	70.06
256.59	79.06
256.823	87.06
257.056	85.06
257.289	87.06
257.521	85.06
257.754	82.06
257.987	76.06
258.22	85.06
258.452	89.06
258.685	72.06
258.918	77.06
259.151	81.06
259.383	67.06
259.616	67.06
259.849	76.06
260.081	88.06
260.314	72.06
260.547	76.06
260.779	94.06
261.012	92.06
261.244	96.06
261.477	93.06
261.71	102.06
261.942	106.06
262.175	125.06
262.407	76.06
262.64	96.06
262.872	91.06
263.105	79.06
263.337	75.06
263.57	87.06
263.802	78.06
264.035	74.06
264.267	93.06
264.499	68.06
264.732	91.06
264.964	71.06
265.197	97.06
265.429	75.06
265.661	90.06
265.894	84.06
266.126	84.06
266.358	87.06
266.591	88.06
266.823	73.06
267.055	73.06
267.287	82.06
267.52	94.06
267.752	91.06
267.984	86.06
268.216	85.06
268.448	85.06
268.681	84.06
268.913	90.06
269.145	76.06
269.377	84.06
269.609	80.06
269.841	82.06
270.073	82.06
270.306	77.06
270.538	79.06
270.77	81.06
271.002	84.06
271.234	86.06
271.466	88.06
271.698	75.06
271.93	81.06
272.162	88.06
272.394	85.06
272.626	74.06
272.858	91.06
273.09	82.06
273.322	104.06
273.553	92.06
273.785	93.06
274.017	77.06
274.249	75.06
274.481	83.06
274.713	82.06
274.945	93.06
275.176	85.06
275.408	83.06
275.64	93.06
275.872	87.06
276.104	89.06
276.335	79.06
276.567	106.06
276.799	106.06
277.031	131.06
277.262	92.06
277.494	91.06
277.726	89.06
277.957	79.06
278.189	91.06
278.421	77.06
278.652	74.06
278.884	76.06
279.115	105.06
279.347	87.06
279.579	80.06
279.81	90.06
280.042	84.06
280.273	96.06
280.505	83.06
280.736	95.06
280.968	95.06
281.199	87.06
281.431	82.06
281.662	90.06
281.894	85.06
282.125	89.06
282.356	129.06
282.588	136.06
282.819	120.06
283.051	83.06
283.282	84.06
283.513	84.06
283.745	79.06
283.976	73.06
284.207	89.06
284.439	78.06
284.67	103.06
284.901	82.06
285.132	82.06
285.364	87.06
285.595	78.06
285.826	94.06
286.057	90.06
286.288	94.06
286.52	93.06
286.751	82.06
286.982	92.06
287.213	83.06
287.444	94.06
287.675	85.06
287.906	109.06
288.138	99.06
288.369	93.06
288.6	103.06
288.831	84.06
289.062	83.06
289.293	89.06
289.524	86.06
289.755	79.06
289.986	92.06
290.217	77.06
290.448	91.06
290.679	98.06
290.91	104.06
291.141	98.06
291.371	87.06
291.602	93.06
291.833	81.06
292.064	81.06
292.295	80.06
292.526	101.06
292.757	87.06
292.987	74.06
293.218	84.06
293.449	76.06
293.68	85.06
293.91	86.06
294.141	87.06
294.372	93.06
294.603	84.06
294.833	95.06
295.064	90.06
295.295	81.06
295.525	106.06
295.756	108.06
295.987	135.06
296.217	135.06
296.448	119.06
296.679	91.06
296.909	85.06
297.14	88.06
297.37	89.06
297.601	86.06
297.831	72.06
298.062	100.06
298.292	87.06
298.523	98.06
298.753	111.06
298.984	80.06
299.214	103.06
299.445	87.06
299.675	92.06
299.905	93.06
300.136	77.06
300.366	84.06
300.597	98.06
300.827	84.06
301.057	100.06
301.288	102.06
301.518	95.06
301.748	95.06
301.979	84.06
302.209	91.06
302.439	89.06
302.669	92.06
302.9	92.06
303.13	101.06
303.36	104.06
303.59	99.06
303.82	99.06
304.051	102.06
304.281	103.06
304.511	95.06
304.741	92.06
304.971	90.06
305.201	94.06
305.431	99.06
305.661	89.06
305.891	87.06
306.121	81.06
306.352	104.06
306.582	107.06
306.812	99.06
307.042	105.06
307.272	96.06
307.502	87.06
307.731	93.06
307.961	96.06
308.191	87.06
308.421	89.06
308.651	96.06
308.881	106.06
309.111	100.06
309.341	90.06
309.571	101.06
309.8	99.06
310.03	98.06
310.26	88.06
310.49	89.06
310.72	103.06
310.949	112.06
311.179	89.06
311.409	104.06
311.639	101.06
311.868	100.06
312.098	93.06
312.328	97.06
312.557	114.06
312.787	117.06
313.017	98.06
313.246	104.06
313.476	87.06
313.706	93.06
313.935	89.06
314.165	96.06
314.394	94.06
314.624	96.06
314.853	81.06
315.083	88.06
315.312	100.06
315.542	104.06
315.771	100.06
316.001	91.06
316.23	83.06
316.46	75.06
316.689	89.06
316.919	85.06
317.148	93.06
317.377	102.06
317.607	116.06
317.836	79.06
318.065	99.06
318.295	97.06
318.524	92.06
318.753	81.06
318.983	90.06
319.212	99.06
319.441	103.06
319.67	100.06
319.9	100.06
320.129	94.06
320.358	102.06
320.587	105.06
320.816	88.06
321.046	107.06
321.275	90.06
321.504	89.06
321.733	96.06
321.962	106.06
322.191	103.06
322.42	99.06
322.649	93.06
322.878	105.06
323.108	123.06
323.337	123.06
323.566	141.06
323.795	159.06
324.024	199.06
324.253	409.06
324.482	898.06
324.71	1725.06
324.939	2265.06
325.168	819.06
325.397	241.06
325.626	154.06
325.855	119.06
326.084	128.06
326.313	138.06
326.542	148.06
326.77	226.06
326.999	459.06
327.228	920.06
327.457	1649.06
327.686	1396.06
327.914	378.06
328.143	216.06
328.372	146.06
328.6	140.06
328.829	139.06
329.058	130.06
329.287	129.06
329.515	99.06
329.744	103.06
329.972	111.06
330.201	135.06
330.43	177.06
330.658	143.06
330.887	159.06
331.115	133.06
331.344	105.06
331.572	109.06
331.801	101.06
332.03	94.06
332.258	109.06
332.486	89.06
332.715	88.06
332.943	107.06
333.172	100.06
333.4	95.06
333.629	105.06
333.857	116.06
334.085	128.06
334.314	142.06
334.542	179.06
334.771	177.06
334.999	109.06
335.227	95.06
335.455	77.06
335.684	100.06
335.912	101.06
336.14	89.06
336.369	89.06
336.597	102.06
336.825	91.06
337.053	95.06
337.281	99.06
337.51	83.06
337.738	94.06
337.966	96.06
338.194	100.06
338.422	87.06
338.65	96.06
338.878	99.06
339.106	79.06
339.334	73.06
339.562	85.06
339.79	97.06
340.018	90.06
340.246	97.06
340.474	94.06
340.702	108.06
340.93	104.06
341.158	89.06
341.386	101.06
341.614	111.06
341.842	96.06
342.07	98.06
342.298	83.06
342.526	94.06
342.754	92.06
342.981	93.06
343.209	91.06
343.437	95.06
343.665	88.06
343.893	86.06
344.12	105.06
344.348	96.06
344.576	96.06
344.804	77.06
345.031	106.06
345.259	115.06
345.487	101.06
345.714	88.06
345.942	94.06
346.17	85.06
346.397	104.06
346.625	97.06
346.853	105.06
347.08	104.06
347.308	93.06
347.535	102.06
347.763	104.06
347.99	100.06
348.218	99.06
348.445	106.06
348.673	99.06
348.9	87.06
349.128	91.06
349.355	87.06
349.583	97.06
349.81	87.06
350.037	116.06
350.265	105.06
350.492	99.06
350.72	103.06
350.947	85.06
351.174	117.06
351.402	106.06
351.629	95.06
351.856	105.06
352.083	113.06
352.311	112.06
352.538	97.06
352.765	118.06
352.992	107.06
353.22	105.06
353.447	105.06
353.674	107.06
353.901	99.06
354.128	99.06
354.355	96.06
354.583	96.06
354.81	101.06
355.037	97.06
355.264	102.06
355.491	98.06
355.718	88.06
355.945	85.06
356.172	93.06
356.399	88.06
356.626	87.06
356.853	98.06
357.08	83.06
357.307	81.06
357.534	82.06
357.761	99.06
357.988	101.06
358.215	99.06
358.441	100.06
358.668	105.06
358.895	96.06
359.122	98.06
359.349	79.06
359.576	87.06
359.802	98.06
360.029	127.06
360.256	118.06
360.483	107.06
360.709	81.06
360.936	95.06
361.163	97.06
361.39	108.06
361.616	109.06
361.843	102.06
362.07	96.06
362.296	104.06
362.523	89.06
362.749	95.06
362.976	80.06
363.203	91.06
363.429	98.06
363.656	92.06
363.882	103.06
364.109	101.06
364.335	81.06
364.562	95.06
364.788	92.06
365.015	94.06
365.241	92.06
365.468	107.06
365.694	107.06
365.92	96.06
366.147	95.06
366.373	82.06
366.599	80.06
366.826	89.06
367.052	95.06
367.278	94.06
367.505	85.06
367.731	85.06
367.957	96.06
368.184	93.06
368.41	100.06
368.636	111.06
368.862	132.06
369.089	123.06
369.315	113.06
369.541	92.06
369.767	100.06
369.993	90.06
370.219	92.06
370.445	94.06
370.672	75.06
370.898	87.06
371.124	82.06
371.35	91.06
371.576	95.06
371.802	91.06
372.028	77.06
372.254	92.06
372.48	83.06
372.706	81.06
372.932	92.06
373.158	94.06
373.384	92.06
373.61	90.06
373.835	104.06
374.061	89.06
374.287	78.06
374.513	74.06
374.739	88.06
374.965	83.06
375.191	97.06
375.416	108.06
375.642	86.06
375.868	92.06
376.094	90.06
376.319	104.06
376.545	88.06
376.771	83.06
376.997	85.06
377.222	98.06
377.448	91.06
377.674	101.06
377.899	97.06
378.125	95.06
378.35	91.06
378.576	85.06
378.802	89.06
379.027	100.06
379.253	83.06
379.478	88.06
379.704	86.06
379.929	88.06
380.155	102.06
380.38	83.06
380.606	94.06
380.831	95.06
381.057	89.06
381.282	114.06
381.507	102.06
381.733	93.06
381.958	103.06
382.184	95.06
382.409	104.06
382.634	97.06
382.86	92.06
383.085	89.06
383.31	104.06
383.535	90.06
383.761	93.06
383.986	92.06
384.211	92.06
384.436	91.06
384.662	108.06
384.887	104.06
385.112	92.06
385.337	102.06
385.562	85.06
385.787	96.06
386.013	108.06
386.238	110.06
386.463	97.06
386.688	103.06
386.913	113.06
387.138	111.06
387.363	100.06
387.588	109.06
387.813	86.06
388.038	97.06
388.263	101.06
388.488	111.06
388.713	95.06
388.938	96.06
389.163	91.06
389.387	93.06
389.612	99.06
389.837	90.06
390.062	81.06
390.287	98.06
390.512	87.06
390.736	94.06
390.961	83.06
391.186	85.06
391.411	95.06
391.636	97.06
391.86	82.06
392.085	73.06
392.31	83.06
392.534	78.06
392.759	80.06
392.984	84.06
393.208	90.06
393.433	86.06
393.658	97.06
393.882	81.06
394.107	90.06
394.331	87.06
394.556	82.06
394.78	91.06
395.005	81.06
395.229	91.06
395.454	83.06
395.678	73.06
395.903	74.06
396.127	90.06
396.352	71.06
396.576	99.06
396.801	78.06
397.025	88.06
397.249	92.06
397.474	77.06
397.698	92.06
397.922	84.06
398.147	93.06
398.371	86.06
398.595	84.06
398.82	79.06
399.044	79.06
399.268	90.06
399.492	83.06
399.717	88.06
399.941	83.06
400.165	94.06
400.389	83.06
400.613	86.06
400.837	84.06
401.062	84.06
401.286	89.06
401.51	87.06
401.734	102.06
401.958	100.06
402.182	112.06
402.406	171.06
402.63	126.06
402.854	90.06
403.078	104.06
403.302	79.06
403.526	79.06
403.75	91.06
403.974	88.06
404.198	83.06
404.422	85.06
404.645	89.06
404.869	101.06
405.093	85.06
405.317	101.06
405.541	100.06
405.765	99.06
405.988	122.06
406.212	211.06
406.436	259.06
406.66	163.06
406.883	113.06
407.107	95.06
407.331	101.06
407.555	103.06
407.778	108.06
408.002	100.06
408.226	90.06
408.449	85.06
408.673	95.06
408.896	98.06
409.12	94.06
409.344	97.06
409.567	89.06
409.791	85.06
410.014	89.06
410.238	84.06
410.461	80.06
410.685	90.06
410.908	111.06
411.132	111.06
411.355	97.06
411.578	94.06
411.802	86.06
412.025	89.06
412.249	97.06
412.472	97.06
412.695	93.06
412.919	98.06
413.142	91.06
413.365	74.06
413.589	95.06
413.812	82.06
414.035	99.06
414.258	95.06
414.482	81.06
414.705	88.06
414.928	97.06
415.151	103.06
415.374	113.06
415.597	91.06
415.821	81.06
416.044	74.06
416.267	84.06
416.49	91.06
416.713	86.06
416.936	96.06
417.159	76.06
417.382	109.06
417.605	95.06
417.828	95.06
418.051	103.06
418.274	90.06
418.497	88.06
418.72	87.06
418.943	98.06
419.166	89.06
419.389	94.06
419.611	88.06
419.834	91.06
420.057	93.06
420.28	80.06
420.503	81.06
420.726	91.06
420.948	73.06
421.171	72.06
421.394	82.06
421.617	98.06
421.839	98.06
422.062	102.06
422.285	97.06
422.507	99.06
422.73	89.06
422.953	83.06
423.175	89.06
423.398	95.06
423.621	100.06
423.843	83.06
424.066	82.06
424.288	90.06
424.511	88.06
424.733	103.06
424.956	116.06
425.178	98.06
425.401	87.06
425.623	102.06
425.846	80.06
426.068	91.06
426.291	79.06
426.513	95.06
426.735	83.06
426.958	101.06
427.18	117.06
427.402	152.06
427.625	182.06
427.847	145.06
428.069	128.06
428.292	83.06
428.514	77.06
428.736	89.06
428.958	86.06
429.181	66.06
429.403	83.06
429.625	83.06
429.847	91.06
430.069	97.06
430.292	96.06
430.514	92.06
430.736	82.06
430.958	88.06
431.18	88.06
431.402	91.06
431.624	83.06
431.846	75.06
432.068	82.06
432.29	84.06
432.512	99.06
432.734	86.06
432.956	86.06
433.178	95.06
433.4	93.06
433.622	85.06
433.844	89.06
434.066	99.06
434.287	90.06
434.509	84.06
434.731	80.06
434.953	82.06
435.175	78.06
435.397	80.06
435.618	84.06
435.84	86.06
436.062	123.06
436.284	106.06
436.505	106.06
436.727	94.06
436.949	80.06
437.17	88.06
437.392	82.06
437.614	114.06
437.835	111.06
438.057	121.06
438.278	98.06
438.5	107.06
438.721	114.06
438.943	95.06
439.165	99.06
439.386	81.06
439.608	96.06
439.829	83.06
440.05	134.06
440.272	145.06
440.493	107.06
440.715	94.06
440.936	100.06
441.158	96.06
441.379	89.06
441.6	93.06
441.822	92.06
442.043	94.06
442.264	108.06
442.486	95.06
442.707	98.06
442.928	102.06
443.149	130.06
443.371	148.06
443.592	105.06
443.813	119.06
444.034	109.06
444.255	86.06
444.476	103.06
444.698	103.06
444.919	100.06
445.14	114.06
445.361	133.06
445.582	120.06
445.803	130.06
446.024	144.06
446.245	133.06
446.466	114.06
446.687	91.06
446.908	94.06
447.129	79.06
447.35	95.06
447.571	88.06
447.792	90.06
448.013	106.06
448.234	105.06
448.455	92.06
448.675	113.06
448.896	122.06
449.117	91.06
449.338	104.06
449.559	134.06
449.779	130.06
450	95.06
450.221	90.06
450.442	91.06
450.662	98.06
450.883	115.06
451.104	124.06
451.324	87.06
451.545	95.06
451.766	97.06
451.986	73.06
452.207	91.06
452.428	87.06
452.648	103.06
452.869	110.06
453.089	116.06
453.31	149.06
453.53	117.06
453.751	94.06
453.971	99.06
454.192	126.06
454.412	105.06
454.633	76.06
454.853	81.06
455.073	101.06
455.294	87.06
455.514	94.06
455.734	92.06
455.955	81.06
456.175	75.06
456.395	84.06
456.616	82.06
456.836	90.06
457.056	85.06
457.276	93.06
457.497	92.06
457.717	68.06
457.937	92.06
458.157	96.06
458.377	90.06
458.598	101.06
458.818	156.06
459.038	181.06
459.258	117.06
459.478	92.06
459.698	92.06
459.918	81.06
460.138	78.06
460.358	82.06
460.578	83.06
460.798	94.06
461.018	102.06
461.238	90.06
461.458	85.06
461.678	87.06
461.898	86.06
462.118	95.06
462.338	90.06
462.558	88.06
462.777	90.06
462.997	84.06
463.217	79.06
463.437	91.06
463.657	74.06
463.876	83.06
464.096	91.06
464.316	86.06
464.536	102.06
464.755	91.06
464.975	116.06
465.195	177.06
465.414	186.06
465.634	102.06
465.854	89.06
466.073	99.06
466.293	92.06
466.512	93.06
466.732	88.06
466.951	81.06
467.171	83.06
467.391	89.06
467.61	110.06
467.829	101.06
468.049	103.06
468.268	117.06
468.488	85.06
468.707	99.06
468.927	86.06
469.146	80.06
469.365	97.06
469.585	97.06
469.804	96.06
470.023	100.06
470.243	99.06
470.462	101.06
470.681	111.06
470.901	89.06
471.12	76.06
471.339	88.06
471.558	77.06
471.777	78.06
471.997	96.06
472.216	145.06
472.435	212.06
472.654	99.06
472.873	84.06
473.092	69.06
473.311	84.06
473.53	91.06
473.749	93.06
473.968	107.06
474.187	107.06
474.406	107.06
474.625	98.06
474.844	90.06
475.063	84.06
475.282	89.06
475.501	85.06
475.72	91.06
475.939	82.06
476.158	99.06
476.377	77.06
476.596	86.06
476.814	90.06
477.033	82.06
477.252	89.06
477.471	104.06
477.69	87.06
477.908	91.06
478.127	99.06
478.346	91.06
478.564	74.06
478.783	100.06
479.002	87.06
479.22	97.06
479.439	103.06
479.658	100.06
479.876	95.06
480.095	96.06
480.313	97.06
480.532	91.06
480.751	105.06
480.969	145.06
481.188	317.06
481.406	224.06
481.624	106.06
481.843	91.06
482.061	90.06
482.28	80.06
482.498	85.06
482.717	91.06
482.935	99.06
483.153	87.06
483.372	81.06
483.59	94.06
483.808	96.06
484.027	100.06
484.245	88.06
484.463	84.06
484.681	97.06
484.9	82.06
485.118	108.06
485.336	91.06
485.554	114.06
485.772	106.06
485.99	105.06
486.209	95.06
486.427	102.06
486.645	113.06
486.863	112.06
487.081	97.06
487.299	104.06
487.517	93.06
487.735	95.06
487.953	106.06
488.171	95.06
488.389	86.06
488.607	96.06
488.825	90.06
489.043	81.06
489.261	84.06
489.479	107.06
489.696	82.06
489.914	88.06
490.132	91.06
490.35	84.06
490.568	91.06
490.786	89.06
491.003	93.06
491.221	95.06
491.439	92.06
491.657	89.06
491.874	98.06
492.092	86.06
492.31	93.06
492.527	97.06
492.745	83.06
492.963	67.06
493.18	93.06
493.398	98.06
493.615	85.06
493.833	91.06
494.05	76.06
494.268	72.06
494.485	85.06
494.703	98.06
494.92	101.06
495.138	99.06
495.355	82.06
495.573	79.06
495.79	79.06
496.008	92.06
496.225	106.06
496.442	83.06
496.66	85.06
496.877	97.06
497.094	85.06
497.312	95.06
497.529	95.06
497.746	100.06
497.963	86.06
498.181	88.06
498.398	88.06
498.615	102.06
498.832	119.06
499.049	96.06
499.267	108.06
499.484	111.06
499.701	98.06
499.918	85.06
500.135	88.06
500.352	99.06
500.569	97.06
500.786	84.06
501.003	95.06
501.22	100.06
501.437	89.06
501.654	110.06
501.871	105.06
502.088	91.06
502.305	91.06
502.522	84.06
502.739	88.06
502.956	83.06
503.172	97.06
503.389	96.06
503.606	96.06
503.823	105.06
504.04	88.06
504.256	101.06
504.473	97.06
504.69	103.06
504.907	96.06
505.123	89.06
505.34	89.06
505.557	85.06
505.773	101.06
505.99	99.06
506.207	85.06
506.423	96.06
506.64	89.06
506.856	89.06
507.073	83.06
507.289	79.06
507.506	98.06
507.722	116.06
507.939	115.06
508.155	106.06
508.372	78.06
508.588	96.06
508.805	96.06
509.021	100.06
509.238	104.06
509.454	95.06
509.67	107.06
509.887	101.06
510.103	142.06
510.319	231.06
510.536	873.06
510.752	2838.06
510.968	801.06
511.184	160.06
511.401	124.06
511.617	118.06
511.833	103.06
512.049	91.06
512.265	89.06
512.481	90.06
512.698	92.06
512.914	93.06
513.13	85.06
513.346	92.06
513.562	96.06
513.778	90.06
513.994	109.06
514.21	111.06
514.426	114.06
514.642	144.06
514.858	136.06
515.074	185.06
515.29	524.06
515.506	1833.06
515.721	720.06
515.937	179.06
516.153	116.06
516.369	105.06
516.585	96.06
516.801	95.06
517.016	95.06
517.232	107.06
517.448	103.06
517.664	89.06
517.879	102.06
518.095	78.06
518.311	96.06
518.527	99.06
518.742	100.06
518.958	98.06
519.173	90.06
519.389	91.06
519.605	93.06
519.82	94.06
520.036	96.06
520.251	133.06
520.467	127.06
520.682	110.06
520.898	111.06
521.113	129.06
521.329	161.06
521.544	227.06
521.76	653.06
521.975	3007.06
522.19	1879.06
522.406	390.06
522.621	146.06
522.836	126.06
523.052	108.06
523.267	95.06
523.482	84.06
523.698	100.06
523.913	128.06
524.128	115.06
524.343	96.06
524.559	105.06
524.774	91.06
524.989	88.06
525.204	110.06
525.419	103.06
525.634	97.06
525.849	111.06
526.064	92.06
526.28	92.06
526.495	102.06
526.71	93.06
526.925	91.06
527.14	97.06
527.355	96.06
527.57	80.06
527.785	95.06
527.999	84.06
528.214	86.06
528.429	93.06
528.644	87.06
528.859	75.06
529.074	91.06
529.289	144.06
529.503	196.06
529.718	106.06
529.933	90.06
530.148	82.06
530.363	84.06
530.577	94.06
530.792	99.06
531.007	84.06
531.221	100.06
531.436	97.06
531.651	86.06
531.865	82.06
532.08	97.06
532.295	93.06
532.509	106.06
532.724	88.06
532.938	83.06
533.153	106.06
533.367	104.06
533.582	99.06
533.796	92.06
534.011	94.06
534.225	88.06
534.44	84.06
534.654	78.06
534.868	92.06
535.083	96.06
535.297	94.06
535.511	106.06
535.726	120.06
535.94	95.06
536.154	97.06
536.369	92.06
536.583	94.06
536.797	88.06
537.011	111.06
537.225	81.06
537.44	101.06
537.654	78.06
537.868	85.06
538.082	81.06
538.296	90.06
538.51	84.06
538.724	80.06
538.938	90.06
539.153	87.06
539.367	103.06
539.581	91.06
539.795	92.06
540.009	99.06
540.222	99.06
540.436	98.06
540.65	89.06
540.864	99.06
541.078	95.06
541.292	104.06
541.506	92.06
541.72	83.06
541.934	93.06
542.147	91.06
542.361	93.06
542.575	87.06
542.789	97.06
543.002	87.06
543.216	99.06
543.43	113.06
543.644	91.06
543.857	97.06
544.071	99.06
544.285	87.06
544.498	97.06
544.712	95.06
544.925	78.06
545.139	73.06
545.352	96.06
545.566	101.06
545.779	86.06
545.993	92.06
546.206	80.06
546.42	74.06
546.633	85.06
546.847	95.06
547.06	92.06
547.274	81.06
547.487	85.06
547.7	88.06
547.914	102.06
548.127	87.06
548.34	89.06
548.554	97.06
548.767	93.06
548.98	83.06
549.193	87.06
549.407	96.06
549.62	94.06
549.833	82.06
550.046	95.06
550.259	94.06
550.473	84.06
550.686	96.06
550.899	94.06
551.112	78.06
551.325	98.06
551.538	86.06
551.751	86.06
551.964	93.06
552.177	97.06
552.39	90.06
552.603	67.06
552.816	82.06
553.029	95.06
553.242	88.06
553.455	97.06
553.667	107.06
553.88	100.06
554.093	91.06
554.306	92.06
554.519	76.06
554.732	88.06
554.944	86.06
555.157	91.06
555.37	101.06
555.583	106.06
555.795	99.06
556.008	90.06
556.221	90.06
556.433	81.06
556.646	90.06
556.859	83.06
557.071	79.06
557.284	99.06
557.496	97.06
557.709	100.06
557.921	104.06
558.134	99.06
558.346	95.06
558.559	91.06
558.771	97.06
558.984	87.06
559.196	95.06
559.409	94.06
559.621	99.06
559.833	82.06
560.046	81.06
560.258	96.06
560.47	92.06
560.683	100.06
560.895	87.06
561.107	106.06
561.32	103.06
561.532	92.06
561.744	89.06
561.956	95.06
562.168	104.06
562.381	98.06
562.593	81.06
562.805	115.06
563.017	97.06
563.229	111.06
563.441	76.06
563.653	82.06
563.865	77.06
564.077	95.06
564.289	96.06
564.501	79.06
564.713	96.06
564.925	96.06
565.137	99.06
565.349	98.06
565.561	88.06
565.773	106.06
565.985	91.06
566.197	93.06
566.408	100.06
566.62	97.06
566.832	82.06
567.044	93.06
567.255	99.06
567.467	77.06
567.679	80.06
567.891	91.06
568.102	78.06
568.314	91.06
568.526	90.06
568.737	92.06
568.949	98.06
569.161	83.06
569.372	83.06
569.584	93.06
569.795	80.06
570.007	115.06
570.218	266.06
570.43	155.06
570.641	82.06
570.853	86.06
571.064	97.06
571.276	93.06
571.487	75.06
571.698	86.06
571.91	92.06
572.121	84.06
572.333	94.06
572.544	87.06
572.755	94.06
572.966	91.06
573.178	100.06
573.389	101.06
573.6	71.06
573.811	81.06
574.023	86.06
574.234	87.06
574.445	97.06
574.656	80.06
574.867	86.06
575.078	86.06
575.289	82.06
575.501	89.06
575.712	93.06
575.923	105.06
576.134	93.06
576.345	77.06
576.556	82.06
576.767	96.06
576.978	97.06
577.188	96.06
577.399	97.06
577.61	94.06
577.821	96.06
578.032	115.06
578.243	291.06
578.454	913.06
578.665	236.06
578.875	104.06
579.086	101.06
579.297	86.06
579.508	112.06
579.718	95.06
579.929	75.06
580.14	89.06
580.35	95.06
580.561	95.06
580.772	74.06
580.982	99.06
581.193	84.06
581.403	87.06
581.614	96.06
581.825	91.06
582.035	79.06
582.246	84.06
582.456	99.06
582.667	97.06
582.877	95.06
583.087	96.06
583.298	96.06
583.508	83.06
583.719	84.06
583.929	89.06
584.139	84.06
584.35	92.06
584.56	89.06
584.77	99.06
584.981	86.06
585.191	85.06
585.401	90.06
585.611	84.06
585.821	87.06
586.032	95.06
586.242	77.06
586.452	100.06
586.662	91.06
586.872	82.06
587.082	85.06
587.292	92.06
587.502	94.06
587.713	96.06
587.923	83.06
588.133	86.06
588.343	86.06
588.553	82.06
588.762	86.06
588.972	84.06
589.182	101.06
589.392	94.06
589.602	75.06
589.812	91.06
590.022	105.06
590.232	84.06
590.441	79.06
590.651	90.06
590.861	86.06
591.071	82.06
591.281	84.06
591.49	80.06
591.7	83.06
591.91	96.06
592.119	111.06
592.329	94.06
592.539	95.06
592.748	93.06
592.958	82.06
593.167	88.06
593.377	92.06
593.587	100.06
593.796	99.06
594.006	94.06
594.215	76.06
594.424	86.06
594.634	86.06
594.843	100.06
595.053	80.06
595.262	84.06
595.472	85.06
595.681	84.06
595.89	84.06
596.1	74.06
596.309	79.06
596.518	73.06
596.727	71.06
596.937	90.06
597.146	118.06
597.355	96.06
597.564	97.06
597.774	96.06
597.983	73.06
598.192	86.06
598.401	87.06
598.61	99.06
598.819	80.06
599.028	92.06
599.237	88.06
599.446	77.06
599.655	84.06
599.864	83.06
600.073	84.06
600.282	85.06
600.491	92.06
600.7	78.06
600.909	88.06
601.118	88.06
601.327	89.06
601.536	83.06
601.745	88.06
601.953	91.06
602.162	89.06
602.371	90.06
602.58	84.06
602.789	92.06
602.997	90.06
603.206	90.06
603.415	86.06
603.623	86.06
603.832	75.06
604.041	81.06
604.249	95.06
604.458	95.06
604.666	79.06
604.875	89.06
605.084	85.06
605.292	87.06
605.501	98.06
605.709	96.06
605.918	84.06
606.126	77.06
606.334	86.06
606.543	76.06
606.751	87.06
606.96	74.06
607.168	83.06
607.376	83.06
607.585	96.06
607.793	94.06
608.001	81.06
608.21	82.06
608.418	88.06
608.626	85.06
608.834	94.06
609.043	88.06
609.251	70.06
609.459	77.06
609.667	86.06
609.875	87.06
610.083	93.06
610.291	69.06
610.499	83.06
610.707	87.06
610.916	83.06
611.124	76.06
611.332	74.06
611.54	80.06
611.748	87.06
611.955	88.06
612.163	82.06
612.371	96.06
612.579	77.06
612.787	89.06
612.995	90.06
613.203	92.06
613.411	79.06
613.618	83.06
613.826	88.06
614.034	77.06
614.242	81.06
614.449	94.06
614.657	89.06
614.865	93.06
615.072	90.06
615.28	88.06
615.488	91.06
615.695	85.06
615.903	91.06
616.111	106.06
616.318	105.06
616.526	108.06
616.733	92.06
616.941	77.06
617.148	80.06
617.356	70.06
617.563	84.06
617.771	86.06
617.978	72.06
618.185	88.06
618.393	95.06
618.6	86.06
618.807	86.06
619.015	83.06
619.222	76.06
619.429	87.06
619.637	89.06
619.844	77.06
620.051	77.06
620.258	77.06
620.466	80.06
620.673	87.06
620.88	92.06
621.087	88.06
621.294	84.06
621.501	91.06
621.708	76.06
621.915	84.06
622.122	84.06
622.329	89.06
622.536	79.06
622.743	92.06
622.95	85.06
623.157	72.06
623.364	88.06
623.571	87.06
623.778	76.06
623.985	79.06
624.192	89.06
624.399	74.06
624.606	94.06
624.812	84.06
625.019	75.06
625.226	88.06
625.433	79.06
625.639	88.06
625.846	94.06
626.053	76.06
626.259	93.06
626.466	95.06
626.673	88.06
626.879	86.06
627.086	85.06
627.293	79.06
627.499	73.06
627.706	93.06
627.912	92.06
628.119	81.06
628.325	81.06
628.532	82.06
628.738	83.06
628.945	80.06
629.151	85.06
629.357	99.06
629.564	95.06
629.77	82.06
629.976	88.06
630.183	82.06
630.389	90.06
630.595	88.06
630.802	87.06
631.008	81.06
631.214	71.06
631.42	72.06
631.627	82.06
631.833	79.06
632.039	82.06
632.245	80.06
632.451	89.06
632.657	82.06
632.863	74.06
633.069	92.06
633.275	84.06
633.481	104.06
633.688	89.06
633.893	90.06
634.099	82.06
634.305	72.06
634.511	83.06
634.717	86.06
634.923	74.06
635.129	83.06
635.335	83.06
635.541	82.06
635.747	94.06
635.952	88.06
636.158	80.06
636.364	83.06
636.57	82.06
636.775	90.06
636.981	80.06
637.187	76.06
637.392	76.06
637.598	89.06
637.804	77.06
638.009	83.06
638.215	86.06
638.421	80.06
638.626	76.06
638.832	85.06
639.037	80.06
639.243	87.06
639.448	80.06
639.654	92.06
639.859	88.06
640.065	92.06
640.27	91.06
640.475	82.06
640.681	79.06
640.886	84.06
641.091	80.06
641.297	92.06
641.502	90.06
641.707	95.06
641.913	85.06
642.118	78.06
642.323	78.06
642.528	95.06
642.733	90.06
642.939	89.06
643.144	86.06
643.349	86.06
643.554	89.06
643.759	77.06
643.964	63.06
644.169	84.06
644.374	76.06
644.579	94.06
644.784	99.06
644.989	75.06
645.194	75.06
645.399	83.06
645.604	75.06
645.809	74.06
646.014	88.06
646.219	79.06
646.423	97.06
646.628	104.06
646.833	88.06
647.038	89.06
647.243	90.06
647.447	79.06
647.652	83.06
647.857	85.06
648.062	81.06
648.266	92.06
648.471	80.06
648.676	106.06
648.88	100.06
649.085	79.06
649.289	87.06
649.494	96.06
649.698	142.06
649.903	102.06
650.107	93.06
650.312	88.06
650.516	74.06
650.721	84.06
650.925	84.06
651.13	81.06
651.334	87.06
651.539	94.06
651.743	78.06
651.947	77.06
652.152	82.06
652.356	84.06
652.56	84.06
652.764	75.06
652.969	80.06
653.173	90.06
653.377	70.06
653.581	81.06
653.785	92.06
653.99	83.06
654.194	75.06
654.398	75.06
654.602	81.06
654.806	92.06
655.01	114.06
655.214	81.06
655.418	74.06
655.622	70.06
655.826	96.06
656.03	84.06
656.234	85.06
656.438	97.06
656.642	93.06
656.846	82.06
657.049	92.06
657.253	88.06
657.457	89.06
657.661	87.06
657.865	81.06
658.068	96.06
658.272	80.06
658.476	83.06
658.68	85.06
658.883	92.06
659.087	75.06
659.291	76.06
659.494	91.06
659.698	80.06
659.901	92.06
660.105	73.06
660.309	71.06
660.512	63.06
660.716	73.06
660.919	66.06
661.123	76.06
661.326	88.06
661.53	73.06
661.733	88.06
661.936	77.06
662.14	78.06
662.343	81.06
662.546	76.06
662.75	92.06
662.953	79.06
663.156	75.06
663.36	76.06
663.563	77.06
663.766	80.06
663.969	92.06
664.173	76.06
664.376	72.06
664.579	87.06
664.782	76.06
664.985	79.06
665.188	95.06
665.391	77.06
665.594	73.06
665.797	66.06
666	76.06
666.203	90.06
666.406	67.06
666.609	80.06
666.812	77.06
667.015	75.06
667.218	80.06
667.421	87.06
667.624	78.06
667.827	76.06
668.03	83.06
668.232	89.06
668.435	85.06
668.638	62.06
668.841	87.06
669.043	73.06
669.246	83.06
669.449	79.06
669.651	71.06
669.854	84.06
670.057	78.06
670.259	88.06
670.462	77.06
670.665	74.06
670.867	96.06
671.07	86.06
671.272	80.06
671.475	66.06
671.677	75.06
671.88	89.06
672.082	78.06
672.284	81.06
672.487	81.06
672.689	72.06
672.892	73.06
