Data from Uncirc_2008_H10_HRD10591_00070.txt Node
Date: Wed Jan 03 10:15:44 EST 2024
User: Yrep
Spectrometer: HR+D1059
Trigger mode: 1
Integration Time (sec): 1.000000E-1
Scans to average: 1
Electric dark correction enabled: true
Nonlinearity correction enabled: false
Boxcar width: 0
XAxis mode: Wavelengths
Number of Pixels in Spectrum: 2048
>>>>>Begin Spectral Data<<<<<
223.165	-18.56
223.4	-18.56
223.635	-18.56
223.869	-25.56
224.104	-28.56
224.338	-15.56
224.573	-22.56
224.808	-7.56
225.042	6.44
225.277	-1.56
225.511	0.44
225.746	5.44
225.98	22.44
226.215	11.44
226.449	6.44
226.683	17.44
226.918	17.44
227.152	32.44
227.387	42.44
227.621	41.44
227.856	45.44
228.09	44.44
228.324	54.44
228.559	56.44
228.793	60.44
229.027	81.44
229.262	62.44
229.496	67.44
229.73	78.44
229.964	75.44
230.199	86.44
230.433	73.44
230.667	81.44
230.901	95.44
231.136	81.44
231.37	90.44
231.604	83.44
231.838	94.44
232.072	75.44
232.306	78.44
232.541	85.44
232.775	86.44
233.009	86.44
233.243	72.44
233.477	90.44
233.711	76.44
233.945	58.44
234.179	78.44
234.413	80.44
234.647	89.44
234.881	83.44
235.115	75.44
235.349	82.44
235.583	82.44
235.817	90.44
236.051	84.44
236.285	75.44
236.519	88.44
236.753	81.44
236.987	75.44
237.221	89.44
237.455	85.44
237.689	85.44
237.922	88.44
238.156	74.44
238.39	67.44
238.624	67.44
238.858	59.44
239.091	74.44
239.325	78.44
239.559	74.44
239.793	80.44
240.027	95.44
240.26	61.44
240.494	82.44
240.728	82.44
240.961	71.44
241.195	82.44
241.429	72.44
241.662	72.44
241.896	68.44
242.13	79.44
242.363	72.44
242.597	79.44
242.83	72.44
243.064	66.44
243.298	81.44
243.531	80.44
243.765	75.44
243.998	68.44
244.232	83.44
244.465	98.44
244.699	99.44
244.932	91.44
245.166	72.44
245.399	83.44
245.633	78.44
245.866	66.44
246.099	75.44
246.333	63.44
246.566	91.44
246.8	74.44
247.033	78.44
247.266	84.44
247.5	79.44
247.733	79.44
247.966	70.44
248.2	84.44
248.433	72.44
248.666	75.44
248.899	79.44
249.133	95.44
249.366	93.44
249.599	96.44
249.832	86.44
250.066	74.44
250.299	65.44
250.532	73.44
250.765	89.44
250.998	92.44
251.231	73.44
251.465	80.44
251.698	68.44
251.931	76.44
252.164	81.44
252.397	77.44
252.63	82.44
252.863	81.44
253.096	73.44
253.329	64.44
253.562	77.44
253.795	91.44
254.028	89.44
254.261	65.44
254.494	77.44
254.727	82.44
254.96	79.44
255.193	83.44
255.426	81.44
255.659	75.44
255.892	80.44
256.124	74.44
256.357	71.44
256.59	76.44
256.823	84.44
257.056	79.44
257.289	92.44
257.521	71.44
257.754	98.44
257.987	88.44
258.22	85.44
258.452	79.44
258.685	74.44
258.918	68.44
259.151	82.44
259.383	78.44
259.616	87.44
259.849	74.44
260.081	89.44
260.314	77.44
260.547	82.44
260.779	87.44
261.012	77.44
261.244	80.44
261.477	79.44
261.71	98.44
261.942	95.44
262.175	91.44
262.407	84.44
262.64	82.44
262.872	75.44
263.105	89.44
263.337	73.44
263.57	76.44
263.802	84.44
264.035	75.44
264.267	69.44
264.499	77.44
264.732	87.44
264.964	78.44
265.197	77.44
265.429	86.44
265.661	74.44
265.894	89.44
266.126	96.44
266.358	84.44
266.591	92.44
266.823	71.44
267.055	81.44
267.287	87.44
267.52	84.44
267.752	84.44
267.984	85.44
268.216	87.44
268.448	77.44
268.681	76.44
268.913	77.44
269.145	96.44
269.377	94.44
269.609	94.44
269.841	90.44
270.073	77.44
270.306	90.44
270.538	83.44
270.77	82.44
271.002	88.44
271.234	67.44
271.466	81.44
271.698	90.44
271.93	83.44
272.162	87.44
272.394	82.44
272.626	78.44
272.858	82.44
273.09	72.44
273.322	81.44
273.553	90.44
273.785	88.44
274.017	86.44
274.249	77.44
274.481	70.44
274.713	82.44
274.945	90.44
275.176	89.44
275.408	84.44
275.64	80.44
275.872	87.44
276.104	83.44
276.335	87.44
276.567	89.44
276.799	93.44
277.031	95.44
277.262	95.44
277.494	74.44
277.726	99.44
277.957	86.44
278.189	86.44
278.421	77.44
278.652	86.44
278.884	92.44
279.115	81.44
279.347	83.44
279.579	71.44
279.81	87.44
280.042	93.44
280.273	82.44
280.505	93.44
280.736	83.44
280.968	90.44
281.199	90.44
281.431	98.44
281.662	95.44
281.894	82.44
282.125	96.44
282.356	106.44
282.588	122.44
282.819	104.44
283.051	89.44
283.282	93.44
283.513	95.44
283.745	74.44
283.976	88.44
284.207	78.44
284.439	90.44
284.67	63.44
284.901	83.44
285.132	74.44
285.364	89.44
285.595	84.44
285.826	87.44
286.057	90.44
286.288	87.44
286.52	93.44
286.751	80.44
286.982	78.44
287.213	89.44
287.444	86.44
287.675	90.44
287.906	94.44
288.138	81.44
288.369	81.44
288.6	72.44
288.831	90.44
289.062	90.44
289.293	94.44
289.524	89.44
289.755	82.44
289.986	99.44
290.217	91.44
290.448	88.44
290.679	86.44
290.91	85.44
291.141	72.44
291.371	89.44
291.602	86.44
291.833	91.44
292.064	84.44
292.295	86.44
292.526	79.44
292.757	97.44
292.987	94.44
293.218	95.44
293.449	84.44
293.68	81.44
293.91	95.44
294.141	100.44
294.372	94.44
294.603	99.44
294.833	87.44
295.064	75.44
295.295	97.44
295.525	84.44
295.756	94.44
295.987	92.44
296.217	124.44
296.448	108.44
296.679	97.44
296.909	87.44
297.14	91.44
297.37	81.44
297.601	96.44
297.831	83.44
298.062	95.44
298.292	95.44
298.523	85.44
298.753	90.44
298.984	84.44
299.214	96.44
299.445	82.44
299.675	90.44
299.905	85.44
300.136	87.44
300.366	83.44
300.597	95.44
300.827	85.44
301.057	110.44
301.288	104.44
301.518	120.44
301.748	91.44
301.979	107.44
302.209	92.44
302.439	72.44
302.669	82.44
302.9	81.44
303.13	101.44
303.36	98.44
303.59	91.44
303.82	91.44
304.051	95.44
304.281	84.44
304.511	80.44
304.741	91.44
304.971	88.44
305.201	84.44
305.431	91.44
305.661	87.44
305.891	87.44
306.121	91.44
306.352	93.44
306.582	110.44
306.812	90.44
307.042	91.44
307.272	100.44
307.502	100.44
307.731	93.44
307.961	92.44
308.191	87.44
308.421	90.44
308.651	93.44
308.881	91.44
309.111	90.44
309.341	97.44
309.571	88.44
309.8	90.44
310.03	102.44
310.26	92.44
310.49	82.44
310.72	110.44
310.949	98.44
311.179	102.44
311.409	84.44
311.639	83.44
311.868	92.44
312.098	93.44
312.328	92.44
312.557	104.44
312.787	99.44
313.017	98.44
313.246	96.44
313.476	81.44
313.706	83.44
313.935	96.44
314.165	94.44
314.394	105.44
314.624	86.44
314.853	109.44
315.083	78.44
315.312	103.44
315.542	92.44
315.771	94.44
316.001	90.44
316.23	85.44
316.46	92.44
316.689	84.44
316.919	94.44
317.148	102.44
317.377	82.44
317.607	90.44
317.836	94.44
318.065	88.44
318.295	93.44
318.524	93.44
318.753	90.44
318.983	88.44
319.212	99.44
319.441	99.44
319.67	93.44
319.9	107.44
320.129	87.44
320.358	101.44
320.587	84.44
320.816	83.44
321.046	95.44
321.275	101.44
321.504	96.44
321.733	88.44
321.962	88.44
322.191	99.44
322.42	101.44
322.649	111.44
322.878	107.44
323.108	116.44
323.337	110.44
323.566	121.44
323.795	137.44
324.024	195.44
324.253	358.44
324.482	742.44
324.71	1432.44
324.939	1894.44
325.168	718.44
325.397	225.44
325.626	144.44
325.855	119.44
326.084	119.44
326.313	134.44
326.542	142.44
326.77	201.44
326.999	405.44
327.228	814.44
327.457	1476.44
327.686	1179.44
327.914	317.44
328.143	167.44
328.372	132.44
328.6	109.44
328.829	117.44
329.058	135.44
329.287	120.44
329.515	104.44
329.744	105.44
329.972	84.44
330.201	95.44
330.43	107.44
330.658	97.44
330.887	126.44
331.115	109.44
331.344	103.44
331.572	108.44
331.801	97.44
332.03	99.44
332.258	100.44
332.486	75.44
332.715	80.44
332.943	91.44
333.172	84.44
333.4	96.44
333.629	91.44
333.857	118.44
334.085	114.44
334.314	105.44
334.542	98.44
334.771	104.44
334.999	103.44
335.227	93.44
335.455	87.44
335.684	100.44
335.912	89.44
336.14	90.44
336.369	100.44
336.597	107.44
336.825	95.44
337.053	110.44
337.281	94.44
337.51	94.44
337.738	95.44
337.966	89.44
338.194	91.44
338.422	95.44
338.65	98.44
338.878	95.44
339.106	93.44
339.334	98.44
339.562	90.44
339.79	103.44
340.018	90.44
340.246	96.44
340.474	92.44
340.702	88.44
340.93	92.44
341.158	94.44
341.386	94.44
341.614	102.44
341.842	98.44
342.07	78.44
342.298	84.44
342.526	90.44
342.754	75.44
342.981	94.44
343.209	90.44
343.437	80.44
343.665	96.44
343.893	98.44
344.12	96.44
344.348	92.44
344.576	87.44
344.804	94.44
345.031	90.44
345.259	93.44
345.487	78.44
345.714	94.44
345.942	100.44
346.17	91.44
346.397	95.44
346.625	85.44
346.853	107.44
347.08	94.44
347.308	84.44
347.535	96.44
347.763	103.44
347.99	99.44
348.218	95.44
348.445	100.44
348.673	110.44
348.9	96.44
349.128	99.44
349.355	90.44
349.583	88.44
349.81	80.44
350.037	100.44
350.265	102.44
350.492	93.44
350.72	93.44
350.947	97.44
351.174	96.44
351.402	101.44
351.629	90.44
351.856	89.44
352.083	91.44
352.311	110.44
352.538	116.44
352.765	112.44
352.992	110.44
353.22	112.44
353.447	88.44
353.674	82.44
353.901	92.44
354.128	116.44
354.355	92.44
354.583	91.44
354.81	99.44
355.037	97.44
355.264	93.44
355.491	87.44
355.718	88.44
355.945	94.44
356.172	100.44
356.399	99.44
356.626	98.44
356.853	95.44
357.08	90.44
357.307	100.44
357.534	106.44
357.761	103.44
357.988	94.44
358.215	89.44
358.441	82.44
358.668	82.44
358.895	87.44
359.122	86.44
359.349	90.44
359.576	85.44
359.802	88.44
360.029	96.44
360.256	100.44
360.483	101.44
360.709	81.44
360.936	104.44
361.163	92.44
361.39	84.44
361.616	88.44
361.843	83.44
362.07	91.44
362.296	104.44
362.523	105.44
362.749	87.44
362.976	89.44
363.203	97.44
363.429	96.44
363.656	97.44
363.882	100.44
364.109	91.44
364.335	73.44
364.562	91.44
364.788	99.44
365.015	92.44
365.241	107.44
365.468	106.44
365.694	94.44
365.92	110.44
366.147	97.44
366.373	88.44
366.599	94.44
366.826	92.44
367.052	91.44
367.278	96.44
367.505	78.44
367.731	88.44
367.957	95.44
368.184	90.44
368.41	100.44
368.636	90.44
368.862	112.44
369.089	103.44
369.315	97.44
369.541	102.44
369.767	83.44
369.993	95.44
370.219	83.44
370.445	90.44
370.672	94.44
370.898	83.44
371.124	82.44
371.35	93.44
371.576	81.44
371.802	83.44
372.028	96.44
372.254	88.44
372.48	76.44
372.706	86.44
372.932	98.44
373.158	91.44
373.384	75.44
373.61	105.44
373.835	90.44
374.061	97.44
374.287	98.44
374.513	105.44
374.739	85.44
374.965	96.44
375.191	76.44
375.416	99.44
375.642	92.44
375.868	91.44
376.094	88.44
376.319	104.44
376.545	102.44
376.771	88.44
376.997	94.44
377.222	74.44
377.448	81.44
377.674	85.44
377.899	84.44
378.125	98.44
378.35	84.44
378.576	96.44
378.802	96.44
379.027	99.44
379.253	97.44
379.478	104.44
379.704	97.44
379.929	88.44
380.155	110.44
380.38	89.44
380.606	90.44
380.831	102.44
381.057	103.44
381.282	88.44
381.507	98.44
381.733	76.44
381.958	94.44
382.184	99.44
382.409	97.44
382.634	105.44
382.86	95.44
383.085	92.44
383.31	99.44
383.535	104.44
383.761	107.44
383.986	108.44
384.211	102.44
384.436	94.44
384.662	99.44
384.887	81.44
385.112	85.44
385.337	94.44
385.562	107.44
385.787	113.44
386.013	100.44
386.238	111.44
386.463	102.44
386.688	107.44
386.913	114.44
387.138	109.44
387.363	97.44
387.588	104.44
387.813	99.44
388.038	103.44
388.263	109.44
388.488	114.44
388.713	101.44
388.938	94.44
389.163	91.44
389.387	97.44
389.612	100.44
389.837	95.44
390.062	102.44
390.287	88.44
390.512	81.44
390.736	89.44
390.961	71.44
391.186	96.44
391.411	98.44
391.636	102.44
391.86	83.44
392.085	89.44
392.31	102.44
392.534	102.44
392.759	98.44
392.984	94.44
393.208	91.44
393.433	84.44
393.658	89.44
393.882	86.44
394.107	75.44
394.331	81.44
394.556	86.44
394.78	96.44
395.005	105.44
395.229	100.44
395.454	97.44
395.678	98.44
395.903	80.44
396.127	91.44
396.352	96.44
396.576	83.44
396.801	93.44
397.025	76.44
397.249	91.44
397.474	95.44
397.698	89.44
397.922	96.44
398.147	74.44
398.371	73.44
398.595	80.44
398.82	89.44
399.044	90.44
399.268	94.44
399.492	92.44
399.717	111.44
399.941	82.44
400.165	94.44
400.389	90.44
400.613	101.44
400.837	94.44
401.062	98.44
401.286	95.44
401.51	91.44
401.734	86.44
401.958	83.44
402.182	106.44
402.406	138.44
402.63	112.44
402.854	95.44
403.078	92.44
403.302	102.44
403.526	88.44
403.75	70.44
403.974	88.44
404.198	92.44
404.422	103.44
404.645	100.44
404.869	94.44
405.093	112.44
405.317	105.44
405.541	97.44
405.765	90.44
405.988	112.44
406.212	160.44
406.436	197.44
406.66	146.44
406.883	107.44
407.107	99.44
407.331	90.44
407.555	98.44
407.778	97.44
408.002	104.44
408.226	92.44
408.449	86.44
408.673	77.44
408.896	91.44
409.12	108.44
409.344	105.44
409.567	92.44
409.791	88.44
410.014	89.44
410.238	101.44
410.461	98.44
410.685	93.44
410.908	91.44
411.132	105.44
411.355	106.44
411.578	104.44
411.802	101.44
412.025	91.44
412.249	86.44
412.472	74.44
412.695	102.44
412.919	83.44
413.142	83.44
413.365	86.44
413.589	90.44
413.812	75.44
414.035	83.44
414.258	94.44
414.482	94.44
414.705	83.44
414.928	99.44
415.151	101.44
415.374	97.44
415.597	91.44
415.821	88.44
416.044	78.44
416.267	91.44
416.49	82.44
416.713	78.44
416.936	98.44
417.159	99.44
417.382	86.44
417.605	90.44
417.828	99.44
418.051	89.44
418.274	91.44
418.497	97.44
418.72	84.44
418.943	90.44
419.166	84.44
419.389	84.44
419.611	105.44
419.834	100.44
420.057	88.44
420.28	101.44
420.503	85.44
420.726	86.44
420.948	99.44
421.171	79.44
421.394	82.44
421.617	90.44
421.839	91.44
422.062	75.44
422.285	98.44
422.507	97.44
422.73	91.44
422.953	102.44
423.175	93.44
423.398	86.44
423.621	91.44
423.843	88.44
424.066	104.44
424.288	77.44
424.511	89.44
424.733	102.44
424.956	111.44
425.178	96.44
425.401	94.44
425.623	103.44
425.846	86.44
426.068	82.44
426.291	97.44
426.513	80.44
426.735	101.44
426.958	91.44
427.18	100.44
427.402	116.44
427.625	143.44
427.847	122.44
428.069	94.44
428.292	79.44
428.514	91.44
428.736	83.44
428.958	92.44
429.181	92.44
429.403	84.44
429.625	91.44
429.847	87.44
430.069	98.44
430.292	106.44
430.514	99.44
430.736	87.44
430.958	91.44
431.18	81.44
431.402	95.44
431.624	80.44
431.846	96.44
432.068	108.44
432.29	87.44
432.512	81.44
432.734	77.44
432.956	96.44
433.178	115.44
433.4	103.44
433.622	96.44
433.844	98.44
434.066	99.44
434.287	85.44
434.509	94.44
434.731	104.44
434.953	80.44
435.175	87.44
435.397	85.44
435.618	94.44
435.84	99.44
436.062	111.44
436.284	111.44
436.505	98.44
436.727	105.44
436.949	84.44
437.17	79.44
437.392	84.44
437.614	76.44
437.835	99.44
438.057	108.44
438.278	101.44
438.5	105.44
438.721	111.44
438.943	92.44
439.165	78.44
439.386	96.44
439.608	86.44
439.829	98.44
440.05	112.44
440.272	136.44
440.493	92.44
440.715	95.44
440.936	91.44
441.158	70.44
441.379	92.44
441.6	77.44
441.822	83.44
442.043	86.44
442.264	95.44
442.486	88.44
442.707	95.44
442.928	104.44
443.149	124.44
443.371	130.44
443.592	102.44
443.813	104.44
444.034	96.44
444.255	87.44
444.476	79.44
444.698	89.44
444.919	70.44
445.14	125.44
445.361	118.44
445.582	118.44
445.803	136.44
446.024	131.44
446.245	116.44
446.466	119.44
446.687	98.44
446.908	72.44
447.129	99.44
447.35	86.44
447.571	91.44
447.792	77.44
448.013	87.44
448.234	95.44
448.455	101.44
448.675	98.44
448.896	114.44
449.117	107.44
449.338	95.44
449.559	108.44
449.779	124.44
450	90.44
450.221	86.44
450.442	94.44
450.662	93.44
450.883	103.44
451.104	110.44
451.324	86.44
451.545	82.44
451.766	90.44
451.986	80.44
452.207	84.44
452.428	79.44
452.648	78.44
452.869	92.44
453.089	114.44
453.31	111.44
453.53	90.44
453.751	83.44
453.971	105.44
454.192	100.44
454.412	81.44
454.633	92.44
454.853	94.44
455.073	98.44
455.294	98.44
455.514	105.44
455.734	80.44
455.955	79.44
456.175	87.44
456.395	97.44
456.616	72.44
456.836	84.44
457.056	92.44
457.276	88.44
457.497	94.44
457.717	87.44
457.937	82.44
458.157	99.44
458.377	91.44
458.598	95.44
458.818	131.44
459.038	126.44
459.258	107.44
459.478	85.44
459.698	87.44
459.918	85.44
460.138	105.44
460.358	76.44
460.578	83.44
460.798	86.44
461.018	99.44
461.238	82.44
461.458	88.44
461.678	90.44
461.898	77.44
462.118	95.44
462.338	81.44
462.558	86.44
462.777	85.44
462.997	86.44
463.217	73.44
463.437	80.44
463.657	83.44
463.876	90.44
464.096	90.44
464.316	90.44
464.536	88.44
464.755	100.44
464.975	112.44
465.195	128.44
465.414	117.44
465.634	103.44
465.854	96.44
466.073	92.44
466.293	100.44
466.512	84.44
466.732	90.44
466.951	104.44
467.171	88.44
467.391	95.44
467.61	104.44
467.829	97.44
468.049	102.44
468.268	101.44
468.488	84.44
468.707	74.44
468.927	79.44
469.146	86.44
469.365	75.44
469.585	87.44
469.804	104.44
470.023	87.44
470.243	89.44
470.462	94.44
470.681	108.44
470.901	83.44
471.12	92.44
471.339	77.44
471.558	88.44
471.777	84.44
471.997	87.44
472.216	80.44
472.435	103.44
472.654	89.44
472.873	77.44
473.092	79.44
473.311	110.44
473.53	84.44
473.749	92.44
473.968	94.44
474.187	102.44
474.406	103.44
474.625	95.44
474.844	60.44
475.063	85.44
475.282	87.44
475.501	94.44
475.72	100.44
475.939	94.44
476.158	78.44
476.377	84.44
476.596	82.44
476.814	82.44
477.033	91.44
477.252	87.44
477.471	87.44
477.69	83.44
477.908	97.44
478.127	86.44
478.346	107.44
478.564	99.44
478.783	80.44
479.002	86.44
479.22	77.44
479.439	92.44
479.658	99.44
479.876	89.44
480.095	89.44
480.313	84.44
480.532	89.44
480.751	76.44
480.969	76.44
481.188	99.44
481.406	97.44
481.624	91.44
481.843	98.44
482.061	88.44
482.28	77.44
482.498	81.44
482.717	80.44
482.935	76.44
483.153	95.44
483.372	97.44
483.59	90.44
483.808	82.44
484.027	97.44
484.245	96.44
484.463	84.44
484.681	110.44
484.9	100.44
485.118	91.44
485.336	88.44
485.554	90.44
485.772	92.44
485.99	94.44
486.209	92.44
486.427	107.44
486.645	87.44
486.863	92.44
487.081	102.44
487.299	94.44
487.517	106.44
487.735	84.44
487.953	82.44
488.171	93.44
488.389	86.44
488.607	102.44
488.825	95.44
489.043	91.44
489.261	88.44
489.479	78.44
489.696	90.44
489.914	95.44
490.132	74.44
490.35	93.44
490.568	87.44
490.786	84.44
491.003	94.44
491.221	88.44
491.439	72.44
491.657	85.44
491.874	91.44
492.092	89.44
492.31	82.44
492.527	98.44
492.745	84.44
492.963	93.44
493.18	83.44
493.398	101.44
493.615	95.44
493.833	98.44
494.05	98.44
494.268	90.44
494.485	90.44
494.703	97.44
494.92	94.44
495.138	89.44
495.355	97.44
495.573	87.44
495.79	97.44
496.008	88.44
496.225	92.44
496.442	98.44
496.66	111.44
496.877	99.44
497.094	83.44
497.312	85.44
497.529	88.44
497.746	100.44
497.963	89.44
498.181	100.44
498.398	74.44
498.615	100.44
498.832	107.44
499.049	74.44
499.267	88.44
499.484	90.44
499.701	89.44
499.918	90.44
500.135	84.44
500.352	77.44
500.569	99.44
500.786	84.44
501.003	81.44
501.22	84.44
501.437	98.44
501.654	91.44
501.871	103.44
502.088	95.44
502.305	89.44
502.522	94.44
502.739	83.44
502.956	91.44
503.172	103.44
503.389	84.44
503.606	110.44
503.823	102.44
504.04	99.44
504.256	83.44
504.473	83.44
504.69	87.44
504.907	92.44
505.123	105.44
505.34	93.44
505.557	111.44
505.773	90.44
505.99	102.44
506.207	100.44
506.423	84.44
506.64	100.44
506.856	90.44
507.073	82.44
507.289	85.44
507.506	122.44
507.722	97.44
507.939	106.44
508.155	96.44
508.372	88.44
508.588	89.44
508.805	84.44
509.021	97.44
509.238	98.44
509.454	89.44
509.67	93.44
509.887	112.44
510.103	113.44
510.319	199.44
510.536	663.44
510.752	2069.44
510.968	593.44
511.184	158.44
511.401	107.44
511.617	94.44
511.833	84.44
512.049	90.44
512.265	68.44
512.481	95.44
512.698	97.44
512.914	94.44
513.13	102.44
513.346	98.44
513.562	90.44
513.778	84.44
513.994	100.44
514.21	94.44
514.426	107.44
514.642	125.44
514.858	107.44
515.074	159.44
515.29	384.44
515.506	1213.44
515.721	462.44
515.937	142.44
516.153	99.44
516.369	92.44
516.585	100.44
516.801	92.44
517.016	92.44
517.232	99.44
517.448	98.44
517.664	72.44
517.879	87.44
518.095	76.44
518.311	111.44
518.527	89.44
518.742	95.44
518.958	99.44
519.173	87.44
519.389	84.44
519.605	89.44
519.82	95.44
520.036	92.44
520.251	102.44
520.467	101.44
520.682	89.44
520.898	98.44
521.113	121.44
521.329	118.44
521.544	169.44
521.76	498.44
521.975	2008.44
522.19	1219.44
522.406	259.44
522.621	111.44
522.836	99.44
523.052	93.44
523.267	97.44
523.482	80.44
523.698	105.44
523.913	99.44
524.128	93.44
524.343	97.44
524.559	101.44
524.774	93.44
524.989	89.44
525.204	90.44
525.419	93.44
525.634	78.44
525.849	96.44
526.064	88.44
526.28	90.44
526.495	92.44
526.71	102.44
526.925	91.44
527.14	80.44
527.355	92.44
527.57	94.44
527.785	95.44
527.999	93.44
528.214	75.44
528.429	98.44
528.644	84.44
528.859	92.44
529.074	91.44
529.289	114.44
529.503	152.44
529.718	103.44
529.933	85.44
530.148	87.44
530.363	91.44
530.577	84.44
530.792	81.44
531.007	97.44
531.221	104.44
531.436	93.44
531.651	81.44
531.865	84.44
532.08	100.44
532.295	88.44
532.509	76.44
532.724	84.44
532.938	96.44
533.153	105.44
533.367	87.44
533.582	89.44
533.796	105.44
534.011	99.44
534.225	96.44
534.44	96.44
534.654	84.44
534.868	97.44
535.083	96.44
535.297	92.44
535.511	90.44
535.726	100.44
535.94	88.44
536.154	90.44
536.369	87.44
536.583	78.44
536.797	95.44
537.011	83.44
537.225	89.44
537.44	100.44
537.654	107.44
537.868	96.44
538.082	104.44
538.296	95.44
538.51	94.44
538.724	78.44
538.938	102.44
539.153	83.44
539.367	97.44
539.581	90.44
539.795	96.44
540.009	90.44
540.222	92.44
540.436	82.44
540.65	88.44
540.864	85.44
541.078	82.44
541.292	92.44
541.506	90.44
541.72	89.44
541.934	86.44
542.147	92.44
542.361	91.44
542.575	84.44
542.789	85.44
543.002	84.44
543.216	89.44
543.43	99.44
543.644	91.44
543.857	90.44
544.071	88.44
544.285	112.44
544.498	105.44
544.712	81.44
544.925	71.44
545.139	81.44
545.352	98.44
545.566	106.44
545.779	82.44
545.993	100.44
546.206	87.44
546.42	85.44
546.633	87.44
546.847	91.44
547.06	78.44
547.274	74.44
547.487	86.44
547.7	80.44
547.914	92.44
548.127	96.44
548.34	81.44
548.554	97.44
548.767	92.44
548.98	87.44
549.193	84.44
549.407	87.44
549.62	88.44
549.833	84.44
550.046	91.44
550.259	80.44
550.473	82.44
550.686	89.44
550.899	89.44
551.112	96.44
551.325	95.44
551.538	91.44
551.751	96.44
551.964	87.44
552.177	99.44
552.39	103.44
552.603	98.44
552.816	97.44
553.029	85.44
553.242	80.44
553.455	83.44
553.667	103.44
553.88	102.44
554.093	97.44
554.306	98.44
554.519	90.44
554.732	90.44
554.944	97.44
555.157	91.44
555.37	83.44
555.583	80.44
555.795	95.44
556.008	104.44
556.221	96.44
556.433	92.44
556.646	87.44
556.859	86.44
557.071	103.44
557.284	87.44
557.496	82.44
557.709	91.44
557.921	88.44
558.134	86.44
558.346	79.44
558.559	83.44
558.771	97.44
558.984	87.44
559.196	87.44
559.409	100.44
559.621	74.44
559.833	81.44
560.046	70.44
560.258	79.44
560.47	98.44
560.683	88.44
560.895	92.44
561.107	86.44
561.32	86.44
561.532	83.44
561.744	88.44
561.956	91.44
562.168	71.44
562.381	72.44
562.593	88.44
562.805	98.44
563.017	96.44
563.229	87.44
563.441	90.44
563.653	90.44
563.865	88.44
564.077	77.44
564.289	80.44
564.501	87.44
564.713	82.44
564.925	102.44
565.137	110.44
565.349	97.44
565.561	91.44
565.773	83.44
565.985	94.44
566.197	76.44
566.408	88.44
566.62	86.44
566.832	90.44
567.044	97.44
567.255	79.44
567.467	91.44
567.679	105.44
567.891	75.44
568.102	78.44
568.314	90.44
568.526	103.44
568.737	94.44
568.949	85.44
569.161	102.44
569.372	73.44
569.584	90.44
569.795	93.44
570.007	111.44
570.218	215.44
570.43	140.44
570.641	96.44
570.853	84.44
571.064	81.44
571.276	83.44
571.487	90.44
571.698	98.44
571.91	82.44
572.121	74.44
572.333	87.44
572.544	81.44
572.755	85.44
572.966	84.44
573.178	91.44
573.389	92.44
573.6	93.44
573.811	86.44
574.023	91.44
574.234	84.44
574.445	84.44
574.656	96.44
574.867	90.44
575.078	83.44
575.289	95.44
575.501	91.44
575.712	93.44
575.923	92.44
576.134	100.44
576.345	91.44
576.556	86.44
576.767	81.44
576.978	69.44
577.188	74.44
577.399	84.44
577.61	98.44
577.821	106.44
578.032	123.44
578.243	244.44
578.454	702.44
578.665	184.44
578.875	97.44
579.086	90.44
579.297	94.44
579.508	77.44
579.718	91.44
579.929	92.44
580.14	85.44
580.35	80.44
580.561	88.44
580.772	90.44
580.982	96.44
581.193	95.44
581.403	84.44
581.614	82.44
581.825	86.44
582.035	80.44
582.246	85.44
582.456	91.44
582.667	95.44
582.877	86.44
583.087	99.44
583.298	87.44
583.508	74.44
583.719	75.44
583.929	87.44
584.139	84.44
584.35	89.44
584.56	84.44
584.77	89.44
584.981	95.44
585.191	95.44
585.401	80.44
585.611	88.44
585.821	88.44
586.032	89.44
586.242	91.44
586.452	91.44
586.662	97.44
586.872	88.44
587.082	84.44
587.292	95.44
587.502	90.44
587.713	80.44
587.923	87.44
588.133	86.44
588.343	85.44
588.553	80.44
588.762	94.44
588.972	87.44
589.182	88.44
589.392	82.44
589.602	91.44
589.812	78.44
590.022	89.44
590.232	79.44
590.441	77.44
590.651	89.44
590.861	77.44
591.071	92.44
591.281	78.44
591.49	87.44
591.7	74.44
591.91	72.44
592.119	84.44
592.329	98.44
592.539	94.44
592.748	87.44
592.958	80.44
593.167	80.44
593.377	82.44
593.587	97.44
593.796	92.44
594.006	82.44
594.215	89.44
594.424	72.44
594.634	81.44
594.843	97.44
595.053	84.44
595.262	86.44
595.472	88.44
595.681	82.44
595.89	78.44
596.1	95.44
596.309	88.44
596.518	95.44
596.727	92.44
596.937	89.44
597.146	92.44
597.355	89.44
597.564	93.44
597.774	93.44
597.983	88.44
598.192	87.44
598.401	100.44
598.61	89.44
598.819	89.44
599.028	82.44
599.237	88.44
599.446	77.44
599.655	79.44
599.864	80.44
600.073	87.44
600.282	88.44
600.491	88.44
600.7	84.44
600.909	89.44
601.118	102.44
601.327	84.44
601.536	86.44
601.745	95.44
601.953	85.44
602.162	84.44
602.371	74.44
602.58	93.44
602.789	90.44
602.997	90.44
603.206	101.44
603.415	80.44
603.623	76.44
603.832	73.44
604.041	80.44
604.249	84.44
604.458	85.44
604.666	85.44
604.875	91.44
605.084	90.44
605.292	78.44
605.501	83.44
605.709	92.44
605.918	80.44
606.126	80.44
606.334	105.44
606.543	78.44
606.751	103.44
606.96	83.44
607.168	80.44
607.376	78.44
607.585	85.44
607.793	88.44
608.001	85.44
608.21	84.44
608.418	85.44
608.626	79.44
608.834	79.44
609.043	71.44
609.251	86.44
609.459	89.44
609.667	88.44
609.875	74.44
610.083	83.44
610.291	96.44
610.499	86.44
610.707	91.44
610.916	89.44
611.124	86.44
611.332	89.44
611.54	90.44
611.748	80.44
611.955	83.44
612.163	91.44
612.371	87.44
612.579	78.44
612.787	89.44
612.995	80.44
613.203	81.44
613.411	87.44
613.618	98.44
613.826	82.44
614.034	83.44
614.242	94.44
614.449	87.44
614.657	84.44
614.865	85.44
615.072	96.44
615.28	76.44
615.488	83.44
615.695	96.44
615.903	98.44
616.111	105.44
616.318	98.44
616.526	86.44
616.733	83.44
616.941	107.44
617.148	77.44
617.356	86.44
617.563	74.44
617.771	85.44
617.978	89.44
618.185	75.44
618.393	93.44
618.6	94.44
618.807	74.44
619.015	91.44
619.222	83.44
619.429	81.44
619.637	79.44
619.844	91.44
620.051	71.44
620.258	94.44
620.466	91.44
620.673	93.44
620.88	88.44
621.087	92.44
621.294	83.44
621.501	77.44
621.708	82.44
621.915	76.44
622.122	83.44
622.329	90.44
622.536	87.44
622.743	79.44
622.95	80.44
623.157	92.44
623.364	114.44
623.571	87.44
623.778	83.44
623.985	96.44
624.192	83.44
624.399	90.44
624.606	87.44
624.812	82.44
625.019	89.44
625.226	79.44
625.433	79.44
625.639	78.44
625.846	76.44
626.053	82.44
626.259	83.44
626.466	91.44
626.673	95.44
626.879	96.44
627.086	87.44
627.293	101.44
627.499	87.44
627.706	89.44
627.912	89.44
628.119	88.44
628.325	94.44
628.532	92.44
628.738	83.44
628.945	80.44
629.151	80.44
629.357	90.44
629.564	98.44
629.77	84.44
629.976	84.44
630.183	72.44
630.389	79.44
630.595	93.44
630.802	88.44
631.008	87.44
631.214	74.44
631.42	82.44
631.627	94.44
631.833	93.44
632.039	96.44
632.245	82.44
632.451	89.44
632.657	78.44
632.863	66.44
633.069	91.44
633.275	75.44
633.481	76.44
633.688	80.44
633.893	84.44
634.099	87.44
634.305	76.44
634.511	90.44
634.717	93.44
634.923	80.44
635.129	77.44
635.335	81.44
635.541	92.44
635.747	91.44
635.952	88.44
636.158	89.44
636.364	78.44
636.57	90.44
636.775	82.44
636.981	91.44
637.187	103.44
637.392	94.44
637.598	83.44
637.804	78.44
638.009	74.44
638.215	96.44
638.421	104.44
638.626	86.44
638.832	81.44
639.037	95.44
639.243	74.44
639.448	83.44
639.654	95.44
639.859	67.44
640.065	92.44
640.27	100.44
640.475	78.44
640.681	84.44
640.886	88.44
641.091	96.44
641.297	94.44
641.502	86.44
641.707	83.44
641.913	86.44
642.118	72.44
642.323	89.44
642.528	94.44
642.733	83.44
642.939	110.44
643.144	89.44
643.349	89.44
643.554	84.44
643.759	89.44
643.964	84.44
644.169	82.44
644.374	87.44
644.579	82.44
644.784	83.44
644.989	85.44
645.194	79.44
645.399	93.44
645.604	93.44
645.809	89.44
646.014	90.44
646.219	90.44
646.423	80.44
646.628	89.44
646.833	78.44
647.038	82.44
647.243	77.44
647.447	84.44
647.652	87.44
647.857	99.44
648.062	71.44
648.266	80.44
648.471	92.44
648.676	77.44
648.88	89.44
649.085	96.44
649.289	81.44
649.494	101.44
649.698	120.44
649.903	92.44
650.107	78.44
650.312	78.44
650.516	75.44
650.721	87.44
650.925	70.44
651.13	75.44
651.334	74.44
651.539	83.44
651.743	78.44
651.947	79.44
652.152	89.44
652.356	71.44
652.56	85.44
652.764	83.44
652.969	88.44
653.173	82.44
653.377	83.44
653.581	68.44
653.785	74.44
653.99	85.44
654.194	86.44
654.398	97.44
654.602	82.44
654.806	95.44
655.01	105.44
655.214	88.44
655.418	69.44
655.622	87.44
655.826	75.44
656.03	92.44
656.234	70.44
656.438	74.44
656.642	95.44
656.846	91.44
657.049	64.44
657.253	81.44
657.457	75.44
657.661	86.44
657.865	92.44
658.068	93.44
658.272	92.44
658.476	94.44
658.68	92.44
658.883	98.44
659.087	90.44
659.291	78.44
659.494	84.44
659.698	88.44
659.901	99.44
660.105	85.44
660.309	83.44
660.512	97.44
660.716	71.44
660.919	73.44
661.123	98.44
661.326	83.44
661.53	84.44
661.733	86.44
661.936	83.44
662.14	89.44
662.343	76.44
662.546	87.44
662.75	86.44
662.953	77.44
663.156	83.44
663.36	84.44
663.563	95.44
663.766	70.44
663.969	84.44
664.173	83.44
664.376	66.44
664.579	76.44
664.782	78.44
664.985	67.44
665.188	82.44
665.391	78.44
665.594	87.44
665.797	88.44
666	79.44
666.203	83.44
666.406	73.44
666.609	75.44
666.812	79.44
667.015	86.44
667.218	93.44
667.421	87.44
667.624	88.44
667.827	91.44
668.03	82.44
668.232	94.44
668.435	81.44
668.638	79.44
668.841	80.44
669.043	79.44
669.246	76.44
669.449	93.44
669.651	93.44
669.854	80.44
670.057	69.44
670.259	77.44
670.462	75.44
670.665	80.44
670.867	79.44
671.07	87.44
671.272	90.44
671.475	81.44
671.677	78.44
671.88	78.44
672.082	80.44
672.284	100.44
672.487	92.44
672.689	82.44
672.892	86.44
