Data from Uncirc_2008_H10_HRD10591_00098.txt Node
Date: Wed Jan 03 10:15:50 EST 2024
User: Yrep
Spectrometer: HR+D1059
Trigger mode: 1
Integration Time (sec): 1.000000E-1
Scans to average: 1
Electric dark correction enabled: true
Nonlinearity correction enabled: false
Boxcar width: 0
XAxis mode: Wavelengths
Number of Pixels in Spectrum: 2048
>>>>>Begin Spectral Data<<<<<
223.165	-18.69
223.4	-18.69
223.635	-18.69
223.869	-13.69
224.104	-17.69
224.338	-7.69
224.573	-16.69
224.808	-17.69
225.042	-15.69
225.277	-4.69
225.511	-12.69
225.746	0.31
225.98	11.31
226.215	23.31
226.449	17.31
226.683	18.31
226.918	20.31
227.152	34.31
227.387	37.31
227.621	35.31
227.856	40.31
228.09	47.31
228.324	53.31
228.559	59.31
228.793	54.31
229.027	76.31
229.262	56.31
229.496	83.31
229.73	82.31
229.964	77.31
230.199	87.31
230.433	61.31
230.667	86.31
230.901	67.31
231.136	93.31
231.37	73.31
231.604	83.31
231.838	66.31
232.072	86.31
232.306	76.31
232.541	74.31
232.775	73.31
233.009	76.31
233.243	75.31
233.477	76.31
233.711	77.31
233.945	78.31
234.179	72.31
234.413	87.31
234.647	85.31
234.881	80.31
235.115	81.31
235.349	73.31
235.583	71.31
235.817	65.31
236.051	73.31
236.285	85.31
236.519	84.31
236.753	69.31
236.987	69.31
237.221	78.31
237.455	80.31
237.689	77.31
237.922	82.31
238.156	87.31
238.39	68.31
238.624	73.31
238.858	77.31
239.091	78.31
239.325	74.31
239.559	68.31
239.793	79.31
240.027	73.31
240.26	92.31
240.494	74.31
240.728	82.31
240.961	71.31
241.195	81.31
241.429	75.31
241.662	83.31
241.896	92.31
242.13	83.31
242.363	75.31
242.597	75.31
242.83	63.31
243.064	93.31
243.298	93.31
243.531	91.31
243.765	70.31
243.998	79.31
244.232	77.31
244.465	86.31
244.699	70.31
244.932	73.31
245.166	80.31
245.399	66.31
245.633	76.31
245.866	74.31
246.099	79.31
246.333	79.31
246.566	79.31
246.8	95.31
247.033	90.31
247.266	72.31
247.5	72.31
247.733	91.31
247.966	80.31
248.2	74.31
248.433	81.31
248.666	90.31
248.899	71.31
249.133	87.31
249.366	90.31
249.599	88.31
249.832	65.31
250.066	77.31
250.299	80.31
250.532	79.31
250.765	77.31
250.998	73.31
251.231	82.31
251.465	77.31
251.698	76.31
251.931	83.31
252.164	87.31
252.397	88.31
252.63	70.31
252.863	88.31
253.096	73.31
253.329	76.31
253.562	86.31
253.795	85.31
254.028	81.31
254.261	87.31
254.494	92.31
254.727	80.31
254.96	84.31
255.193	83.31
255.426	90.31
255.659	94.31
255.892	83.31
256.124	82.31
256.357	92.31
256.59	85.31
256.823	89.31
257.056	69.31
257.289	86.31
257.521	89.31
257.754	75.31
257.987	78.31
258.22	91.31
258.452	82.31
258.685	79.31
258.918	74.31
259.151	82.31
259.383	87.31
259.616	90.31
259.849	95.31
260.081	72.31
260.314	83.31
260.547	83.31
260.779	73.31
261.012	83.31
261.244	82.31
261.477	90.31
261.71	73.31
261.942	101.31
262.175	115.31
262.407	102.31
262.64	85.31
262.872	83.31
263.105	88.31
263.337	76.31
263.57	93.31
263.802	78.31
264.035	83.31
264.267	85.31
264.499	77.31
264.732	93.31
264.964	75.31
265.197	77.31
265.429	79.31
265.661	106.31
265.894	89.31
266.126	90.31
266.358	99.31
266.591	89.31
266.823	81.31
267.055	80.31
267.287	78.31
267.52	80.31
267.752	87.31
267.984	78.31
268.216	80.31
268.448	91.31
268.681	83.31
268.913	84.31
269.145	77.31
269.377	79.31
269.609	77.31
269.841	86.31
270.073	76.31
270.306	74.31
270.538	79.31
270.77	93.31
271.002	85.31
271.234	90.31
271.466	67.31
271.698	88.31
271.93	93.31
272.162	95.31
272.394	83.31
272.626	80.31
272.858	77.31
273.09	71.31
273.322	99.31
273.553	82.31
273.785	68.31
274.017	90.31
274.249	64.31
274.481	95.31
274.713	87.31
274.945	95.31
275.176	98.31
275.408	94.31
275.64	90.31
275.872	93.31
276.104	89.31
276.335	86.31
276.567	86.31
276.799	101.31
277.031	79.31
277.262	94.31
277.494	82.31
277.726	81.31
277.957	83.31
278.189	77.31
278.421	88.31
278.652	87.31
278.884	77.31
279.115	91.31
279.347	81.31
279.579	89.31
279.81	87.31
280.042	75.31
280.273	89.31
280.505	85.31
280.736	83.31
280.968	90.31
281.199	81.31
281.431	69.31
281.662	92.31
281.894	94.31
282.125	84.31
282.356	109.31
282.588	141.31
282.819	104.31
283.051	83.31
283.282	81.31
283.513	96.31
283.745	88.31
283.976	85.31
284.207	86.31
284.439	96.31
284.67	99.31
284.901	79.31
285.132	82.31
285.364	90.31
285.595	91.31
285.826	106.31
286.057	91.31
286.288	86.31
286.52	92.31
286.751	81.31
286.982	80.31
287.213	79.31
287.444	78.31
287.675	77.31
287.906	88.31
288.138	87.31
288.369	82.31
288.6	86.31
288.831	82.31
289.062	92.31
289.293	93.31
289.524	82.31
289.755	79.31
289.986	82.31
290.217	82.31
290.448	98.31
290.679	92.31
290.91	81.31
291.141	74.31
291.371	96.31
291.602	91.31
291.833	88.31
292.064	74.31
292.295	81.31
292.526	83.31
292.757	88.31
292.987	88.31
293.218	98.31
293.449	90.31
293.68	91.31
293.91	92.31
294.141	96.31
294.372	91.31
294.603	86.31
294.833	93.31
295.064	81.31
295.295	98.31
295.525	88.31
295.756	94.31
295.987	115.31
296.217	117.31
296.448	119.31
296.679	97.31
296.909	79.31
297.14	97.31
297.37	98.31
297.601	83.31
297.831	84.31
298.062	102.31
298.292	108.31
298.523	83.31
298.753	88.31
298.984	83.31
299.214	81.31
299.445	99.31
299.675	86.31
299.905	83.31
300.136	77.31
300.366	99.31
300.597	96.31
300.827	106.31
301.057	102.31
301.288	95.31
301.518	83.31
301.748	104.31
301.979	105.31
302.209	97.31
302.439	86.31
302.669	75.31
302.9	87.31
303.13	77.31
303.36	95.31
303.59	100.31
303.82	97.31
304.051	88.31
304.281	90.31
304.511	82.31
304.741	101.31
304.971	92.31
305.201	95.31
305.431	77.31
305.661	97.31
305.891	93.31
306.121	85.31
306.352	99.31
306.582	97.31
306.812	94.31
307.042	96.31
307.272	84.31
307.502	95.31
307.731	86.31
307.961	96.31
308.191	101.31
308.421	78.31
308.651	89.31
308.881	95.31
309.111	93.31
309.341	81.31
309.571	103.31
309.8	89.31
310.03	94.31
310.26	102.31
310.49	99.31
310.72	95.31
310.949	89.31
311.179	100.31
311.409	84.31
311.639	83.31
311.868	93.31
312.098	101.31
312.328	95.31
312.557	93.31
312.787	86.31
313.017	106.31
313.246	97.31
313.476	100.31
313.706	73.31
313.935	81.31
314.165	102.31
314.394	93.31
314.624	79.31
314.853	96.31
315.083	92.31
315.312	92.31
315.542	102.31
315.771	94.31
316.001	87.31
316.23	94.31
316.46	96.31
316.689	86.31
316.919	103.31
317.148	104.31
317.377	89.31
317.607	95.31
317.836	80.31
318.065	82.31
318.295	88.31
318.524	77.31
318.753	94.31
318.983	94.31
319.212	100.31
319.441	104.31
319.67	91.31
319.9	95.31
320.129	83.31
320.358	87.31
320.587	89.31
320.816	86.31
321.046	96.31
321.275	99.31
321.504	89.31
321.733	95.31
321.962	110.31
322.191	93.31
322.42	92.31
322.649	111.31
322.878	113.31
323.108	109.31
323.337	116.31
323.566	141.31
323.795	159.31
324.024	206.31
324.253	367.31
324.482	779.31
324.71	1580.31
324.939	2055.31
325.168	761.31
325.397	237.31
325.626	145.31
325.855	122.31
326.084	117.31
326.313	127.31
326.542	145.31
326.77	219.31
326.999	439.31
327.228	902.31
327.457	1552.31
327.686	1252.31
327.914	339.31
328.143	177.31
328.372	141.31
328.6	122.31
328.829	113.31
329.058	130.31
329.287	117.31
329.515	108.31
329.744	103.31
329.972	103.31
330.201	89.31
330.43	101.31
330.658	116.31
330.887	123.31
331.115	115.31
331.344	99.31
331.572	96.31
331.801	90.31
332.03	109.31
332.258	90.31
332.486	82.31
332.715	90.31
332.943	89.31
333.172	85.31
333.4	98.31
333.629	105.31
333.857	114.31
334.085	100.31
334.314	99.31
334.542	83.31
334.771	96.31
334.999	90.31
335.227	88.31
335.455	93.31
335.684	95.31
335.912	92.31
336.14	97.31
336.369	78.31
336.597	97.31
336.825	102.31
337.053	89.31
337.281	107.31
337.51	102.31
337.738	94.31
337.966	89.31
338.194	93.31
338.422	99.31
338.65	96.31
338.878	88.31
339.106	88.31
339.334	93.31
339.562	74.31
339.79	91.31
340.018	93.31
340.246	107.31
340.474	86.31
340.702	87.31
340.93	79.31
341.158	88.31
341.386	87.31
341.614	108.31
341.842	98.31
342.07	81.31
342.298	80.31
342.526	95.31
342.754	93.31
342.981	93.31
343.209	88.31
343.437	96.31
343.665	96.31
343.893	87.31
344.12	82.31
344.348	88.31
344.576	95.31
344.804	82.31
345.031	100.31
345.259	110.31
345.487	89.31
345.714	93.31
345.942	89.31
346.17	87.31
346.397	102.31
346.625	98.31
346.853	88.31
347.08	102.31
347.308	102.31
347.535	94.31
347.763	89.31
347.99	90.31
348.218	118.31
348.445	95.31
348.673	102.31
348.9	100.31
349.128	99.31
349.355	98.31
349.583	105.31
349.81	95.31
350.037	98.31
350.265	66.31
350.492	91.31
350.72	95.31
350.947	93.31
351.174	112.31
351.402	108.31
351.629	109.31
351.856	100.31
352.083	103.31
352.311	106.31
352.538	107.31
352.765	104.31
352.992	111.31
353.22	106.31
353.447	106.31
353.674	90.31
353.901	84.31
354.128	91.31
354.355	98.31
354.583	92.31
354.81	88.31
355.037	94.31
355.264	102.31
355.491	92.31
355.718	98.31
355.945	97.31
356.172	103.31
356.399	96.31
356.626	83.31
356.853	79.31
357.08	82.31
357.307	87.31
357.534	85.31
357.761	93.31
357.988	95.31
358.215	93.31
358.441	93.31
358.668	87.31
358.895	92.31
359.122	81.31
359.349	99.31
359.576	111.31
359.802	89.31
360.029	101.31
360.256	90.31
360.483	83.31
360.709	78.31
360.936	83.31
361.163	101.31
361.39	94.31
361.616	88.31
361.843	94.31
362.07	93.31
362.296	98.31
362.523	105.31
362.749	93.31
362.976	84.31
363.203	102.31
363.429	78.31
363.656	86.31
363.882	107.31
364.109	98.31
364.335	81.31
364.562	75.31
364.788	101.31
365.015	104.31
365.241	92.31
365.468	106.31
365.694	108.31
365.92	107.31
366.147	91.31
366.373	84.31
366.599	94.31
366.826	94.31
367.052	78.31
367.278	85.31
367.505	82.31
367.731	87.31
367.957	83.31
368.184	90.31
368.41	89.31
368.636	93.31
368.862	129.31
369.089	99.31
369.315	88.31
369.541	83.31
369.767	91.31
369.993	86.31
370.219	85.31
370.445	74.31
370.672	88.31
370.898	79.31
371.124	75.31
371.35	86.31
371.576	82.31
371.802	80.31
372.028	79.31
372.254	105.31
372.48	87.31
372.706	81.31
372.932	88.31
373.158	88.31
373.384	96.31
373.61	88.31
373.835	77.31
374.061	89.31
374.287	82.31
374.513	98.31
374.739	97.31
374.965	80.31
375.191	95.31
375.416	83.31
375.642	85.31
375.868	88.31
376.094	92.31
376.319	96.31
376.545	91.31
376.771	66.31
376.997	78.31
377.222	86.31
377.448	68.31
377.674	96.31
377.899	75.31
378.125	101.31
378.35	94.31
378.576	79.31
378.802	81.31
379.027	76.31
379.253	97.31
379.478	75.31
379.704	101.31
379.929	96.31
380.155	96.31
380.38	84.31
380.606	74.31
380.831	104.31
381.057	104.31
381.282	96.31
381.507	93.31
381.733	112.31
381.958	119.31
382.184	86.31
382.409	95.31
382.634	104.31
382.86	95.31
383.085	89.31
383.31	89.31
383.535	93.31
383.761	91.31
383.986	97.31
384.211	91.31
384.436	96.31
384.662	98.31
384.887	102.31
385.112	106.31
385.337	105.31
385.562	94.31
385.787	92.31
386.013	102.31
386.238	115.31
386.463	88.31
386.688	101.31
386.913	106.31
387.138	98.31
387.363	112.31
387.588	105.31
387.813	97.31
388.038	103.31
388.263	112.31
388.488	107.31
388.713	114.31
388.938	95.31
389.163	95.31
389.387	102.31
389.612	85.31
389.837	99.31
390.062	98.31
390.287	93.31
390.512	90.31
390.736	95.31
390.961	85.31
391.186	96.31
391.411	88.31
391.636	103.31
391.86	94.31
392.085	83.31
392.31	95.31
392.534	91.31
392.759	100.31
392.984	77.31
393.208	84.31
393.433	85.31
393.658	91.31
393.882	88.31
394.107	86.31
394.331	104.31
394.556	82.31
394.78	87.31
395.005	81.31
395.229	85.31
395.454	91.31
395.678	81.31
395.903	86.31
396.127	69.31
396.352	92.31
396.576	86.31
396.801	78.31
397.025	89.31
397.249	98.31
397.474	88.31
397.698	95.31
397.922	89.31
398.147	94.31
398.371	75.31
398.595	90.31
398.82	89.31
399.044	78.31
399.268	79.31
399.492	84.31
399.717	92.31
399.941	98.31
400.165	86.31
400.389	82.31
400.613	85.31
400.837	78.31
401.062	82.31
401.286	88.31
401.51	90.31
401.734	78.31
401.958	112.31
402.182	119.31
402.406	146.31
402.63	116.31
402.854	101.31
403.078	99.31
403.302	94.31
403.526	97.31
403.75	78.31
403.974	103.31
404.198	88.31
404.422	89.31
404.645	91.31
404.869	81.31
405.093	75.31
405.317	87.31
405.541	96.31
405.765	73.31
405.988	111.31
406.212	154.31
406.436	212.31
406.66	143.31
406.883	86.31
407.107	107.31
407.331	96.31
407.555	96.31
407.778	93.31
408.002	91.31
408.226	86.31
408.449	69.31
408.673	81.31
408.896	92.31
409.12	91.31
409.344	93.31
409.567	88.31
409.791	106.31
410.014	88.31
410.238	98.31
410.461	81.31
410.685	88.31
410.908	113.31
411.132	104.31
411.355	94.31
411.578	99.31
411.802	79.31
412.025	99.31
412.249	85.31
412.472	85.31
412.695	85.31
412.919	85.31
413.142	80.31
413.365	94.31
413.589	102.31
413.812	75.31
414.035	95.31
414.258	96.31
414.482	94.31
414.705	90.31
414.928	66.31
415.151	101.31
415.374	73.31
415.597	90.31
415.821	94.31
416.044	76.31
416.267	87.31
416.49	91.31
416.713	83.31
416.936	97.31
417.159	76.31
417.382	78.31
417.605	83.31
417.828	78.31
418.051	87.31
418.274	94.31
418.497	79.31
418.72	92.31
418.943	99.31
419.166	94.31
419.389	90.31
419.611	83.31
419.834	82.31
420.057	96.31
420.28	84.31
420.503	80.31
420.726	105.31
420.948	91.31
421.171	92.31
421.394	84.31
421.617	95.31
421.839	94.31
422.062	90.31
422.285	85.31
422.507	97.31
422.73	108.31
422.953	95.31
423.175	91.31
423.398	87.31
423.621	85.31
423.843	91.31
424.066	92.31
424.288	96.31
424.511	104.31
424.733	83.31
424.956	114.31
425.178	104.31
425.401	100.31
425.623	94.31
425.846	83.31
426.068	88.31
426.291	104.31
426.513	97.31
426.735	114.31
426.958	86.31
427.18	106.31
427.402	117.31
427.625	149.31
427.847	111.31
428.069	108.31
428.292	81.31
428.514	87.31
428.736	96.31
428.958	83.31
429.181	82.31
429.403	81.31
429.625	90.31
429.847	95.31
430.069	94.31
430.292	87.31
430.514	92.31
430.736	82.31
430.958	82.31
431.18	85.31
431.402	90.31
431.624	93.31
431.846	79.31
432.068	89.31
432.29	78.31
432.512	93.31
432.734	81.31
432.956	86.31
433.178	98.31
433.4	89.31
433.622	77.31
433.844	76.31
434.066	87.31
434.287	76.31
434.509	83.31
434.731	95.31
434.953	98.31
435.175	81.31
435.397	91.31
435.618	92.31
435.84	93.31
436.062	116.31
436.284	134.31
436.505	92.31
436.727	91.31
436.949	81.31
437.17	83.31
437.392	96.31
437.614	86.31
437.835	111.31
438.057	117.31
438.278	100.31
438.5	119.31
438.721	111.31
438.943	98.31
439.165	88.31
439.386	91.31
439.608	93.31
439.829	91.31
440.05	114.31
440.272	121.31
440.493	101.31
440.715	94.31
440.936	87.31
441.158	62.31
441.379	86.31
441.6	100.31
441.822	97.31
442.043	98.31
442.264	105.31
442.486	104.31
442.707	85.31
442.928	95.31
443.149	105.31
443.371	127.31
443.592	90.31
443.813	100.31
444.034	99.31
444.255	94.31
444.476	82.31
444.698	85.31
444.919	97.31
445.14	137.31
445.361	127.31
445.582	93.31
445.803	130.31
446.024	122.31
446.245	139.31
446.466	111.31
446.687	81.31
446.908	95.31
447.129	79.31
447.35	83.31
447.571	77.31
447.792	73.31
448.013	110.31
448.234	108.31
448.455	91.31
448.675	118.31
448.896	126.31
449.117	97.31
449.338	99.31
449.559	107.31
449.779	133.31
450	103.31
450.221	105.31
450.442	77.31
450.662	72.31
450.883	103.31
451.104	99.31
451.324	99.31
451.545	90.31
451.766	77.31
451.986	101.31
452.207	82.31
452.428	91.31
452.648	86.31
452.869	92.31
453.089	103.31
453.31	91.31
453.53	95.31
453.751	90.31
453.971	81.31
454.192	89.31
454.412	89.31
454.633	95.31
454.853	93.31
455.073	84.31
455.294	87.31
455.514	94.31
455.734	106.31
455.955	76.31
456.175	93.31
456.395	93.31
456.616	79.31
456.836	90.31
457.056	97.31
457.276	83.31
457.497	92.31
457.717	91.31
457.937	97.31
458.157	76.31
458.377	80.31
458.598	114.31
458.818	139.31
459.038	161.31
459.258	119.31
459.478	88.31
459.698	86.31
459.918	78.31
460.138	75.31
460.358	87.31
460.578	81.31
460.798	107.31
461.018	97.31
461.238	87.31
461.458	72.31
461.678	95.31
461.898	89.31
462.118	87.31
462.338	91.31
462.558	90.31
462.777	87.31
462.997	87.31
463.217	83.31
463.437	90.31
463.657	99.31
463.876	94.31
464.096	91.31
464.316	97.31
464.536	93.31
464.755	89.31
464.975	102.31
465.195	158.31
465.414	143.31
465.634	97.31
465.854	81.31
466.073	81.31
466.293	83.31
466.512	77.31
466.732	105.31
466.951	87.31
467.171	107.31
467.391	92.31
467.61	80.31
467.829	95.31
468.049	82.31
468.268	90.31
468.488	92.31
468.707	83.31
468.927	83.31
469.146	82.31
469.365	86.31
469.585	89.31
469.804	90.31
470.023	92.31
470.243	91.31
470.462	88.31
470.681	107.31
470.901	79.31
471.12	67.31
471.339	88.31
471.558	80.31
471.777	81.31
471.997	84.31
472.216	94.31
472.435	79.31
472.654	94.31
472.873	92.31
473.092	82.31
473.311	90.31
473.53	81.31
473.749	78.31
473.968	82.31
474.187	97.31
474.406	89.31
474.625	92.31
474.844	92.31
475.063	103.31
475.282	83.31
475.501	74.31
475.72	83.31
475.939	84.31
476.158	89.31
476.377	84.31
476.596	95.31
476.814	93.31
477.033	86.31
477.252	94.31
477.471	88.31
477.69	105.31
477.908	85.31
478.127	78.31
478.346	87.31
478.564	84.31
478.783	109.31
479.002	80.31
479.22	63.31
479.439	88.31
479.658	92.31
479.876	91.31
480.095	90.31
480.313	79.31
480.532	82.31
480.751	102.31
480.969	88.31
481.188	87.31
481.406	98.31
481.624	73.31
481.843	77.31
482.061	97.31
482.28	81.31
482.498	84.31
482.717	80.31
482.935	87.31
483.153	81.31
483.372	91.31
483.59	95.31
483.808	98.31
484.027	85.31
484.245	87.31
484.463	102.31
484.681	88.31
484.9	105.31
485.118	106.31
485.336	107.31
485.554	100.31
485.772	104.31
485.99	99.31
486.209	99.31
486.427	103.31
486.645	106.31
486.863	97.31
487.081	88.31
487.299	86.31
487.517	91.31
487.735	99.31
487.953	85.31
488.171	91.31
488.389	89.31
488.607	98.31
488.825	93.31
489.043	87.31
489.261	82.31
489.479	89.31
489.696	85.31
489.914	93.31
490.132	93.31
490.35	95.31
490.568	88.31
490.786	101.31
491.003	93.31
491.221	83.31
491.439	90.31
491.657	87.31
491.874	80.31
492.092	93.31
492.31	89.31
492.527	92.31
492.745	83.31
492.963	87.31
493.18	80.31
493.398	91.31
493.615	87.31
493.833	84.31
494.05	102.31
494.268	88.31
494.485	96.31
494.703	89.31
494.92	97.31
495.138	94.31
495.355	94.31
495.573	87.31
495.79	86.31
496.008	90.31
496.225	98.31
496.442	93.31
496.66	96.31
496.877	83.31
497.094	98.31
497.312	87.31
497.529	89.31
497.746	82.31
497.963	91.31
498.181	82.31
498.398	80.31
498.615	106.31
498.832	103.31
499.049	92.31
499.267	79.31
499.484	88.31
499.701	89.31
499.918	92.31
500.135	93.31
500.352	79.31
500.569	78.31
500.786	81.31
501.003	90.31
501.22	85.31
501.437	90.31
501.654	103.31
501.871	106.31
502.088	81.31
502.305	106.31
502.522	83.31
502.739	78.31
502.956	73.31
503.172	77.31
503.389	91.31
503.606	104.31
503.823	104.31
504.04	99.31
504.256	90.31
504.473	86.31
504.69	95.31
504.907	96.31
505.123	81.31
505.34	94.31
505.557	105.31
505.773	93.31
505.99	98.31
506.207	94.31
506.423	90.31
506.64	94.31
506.856	86.31
507.073	90.31
507.289	69.31
507.506	91.31
507.722	101.31
507.939	102.31
508.155	86.31
508.372	89.31
508.588	94.31
508.805	100.31
509.021	96.31
509.238	93.31
509.454	89.31
509.67	102.31
509.887	92.31
510.103	133.31
510.319	203.31
510.536	745.31
510.752	2335.31
510.968	674.31
511.184	155.31
511.401	114.31
511.617	89.31
511.833	102.31
512.049	101.31
512.265	87.31
512.481	91.31
512.698	88.31
512.914	84.31
513.13	92.31
513.346	103.31
513.562	89.31
513.778	79.31
513.994	90.31
514.21	95.31
514.426	118.31
514.642	139.31
514.858	118.31
515.074	152.31
515.29	418.31
515.506	1393.31
515.721	510.31
515.937	145.31
516.153	104.31
516.369	88.31
516.585	91.31
516.801	79.31
517.016	83.31
517.232	93.31
517.448	102.31
517.664	91.31
517.879	85.31
518.095	96.31
518.311	83.31
518.527	91.31
518.742	86.31
518.958	90.31
519.173	93.31
519.389	89.31
519.605	96.31
519.82	96.31
520.036	91.31
520.251	112.31
520.467	102.31
520.682	91.31
520.898	109.31
521.113	112.31
521.329	129.31
521.544	186.31
521.76	532.31
521.975	2221.31
522.19	1395.31
522.406	311.31
522.621	133.31
522.836	113.31
523.052	106.31
523.267	101.31
523.482	88.31
523.698	106.31
523.913	102.31
524.128	94.31
524.343	80.31
524.559	98.31
524.774	98.31
524.989	91.31
525.204	108.31
525.419	82.31
525.634	87.31
525.849	97.31
526.064	85.31
526.28	89.31
526.495	84.31
526.71	80.31
526.925	82.31
527.14	88.31
527.355	89.31
527.57	87.31
527.785	84.31
527.999	92.31
528.214	75.31
528.429	89.31
528.644	94.31
528.859	100.31
529.074	93.31
529.289	105.31
529.503	150.31
529.718	89.31
529.933	89.31
530.148	90.31
530.363	88.31
530.577	86.31
530.792	78.31
531.007	76.31
531.221	83.31
531.436	83.31
531.651	71.31
531.865	93.31
532.08	94.31
532.295	99.31
532.509	86.31
532.724	93.31
532.938	109.31
533.153	94.31
533.367	96.31
533.582	101.31
533.796	99.31
534.011	95.31
534.225	97.31
534.44	81.31
534.654	89.31
534.868	88.31
535.083	82.31
535.297	85.31
535.511	102.31
535.726	94.31
535.94	103.31
536.154	98.31
536.369	88.31
536.583	74.31
536.797	95.31
537.011	109.31
537.225	97.31
537.44	86.31
537.654	93.31
537.868	94.31
538.082	89.31
538.296	90.31
538.51	95.31
538.724	77.31
538.938	103.31
539.153	89.31
539.367	87.31
539.581	86.31
539.795	92.31
540.009	86.31
540.222	87.31
540.436	82.31
540.65	86.31
540.864	77.31
541.078	94.31
541.292	73.31
541.506	87.31
541.72	79.31
541.934	82.31
542.147	80.31
542.361	89.31
542.575	87.31
542.789	86.31
543.002	98.31
543.216	92.31
543.43	108.31
543.644	78.31
543.857	79.31
544.071	88.31
544.285	71.31
544.498	71.31
544.712	95.31
544.925	79.31
545.139	97.31
545.352	93.31
545.566	98.31
545.779	89.31
545.993	83.31
546.206	96.31
546.42	83.31
546.633	82.31
546.847	93.31
547.06	89.31
547.274	98.31
547.487	89.31
547.7	83.31
547.914	89.31
548.127	82.31
548.34	95.31
548.554	87.31
548.767	99.31
548.98	91.31
549.193	86.31
549.407	90.31
549.62	94.31
549.833	85.31
550.046	83.31
550.259	90.31
550.473	92.31
550.686	79.31
550.899	97.31
551.112	93.31
551.325	94.31
551.538	92.31
551.751	82.31
551.964	84.31
552.177	78.31
552.39	90.31
552.603	91.31
552.816	81.31
553.029	89.31
553.242	80.31
553.455	78.31
553.667	92.31
553.88	103.31
554.093	99.31
554.306	102.31
554.519	91.31
554.732	87.31
554.944	67.31
555.157	69.31
555.37	77.31
555.583	86.31
555.795	92.31
556.008	101.31
556.221	82.31
556.433	96.31
556.646	94.31
556.859	96.31
557.071	81.31
557.284	90.31
557.496	102.31
557.709	86.31
557.921	87.31
558.134	93.31
558.346	91.31
558.559	89.31
558.771	85.31
558.984	89.31
559.196	90.31
559.409	101.31
559.621	89.31
559.833	93.31
560.046	97.31
560.258	86.31
560.47	81.31
560.683	86.31
560.895	93.31
561.107	103.31
561.32	91.31
561.532	101.31
561.744	85.31
561.956	92.31
562.168	87.31
562.381	95.31
562.593	104.31
562.805	97.31
563.017	83.31
563.229	85.31
563.441	105.31
563.653	99.31
563.865	97.31
564.077	96.31
564.289	94.31
564.501	90.31
564.713	83.31
564.925	91.31
565.137	111.31
565.349	89.31
565.561	92.31
565.773	89.31
565.985	82.31
566.197	66.31
566.408	83.31
566.62	100.31
566.832	75.31
567.044	83.31
567.255	77.31
567.467	89.31
567.679	79.31
567.891	97.31
568.102	84.31
568.314	88.31
568.526	87.31
568.737	88.31
568.949	83.31
569.161	79.31
569.372	87.31
569.584	92.31
569.795	83.31
570.007	103.31
570.218	241.31
570.43	137.31
570.641	92.31
570.853	88.31
571.064	79.31
571.276	99.31
571.487	62.31
571.698	99.31
571.91	77.31
572.121	80.31
572.333	101.31
572.544	92.31
572.755	74.31
572.966	93.31
573.178	92.31
573.389	89.31
573.6	88.31
573.811	89.31
574.023	87.31
574.234	97.31
574.445	92.31
574.656	101.31
574.867	102.31
575.078	100.31
575.289	84.31
575.501	91.31
575.712	79.31
575.923	98.31
576.134	93.31
576.345	82.31
576.556	82.31
576.767	84.31
576.978	80.31
577.188	86.31
577.399	77.31
577.61	101.31
577.821	93.31
578.032	94.31
578.243	263.31
578.454	764.31
578.665	221.31
578.875	109.31
579.086	92.31
579.297	93.31
579.508	80.31
579.718	91.31
579.929	78.31
580.14	95.31
580.35	95.31
580.561	92.31
580.772	96.31
580.982	83.31
581.193	77.31
581.403	98.31
581.614	93.31
581.825	79.31
582.035	91.31
582.246	86.31
582.456	92.31
582.667	85.31
582.877	86.31
583.087	81.31
583.298	103.31
583.508	87.31
583.719	88.31
583.929	86.31
584.139	90.31
584.35	78.31
584.56	74.31
584.77	92.31
584.981	74.31
585.191	76.31
585.401	97.31
585.611	87.31
585.821	78.31
586.032	95.31
586.242	97.31
586.452	93.31
586.662	79.31
586.872	84.31
587.082	84.31
587.292	81.31
587.502	78.31
587.713	82.31
587.923	91.31
588.133	93.31
588.343	91.31
588.553	89.31
588.762	92.31
588.972	78.31
589.182	90.31
589.392	97.31
589.602	82.31
589.812	84.31
590.022	85.31
590.232	88.31
590.441	85.31
590.651	94.31
590.861	92.31
591.071	105.31
591.281	77.31
591.49	79.31
591.7	76.31
591.91	86.31
592.119	87.31
592.329	110.31
592.539	97.31
592.748	82.31
592.958	97.31
593.167	90.31
593.377	88.31
593.587	90.31
593.796	86.31
594.006	91.31
594.215	77.31
594.424	78.31
594.634	82.31
594.843	76.31
595.053	81.31
595.262	82.31
595.472	85.31
595.681	90.31
595.89	94.31
596.1	78.31
596.309	87.31
596.518	89.31
596.727	82.31
596.937	94.31
597.146	83.31
597.355	93.31
597.564	90.31
597.774	93.31
597.983	83.31
598.192	79.31
598.401	83.31
598.61	81.31
598.819	89.31
599.028	93.31
599.237	94.31
599.446	81.31
599.655	84.31
599.864	106.31
600.073	82.31
600.282	93.31
600.491	77.31
600.7	86.31
600.909	90.31
601.118	97.31
601.327	98.31
601.536	94.31
601.745	95.31
601.953	87.31
602.162	97.31
602.371	93.31
602.58	82.31
602.789	67.31
602.997	85.31
603.206	83.31
603.415	89.31
603.623	92.31
603.832	87.31
604.041	80.31
604.249	91.31
604.458	88.31
604.666	103.31
604.875	87.31
605.084	80.31
605.292	86.31
605.501	83.31
605.709	87.31
605.918	83.31
606.126	79.31
606.334	93.31
606.543	85.31
606.751	91.31
606.96	85.31
607.168	85.31
607.376	89.31
607.585	92.31
607.793	95.31
608.001	87.31
608.21	84.31
608.418	80.31
608.626	86.31
608.834	90.31
609.043	90.31
609.251	83.31
609.459	95.31
609.667	74.31
609.875	80.31
610.083	87.31
610.291	83.31
610.499	97.31
610.707	81.31
610.916	81.31
611.124	95.31
611.332	87.31
611.54	96.31
611.748	96.31
611.955	91.31
612.163	81.31
612.371	78.31
612.579	91.31
612.787	86.31
612.995	94.31
613.203	89.31
613.411	81.31
613.618	87.31
613.826	86.31
614.034	86.31
614.242	88.31
614.449	82.31
614.657	76.31
614.865	84.31
615.072	83.31
615.28	89.31
615.488	86.31
615.695	92.31
615.903	95.31
616.111	102.31
616.318	92.31
616.526	92.31
616.733	87.31
616.941	86.31
617.148	95.31
617.356	95.31
617.563	89.31
617.771	78.31
617.978	94.31
618.185	92.31
618.393	89.31
618.6	81.31
618.807	82.31
619.015	85.31
619.222	76.31
619.429	85.31
619.637	84.31
619.844	86.31
620.051	80.31
620.258	91.31
620.466	83.31
620.673	71.31
620.88	78.31
621.087	86.31
621.294	81.31
621.501	91.31
621.708	83.31
621.915	78.31
622.122	89.31
622.329	93.31
622.536	82.31
622.743	78.31
622.95	100.31
623.157	83.31
623.364	95.31
623.571	85.31
623.778	96.31
623.985	58.31
624.192	98.31
624.399	72.31
624.606	74.31
624.812	87.31
625.019	87.31
625.226	88.31
625.433	82.31
625.639	81.31
625.846	85.31
626.053	96.31
626.259	90.31
626.466	85.31
626.673	70.31
626.879	88.31
627.086	89.31
627.293	86.31
627.499	90.31
627.706	91.31
627.912	83.31
628.119	89.31
628.325	78.31
628.532	83.31
628.738	87.31
628.945	80.31
629.151	96.31
629.357	99.31
629.564	75.31
629.77	79.31
629.976	75.31
630.183	75.31
630.389	97.31
630.595	90.31
630.802	78.31
631.008	66.31
631.214	66.31
631.42	84.31
631.627	98.31
631.833	82.31
632.039	96.31
632.245	78.31
632.451	75.31
632.657	88.31
632.863	77.31
633.069	82.31
633.275	87.31
633.481	79.31
633.688	76.31
633.893	94.31
634.099	80.31
634.305	90.31
634.511	78.31
634.717	71.31
634.923	68.31
635.129	93.31
635.335	79.31
635.541	83.31
635.747	67.31
635.952	84.31
636.158	89.31
636.364	84.31
636.57	94.31
636.775	82.31
636.981	86.31
637.187	82.31
637.392	84.31
637.598	89.31
637.804	82.31
638.009	76.31
638.215	79.31
638.421	80.31
638.626	93.31
638.832	82.31
639.037	87.31
639.243	79.31
639.448	82.31
639.654	85.31
639.859	81.31
640.065	75.31
640.27	94.31
640.475	81.31
640.681	85.31
640.886	86.31
641.091	87.31
641.297	89.31
641.502	85.31
641.707	90.31
641.913	103.31
642.118	87.31
642.323	86.31
642.528	86.31
642.733	82.31
642.939	99.31
643.144	83.31
643.349	90.31
643.554	96.31
643.759	79.31
643.964	85.31
644.169	71.31
644.374	87.31
644.579	81.31
644.784	85.31
644.989	89.31
645.194	83.31
645.399	84.31
645.604	79.31
645.809	88.31
646.014	77.31
646.219	81.31
646.423	88.31
646.628	87.31
646.833	93.31
647.038	86.31
647.243	84.31
647.447	98.31
647.652	74.31
647.857	83.31
648.062	73.31
648.266	89.31
648.471	91.31
648.676	88.31
648.88	93.31
649.085	82.31
649.289	98.31
649.494	99.31
649.698	130.31
649.903	104.31
650.107	87.31
650.312	73.31
650.516	93.31
650.721	82.31
650.925	87.31
651.13	86.31
651.334	81.31
651.539	81.31
651.743	75.31
651.947	81.31
652.152	91.31
652.356	100.31
652.56	78.31
652.764	78.31
652.969	86.31
653.173	88.31
653.377	79.31
653.581	86.31
653.785	91.31
653.99	75.31
654.194	74.31
654.398	73.31
654.602	69.31
654.806	75.31
655.01	98.31
655.214	90.31
655.418	83.31
655.622	86.31
655.826	86.31
656.03	84.31
656.234	79.31
656.438	98.31
656.642	104.31
656.846	101.31
657.049	98.31
657.253	94.31
657.457	80.31
657.661	85.31
657.865	83.31
658.068	86.31
658.272	89.31
658.476	78.31
658.68	81.31
658.883	77.31
659.087	86.31
659.291	73.31
659.494	70.31
659.698	83.31
659.901	68.31
660.105	87.31
660.309	88.31
660.512	75.31
660.716	87.31
660.919	100.31
661.123	86.31
661.326	79.31
661.53	75.31
661.733	80.31
661.936	73.31
662.14	81.31
662.343	82.31
662.546	81.31
662.75	71.31
662.953	79.31
663.156	74.31
663.36	68.31
663.563	79.31
663.766	86.31
663.969	90.31
664.173	85.31
664.376	80.31
664.579	83.31
664.782	74.31
664.985	91.31
665.188	89.31
665.391	80.31
665.594	77.31
665.797	78.31
666	98.31
666.203	90.31
666.406	67.31
666.609	66.31
666.812	87.31
667.015	82.31
667.218	91.31
667.421	78.31
667.624	86.31
667.827	85.31
668.03	86.31
668.232	83.31
668.435	79.31
668.638	77.31
668.841	89.31
669.043	77.31
669.246	82.31
669.449	78.31
669.651	86.31
669.854	79.31
670.057	83.31
670.259	73.31
670.462	94.31
670.665	83.31
670.867	74.31
671.07	86.31
671.272	86.31
671.475	91.31
671.677	72.31
671.88	79.31
672.082	83.31
672.284	88.31
672.487	88.31
672.689	64.31
672.892	74.31
