Data from Uncirc_2008_H10_HRD10591_00038.txt Node
Date: Wed Jan 03 10:15:38 EST 2024
User: Yrep
Spectrometer: HR+D1059
Trigger mode: 1
Integration Time (sec): 1.000000E-1
Scans to average: 1
Electric dark correction enabled: true
Nonlinearity correction enabled: false
Boxcar width: 0
XAxis mode: Wavelengths
Number of Pixels in Spectrum: 2048
>>>>>Begin Spectral Data<<<<<
223.165	-17.25
223.4	-17.25
223.635	-17.25
223.869	-16.25
224.104	-21.25
224.338	-22.25
224.573	-21.25
224.808	-8.25
225.042	-5.25
225.277	-6.25
225.511	1.75
225.746	4.75
225.98	-16.25
226.215	20.75
226.449	34.75
226.683	6.75
226.918	36.75
227.152	28.75
227.387	28.75
227.621	29.75
227.856	30.75
228.09	42.75
228.324	55.75
228.559	47.75
228.793	66.75
229.027	70.75
229.262	70.75
229.496	76.75
229.73	86.75
229.964	87.75
230.199	78.75
230.433	60.75
230.667	73.75
230.901	84.75
231.136	81.75
231.37	71.75
231.604	66.75
231.838	79.75
232.072	70.75
232.306	73.75
232.541	70.75
232.775	89.75
233.009	82.75
233.243	91.75
233.477	82.75
233.711	82.75
233.945	81.75
234.179	77.75
234.413	77.75
234.647	81.75
234.881	89.75
235.115	66.75
235.349	80.75
235.583	71.75
235.817	75.75
236.051	68.75
236.285	64.75
236.519	74.75
236.753	84.75
236.987	73.75
237.221	75.75
237.455	78.75
237.689	76.75
237.922	78.75
238.156	80.75
238.39	74.75
238.624	83.75
238.858	69.75
239.091	92.75
239.325	74.75
239.559	64.75
239.793	75.75
240.027	79.75
240.26	78.75
240.494	73.75
240.728	72.75
240.961	64.75
241.195	72.75
241.429	64.75
241.662	76.75
241.896	68.75
242.13	75.75
242.363	62.75
242.597	69.75
242.83	64.75
243.064	81.75
243.298	71.75
243.531	85.75
243.765	73.75
243.998	82.75
244.232	95.75
244.465	70.75
244.699	64.75
244.932	75.75
245.166	72.75
245.399	66.75
245.633	76.75
245.866	62.75
246.099	72.75
246.333	81.75
246.566	73.75
246.8	75.75
247.033	79.75
247.266	81.75
247.5	77.75
247.733	71.75
247.966	70.75
248.2	67.75
248.433	79.75
248.666	72.75
248.899	78.75
249.133	79.75
249.366	78.75
249.599	83.75
249.832	89.75
250.066	84.75
250.299	84.75
250.532	75.75
250.765	80.75
250.998	89.75
251.231	77.75
251.465	74.75
251.698	51.75
251.931	80.75
252.164	73.75
252.397	78.75
252.63	86.75
252.863	73.75
253.096	75.75
253.329	85.75
253.562	81.75
253.795	79.75
254.028	75.75
254.261	83.75
254.494	68.75
254.727	85.75
254.96	83.75
255.193	78.75
255.426	81.75
255.659	89.75
255.892	75.75
256.124	61.75
256.357	75.75
256.59	90.75
256.823	82.75
257.056	64.75
257.289	75.75
257.521	88.75
257.754	72.75
257.987	66.75
258.22	81.75
258.452	84.75
258.685	73.75
258.918	82.75
259.151	81.75
259.383	78.75
259.616	84.75
259.849	68.75
260.081	88.75
260.314	75.75
260.547	82.75
260.779	71.75
261.012	73.75
261.244	78.75
261.477	91.75
261.71	97.75
261.942	100.75
262.175	106.75
262.407	97.75
262.64	78.75
262.872	87.75
263.105	83.75
263.337	79.75
263.57	81.75
263.802	89.75
264.035	85.75
264.267	84.75
264.499	78.75
264.732	80.75
264.964	80.75
265.197	87.75
265.429	92.75
265.661	92.75
265.894	90.75
266.126	85.75
266.358	76.75
266.591	86.75
266.823	84.75
267.055	91.75
267.287	85.75
267.52	74.75
267.752	87.75
267.984	73.75
268.216	85.75
268.448	92.75
268.681	97.75
268.913	82.75
269.145	83.75
269.377	88.75
269.609	82.75
269.841	87.75
270.073	83.75
270.306	76.75
270.538	84.75
270.77	88.75
271.002	81.75
271.234	89.75
271.466	76.75
271.698	74.75
271.93	88.75
272.162	75.75
272.394	72.75
272.626	82.75
272.858	84.75
273.09	71.75
273.322	81.75
273.553	81.75
273.785	86.75
274.017	74.75
274.249	89.75
274.481	85.75
274.713	76.75
274.945	81.75
275.176	84.75
275.408	89.75
275.64	94.75
275.872	92.75
276.104	82.75
276.335	86.75
276.567	90.75
276.799	101.75
277.031	96.75
277.262	94.75
277.494	79.75
277.726	86.75
277.957	78.75
278.189	89.75
278.421	83.75
278.652	82.75
278.884	73.75
279.115	76.75
279.347	77.75
279.579	78.75
279.81	79.75
280.042	83.75
280.273	88.75
280.505	92.75
280.736	93.75
280.968	100.75
281.199	88.75
281.431	84.75
281.662	83.75
281.894	85.75
282.125	103.75
282.356	104.75
282.588	121.75
282.819	107.75
283.051	71.75
283.282	83.75
283.513	81.75
283.745	92.75
283.976	76.75
284.207	94.75
284.439	89.75
284.67	78.75
284.901	85.75
285.132	99.75
285.364	89.75
285.595	78.75
285.826	78.75
286.057	87.75
286.288	76.75
286.52	82.75
286.751	99.75
286.982	76.75
287.213	91.75
287.444	88.75
287.675	83.75
287.906	77.75
288.138	87.75
288.369	77.75
288.6	86.75
288.831	88.75
289.062	108.75
289.293	95.75
289.524	95.75
289.755	81.75
289.986	86.75
290.217	77.75
290.448	83.75
290.679	81.75
290.91	75.75
291.141	91.75
291.371	77.75
291.602	89.75
291.833	72.75
292.064	85.75
292.295	86.75
292.526	89.75
292.757	85.75
292.987	93.75
293.218	88.75
293.449	84.75
293.68	84.75
293.91	86.75
294.141	71.75
294.372	78.75
294.603	85.75
294.833	77.75
295.064	90.75
295.295	77.75
295.525	88.75
295.756	99.75
295.987	115.75
296.217	122.75
296.448	112.75
296.679	99.75
296.909	88.75
297.14	88.75
297.37	86.75
297.601	90.75
297.831	81.75
298.062	93.75
298.292	76.75
298.523	86.75
298.753	96.75
298.984	102.75
299.214	94.75
299.445	89.75
299.675	99.75
299.905	89.75
300.136	74.75
300.366	94.75
300.597	86.75
300.827	97.75
301.057	93.75
301.288	95.75
301.518	87.75
301.748	89.75
301.979	104.75
302.209	79.75
302.439	92.75
302.669	90.75
302.9	83.75
303.13	90.75
303.36	86.75
303.59	77.75
303.82	95.75
304.051	92.75
304.281	79.75
304.511	86.75
304.741	93.75
304.971	92.75
305.201	88.75
305.431	84.75
305.661	87.75
305.891	85.75
306.121	86.75
306.352	96.75
306.582	93.75
306.812	108.75
307.042	74.75
307.272	103.75
307.502	85.75
307.731	76.75
307.961	84.75
308.191	93.75
308.421	86.75
308.651	90.75
308.881	83.75
309.111	101.75
309.341	100.75
309.571	90.75
309.8	96.75
310.03	100.75
310.26	91.75
310.49	90.75
310.72	99.75
310.949	104.75
311.179	105.75
311.409	85.75
311.639	86.75
311.868	80.75
312.098	90.75
312.328	112.75
312.557	97.75
312.787	104.75
313.017	105.75
313.246	95.75
313.476	95.75
313.706	78.75
313.935	81.75
314.165	93.75
314.394	91.75
314.624	95.75
314.853	91.75
315.083	79.75
315.312	94.75
315.542	84.75
315.771	85.75
316.001	79.75
316.23	88.75
316.46	93.75
316.689	90.75
316.919	82.75
317.148	100.75
317.377	80.75
317.607	89.75
317.836	87.75
318.065	92.75
318.295	85.75
318.524	98.75
318.753	94.75
318.983	94.75
319.212	97.75
319.441	109.75
319.67	110.75
319.9	97.75
320.129	88.75
320.358	94.75
320.587	95.75
320.816	101.75
321.046	101.75
321.275	79.75
321.504	94.75
321.733	93.75
321.962	97.75
322.191	86.75
322.42	90.75
322.649	95.75
322.878	103.75
323.108	115.75
323.337	118.75
323.566	136.75
323.795	141.75
324.024	185.75
324.253	359.75
324.482	773.75
324.71	1538.75
324.939	1990.75
325.168	758.75
325.397	225.75
325.626	149.75
325.855	133.75
326.084	118.75
326.313	125.75
326.542	148.75
326.77	208.75
326.999	417.75
327.228	850.75
327.457	1487.75
327.686	1198.75
327.914	350.75
328.143	184.75
328.372	136.75
328.6	124.75
328.829	106.75
329.058	113.75
329.287	116.75
329.515	93.75
329.744	99.75
329.972	88.75
330.201	92.75
330.43	93.75
330.658	107.75
330.887	129.75
331.115	110.75
331.344	108.75
331.572	101.75
331.801	102.75
332.03	96.75
332.258	96.75
332.486	97.75
332.715	90.75
332.943	81.75
333.172	97.75
333.4	89.75
333.629	102.75
333.857	102.75
334.085	91.75
334.314	98.75
334.542	95.75
334.771	96.75
334.999	99.75
335.227	90.75
335.455	85.75
335.684	102.75
335.912	116.75
336.14	93.75
336.369	108.75
336.597	90.75
336.825	92.75
337.053	88.75
337.281	84.75
337.51	89.75
337.738	79.75
337.966	86.75
338.194	87.75
338.422	87.75
338.65	82.75
338.878	94.75
339.106	90.75
339.334	100.75
339.562	96.75
339.79	97.75
340.018	86.75
340.246	88.75
340.474	95.75
340.702	84.75
340.93	105.75
341.158	78.75
341.386	97.75
341.614	99.75
341.842	68.75
342.07	91.75
342.298	93.75
342.526	87.75
342.754	80.75
342.981	87.75
343.209	87.75
343.437	110.75
343.665	85.75
343.893	100.75
344.12	100.75
344.348	75.75
344.576	91.75
344.804	82.75
345.031	86.75
345.259	95.75
345.487	101.75
345.714	105.75
345.942	83.75
346.17	103.75
346.397	94.75
346.625	96.75
346.853	100.75
347.08	87.75
347.308	116.75
347.535	86.75
347.763	101.75
347.99	93.75
348.218	100.75
348.445	86.75
348.673	90.75
348.9	84.75
349.128	89.75
349.355	81.75
349.583	89.75
349.81	98.75
350.037	111.75
350.265	101.75
350.492	94.75
350.72	81.75
350.947	104.75
351.174	105.75
351.402	103.75
351.629	111.75
351.856	97.75
352.083	96.75
352.311	104.75
352.538	96.75
352.765	108.75
352.992	112.75
353.22	120.75
353.447	113.75
353.674	92.75
353.901	98.75
354.128	111.75
354.355	90.75
354.583	93.75
354.81	90.75
355.037	100.75
355.264	87.75
355.491	94.75
355.718	95.75
355.945	87.75
356.172	112.75
356.399	109.75
356.626	94.75
356.853	99.75
357.08	93.75
357.307	86.75
357.534	95.75
357.761	79.75
357.988	97.75
358.215	107.75
358.441	87.75
358.668	79.75
358.895	82.75
359.122	78.75
359.349	83.75
359.576	96.75
359.802	87.75
360.029	105.75
360.256	101.75
360.483	98.75
360.709	95.75
360.936	79.75
361.163	99.75
361.39	84.75
361.616	90.75
361.843	77.75
362.07	84.75
362.296	80.75
362.523	84.75
362.749	90.75
362.976	80.75
363.203	99.75
363.429	83.75
363.656	82.75
363.882	89.75
364.109	71.75
364.335	89.75
364.562	72.75
364.788	77.75
365.015	88.75
365.241	91.75
365.468	89.75
365.694	100.75
365.92	100.75
366.147	93.75
366.373	85.75
366.599	91.75
366.826	81.75
367.052	92.75
367.278	95.75
367.505	84.75
367.731	100.75
367.957	99.75
368.184	87.75
368.41	103.75
368.636	108.75
368.862	97.75
369.089	101.75
369.315	94.75
369.541	86.75
369.767	87.75
369.993	93.75
370.219	90.75
370.445	80.75
370.672	89.75
370.898	80.75
371.124	82.75
371.35	91.75
371.576	82.75
371.802	77.75
372.028	86.75
372.254	80.75
372.48	93.75
372.706	79.75
372.932	75.75
373.158	104.75
373.384	103.75
373.61	95.75
373.835	88.75
374.061	74.75
374.287	91.75
374.513	81.75
374.739	88.75
374.965	88.75
375.191	87.75
375.416	78.75
375.642	100.75
375.868	97.75
376.094	94.75
376.319	90.75
376.545	87.75
376.771	100.75
376.997	93.75
377.222	97.75
377.448	96.75
377.674	96.75
377.899	84.75
378.125	92.75
378.35	74.75
378.576	82.75
378.802	91.75
379.027	92.75
379.253	96.75
379.478	102.75
379.704	103.75
379.929	97.75
380.155	95.75
380.38	74.75
380.606	97.75
380.831	86.75
381.057	84.75
381.282	82.75
381.507	104.75
381.733	113.75
381.958	93.75
382.184	97.75
382.409	108.75
382.634	111.75
382.86	110.75
383.085	93.75
383.31	112.75
383.535	93.75
383.761	93.75
383.986	99.75
384.211	85.75
384.436	79.75
384.662	107.75
384.887	111.75
385.112	110.75
385.337	105.75
385.562	111.75
385.787	102.75
386.013	116.75
386.238	118.75
386.463	92.75
386.688	97.75
386.913	119.75
387.138	107.75
387.363	116.75
387.588	111.75
387.813	110.75
388.038	114.75
388.263	102.75
388.488	94.75
388.713	81.75
388.938	78.75
389.163	95.75
389.387	91.75
389.612	91.75
389.837	88.75
390.062	86.75
390.287	82.75
390.512	90.75
390.736	86.75
390.961	76.75
391.186	96.75
391.411	97.75
391.636	102.75
391.86	79.75
392.085	97.75
392.31	82.75
392.534	86.75
392.759	86.75
392.984	90.75
393.208	70.75
393.433	91.75
393.658	84.75
393.882	82.75
394.107	85.75
394.331	73.75
394.556	90.75
394.78	87.75
395.005	88.75
395.229	83.75
395.454	104.75
395.678	75.75
395.903	99.75
396.127	83.75
396.352	97.75
396.576	84.75
396.801	79.75
397.025	89.75
397.249	91.75
397.474	87.75
397.698	90.75
397.922	88.75
398.147	90.75
398.371	94.75
398.595	85.75
398.82	91.75
399.044	97.75
399.268	92.75
399.492	97.75
399.717	103.75
399.941	99.75
400.165	85.75
400.389	98.75
400.613	82.75
400.837	96.75
401.062	85.75
401.286	95.75
401.51	100.75
401.734	86.75
401.958	76.75
402.182	119.75
402.406	146.75
402.63	116.75
402.854	106.75
403.078	86.75
403.302	81.75
403.526	97.75
403.75	98.75
403.974	79.75
404.198	71.75
404.422	67.75
404.645	72.75
404.869	100.75
405.093	95.75
405.317	98.75
405.541	90.75
405.765	94.75
405.988	98.75
406.212	160.75
406.436	207.75
406.66	140.75
406.883	97.75
407.107	99.75
407.331	82.75
407.555	101.75
407.778	90.75
408.002	93.75
408.226	79.75
408.449	88.75
408.673	93.75
408.896	87.75
409.12	88.75
409.344	91.75
409.567	88.75
409.791	97.75
410.014	84.75
410.238	104.75
410.461	103.75
410.685	96.75
410.908	101.75
411.132	98.75
411.355	82.75
411.578	97.75
411.802	73.75
412.025	104.75
412.249	93.75
412.472	73.75
412.695	82.75
412.919	85.75
413.142	89.75
413.365	73.75
413.589	100.75
413.812	90.75
414.035	95.75
414.258	93.75
414.482	79.75
414.705	88.75
414.928	93.75
415.151	91.75
415.374	89.75
415.597	80.75
415.821	92.75
416.044	82.75
416.267	93.75
416.49	89.75
416.713	78.75
416.936	80.75
417.159	77.75
417.382	100.75
417.605	87.75
417.828	98.75
418.051	89.75
418.274	79.75
418.497	89.75
418.72	82.75
418.943	88.75
419.166	89.75
419.389	83.75
419.611	103.75
419.834	85.75
420.057	75.75
420.28	79.75
420.503	90.75
420.726	86.75
420.948	89.75
421.171	78.75
421.394	72.75
421.617	86.75
421.839	92.75
422.062	80.75
422.285	88.75
422.507	81.75
422.73	93.75
422.953	89.75
423.175	92.75
423.398	90.75
423.621	92.75
423.843	70.75
424.066	86.75
424.288	87.75
424.511	76.75
424.733	103.75
424.956	100.75
425.178	85.75
425.401	100.75
425.623	90.75
425.846	97.75
426.068	95.75
426.291	93.75
426.513	97.75
426.735	89.75
426.958	85.75
427.18	95.75
427.402	132.75
427.625	150.75
427.847	119.75
428.069	85.75
428.292	94.75
428.514	74.75
428.736	77.75
428.958	82.75
429.181	91.75
429.403	90.75
429.625	81.75
429.847	94.75
430.069	89.75
430.292	88.75
430.514	89.75
430.736	79.75
430.958	81.75
431.18	81.75
431.402	85.75
431.624	86.75
431.846	88.75
432.068	73.75
432.29	78.75
432.512	70.75
432.734	84.75
432.956	94.75
433.178	98.75
433.4	87.75
433.622	92.75
433.844	89.75
434.066	82.75
434.287	100.75
434.509	88.75
434.731	92.75
434.953	82.75
435.175	95.75
435.397	90.75
435.618	102.75
435.84	94.75
436.062	101.75
436.284	96.75
436.505	86.75
436.727	103.75
436.949	97.75
437.17	88.75
437.392	87.75
437.614	95.75
437.835	102.75
438.057	105.75
438.278	109.75
438.5	95.75
438.721	122.75
438.943	102.75
439.165	79.75
439.386	86.75
439.608	70.75
439.829	94.75
440.05	112.75
440.272	133.75
440.493	96.75
440.715	87.75
440.936	89.75
441.158	85.75
441.379	78.75
441.6	79.75
441.822	93.75
442.043	79.75
442.264	105.75
442.486	104.75
442.707	96.75
442.928	87.75
443.149	140.75
443.371	145.75
443.592	96.75
443.813	108.75
444.034	94.75
444.255	92.75
444.476	97.75
444.698	89.75
444.919	100.75
445.14	124.75
445.361	110.75
445.582	132.75
445.803	124.75
446.024	132.75
446.245	123.75
446.466	93.75
446.687	83.75
446.908	77.75
447.129	86.75
447.35	89.75
447.571	89.75
447.792	93.75
448.013	97.75
448.234	89.75
448.455	93.75
448.675	107.75
448.896	111.75
449.117	90.75
449.338	113.75
449.559	123.75
449.779	113.75
450	96.75
450.221	79.75
450.442	83.75
450.662	83.75
450.883	95.75
451.104	108.75
451.324	90.75
451.545	93.75
451.766	82.75
451.986	89.75
452.207	97.75
452.428	93.75
452.648	98.75
452.869	96.75
453.089	97.75
453.31	118.75
453.53	87.75
453.751	74.75
453.971	92.75
454.192	113.75
454.412	94.75
454.633	87.75
454.853	80.75
455.073	91.75
455.294	84.75
455.514	102.75
455.734	82.75
455.955	93.75
456.175	81.75
456.395	78.75
456.616	74.75
456.836	77.75
457.056	89.75
457.276	72.75
457.497	97.75
457.717	89.75
457.937	89.75
458.157	77.75
458.377	82.75
458.598	111.75
458.818	147.75
459.038	156.75
459.258	101.75
459.478	80.75
459.698	89.75
459.918	71.75
460.138	87.75
460.358	93.75
460.578	81.75
460.798	98.75
461.018	89.75
461.238	91.75
461.458	87.75
461.678	93.75
461.898	90.75
462.118	102.75
462.338	82.75
462.558	97.75
462.777	79.75
462.997	79.75
463.217	74.75
463.437	90.75
463.657	93.75
463.876	89.75
464.096	95.75
464.316	92.75
464.536	70.75
464.755	93.75
464.975	100.75
465.195	156.75
465.414	139.75
465.634	103.75
465.854	92.75
466.073	89.75
466.293	89.75
466.512	82.75
466.732	90.75
466.951	81.75
467.171	100.75
467.391	75.75
467.61	105.75
467.829	97.75
468.049	78.75
468.268	87.75
468.488	90.75
468.707	83.75
468.927	74.75
469.146	82.75
469.365	86.75
469.585	90.75
469.804	96.75
470.023	88.75
470.243	87.75
470.462	92.75
470.681	106.75
470.901	88.75
471.12	74.75
471.339	86.75
471.558	72.75
471.777	90.75
471.997	97.75
472.216	91.75
472.435	81.75
472.654	82.75
472.873	94.75
473.092	98.75
473.311	86.75
473.53	87.75
473.749	88.75
473.968	94.75
474.187	98.75
474.406	89.75
474.625	88.75
474.844	85.75
475.063	83.75
475.282	84.75
475.501	69.75
475.72	89.75
475.939	75.75
476.158	78.75
476.377	96.75
476.596	84.75
476.814	76.75
477.033	92.75
477.252	93.75
477.471	93.75
477.69	95.75
477.908	89.75
478.127	82.75
478.346	80.75
478.564	84.75
478.783	89.75
479.002	90.75
479.22	102.75
479.439	89.75
479.658	92.75
479.876	93.75
480.095	78.75
480.313	77.75
480.532	85.75
480.751	89.75
480.969	102.75
481.188	104.75
481.406	100.75
481.624	103.75
481.843	94.75
482.061	79.75
482.28	82.75
482.498	92.75
482.717	87.75
482.935	92.75
483.153	94.75
483.372	77.75
483.59	83.75
483.808	85.75
484.027	79.75
484.245	96.75
484.463	109.75
484.681	98.75
484.9	97.75
485.118	94.75
485.336	89.75
485.554	105.75
485.772	89.75
485.99	81.75
486.209	109.75
486.427	97.75
486.645	113.75
486.863	104.75
487.081	90.75
487.299	89.75
487.517	87.75
487.735	96.75
487.953	79.75
488.171	108.75
488.389	89.75
488.607	94.75
488.825	88.75
489.043	86.75
489.261	93.75
489.479	101.75
489.696	99.75
489.914	99.75
490.132	75.75
490.35	88.75
490.568	89.75
490.786	88.75
491.003	84.75
491.221	95.75
491.439	85.75
491.657	86.75
491.874	96.75
492.092	99.75
492.31	84.75
492.527	79.75
492.745	92.75
492.963	94.75
493.18	72.75
493.398	75.75
493.615	92.75
493.833	100.75
494.05	79.75
494.268	84.75
494.485	92.75
494.703	93.75
494.92	87.75
495.138	97.75
495.355	93.75
495.573	74.75
495.79	82.75
496.008	101.75
496.225	92.75
496.442	92.75
496.66	89.75
496.877	92.75
497.094	105.75
497.312	76.75
497.529	81.75
497.746	91.75
497.963	81.75
498.181	103.75
498.398	102.75
498.615	110.75
498.832	93.75
499.049	82.75
499.267	89.75
499.484	90.75
499.701	90.75
499.918	86.75
500.135	94.75
500.352	84.75
500.569	89.75
500.786	89.75
501.003	86.75
501.22	86.75
501.437	90.75
501.654	98.75
501.871	97.75
502.088	81.75
502.305	102.75
502.522	102.75
502.739	88.75
502.956	86.75
503.172	87.75
503.389	76.75
503.606	104.75
503.823	91.75
504.04	95.75
504.256	87.75
504.473	94.75
504.69	93.75
504.907	100.75
505.123	96.75
505.34	87.75
505.557	96.75
505.773	93.75
505.99	92.75
506.207	82.75
506.423	96.75
506.64	88.75
506.856	77.75
507.073	100.75
507.289	84.75
507.506	102.75
507.722	113.75
507.939	87.75
508.155	81.75
508.372	87.75
508.588	95.75
508.805	107.75
509.021	96.75
509.238	89.75
509.454	94.75
509.67	88.75
509.887	111.75
510.103	142.75
510.319	213.75
510.536	781.75
510.752	2378.75
510.968	685.75
511.184	145.75
511.401	108.75
511.617	90.75
511.833	106.75
512.049	89.75
512.265	89.75
512.481	87.75
512.698	75.75
512.914	96.75
513.13	90.75
513.346	95.75
513.562	90.75
513.778	72.75
513.994	85.75
514.21	97.75
514.426	118.75
514.642	128.75
514.858	122.75
515.074	160.75
515.29	418.75
515.506	1460.75
515.721	537.75
515.937	152.75
516.153	109.75
516.369	95.75
516.585	93.75
516.801	87.75
517.016	107.75
517.232	100.75
517.448	89.75
517.664	93.75
517.879	98.75
518.095	92.75
518.311	86.75
518.527	89.75
518.742	90.75
518.958	78.75
519.173	97.75
519.389	101.75
519.605	100.75
519.82	97.75
520.036	95.75
520.251	125.75
520.467	100.75
520.682	107.75
520.898	118.75
521.113	117.75
521.329	120.75
521.544	199.75
521.76	553.75
521.975	2354.75
522.19	1417.75
522.406	299.75
522.621	120.75
522.836	96.75
523.052	93.75
523.267	94.75
523.482	103.75
523.698	93.75
523.913	122.75
524.128	114.75
524.343	103.75
524.559	91.75
524.774	88.75
524.989	92.75
525.204	109.75
525.419	102.75
525.634	87.75
525.849	87.75
526.064	92.75
526.28	106.75
526.495	84.75
526.71	82.75
526.925	84.75
527.14	66.75
527.355	87.75
527.57	89.75
527.785	96.75
527.999	94.75
528.214	86.75
528.429	100.75
528.644	96.75
528.859	85.75
529.074	91.75
529.289	125.75
529.503	170.75
529.718	108.75
529.933	95.75
530.148	77.75
530.363	110.75
530.577	90.75
530.792	104.75
531.007	106.75
531.221	97.75
531.436	90.75
531.651	102.75
531.865	108.75
532.08	95.75
532.295	80.75
532.509	89.75
532.724	105.75
532.938	104.75
533.153	85.75
533.367	111.75
533.582	92.75
533.796	89.75
534.011	95.75
534.225	90.75
534.44	93.75
534.654	97.75
534.868	86.75
535.083	105.75
535.297	98.75
535.511	104.75
535.726	122.75
535.94	98.75
536.154	109.75
536.369	92.75
536.583	91.75
536.797	104.75
537.011	82.75
537.225	83.75
537.44	89.75
537.654	79.75
537.868	89.75
538.082	89.75
538.296	99.75
538.51	91.75
538.724	78.75
538.938	80.75
539.153	94.75
539.367	101.75
539.581	84.75
539.795	88.75
540.009	86.75
540.222	78.75
540.436	93.75
540.65	83.75
540.864	99.75
541.078	86.75
541.292	70.75
541.506	94.75
541.72	98.75
541.934	91.75
542.147	99.75
542.361	93.75
542.575	84.75
542.789	91.75
543.002	89.75
543.216	80.75
543.43	97.75
543.644	100.75
543.857	93.75
544.071	88.75
544.285	96.75
544.498	87.75
544.712	88.75
544.925	79.75
545.139	87.75
545.352	81.75
545.566	95.75
545.779	88.75
545.993	89.75
546.206	84.75
546.42	77.75
546.633	88.75
546.847	88.75
547.06	72.75
547.274	96.75
547.487	88.75
547.7	98.75
547.914	89.75
548.127	72.75
548.34	84.75
548.554	100.75
548.767	90.75
548.98	81.75
549.193	87.75
549.407	76.75
549.62	85.75
549.833	110.75
550.046	88.75
550.259	89.75
550.473	103.75
550.686	73.75
550.899	85.75
551.112	82.75
551.325	101.75
551.538	84.75
551.751	82.75
551.964	87.75
552.177	90.75
552.39	89.75
552.603	87.75
552.816	85.75
553.029	97.75
553.242	92.75
553.455	100.75
553.667	100.75
553.88	103.75
554.093	88.75
554.306	91.75
554.519	93.75
554.732	98.75
554.944	82.75
555.157	90.75
555.37	80.75
555.583	77.75
555.795	95.75
556.008	83.75
556.221	96.75
556.433	79.75
556.646	97.75
556.859	103.75
557.071	105.75
557.284	85.75
557.496	108.75
557.709	92.75
557.921	93.75
558.134	83.75
558.346	87.75
558.559	95.75
558.771	90.75
558.984	92.75
559.196	89.75
559.409	93.75
559.621	89.75
559.833	90.75
560.046	82.75
560.258	82.75
560.47	72.75
560.683	87.75
560.895	100.75
561.107	82.75
561.32	93.75
561.532	85.75
561.744	87.75
561.956	94.75
562.168	89.75
562.381	85.75
562.593	94.75
562.805	109.75
563.017	81.75
563.229	86.75
563.441	87.75
563.653	94.75
563.865	94.75
564.077	92.75
564.289	85.75
564.501	81.75
564.713	88.75
564.925	93.75
565.137	87.75
565.349	95.75
565.561	80.75
565.773	82.75
565.985	82.75
566.197	87.75
566.408	72.75
566.62	96.75
566.832	88.75
567.044	87.75
567.255	74.75
567.467	83.75
567.679	87.75
567.891	92.75
568.102	102.75
568.314	100.75
568.526	92.75
568.737	93.75
568.949	82.75
569.161	72.75
569.372	80.75
569.584	99.75
569.795	107.75
570.007	109.75
570.218	268.75
570.43	136.75
570.641	94.75
570.853	97.75
571.064	96.75
571.276	93.75
571.487	74.75
571.698	81.75
571.91	83.75
572.121	86.75
572.333	98.75
572.544	86.75
572.755	73.75
572.966	74.75
573.178	102.75
573.389	96.75
573.6	93.75
573.811	77.75
574.023	88.75
574.234	73.75
574.445	86.75
574.656	91.75
574.867	93.75
575.078	91.75
575.289	88.75
575.501	76.75
575.712	90.75
575.923	87.75
576.134	94.75
576.345	79.75
576.556	90.75
576.767	89.75
576.978	95.75
577.188	82.75
577.399	82.75
577.61	92.75
577.821	87.75
578.032	117.75
578.243	274.75
578.454	804.75
578.665	222.75
578.875	110.75
579.086	100.75
579.297	72.75
579.508	87.75
579.718	97.75
579.929	89.75
580.14	92.75
580.35	85.75
580.561	85.75
580.772	95.75
580.982	82.75
581.193	91.75
581.403	101.75
581.614	97.75
581.825	106.75
582.035	85.75
582.246	83.75
582.456	91.75
582.667	94.75
582.877	99.75
583.087	98.75
583.298	74.75
583.508	71.75
583.719	101.75
583.929	89.75
584.139	92.75
584.35	88.75
584.56	95.75
584.77	97.75
584.981	93.75
585.191	88.75
585.401	101.75
585.611	93.75
585.821	87.75
586.032	98.75
586.242	101.75
586.452	94.75
586.662	80.75
586.872	76.75
587.082	85.75
587.292	88.75
587.502	77.75
587.713	76.75
587.923	92.75
588.133	85.75
588.343	82.75
588.553	84.75
588.762	93.75
588.972	91.75
589.182	81.75
589.392	97.75
589.602	100.75
589.812	86.75
590.022	91.75
590.232	90.75
590.441	72.75
590.651	89.75
590.861	82.75
591.071	86.75
591.281	79.75
591.49	75.75
591.7	74.75
591.91	82.75
592.119	79.75
592.329	102.75
592.539	89.75
592.748	94.75
592.958	92.75
593.167	70.75
593.377	78.75
593.587	84.75
593.796	106.75
594.006	102.75
594.215	81.75
594.424	92.75
594.634	98.75
594.843	71.75
595.053	79.75
595.262	89.75
595.472	88.75
595.681	92.75
595.89	79.75
596.1	90.75
596.309	86.75
596.518	89.75
596.727	85.75
596.937	93.75
597.146	75.75
597.355	91.75
597.564	73.75
597.774	91.75
597.983	77.75
598.192	78.75
598.401	83.75
598.61	84.75
598.819	73.75
599.028	107.75
599.237	77.75
599.446	87.75
599.655	104.75
599.864	90.75
600.073	82.75
600.282	98.75
600.491	91.75
600.7	97.75
600.909	76.75
601.118	76.75
601.327	80.75
601.536	77.75
601.745	88.75
601.953	103.75
602.162	94.75
602.371	90.75
602.58	84.75
602.789	93.75
602.997	78.75
603.206	93.75
603.415	85.75
603.623	74.75
603.832	80.75
604.041	91.75
604.249	87.75
604.458	82.75
604.666	91.75
604.875	95.75
605.084	74.75
605.292	76.75
605.501	83.75
605.709	68.75
605.918	85.75
606.126	89.75
606.334	90.75
606.543	92.75
606.751	89.75
606.96	78.75
607.168	93.75
607.376	84.75
607.585	73.75
607.793	78.75
608.001	75.75
608.21	92.75
608.418	88.75
608.626	96.75
608.834	76.75
609.043	91.75
609.251	90.75
609.459	87.75
609.667	85.75
609.875	90.75
610.083	85.75
610.291	59.75
610.499	83.75
610.707	89.75
610.916	79.75
611.124	81.75
611.332	83.75
611.54	92.75
611.748	79.75
611.955	83.75
612.163	85.75
612.371	88.75
612.579	89.75
612.787	90.75
612.995	86.75
613.203	77.75
613.411	93.75
613.618	76.75
613.826	84.75
614.034	96.75
614.242	73.75
614.449	79.75
614.657	102.75
614.865	82.75
615.072	85.75
615.28	85.75
615.488	92.75
615.695	90.75
615.903	84.75
616.111	95.75
616.318	100.75
616.526	88.75
616.733	85.75
616.941	90.75
617.148	81.75
617.356	77.75
617.563	86.75
617.771	96.75
617.978	93.75
618.185	97.75
618.393	93.75
618.6	93.75
618.807	88.75
619.015	88.75
619.222	102.75
619.429	79.75
619.637	85.75
619.844	89.75
620.051	89.75
620.258	94.75
620.466	84.75
620.673	85.75
620.88	85.75
621.087	88.75
621.294	78.75
621.501	78.75
621.708	81.75
621.915	82.75
622.122	87.75
622.329	82.75
622.536	91.75
622.743	77.75
622.95	75.75
623.157	87.75
623.364	66.75
623.571	87.75
623.778	83.75
623.985	85.75
624.192	82.75
624.399	95.75
624.606	77.75
624.812	61.75
625.019	80.75
625.226	90.75
625.433	91.75
625.639	79.75
625.846	78.75
626.053	85.75
626.259	81.75
626.466	85.75
626.673	90.75
626.879	87.75
627.086	90.75
627.293	89.75
627.499	81.75
627.706	84.75
627.912	90.75
628.119	74.75
628.325	71.75
628.532	89.75
628.738	77.75
628.945	89.75
629.151	77.75
629.357	88.75
629.564	79.75
629.77	77.75
629.976	84.75
630.183	84.75
630.389	74.75
630.595	82.75
630.802	79.75
631.008	78.75
631.214	97.75
631.42	93.75
631.627	85.75
631.833	82.75
632.039	94.75
632.245	82.75
632.451	78.75
632.657	81.75
632.863	86.75
633.069	84.75
633.275	85.75
633.481	78.75
633.688	92.75
633.893	93.75
634.099	85.75
634.305	77.75
634.511	81.75
634.717	81.75
634.923	93.75
635.129	77.75
635.335	87.75
635.541	92.75
635.747	71.75
635.952	76.75
636.158	84.75
636.364	70.75
636.57	91.75
636.775	89.75
636.981	85.75
637.187	77.75
637.392	79.75
637.598	84.75
637.804	81.75
638.009	96.75
638.215	82.75
638.421	77.75
638.626	78.75
638.832	83.75
639.037	89.75
639.243	86.75
639.448	80.75
639.654	80.75
639.859	72.75
640.065	89.75
640.27	94.75
640.475	89.75
640.681	77.75
640.886	70.75
641.091	72.75
641.297	76.75
641.502	88.75
641.707	80.75
641.913	75.75
642.118	79.75
642.323	74.75
642.528	93.75
642.733	83.75
642.939	83.75
643.144	77.75
643.349	86.75
643.554	81.75
643.759	86.75
643.964	89.75
644.169	90.75
644.374	86.75
644.579	90.75
644.784	92.75
644.989	83.75
645.194	87.75
645.399	81.75
645.604	88.75
645.809	70.75
646.014	77.75
646.219	85.75
646.423	84.75
646.628	73.75
646.833	76.75
647.038	90.75
647.243	84.75
647.447	77.75
647.652	80.75
647.857	84.75
648.062	78.75
648.266	74.75
648.471	88.75
648.676	95.75
648.88	94.75
649.085	82.75
649.289	82.75
649.494	81.75
649.698	116.75
649.903	102.75
650.107	89.75
650.312	95.75
650.516	84.75
650.721	78.75
650.925	66.75
651.13	74.75
651.334	74.75
651.539	80.75
651.743	89.75
651.947	81.75
652.152	81.75
652.356	76.75
652.56	87.75
652.764	81.75
652.969	82.75
653.173	97.75
653.377	79.75
653.581	65.75
653.785	88.75
653.99	92.75
654.194	86.75
654.398	86.75
654.602	76.75
654.806	82.75
655.01	104.75
655.214	92.75
655.418	84.75
655.622	77.75
655.826	88.75
656.03	77.75
656.234	82.75
656.438	102.75
656.642	93.75
656.846	97.75
657.049	83.75
657.253	92.75
657.457	93.75
657.661	92.75
657.865	73.75
658.068	78.75
658.272	82.75
658.476	70.75
658.68	78.75
658.883	73.75
659.087	94.75
659.291	86.75
659.494	70.75
659.698	83.75
659.901	87.75
660.105	69.75
660.309	80.75
660.512	76.75
660.716	78.75
660.919	84.75
661.123	82.75
661.326	73.75
661.53	88.75
661.733	84.75
661.936	82.75
662.14	72.75
662.343	84.75
662.546	82.75
662.75	86.75
662.953	77.75
663.156	73.75
663.36	83.75
663.563	84.75
663.766	64.75
663.969	88.75
664.173	91.75
664.376	84.75
664.579	83.75
664.782	77.75
664.985	76.75
665.188	85.75
665.391	82.75
665.594	60.75
665.797	70.75
666	86.75
666.203	91.75
666.406	72.75
666.609	72.75
666.812	57.75
667.015	57.75
667.218	69.75
667.421	80.75
667.624	68.75
667.827	84.75
668.03	84.75
668.232	90.75
668.435	82.75
668.638	84.75
668.841	77.75
669.043	93.75
669.246	82.75
669.449	83.75
669.651	77.75
669.854	77.75
670.057	82.75
670.259	81.75
670.462	78.75
670.665	85.75
670.867	86.75
671.07	74.75
671.272	76.75
671.475	95.75
671.677	81.75
671.88	76.75
672.082	65.75
672.284	75.75
672.487	69.75
672.689	78.75
672.892	84.75
