Data from Uncirc_2008_H10_HRD10591_00032.txt Node
Date: Wed Jan 03 10:15:37 EST 2024
User: Yrep
Spectrometer: HR+D1059
Trigger mode: 1
Integration Time (sec): 1.000000E-1
Scans to average: 1
Electric dark correction enabled: true
Nonlinearity correction enabled: false
Boxcar width: 0
XAxis mode: Wavelengths
Number of Pixels in Spectrum: 2048
>>>>>Begin Spectral Data<<<<<
223.165	-27.69
223.4	-27.69
223.635	-27.69
223.869	-18.69
224.104	-20.69
224.338	-6.69
224.573	-11.69
224.808	-16.69
225.042	-6.69
225.277	-17.69
225.511	-6.69
225.746	6.31
225.98	12.31
226.215	25.31
226.449	15.31
226.683	8.31
226.918	31.31
227.152	34.31
227.387	37.31
227.621	47.31
227.856	36.31
228.09	39.31
228.324	49.31
228.559	67.31
228.793	54.31
229.027	68.31
229.262	64.31
229.496	72.31
229.73	72.31
229.964	77.31
230.199	67.31
230.433	64.31
230.667	82.31
230.901	73.31
231.136	85.31
231.37	64.31
231.604	76.31
231.838	79.31
232.072	73.31
232.306	82.31
232.541	81.31
232.775	71.31
233.009	69.31
233.243	74.31
233.477	80.31
233.711	69.31
233.945	72.31
234.179	75.31
234.413	79.31
234.647	81.31
234.881	77.31
235.115	73.31
235.349	74.31
235.583	78.31
235.817	60.31
236.051	77.31
236.285	85.31
236.519	84.31
236.753	72.31
236.987	69.31
237.221	73.31
237.455	64.31
237.689	72.31
237.922	73.31
238.156	68.31
238.39	84.31
238.624	78.31
238.858	56.31
239.091	74.31
239.325	78.31
239.559	76.31
239.793	71.31
240.027	85.31
240.26	79.31
240.494	69.31
240.728	81.31
240.961	84.31
241.195	75.31
241.429	78.31
241.662	77.31
241.896	73.31
242.13	73.31
242.363	74.31
242.597	77.31
242.83	69.31
243.064	74.31
243.298	59.31
243.531	69.31
243.765	87.31
243.998	72.31
244.232	83.31
244.465	89.31
244.699	76.31
244.932	73.31
245.166	63.31
245.399	74.31
245.633	93.31
245.866	65.31
246.099	79.31
246.333	74.31
246.566	80.31
246.8	75.31
247.033	75.31
247.266	76.31
247.5	77.31
247.733	84.31
247.966	85.31
248.2	72.31
248.433	71.31
248.666	71.31
248.899	70.31
249.133	89.31
249.366	89.31
249.599	90.31
249.832	63.31
250.066	89.31
250.299	85.31
250.532	89.31
250.765	85.31
250.998	60.31
251.231	80.31
251.465	89.31
251.698	78.31
251.931	86.31
252.164	70.31
252.397	75.31
252.63	66.31
252.863	87.31
253.096	79.31
253.329	46.31
253.562	75.31
253.795	89.31
254.028	79.31
254.261	94.31
254.494	73.31
254.727	86.31
254.96	68.31
255.193	77.31
255.426	83.31
255.659	81.31
255.892	67.31
256.124	76.31
256.357	86.31
256.59	80.31
256.823	80.31
257.056	77.31
257.289	90.31
257.521	82.31
257.754	72.31
257.987	80.31
258.22	83.31
258.452	71.31
258.685	86.31
258.918	94.31
259.151	67.31
259.383	93.31
259.616	85.31
259.849	81.31
260.081	85.31
260.314	85.31
260.547	59.31
260.779	82.31
261.012	80.31
261.244	79.31
261.477	96.31
261.71	73.31
261.942	93.31
262.175	102.31
262.407	92.31
262.64	88.31
262.872	85.31
263.105	91.31
263.337	80.31
263.57	89.31
263.802	89.31
264.035	88.31
264.267	80.31
264.499	86.31
264.732	69.31
264.964	66.31
265.197	85.31
265.429	86.31
265.661	80.31
265.894	73.31
266.126	91.31
266.358	80.31
266.591	70.31
266.823	94.31
267.055	88.31
267.287	77.31
267.52	92.31
267.752	80.31
267.984	92.31
268.216	93.31
268.448	83.31
268.681	95.31
268.913	92.31
269.145	82.31
269.377	79.31
269.609	83.31
269.841	87.31
270.073	79.31
270.306	74.31
270.538	81.31
270.77	78.31
271.002	80.31
271.234	89.31
271.466	73.31
271.698	88.31
271.93	84.31
272.162	91.31
272.394	85.31
272.626	87.31
272.858	77.31
273.09	75.31
273.322	56.31
273.553	85.31
273.785	83.31
274.017	79.31
274.249	72.31
274.481	84.31
274.713	80.31
274.945	86.31
275.176	82.31
275.408	84.31
275.64	90.31
275.872	85.31
276.104	80.31
276.335	89.31
276.567	93.31
276.799	100.31
277.031	87.31
277.262	76.31
277.494	84.31
277.726	87.31
277.957	77.31
278.189	88.31
278.421	91.31
278.652	93.31
278.884	88.31
279.115	88.31
279.347	76.31
279.579	85.31
279.81	93.31
280.042	67.31
280.273	68.31
280.505	79.31
280.736	83.31
280.968	75.31
281.199	65.31
281.431	91.31
281.662	99.31
281.894	76.31
282.125	89.31
282.356	112.31
282.588	120.31
282.819	112.31
283.051	77.31
283.282	89.31
283.513	83.31
283.745	84.31
283.976	91.31
284.207	95.31
284.439	94.31
284.67	89.31
284.901	90.31
285.132	82.31
285.364	56.31
285.595	78.31
285.826	85.31
286.057	80.31
286.288	90.31
286.52	76.31
286.751	78.31
286.982	87.31
287.213	87.31
287.444	96.31
287.675	76.31
287.906	86.31
288.138	86.31
288.369	75.31
288.6	88.31
288.831	72.31
289.062	76.31
289.293	86.31
289.524	72.31
289.755	93.31
289.986	87.31
290.217	81.31
290.448	81.31
290.679	101.31
290.91	92.31
291.141	78.31
291.371	69.31
291.602	91.31
291.833	86.31
292.064	91.31
292.295	80.31
292.526	94.31
292.757	95.31
292.987	95.31
293.218	97.31
293.449	85.31
293.68	81.31
293.91	92.31
294.141	81.31
294.372	79.31
294.603	82.31
294.833	76.31
295.064	89.31
295.295	94.31
295.525	93.31
295.756	95.31
295.987	95.31
296.217	122.31
296.448	104.31
296.679	89.31
296.909	72.31
297.14	94.31
297.37	80.31
297.601	85.31
297.831	80.31
298.062	96.31
298.292	88.31
298.523	79.31
298.753	83.31
298.984	88.31
299.214	78.31
299.445	85.31
299.675	87.31
299.905	100.31
300.136	91.31
300.366	78.31
300.597	96.31
300.827	99.31
301.057	99.31
301.288	107.31
301.518	80.31
301.748	75.31
301.979	89.31
302.209	94.31
302.439	105.31
302.669	91.31
302.9	88.31
303.13	84.31
303.36	95.31
303.59	89.31
303.82	95.31
304.051	76.31
304.281	86.31
304.511	72.31
304.741	81.31
304.971	83.31
305.201	88.31
305.431	86.31
305.661	83.31
305.891	88.31
306.121	79.31
306.352	100.31
306.582	100.31
306.812	89.31
307.042	101.31
307.272	76.31
307.502	89.31
307.731	88.31
307.961	92.31
308.191	104.31
308.421	87.31
308.651	88.31
308.881	78.31
309.111	75.31
309.341	87.31
309.571	96.31
309.8	85.31
310.03	80.31
310.26	92.31
310.49	97.31
310.72	97.31
310.949	92.31
311.179	94.31
311.409	85.31
311.639	94.31
311.868	88.31
312.098	90.31
312.328	90.31
312.557	86.31
312.787	90.31
313.017	93.31
313.246	102.31
313.476	92.31
313.706	109.31
313.935	81.31
314.165	87.31
314.394	101.31
314.624	90.31
314.853	104.31
315.083	92.31
315.312	96.31
315.542	75.31
315.771	87.31
316.001	93.31
316.23	88.31
316.46	94.31
316.689	84.31
316.919	87.31
317.148	84.31
317.377	87.31
317.607	98.31
317.836	88.31
318.065	90.31
318.295	80.31
318.524	82.31
318.753	94.31
318.983	85.31
319.212	87.31
319.441	81.31
319.67	97.31
319.9	91.31
320.129	86.31
320.358	85.31
320.587	84.31
320.816	80.31
321.046	104.31
321.275	88.31
321.504	79.31
321.733	96.31
321.962	102.31
322.191	116.31
322.42	95.31
322.649	87.31
322.878	106.31
323.108	104.31
323.337	101.31
323.566	115.31
323.795	133.31
324.024	176.31
324.253	329.31
324.482	684.31
324.71	1368.31
324.939	1732.31
325.168	672.31
325.397	215.31
325.626	131.31
325.855	127.31
326.084	118.31
326.313	121.31
326.542	135.31
326.77	192.31
326.999	395.31
327.228	791.31
327.457	1381.31
327.686	1093.31
327.914	312.31
328.143	171.31
328.372	120.31
328.6	111.31
328.829	109.31
329.058	112.31
329.287	117.31
329.515	115.31
329.744	87.31
329.972	95.31
330.201	103.31
330.43	95.31
330.658	97.31
330.887	121.31
331.115	126.31
331.344	92.31
331.572	90.31
331.801	102.31
332.03	101.31
332.258	96.31
332.486	96.31
332.715	97.31
332.943	88.31
333.172	87.31
333.4	101.31
333.629	114.31
333.857	94.31
334.085	92.31
334.314	93.31
334.542	86.31
334.771	86.31
334.999	98.31
335.227	107.31
335.455	91.31
335.684	91.31
335.912	89.31
336.14	80.31
336.369	107.31
336.597	91.31
336.825	80.31
337.053	91.31
337.281	90.31
337.51	89.31
337.738	83.31
337.966	91.31
338.194	85.31
338.422	97.31
338.65	95.31
338.878	78.31
339.106	94.31
339.334	105.31
339.562	88.31
339.79	79.31
340.018	101.31
340.246	89.31
340.474	89.31
340.702	101.31
340.93	84.31
341.158	93.31
341.386	95.31
341.614	92.31
341.842	105.31
342.07	65.31
342.298	91.31
342.526	102.31
342.754	99.31
342.981	91.31
343.209	87.31
343.437	92.31
343.665	97.31
343.893	86.31
344.12	95.31
344.348	80.31
344.576	95.31
344.804	90.31
345.031	89.31
345.259	105.31
345.487	95.31
345.714	101.31
345.942	95.31
346.17	98.31
346.397	88.31
346.625	74.31
346.853	84.31
347.08	79.31
347.308	95.31
347.535	95.31
347.763	99.31
347.99	80.31
348.218	102.31
348.445	106.31
348.673	101.31
348.9	99.31
349.128	92.31
349.355	93.31
349.583	89.31
349.81	88.31
350.037	102.31
350.265	91.31
350.492	88.31
350.72	85.31
350.947	99.31
351.174	104.31
351.402	117.31
351.629	94.31
351.856	89.31
352.083	91.31
352.311	107.31
352.538	107.31
352.765	105.31
352.992	118.31
353.22	119.31
353.447	105.31
353.674	111.31
353.901	103.31
354.128	100.31
354.355	87.31
354.583	115.31
354.81	93.31
355.037	87.31
355.264	108.31
355.491	94.31
355.718	96.31
355.945	86.31
356.172	101.31
356.399	76.31
356.626	100.31
356.853	91.31
357.08	96.31
357.307	102.31
357.534	93.31
357.761	104.31
357.988	95.31
358.215	100.31
358.441	88.31
358.668	77.31
358.895	87.31
359.122	95.31
359.349	67.31
359.576	85.31
359.802	102.31
360.029	106.31
360.256	84.31
360.483	99.31
360.709	79.31
360.936	93.31
361.163	77.31
361.39	92.31
361.616	120.31
361.843	97.31
362.07	75.31
362.296	82.31
362.523	78.31
362.749	91.31
362.976	99.31
363.203	86.31
363.429	86.31
363.656	90.31
363.882	79.31
364.109	82.31
364.335	75.31
364.562	85.31
364.788	73.31
365.015	101.31
365.241	90.31
365.468	117.31
365.694	103.31
365.92	87.31
366.147	72.31
366.373	80.31
366.599	84.31
366.826	95.31
367.052	90.31
367.278	88.31
367.505	90.31
367.731	96.31
367.957	94.31
368.184	98.31
368.41	92.31
368.636	115.31
368.862	116.31
369.089	103.31
369.315	95.31
369.541	91.31
369.767	101.31
369.993	77.31
370.219	72.31
370.445	88.31
370.672	71.31
370.898	92.31
371.124	76.31
371.35	79.31
371.576	85.31
371.802	81.31
372.028	82.31
372.254	89.31
372.48	88.31
372.706	88.31
372.932	88.31
373.158	93.31
373.384	80.31
373.61	90.31
373.835	77.31
374.061	98.31
374.287	80.31
374.513	92.31
374.739	102.31
374.965	91.31
375.191	91.31
375.416	86.31
375.642	86.31
375.868	78.31
376.094	91.31
376.319	85.31
376.545	78.31
376.771	91.31
376.997	93.31
377.222	85.31
377.448	80.31
377.674	77.31
377.899	101.31
378.125	81.31
378.35	100.31
378.576	88.31
378.802	94.31
379.027	88.31
379.253	78.31
379.478	94.31
379.704	85.31
379.929	89.31
380.155	86.31
380.38	95.31
380.606	89.31
380.831	93.31
381.057	93.31
381.282	91.31
381.507	90.31
381.733	93.31
381.958	97.31
382.184	96.31
382.409	103.31
382.634	99.31
382.86	106.31
383.085	91.31
383.31	101.31
383.535	92.31
383.761	88.31
383.986	103.31
384.211	97.31
384.436	92.31
384.662	95.31
384.887	103.31
385.112	81.31
385.337	109.31
385.562	108.31
385.787	84.31
386.013	104.31
386.238	107.31
386.463	123.31
386.688	111.31
386.913	108.31
387.138	107.31
387.363	106.31
387.588	86.31
387.813	94.31
388.038	115.31
388.263	105.31
388.488	111.31
388.713	92.31
388.938	92.31
389.163	95.31
389.387	108.31
389.612	86.31
389.837	90.31
390.062	97.31
390.287	91.31
390.512	90.31
390.736	89.31
390.961	90.31
391.186	86.31
391.411	92.31
391.636	100.31
391.86	84.31
392.085	92.31
392.31	89.31
392.534	83.31
392.759	85.31
392.984	84.31
393.208	92.31
393.433	87.31
393.658	84.31
393.882	94.31
394.107	95.31
394.331	92.31
394.556	95.31
394.78	101.31
395.005	105.31
395.229	65.31
395.454	83.31
395.678	59.31
395.903	88.31
396.127	80.31
396.352	83.31
396.576	75.31
396.801	79.31
397.025	71.31
397.249	80.31
397.474	88.31
397.698	83.31
397.922	79.31
398.147	76.31
398.371	82.31
398.595	88.31
398.82	75.31
399.044	92.31
399.268	75.31
399.492	80.31
399.717	77.31
399.941	84.31
400.165	97.31
400.389	88.31
400.613	86.31
400.837	80.31
401.062	73.31
401.286	91.31
401.51	79.31
401.734	72.31
401.958	91.31
402.182	117.31
402.406	151.31
402.63	104.31
402.854	87.31
403.078	82.31
403.302	87.31
403.526	84.31
403.75	77.31
403.974	79.31
404.198	91.31
404.422	85.31
404.645	76.31
404.869	78.31
405.093	87.31
405.317	81.31
405.541	84.31
405.765	86.31
405.988	110.31
406.212	137.31
406.436	185.31
406.66	127.31
406.883	88.31
407.107	85.31
407.331	102.31
407.555	85.31
407.778	102.31
408.002	87.31
408.226	82.31
408.449	86.31
408.673	89.31
408.896	74.31
409.12	92.31
409.344	98.31
409.567	93.31
409.791	77.31
410.014	92.31
410.238	84.31
410.461	96.31
410.685	101.31
410.908	83.31
411.132	102.31
411.355	88.31
411.578	92.31
411.802	86.31
412.025	81.31
412.249	81.31
412.472	103.31
412.695	83.31
412.919	73.31
413.142	84.31
413.365	84.31
413.589	80.31
413.812	95.31
414.035	91.31
414.258	87.31
414.482	75.31
414.705	83.31
414.928	91.31
415.151	88.31
415.374	82.31
415.597	87.31
415.821	92.31
416.044	102.31
416.267	89.31
416.49	90.31
416.713	85.31
416.936	89.31
417.159	81.31
417.382	87.31
417.605	86.31
417.828	89.31
418.051	91.31
418.274	86.31
418.497	80.31
418.72	93.31
418.943	85.31
419.166	76.31
419.389	96.31
419.611	85.31
419.834	73.31
420.057	83.31
420.28	93.31
420.503	80.31
420.726	94.31
420.948	82.31
421.171	84.31
421.394	88.31
421.617	96.31
421.839	96.31
422.062	84.31
422.285	92.31
422.507	81.31
422.73	83.31
422.953	94.31
423.175	84.31
423.398	80.31
423.621	88.31
423.843	95.31
424.066	89.31
424.288	86.31
424.511	82.31
424.733	92.31
424.956	107.31
425.178	98.31
425.401	94.31
425.623	96.31
425.846	78.31
426.068	81.31
426.291	89.31
426.513	89.31
426.735	85.31
426.958	91.31
427.18	115.31
427.402	116.31
427.625	136.31
427.847	124.31
428.069	79.31
428.292	90.31
428.514	77.31
428.736	88.31
428.958	92.31
429.181	105.31
429.403	98.31
429.625	88.31
429.847	106.31
430.069	91.31
430.292	85.31
430.514	85.31
430.736	85.31
430.958	73.31
431.18	89.31
431.402	88.31
431.624	81.31
431.846	89.31
432.068	88.31
432.29	84.31
432.512	100.31
432.734	92.31
432.956	90.31
433.178	90.31
433.4	90.31
433.622	101.31
433.844	102.31
434.066	100.31
434.287	89.31
434.509	76.31
434.731	98.31
434.953	76.31
435.175	88.31
435.397	73.31
435.618	73.31
435.84	103.31
436.062	97.31
436.284	108.31
436.505	96.31
436.727	90.31
436.949	84.31
437.17	78.31
437.392	76.31
437.614	94.31
437.835	84.31
438.057	114.31
438.278	115.31
438.5	110.31
438.721	111.31
438.943	84.31
439.165	80.31
439.386	89.31
439.608	90.31
439.829	104.31
440.05	117.31
440.272	115.31
440.493	115.31
440.715	88.31
440.936	80.31
441.158	84.31
441.379	88.31
441.6	101.31
441.822	96.31
442.043	96.31
442.264	89.31
442.486	96.31
442.707	94.31
442.928	99.31
443.149	110.31
443.371	117.31
443.592	106.31
443.813	111.31
444.034	105.31
444.255	86.31
444.476	83.31
444.698	78.31
444.919	97.31
445.14	138.31
445.361	104.31
445.582	105.31
445.803	135.31
446.024	108.31
446.245	131.31
446.466	88.31
446.687	98.31
446.908	93.31
447.129	86.31
447.35	85.31
447.571	97.31
447.792	101.31
448.013	104.31
448.234	101.31
448.455	82.31
448.675	91.31
448.896	99.31
449.117	84.31
449.338	92.31
449.559	125.31
449.779	109.31
450	90.31
450.221	80.31
450.442	99.31
450.662	89.31
450.883	87.31
451.104	100.31
451.324	80.31
451.545	72.31
451.766	87.31
451.986	77.31
452.207	85.31
452.428	89.31
452.648	89.31
452.869	98.31
453.089	111.31
453.31	120.31
453.53	91.31
453.751	77.31
453.971	98.31
454.192	94.31
454.412	89.31
454.633	88.31
454.853	92.31
455.073	73.31
455.294	81.31
455.514	89.31
455.734	86.31
455.955	86.31
456.175	94.31
456.395	92.31
456.616	89.31
456.836	81.31
457.056	92.31
457.276	81.31
457.497	74.31
457.717	80.31
457.937	75.31
458.157	89.31
458.377	80.31
458.598	88.31
458.818	132.31
459.038	142.31
459.258	104.31
459.478	93.31
459.698	88.31
459.918	79.31
460.138	78.31
460.358	87.31
460.578	79.31
460.798	83.31
461.018	97.31
461.238	80.31
461.458	91.31
461.678	82.31
461.898	91.31
462.118	82.31
462.338	88.31
462.558	93.31
462.777	90.31
462.997	87.31
463.217	83.31
463.437	84.31
463.657	84.31
463.876	93.31
464.096	87.31
464.316	94.31
464.536	86.31
464.755	84.31
464.975	95.31
465.195	143.31
465.414	133.31
465.634	95.31
465.854	96.31
466.073	90.31
466.293	71.31
466.512	80.31
466.732	80.31
466.951	74.31
467.171	73.31
467.391	103.31
467.61	88.31
467.829	95.31
468.049	92.31
468.268	85.31
468.488	78.31
468.707	87.31
468.927	89.31
469.146	71.31
469.365	79.31
469.585	79.31
469.804	95.31
470.023	79.31
470.243	82.31
470.462	94.31
470.681	93.31
470.901	92.31
471.12	79.31
471.339	83.31
471.558	80.31
471.777	76.31
471.997	81.31
472.216	101.31
472.435	88.31
472.654	83.31
472.873	82.31
473.092	93.31
473.311	77.31
473.53	81.31
473.749	78.31
473.968	90.31
474.187	87.31
474.406	109.31
474.625	90.31
474.844	76.31
475.063	94.31
475.282	72.31
475.501	91.31
475.72	85.31
475.939	72.31
476.158	84.31
476.377	76.31
476.596	91.31
476.814	93.31
477.033	87.31
477.252	93.31
477.471	84.31
477.69	85.31
477.908	90.31
478.127	80.31
478.346	77.31
478.564	86.31
478.783	88.31
479.002	82.31
479.22	79.31
479.439	106.31
479.658	96.31
479.876	85.31
480.095	88.31
480.313	89.31
480.532	89.31
480.751	84.31
480.969	81.31
481.188	89.31
481.406	93.31
481.624	91.31
481.843	78.31
482.061	98.31
482.28	81.31
482.498	95.31
482.717	80.31
482.935	80.31
483.153	88.31
483.372	91.31
483.59	107.31
483.808	94.31
484.027	92.31
484.245	95.31
484.463	91.31
484.681	99.31
484.9	101.31
485.118	108.31
485.336	82.31
485.554	93.31
485.772	83.31
485.99	93.31
486.209	97.31
486.427	97.31
486.645	101.31
486.863	100.31
487.081	100.31
487.299	90.31
487.517	95.31
487.735	91.31
487.953	108.31
488.171	84.31
488.389	88.31
488.607	98.31
488.825	96.31
489.043	89.31
489.261	84.31
489.479	74.31
489.696	84.31
489.914	95.31
490.132	97.31
490.35	89.31
490.568	94.31
490.786	72.31
491.003	95.31
491.221	101.31
491.439	87.31
491.657	81.31
491.874	90.31
492.092	88.31
492.31	87.31
492.527	98.31
492.745	91.31
492.963	95.31
493.18	77.31
493.398	99.31
493.615	88.31
493.833	96.31
494.05	88.31
494.268	83.31
494.485	99.31
494.703	91.31
494.92	96.31
495.138	80.31
495.355	85.31
495.573	92.31
495.79	91.31
496.008	86.31
496.225	99.31
496.442	76.31
496.66	78.31
496.877	87.31
497.094	100.31
497.312	92.31
497.529	93.31
497.746	80.31
497.963	97.31
498.181	81.31
498.398	85.31
498.615	101.31
498.832	90.31
499.049	79.31
499.267	77.31
499.484	93.31
499.701	86.31
499.918	78.31
500.135	90.31
500.352	76.31
500.569	101.31
500.786	78.31
501.003	80.31
501.22	97.31
501.437	92.31
501.654	91.31
501.871	104.31
502.088	91.31
502.305	83.31
502.522	85.31
502.739	83.31
502.956	90.31
503.172	88.31
503.389	83.31
503.606	104.31
503.823	88.31
504.04	77.31
504.256	85.31
504.473	86.31
504.69	93.31
504.907	90.31
505.123	95.31
505.34	97.31
505.557	83.31
505.773	88.31
505.99	93.31
506.207	92.31
506.423	88.31
506.64	97.31
506.856	71.31
507.073	78.31
507.289	85.31
507.506	79.31
507.722	100.31
507.939	96.31
508.155	99.31
508.372	86.31
508.588	87.31
508.805	97.31
509.021	80.31
509.238	100.31
509.454	109.31
509.67	107.31
509.887	110.31
510.103	114.31
510.319	195.31
510.536	685.31
510.752	2044.31
510.968	593.31
511.184	146.31
511.401	116.31
511.617	101.31
511.833	91.31
512.049	86.31
512.265	97.31
512.481	96.31
512.698	87.31
512.914	91.31
513.13	98.31
513.346	87.31
513.562	96.31
513.778	89.31
513.994	89.31
514.21	109.31
514.426	109.31
514.642	112.31
514.858	108.31
515.074	140.31
515.29	375.31
515.506	1178.31
515.721	466.31
515.937	139.31
516.153	94.31
516.369	101.31
516.585	82.31
516.801	84.31
517.016	102.31
517.232	76.31
517.448	84.31
517.664	84.31
517.879	106.31
518.095	85.31
518.311	91.31
518.527	78.31
518.742	94.31
518.958	94.31
519.173	96.31
519.389	79.31
519.605	103.31
519.82	97.31
520.036	110.31
520.251	115.31
520.467	100.31
520.682	102.31
520.898	104.31
521.113	120.31
521.329	125.31
521.544	190.31
521.76	459.31
521.975	1947.31
522.19	1175.31
522.406	257.31
522.621	109.31
522.836	100.31
523.052	95.31
523.267	74.31
523.482	103.31
523.698	102.31
523.913	108.31
524.128	87.31
524.343	95.31
524.559	90.31
524.774	80.31
524.989	87.31
525.204	100.31
525.419	90.31
525.634	98.31
525.849	95.31
526.064	83.31
526.28	93.31
526.495	89.31
526.71	88.31
526.925	97.31
527.14	88.31
527.355	76.31
527.57	77.31
527.785	82.31
527.999	84.31
528.214	86.31
528.429	91.31
528.644	100.31
528.859	81.31
529.074	91.31
529.289	122.31
529.503	158.31
529.718	91.31
529.933	86.31
530.148	85.31
530.363	89.31
530.577	79.31
530.792	87.31
531.007	95.31
531.221	90.31
531.436	82.31
531.651	74.31
531.865	97.31
532.08	99.31
532.295	106.31
532.509	93.31
532.724	84.31
532.938	95.31
533.153	102.31
533.367	90.31
533.582	88.31
533.796	101.31
534.011	90.31
534.225	100.31
534.44	68.31
534.654	100.31
534.868	78.31
535.083	85.31
535.297	89.31
535.511	114.31
535.726	100.31
535.94	96.31
536.154	90.31
536.369	79.31
536.583	89.31
536.797	100.31
537.011	80.31
537.225	82.31
537.44	90.31
537.654	99.31
537.868	89.31
538.082	108.31
538.296	81.31
538.51	97.31
538.724	103.31
538.938	80.31
539.153	107.31
539.367	92.31
539.581	79.31
539.795	93.31
540.009	76.31
540.222	83.31
540.436	94.31
540.65	87.31
540.864	95.31
541.078	88.31
541.292	94.31
541.506	85.31
541.72	96.31
541.934	81.31
542.147	87.31
542.361	89.31
542.575	70.31
542.789	88.31
543.002	87.31
543.216	81.31
543.43	97.31
543.644	82.31
543.857	89.31
544.071	86.31
544.285	84.31
544.498	88.31
544.712	80.31
544.925	77.31
545.139	91.31
545.352	85.31
545.566	80.31
545.779	91.31
545.993	82.31
546.206	82.31
546.42	94.31
546.633	99.31
546.847	71.31
547.06	82.31
547.274	88.31
547.487	92.31
547.7	74.31
547.914	80.31
548.127	81.31
548.34	76.31
548.554	88.31
548.767	89.31
548.98	86.31
549.193	79.31
549.407	93.31
549.62	91.31
549.833	86.31
550.046	82.31
550.259	100.31
550.473	81.31
550.686	81.31
550.899	80.31
551.112	68.31
551.325	74.31
551.538	78.31
551.751	92.31
551.964	87.31
552.177	90.31
552.39	78.31
552.603	87.31
552.816	86.31
553.029	83.31
553.242	85.31
553.455	108.31
553.667	83.31
553.88	79.31
554.093	92.31
554.306	95.31
554.519	89.31
554.732	75.31
554.944	78.31
555.157	88.31
555.37	82.31
555.583	89.31
555.795	92.31
556.008	80.31
556.221	93.31
556.433	101.31
556.646	86.31
556.859	78.31
557.071	83.31
557.284	86.31
557.496	78.31
557.709	79.31
557.921	85.31
558.134	77.31
558.346	95.31
558.559	100.31
558.771	89.31
558.984	87.31
559.196	92.31
559.409	93.31
559.621	89.31
559.833	76.31
560.046	91.31
560.258	85.31
560.47	94.31
560.683	82.31
560.895	91.31
561.107	86.31
561.32	87.31
561.532	82.31
561.744	91.31
561.956	88.31
562.168	87.31
562.381	85.31
562.593	78.31
562.805	71.31
563.017	83.31
563.229	92.31
563.441	79.31
563.653	93.31
563.865	92.31
564.077	80.31
564.289	96.31
564.501	80.31
564.713	78.31
564.925	98.31
565.137	95.31
565.349	100.31
565.561	75.31
565.773	80.31
565.985	88.31
566.197	87.31
566.408	88.31
566.62	87.31
566.832	85.31
567.044	98.31
567.255	78.31
567.467	95.31
567.679	85.31
567.891	85.31
568.102	84.31
568.314	77.31
568.526	84.31
568.737	87.31
568.949	91.31
569.161	87.31
569.372	86.31
569.584	95.31
569.795	82.31
570.007	116.31
570.218	238.31
570.43	133.31
570.641	85.31
570.853	95.31
571.064	100.31
571.276	90.31
571.487	91.31
571.698	79.31
571.91	86.31
572.121	89.31
572.333	93.31
572.544	89.31
572.755	81.31
572.966	91.31
573.178	86.31
573.389	72.31
573.6	71.31
573.811	81.31
574.023	89.31
574.234	86.31
574.445	79.31
574.656	95.31
574.867	88.31
575.078	86.31
575.289	88.31
575.501	89.31
575.712	81.31
575.923	83.31
576.134	80.31
576.345	85.31
576.556	78.31
576.767	79.31
576.978	85.31
577.188	86.31
577.399	84.31
577.61	81.31
577.821	104.31
578.032	97.31
578.243	245.31
578.454	676.31
578.665	200.31
578.875	108.31
579.086	82.31
579.297	84.31
579.508	72.31
579.718	95.31
579.929	89.31
580.14	90.31
580.35	90.31
580.561	100.31
580.772	80.31
580.982	87.31
581.193	86.31
581.403	80.31
581.614	96.31
581.825	102.31
582.035	98.31
582.246	81.31
582.456	87.31
582.667	87.31
582.877	90.31
583.087	73.31
583.298	87.31
583.508	85.31
583.719	97.31
583.929	98.31
584.139	87.31
584.35	99.31
584.56	88.31
584.77	102.31
584.981	76.31
585.191	83.31
585.401	75.31
585.611	85.31
585.821	81.31
586.032	87.31
586.242	84.31
586.452	88.31
586.662	90.31
586.872	92.31
587.082	93.31
587.292	77.31
587.502	84.31
587.713	81.31
587.923	95.31
588.133	91.31
588.343	78.31
588.553	78.31
588.762	83.31
588.972	92.31
589.182	92.31
589.392	91.31
589.602	104.31
589.812	88.31
590.022	77.31
590.232	93.31
590.441	87.31
590.651	85.31
590.861	89.31
591.071	76.31
591.281	83.31
591.49	94.31
591.7	88.31
591.91	91.31
592.119	67.31
592.329	99.31
592.539	89.31
592.748	84.31
592.958	93.31
593.167	69.31
593.377	89.31
593.587	89.31
593.796	87.31
594.006	88.31
594.215	87.31
594.424	68.31
594.634	79.31
594.843	85.31
595.053	73.31
595.262	91.31
595.472	89.31
595.681	78.31
595.89	75.31
596.1	93.31
596.309	97.31
596.518	79.31
596.727	78.31
596.937	86.31
597.146	85.31
597.355	95.31
597.564	83.31
597.774	79.31
597.983	99.31
598.192	76.31
598.401	79.31
598.61	83.31
598.819	73.31
599.028	85.31
599.237	86.31
599.446	81.31
599.655	77.31
599.864	96.31
600.073	87.31
600.282	74.31
600.491	86.31
600.7	79.31
600.909	92.31
601.118	95.31
601.327	86.31
601.536	78.31
601.745	90.31
601.953	97.31
602.162	92.31
602.371	70.31
602.58	88.31
602.789	67.31
602.997	86.31
603.206	76.31
603.415	83.31
603.623	76.31
603.832	90.31
604.041	79.31
604.249	76.31
604.458	81.31
604.666	86.31
604.875	85.31
605.084	81.31
605.292	77.31
605.501	69.31
605.709	72.31
605.918	92.31
606.126	79.31
606.334	93.31
606.543	81.31
606.751	90.31
606.96	78.31
607.168	79.31
607.376	72.31
607.585	83.31
607.793	94.31
608.001	81.31
608.21	80.31
608.418	95.31
608.626	87.31
608.834	85.31
609.043	81.31
609.251	79.31
609.459	73.31
609.667	88.31
609.875	85.31
610.083	80.31
610.291	66.31
610.499	86.31
610.707	87.31
610.916	91.31
611.124	81.31
611.332	62.31
611.54	81.31
611.748	69.31
611.955	84.31
612.163	78.31
612.371	78.31
612.579	84.31
612.787	87.31
612.995	85.31
613.203	91.31
613.411	67.31
613.618	77.31
613.826	93.31
614.034	103.31
614.242	89.31
614.449	87.31
614.657	81.31
614.865	96.31
615.072	93.31
615.28	96.31
615.488	103.31
615.695	84.31
615.903	98.31
616.111	111.31
616.318	96.31
616.526	91.31
616.733	86.31
616.941	80.31
617.148	84.31
617.356	77.31
617.563	92.31
617.771	88.31
617.978	92.31
618.185	82.31
618.393	92.31
618.6	98.31
618.807	78.31
619.015	74.31
619.222	71.31
619.429	84.31
619.637	84.31
619.844	84.31
620.051	80.31
620.258	84.31
620.466	93.31
620.673	78.31
620.88	94.31
621.087	77.31
621.294	85.31
621.501	78.31
621.708	78.31
621.915	107.31
622.122	77.31
622.329	79.31
622.536	90.31
622.743	69.31
622.95	88.31
623.157	86.31
623.364	79.31
623.571	64.31
623.778	80.31
623.985	84.31
624.192	95.31
624.399	79.31
624.606	85.31
624.812	79.31
625.019	93.31
625.226	75.31
625.433	91.31
625.639	84.31
625.846	80.31
626.053	78.31
626.259	90.31
626.466	89.31
626.673	83.31
626.879	79.31
627.086	100.31
627.293	79.31
627.499	80.31
627.706	85.31
627.912	77.31
628.119	84.31
628.325	76.31
628.532	86.31
628.738	84.31
628.945	82.31
629.151	79.31
629.357	71.31
629.564	86.31
629.77	105.31
629.976	86.31
630.183	75.31
630.389	77.31
630.595	84.31
630.802	78.31
631.008	75.31
631.214	76.31
631.42	76.31
631.627	91.31
631.833	78.31
632.039	76.31
632.245	81.31
632.451	83.31
632.657	92.31
632.863	69.31
633.069	88.31
633.275	75.31
633.481	73.31
633.688	90.31
633.893	96.31
634.099	85.31
634.305	80.31
634.511	71.31
634.717	96.31
634.923	84.31
635.129	67.31
635.335	83.31
635.541	87.31
635.747	77.31
635.952	87.31
636.158	71.31
636.364	105.31
636.57	73.31
636.775	81.31
636.981	73.31
637.187	99.31
637.392	81.31
637.598	68.31
637.804	82.31
638.009	78.31
638.215	86.31
638.421	85.31
638.626	81.31
638.832	78.31
639.037	84.31
639.243	88.31
639.448	76.31
639.654	80.31
639.859	80.31
640.065	85.31
640.27	83.31
640.475	91.31
640.681	88.31
640.886	81.31
641.091	84.31
641.297	80.31
641.502	87.31
641.707	81.31
641.913	91.31
642.118	62.31
642.323	83.31
642.528	88.31
642.733	79.31
642.939	92.31
643.144	89.31
643.349	84.31
643.554	80.31
643.759	84.31
643.964	85.31
644.169	78.31
644.374	83.31
644.579	86.31
644.784	83.31
644.989	81.31
645.194	82.31
645.399	71.31
645.604	88.31
645.809	87.31
646.014	91.31
646.219	106.31
646.423	76.31
646.628	89.31
646.833	91.31
647.038	91.31
647.243	79.31
647.447	93.31
647.652	90.31
647.857	87.31
648.062	91.31
648.266	71.31
648.471	99.31
648.676	91.31
648.88	95.31
649.085	74.31
649.289	92.31
649.494	111.31
649.698	119.31
649.903	76.31
650.107	87.31
650.312	84.31
650.516	86.31
650.721	79.31
650.925	80.31
651.13	88.31
651.334	79.31
651.539	85.31
651.743	66.31
651.947	75.31
652.152	68.31
652.356	81.31
652.56	78.31
652.764	78.31
652.969	87.31
653.173	90.31
653.377	79.31
653.581	83.31
653.785	81.31
653.99	72.31
654.194	81.31
654.398	95.31
654.602	70.31
654.806	75.31
655.01	114.31
655.214	93.31
655.418	83.31
655.622	87.31
655.826	95.31
656.03	81.31
656.234	81.31
656.438	84.31
656.642	93.31
656.846	88.31
657.049	82.31
657.253	90.31
657.457	91.31
657.661	94.31
657.865	78.31
658.068	88.31
658.272	74.31
658.476	80.31
658.68	80.31
658.883	79.31
659.087	89.31
659.291	85.31
659.494	81.31
659.698	90.31
659.901	83.31
660.105	67.31
660.309	72.31
660.512	78.31
660.716	68.31
660.919	69.31
661.123	73.31
661.326	76.31
661.53	80.31
661.733	75.31
661.936	68.31
662.14	90.31
662.343	84.31
662.546	93.31
662.75	79.31
662.953	75.31
663.156	92.31
663.36	78.31
663.563	83.31
663.766	79.31
663.969	87.31
664.173	84.31
664.376	78.31
664.579	66.31
664.782	68.31
664.985	88.31
665.188	72.31
665.391	75.31
665.594	71.31
665.797	86.31
666	68.31
666.203	81.31
666.406	77.31
666.609	77.31
666.812	75.31
667.015	91.31
667.218	79.31
667.421	82.31
667.624	91.31
667.827	63.31
668.03	86.31
668.232	74.31
668.435	85.31
668.638	60.31
668.841	82.31
669.043	71.31
669.246	79.31
669.449	91.31
669.651	78.31
669.854	82.31
670.057	84.31
670.259	80.31
670.462	88.31
670.665	77.31
670.867	83.31
671.07	79.31
671.272	78.31
671.475	80.31
671.677	76.31
671.88	78.31
672.082	74.31
672.284	94.31
672.487	81.31
672.689	73.31
672.892	81.31
