Data from Uncirc_2008_H10_HRD10591_00060.txt Node
Date: Wed Jan 03 10:15:42 EST 2024
User: Yrep
Spectrometer: HR+D1059
Trigger mode: 1
Integration Time (sec): 1.000000E-1
Scans to average: 1
Electric dark correction enabled: true
Nonlinearity correction enabled: false
Boxcar width: 0
XAxis mode: Wavelengths
Number of Pixels in Spectrum: 2048
>>>>>Begin Spectral Data<<<<<
223.165	-3.62
223.4	-3.62
223.635	-3.62
223.869	-12.62
224.104	-21.62
224.338	-22.62
224.573	-26.62
224.808	-24.62
225.042	-0.62
225.277	-0.62
225.511	0.38
225.746	8.38
225.98	5.38
226.215	2.38
226.449	17.38
226.683	23.38
226.918	22.38
227.152	33.38
227.387	47.38
227.621	37.38
227.856	48.38
228.09	57.38
228.324	61.38
228.559	54.38
228.793	49.38
229.027	51.38
229.262	64.38
229.496	89.38
229.73	76.38
229.964	74.38
230.199	78.38
230.433	64.38
230.667	73.38
230.901	87.38
231.136	67.38
231.37	77.38
231.604	82.38
231.838	72.38
232.072	88.38
232.306	87.38
232.541	77.38
232.775	67.38
233.009	80.38
233.243	78.38
233.477	78.38
233.711	82.38
233.945	86.38
234.179	76.38
234.413	76.38
234.647	80.38
234.881	81.38
235.115	90.38
235.349	80.38
235.583	86.38
235.817	94.38
236.051	75.38
236.285	68.38
236.519	75.38
236.753	91.38
236.987	73.38
237.221	82.38
237.455	68.38
237.689	76.38
237.922	67.38
238.156	69.38
238.39	80.38
238.624	91.38
238.858	74.38
239.091	77.38
239.325	77.38
239.559	81.38
239.793	80.38
240.027	80.38
240.26	82.38
240.494	76.38
240.728	79.38
240.961	85.38
241.195	82.38
241.429	91.38
241.662	67.38
241.896	68.38
242.13	76.38
242.363	86.38
242.597	87.38
242.83	81.38
243.064	81.38
243.298	62.38
243.531	80.38
243.765	77.38
243.998	82.38
244.232	83.38
244.465	87.38
244.699	81.38
244.932	78.38
245.166	93.38
245.399	80.38
245.633	94.38
245.866	81.38
246.099	82.38
246.333	60.38
246.566	88.38
246.8	85.38
247.033	86.38
247.266	89.38
247.5	99.38
247.733	77.38
247.966	73.38
248.2	77.38
248.433	76.38
248.666	71.38
248.899	75.38
249.133	70.38
249.366	78.38
249.599	96.38
249.832	92.38
250.066	75.38
250.299	66.38
250.532	89.38
250.765	78.38
250.998	73.38
251.231	61.38
251.465	73.38
251.698	89.38
251.931	73.38
252.164	81.38
252.397	83.38
252.63	78.38
252.863	76.38
253.096	84.38
253.329	78.38
253.562	66.38
253.795	87.38
254.028	93.38
254.261	94.38
254.494	82.38
254.727	98.38
254.96	75.38
255.193	82.38
255.426	102.38
255.659	78.38
255.892	90.38
256.124	76.38
256.357	57.38
256.59	83.38
256.823	73.38
257.056	67.38
257.289	81.38
257.521	80.38
257.754	82.38
257.987	80.38
258.22	71.38
258.452	71.38
258.685	96.38
258.918	81.38
259.151	69.38
259.383	81.38
259.616	96.38
259.849	92.38
260.081	83.38
260.314	79.38
260.547	66.38
260.779	80.38
261.012	72.38
261.244	80.38
261.477	91.38
261.71	103.38
261.942	102.38
262.175	101.38
262.407	85.38
262.64	83.38
262.872	82.38
263.105	94.38
263.337	83.38
263.57	82.38
263.802	83.38
264.035	86.38
264.267	88.38
264.499	88.38
264.732	90.38
264.964	86.38
265.197	104.38
265.429	79.38
265.661	85.38
265.894	92.38
266.126	80.38
266.358	65.38
266.591	83.38
266.823	82.38
267.055	80.38
267.287	89.38
267.52	77.38
267.752	66.38
267.984	94.38
268.216	84.38
268.448	94.38
268.681	74.38
268.913	67.38
269.145	81.38
269.377	75.38
269.609	81.38
269.841	101.38
270.073	81.38
270.306	90.38
270.538	92.38
270.77	79.38
271.002	73.38
271.234	75.38
271.466	89.38
271.698	82.38
271.93	89.38
272.162	75.38
272.394	87.38
272.626	85.38
272.858	81.38
273.09	75.38
273.322	79.38
273.553	87.38
273.785	89.38
274.017	90.38
274.249	92.38
274.481	91.38
274.713	93.38
274.945	91.38
275.176	89.38
275.408	84.38
275.64	93.38
275.872	91.38
276.104	80.38
276.335	80.38
276.567	110.38
276.799	101.38
277.031	102.38
277.262	86.38
277.494	92.38
277.726	84.38
277.957	87.38
278.189	86.38
278.421	78.38
278.652	77.38
278.884	74.38
279.115	88.38
279.347	89.38
279.579	83.38
279.81	102.38
280.042	90.38
280.273	93.38
280.505	96.38
280.736	85.38
280.968	93.38
281.199	93.38
281.431	77.38
281.662	99.38
281.894	89.38
282.125	102.38
282.356	114.38
282.588	130.38
282.819	93.38
283.051	85.38
283.282	80.38
283.513	86.38
283.745	83.38
283.976	76.38
284.207	83.38
284.439	83.38
284.67	95.38
284.901	85.38
285.132	89.38
285.364	78.38
285.595	78.38
285.826	83.38
286.057	78.38
286.288	76.38
286.52	92.38
286.751	94.38
286.982	82.38
287.213	80.38
287.444	80.38
287.675	82.38
287.906	89.38
288.138	83.38
288.369	89.38
288.6	111.38
288.831	101.38
289.062	96.38
289.293	97.38
289.524	91.38
289.755	98.38
289.986	93.38
290.217	89.38
290.448	69.38
290.679	92.38
290.91	73.38
291.141	90.38
291.371	93.38
291.602	76.38
291.833	76.38
292.064	89.38
292.295	90.38
292.526	70.38
292.757	105.38
292.987	84.38
293.218	77.38
293.449	77.38
293.68	95.38
293.91	90.38
294.141	91.38
294.372	82.38
294.603	89.38
294.833	90.38
295.064	93.38
295.295	88.38
295.525	109.38
295.756	98.38
295.987	113.38
296.217	112.38
296.448	121.38
296.679	95.38
296.909	99.38
297.14	70.38
297.37	88.38
297.601	75.38
297.831	95.38
298.062	95.38
298.292	87.38
298.523	93.38
298.753	87.38
298.984	80.38
299.214	86.38
299.445	97.38
299.675	93.38
299.905	100.38
300.136	89.38
300.366	85.38
300.597	87.38
300.827	85.38
301.057	99.38
301.288	101.38
301.518	91.38
301.748	98.38
301.979	117.38
302.209	87.38
302.439	88.38
302.669	97.38
302.9	93.38
303.13	79.38
303.36	91.38
303.59	101.38
303.82	102.38
304.051	97.38
304.281	86.38
304.511	74.38
304.741	97.38
304.971	74.38
305.201	83.38
305.431	88.38
305.661	95.38
305.891	84.38
306.121	71.38
306.352	91.38
306.582	97.38
306.812	80.38
307.042	90.38
307.272	95.38
307.502	88.38
307.731	97.38
307.961	93.38
308.191	94.38
308.421	81.38
308.651	91.38
308.881	90.38
309.111	105.38
309.341	83.38
309.571	98.38
309.8	95.38
310.03	100.38
310.26	86.38
310.49	98.38
310.72	75.38
310.949	84.38
311.179	94.38
311.409	92.38
311.639	94.38
311.868	92.38
312.098	91.38
312.328	97.38
312.557	98.38
312.787	106.38
313.017	95.38
313.246	89.38
313.476	91.38
313.706	98.38
313.935	97.38
314.165	86.38
314.394	91.38
314.624	95.38
314.853	101.38
315.083	105.38
315.312	99.38
315.542	94.38
315.771	94.38
316.001	87.38
316.23	83.38
316.46	88.38
316.689	96.38
316.919	95.38
317.148	92.38
317.377	104.38
317.607	104.38
317.836	100.38
318.065	97.38
318.295	98.38
318.524	96.38
318.753	91.38
318.983	91.38
319.212	104.38
319.441	103.38
319.67	95.38
319.9	99.38
320.129	88.38
320.358	98.38
320.587	95.38
320.816	103.38
321.046	94.38
321.275	94.38
321.504	87.38
321.733	97.38
321.962	98.38
322.191	97.38
322.42	111.38
322.649	107.38
322.878	96.38
323.108	107.38
323.337	129.38
323.566	129.38
323.795	140.38
324.024	189.38
324.253	332.38
324.482	719.38
324.71	1477.38
324.939	1986.38
325.168	731.38
325.397	221.38
325.626	137.38
325.855	138.38
326.084	126.38
326.313	129.38
326.542	145.38
326.77	227.38
326.999	427.38
327.228	839.38
327.457	1486.38
327.686	1193.38
327.914	331.38
328.143	177.38
328.372	134.38
328.6	101.38
328.829	126.38
329.058	114.38
329.287	116.38
329.515	118.38
329.744	98.38
329.972	85.38
330.201	86.38
330.43	100.38
330.658	110.38
330.887	119.38
331.115	111.38
331.344	84.38
331.572	99.38
331.801	108.38
332.03	92.38
332.258	93.38
332.486	103.38
332.715	101.38
332.943	98.38
333.172	98.38
333.4	98.38
333.629	97.38
333.857	103.38
334.085	105.38
334.314	103.38
334.542	88.38
334.771	83.38
334.999	91.38
335.227	95.38
335.455	101.38
335.684	105.38
335.912	95.38
336.14	94.38
336.369	97.38
336.597	87.38
336.825	84.38
337.053	78.38
337.281	90.38
337.51	89.38
337.738	94.38
337.966	86.38
338.194	78.38
338.422	105.38
338.65	110.38
338.878	93.38
339.106	102.38
339.334	91.38
339.562	80.38
339.79	91.38
340.018	89.38
340.246	94.38
340.474	91.38
340.702	87.38
340.93	101.38
341.158	90.38
341.386	105.38
341.614	74.38
341.842	84.38
342.07	104.38
342.298	103.38
342.526	112.38
342.754	97.38
342.981	85.38
343.209	100.38
343.437	92.38
343.665	90.38
343.893	94.38
344.12	99.38
344.348	101.38
344.576	90.38
344.804	105.38
345.031	96.38
345.259	89.38
345.487	94.38
345.714	81.38
345.942	92.38
346.17	92.38
346.397	90.38
346.625	92.38
346.853	92.38
347.08	92.38
347.308	79.38
347.535	88.38
347.763	91.38
347.99	100.38
348.218	98.38
348.445	95.38
348.673	91.38
348.9	87.38
349.128	88.38
349.355	86.38
349.583	89.38
349.81	102.38
350.037	94.38
350.265	89.38
350.492	93.38
350.72	93.38
350.947	105.38
351.174	93.38
351.402	102.38
351.629	88.38
351.856	101.38
352.083	95.38
352.311	92.38
352.538	93.38
352.765	109.38
352.992	106.38
353.22	114.38
353.447	102.38
353.674	95.38
353.901	106.38
354.128	105.38
354.355	109.38
354.583	93.38
354.81	97.38
355.037	89.38
355.264	96.38
355.491	114.38
355.718	98.38
355.945	97.38
356.172	100.38
356.399	100.38
356.626	89.38
356.853	83.38
357.08	96.38
357.307	81.38
357.534	91.38
357.761	76.38
357.988	91.38
358.215	88.38
358.441	91.38
358.668	106.38
358.895	103.38
359.122	77.38
359.349	87.38
359.576	89.38
359.802	90.38
360.029	89.38
360.256	99.38
360.483	98.38
360.709	96.38
360.936	91.38
361.163	93.38
361.39	109.38
361.616	94.38
361.843	91.38
362.07	104.38
362.296	107.38
362.523	85.38
362.749	105.38
362.976	102.38
363.203	96.38
363.429	87.38
363.656	95.38
363.882	72.38
364.109	89.38
364.335	86.38
364.562	88.38
364.788	90.38
365.015	88.38
365.241	105.38
365.468	104.38
365.694	104.38
365.92	108.38
366.147	80.38
366.373	75.38
366.599	95.38
366.826	76.38
367.052	99.38
367.278	90.38
367.505	84.38
367.731	80.38
367.957	91.38
368.184	96.38
368.41	96.38
368.636	106.38
368.862	115.38
369.089	93.38
369.315	89.38
369.541	76.38
369.767	77.38
369.993	96.38
370.219	86.38
370.445	83.38
370.672	80.38
370.898	81.38
371.124	84.38
371.35	80.38
371.576	90.38
371.802	83.38
372.028	92.38
372.254	98.38
372.48	83.38
372.706	77.38
372.932	81.38
373.158	84.38
373.384	102.38
373.61	81.38
373.835	91.38
374.061	84.38
374.287	87.38
374.513	78.38
374.739	90.38
374.965	82.38
375.191	89.38
375.416	87.38
375.642	87.38
375.868	98.38
376.094	95.38
376.319	99.38
376.545	84.38
376.771	80.38
376.997	87.38
377.222	80.38
377.448	87.38
377.674	90.38
377.899	89.38
378.125	82.38
378.35	89.38
378.576	86.38
378.802	94.38
379.027	95.38
379.253	97.38
379.478	104.38
379.704	88.38
379.929	96.38
380.155	93.38
380.38	96.38
380.606	88.38
380.831	91.38
381.057	99.38
381.282	86.38
381.507	102.38
381.733	107.38
381.958	85.38
382.184	94.38
382.409	94.38
382.634	93.38
382.86	88.38
383.085	101.38
383.31	89.38
383.535	102.38
383.761	97.38
383.986	94.38
384.211	97.38
384.436	88.38
384.662	92.38
384.887	114.38
385.112	101.38
385.337	102.38
385.562	92.38
385.787	97.38
386.013	115.38
386.238	112.38
386.463	101.38
386.688	107.38
386.913	98.38
387.138	97.38
387.363	102.38
387.588	103.38
387.813	96.38
388.038	117.38
388.263	93.38
388.488	110.38
388.713	96.38
388.938	106.38
389.163	88.38
389.387	103.38
389.612	92.38
389.837	94.38
390.062	103.38
390.287	112.38
390.512	92.38
390.736	80.38
390.961	93.38
391.186	91.38
391.411	103.38
391.636	93.38
391.86	86.38
392.085	87.38
392.31	86.38
392.534	86.38
392.759	70.38
392.984	81.38
393.208	83.38
393.433	81.38
393.658	79.38
393.882	89.38
394.107	85.38
394.331	92.38
394.556	95.38
394.78	97.38
395.005	85.38
395.229	76.38
395.454	85.38
395.678	78.38
395.903	93.38
396.127	85.38
396.352	94.38
396.576	83.38
396.801	85.38
397.025	97.38
397.249	91.38
397.474	89.38
397.698	98.38
397.922	81.38
398.147	82.38
398.371	84.38
398.595	87.38
398.82	83.38
399.044	84.38
399.268	89.38
399.492	81.38
399.717	91.38
399.941	102.38
400.165	87.38
400.389	93.38
400.613	84.38
400.837	89.38
401.062	91.38
401.286	85.38
401.51	86.38
401.734	90.38
401.958	83.38
402.182	114.38
402.406	142.38
402.63	105.38
402.854	96.38
403.078	101.38
403.302	89.38
403.526	81.38
403.75	82.38
403.974	85.38
404.198	85.38
404.422	87.38
404.645	68.38
404.869	77.38
405.093	87.38
405.317	95.38
405.541	83.38
405.765	81.38
405.988	106.38
406.212	151.38
406.436	183.38
406.66	139.38
406.883	86.38
407.107	90.38
407.331	89.38
407.555	90.38
407.778	92.38
408.002	104.38
408.226	93.38
408.449	90.38
408.673	104.38
408.896	106.38
409.12	98.38
409.344	81.38
409.567	96.38
409.791	93.38
410.014	104.38
410.238	100.38
410.461	78.38
410.685	85.38
410.908	90.38
411.132	103.38
411.355	117.38
411.578	89.38
411.802	71.38
412.025	87.38
412.249	85.38
412.472	82.38
412.695	83.38
412.919	81.38
413.142	94.38
413.365	80.38
413.589	75.38
413.812	88.38
414.035	95.38
414.258	74.38
414.482	73.38
414.705	82.38
414.928	88.38
415.151	87.38
415.374	93.38
415.597	93.38
415.821	98.38
416.044	86.38
416.267	75.38
416.49	86.38
416.713	82.38
416.936	96.38
417.159	83.38
417.382	81.38
417.605	91.38
417.828	78.38
418.051	74.38
418.274	86.38
418.497	88.38
418.72	87.38
418.943	83.38
419.166	94.38
419.389	93.38
419.611	78.38
419.834	82.38
420.057	86.38
420.28	80.38
420.503	90.38
420.726	91.38
420.948	103.38
421.171	102.38
421.394	86.38
421.617	88.38
421.839	80.38
422.062	88.38
422.285	80.38
422.507	93.38
422.73	94.38
422.953	82.38
423.175	87.38
423.398	91.38
423.621	85.38
423.843	86.38
424.066	79.38
424.288	89.38
424.511	80.38
424.733	100.38
424.956	93.38
425.178	94.38
425.401	92.38
425.623	85.38
425.846	86.38
426.068	104.38
426.291	86.38
426.513	88.38
426.735	89.38
426.958	92.38
427.18	101.38
427.402	118.38
427.625	148.38
427.847	113.38
428.069	109.38
428.292	90.38
428.514	80.38
428.736	90.38
428.958	85.38
429.181	94.38
429.403	80.38
429.625	85.38
429.847	87.38
430.069	108.38
430.292	93.38
430.514	89.38
430.736	96.38
430.958	87.38
431.18	68.38
431.402	74.38
431.624	84.38
431.846	78.38
432.068	96.38
432.29	93.38
432.512	82.38
432.734	84.38
432.956	82.38
433.178	102.38
433.4	95.38
433.622	91.38
433.844	100.38
434.066	101.38
434.287	95.38
434.509	83.38
434.731	81.38
434.953	73.38
435.175	79.38
435.397	83.38
435.618	105.38
435.84	112.38
436.062	103.38
436.284	103.38
436.505	101.38
436.727	95.38
436.949	82.38
437.17	108.38
437.392	82.38
437.614	94.38
437.835	104.38
438.057	109.38
438.278	108.38
438.5	100.38
438.721	119.38
438.943	99.38
439.165	85.38
439.386	90.38
439.608	93.38
439.829	106.38
440.05	112.38
440.272	119.38
440.493	87.38
440.715	87.38
440.936	80.38
441.158	75.38
441.379	94.38
441.6	84.38
441.822	77.38
442.043	95.38
442.264	101.38
442.486	99.38
442.707	92.38
442.928	92.38
443.149	117.38
443.371	112.38
443.592	114.38
443.813	114.38
444.034	89.38
444.255	94.38
444.476	74.38
444.698	89.38
444.919	84.38
445.14	124.38
445.361	123.38
445.582	113.38
445.803	123.38
446.024	132.38
446.245	122.38
446.466	105.38
446.687	96.38
446.908	88.38
447.129	78.38
447.35	87.38
447.571	85.38
447.792	93.38
448.013	81.38
448.234	106.38
448.455	89.38
448.675	118.38
448.896	114.38
449.117	94.38
449.338	113.38
449.559	109.38
449.779	111.38
450	85.38
450.221	88.38
450.442	88.38
450.662	82.38
450.883	89.38
451.104	105.38
451.324	97.38
451.545	77.38
451.766	83.38
451.986	81.38
452.207	86.38
452.428	87.38
452.648	91.38
452.869	107.38
453.089	101.38
453.31	116.38
453.53	89.38
453.751	91.38
453.971	79.38
454.192	102.38
454.412	82.38
454.633	86.38
454.853	81.38
455.073	89.38
455.294	86.38
455.514	88.38
455.734	82.38
455.955	89.38
456.175	78.38
456.395	88.38
456.616	89.38
456.836	86.38
457.056	95.38
457.276	87.38
457.497	88.38
457.717	66.38
457.937	74.38
458.157	86.38
458.377	87.38
458.598	109.38
458.818	133.38
459.038	142.38
459.258	106.38
459.478	87.38
459.698	86.38
459.918	89.38
460.138	71.38
460.358	83.38
460.578	82.38
460.798	89.38
461.018	89.38
461.238	87.38
461.458	78.38
461.678	92.38
461.898	82.38
462.118	87.38
462.338	92.38
462.558	83.38
462.777	91.38
462.997	71.38
463.217	82.38
463.437	63.38
463.657	69.38
463.876	89.38
464.096	85.38
464.316	89.38
464.536	89.38
464.755	95.38
464.975	90.38
465.195	140.38
465.414	147.38
465.634	94.38
465.854	87.38
466.073	78.38
466.293	93.38
466.512	82.38
466.732	82.38
466.951	95.38
467.171	83.38
467.391	86.38
467.61	108.38
467.829	89.38
468.049	84.38
468.268	83.38
468.488	102.38
468.707	93.38
468.927	74.38
469.146	87.38
469.365	93.38
469.585	71.38
469.804	106.38
470.023	98.38
470.243	98.38
470.462	97.38
470.681	99.38
470.901	88.38
471.12	76.38
471.339	86.38
471.558	92.38
471.777	88.38
471.997	93.38
472.216	83.38
472.435	88.38
472.654	83.38
472.873	86.38
473.092	83.38
473.311	93.38
473.53	84.38
473.749	91.38
473.968	90.38
474.187	96.38
474.406	93.38
474.625	82.38
474.844	95.38
475.063	74.38
475.282	81.38
475.501	79.38
475.72	93.38
475.939	95.38
476.158	83.38
476.377	97.38
476.596	93.38
476.814	84.38
477.033	97.38
477.252	81.38
477.471	75.38
477.69	87.38
477.908	90.38
478.127	73.38
478.346	77.38
478.564	83.38
478.783	98.38
479.002	74.38
479.22	95.38
479.439	95.38
479.658	105.38
479.876	83.38
480.095	93.38
480.313	87.38
480.532	102.38
480.751	80.38
480.969	83.38
481.188	95.38
481.406	81.38
481.624	98.38
481.843	98.38
482.061	78.38
482.28	81.38
482.498	91.38
482.717	99.38
482.935	86.38
483.153	80.38
483.372	91.38
483.59	85.38
483.808	97.38
484.027	81.38
484.245	87.38
484.463	88.38
484.681	82.38
484.9	96.38
485.118	99.38
485.336	98.38
485.554	97.38
485.772	99.38
485.99	93.38
486.209	97.38
486.427	105.38
486.645	102.38
486.863	113.38
487.081	100.38
487.299	97.38
487.517	83.38
487.735	90.38
487.953	98.38
488.171	83.38
488.389	88.38
488.607	95.38
488.825	92.38
489.043	98.38
489.261	95.38
489.479	80.38
489.696	95.38
489.914	90.38
490.132	74.38
490.35	84.38
490.568	85.38
490.786	81.38
491.003	105.38
491.221	92.38
491.439	89.38
491.657	90.38
491.874	94.38
492.092	91.38
492.31	83.38
492.527	97.38
492.745	90.38
492.963	89.38
493.18	83.38
493.398	87.38
493.615	98.38
493.833	88.38
494.05	85.38
494.268	93.38
494.485	89.38
494.703	95.38
494.92	89.38
495.138	96.38
495.355	91.38
495.573	85.38
495.79	92.38
496.008	86.38
496.225	90.38
496.442	96.38
496.66	98.38
496.877	78.38
497.094	85.38
497.312	79.38
497.529	79.38
497.746	105.38
497.963	85.38
498.181	91.38
498.398	90.38
498.615	106.38
498.832	111.38
499.049	81.38
499.267	87.38
499.484	91.38
499.701	75.38
499.918	82.38
500.135	95.38
500.352	83.38
500.569	103.38
500.786	82.38
501.003	78.38
501.22	93.38
501.437	96.38
501.654	85.38
501.871	113.38
502.088	85.38
502.305	93.38
502.522	101.38
502.739	73.38
502.956	93.38
503.172	89.38
503.389	97.38
503.606	102.38
503.823	85.38
504.04	89.38
504.256	90.38
504.473	87.38
504.69	88.38
504.907	82.38
505.123	87.38
505.34	102.38
505.557	89.38
505.773	90.38
505.99	104.38
506.207	104.38
506.423	95.38
506.64	95.38
506.856	93.38
507.073	88.38
507.289	87.38
507.506	88.38
507.722	106.38
507.939	100.38
508.155	89.38
508.372	88.38
508.588	96.38
508.805	87.38
509.021	102.38
509.238	92.38
509.454	97.38
509.67	96.38
509.887	113.38
510.103	120.38
510.319	192.38
510.536	680.38
510.752	2134.38
510.968	611.38
511.184	155.38
511.401	95.38
511.617	114.38
511.833	95.38
512.049	99.38
512.265	78.38
512.481	88.38
512.698	79.38
512.914	83.38
513.13	90.38
513.346	99.38
513.562	93.38
513.778	85.38
513.994	98.38
514.21	96.38
514.426	122.38
514.642	134.38
514.858	125.38
515.074	156.38
515.29	400.38
515.506	1278.38
515.721	481.38
515.937	145.38
516.153	108.38
516.369	103.38
516.585	89.38
516.801	82.38
517.016	101.38
517.232	83.38
517.448	100.38
517.664	104.38
517.879	91.38
518.095	100.38
518.311	91.38
518.527	85.38
518.742	101.38
518.958	86.38
519.173	91.38
519.389	86.38
519.605	86.38
519.82	98.38
520.036	106.38
520.251	120.38
520.467	118.38
520.682	114.38
520.898	108.38
521.113	95.38
521.329	120.38
521.544	175.38
521.76	487.38
521.975	2022.38
522.19	1257.38
522.406	291.38
522.621	128.38
522.836	117.38
523.052	91.38
523.267	94.38
523.482	87.38
523.698	104.38
523.913	126.38
524.128	105.38
524.343	89.38
524.559	93.38
524.774	103.38
524.989	90.38
525.204	102.38
525.419	97.38
525.634	89.38
525.849	99.38
526.064	90.38
526.28	91.38
526.495	97.38
526.71	93.38
526.925	84.38
527.14	90.38
527.355	88.38
527.57	82.38
527.785	93.38
527.999	93.38
528.214	83.38
528.429	108.38
528.644	113.38
528.859	81.38
529.074	94.38
529.289	112.38
529.503	164.38
529.718	119.38
529.933	88.38
530.148	90.38
530.363	98.38
530.577	82.38
530.792	102.38
531.007	87.38
531.221	93.38
531.436	99.38
531.651	118.38
531.865	98.38
532.08	98.38
532.295	103.38
532.509	86.38
532.724	88.38
532.938	101.38
533.153	98.38
533.367	85.38
533.582	96.38
533.796	101.38
534.011	96.38
534.225	88.38
534.44	100.38
534.654	92.38
534.868	104.38
535.083	89.38
535.297	79.38
535.511	96.38
535.726	107.38
535.94	98.38
536.154	97.38
536.369	96.38
536.583	77.38
536.797	101.38
537.011	93.38
537.225	89.38
537.44	88.38
537.654	91.38
537.868	91.38
538.082	86.38
538.296	90.38
538.51	81.38
538.724	92.38
538.938	95.38
539.153	90.38
539.367	115.38
539.581	94.38
539.795	88.38
540.009	82.38
540.222	89.38
540.436	99.38
540.65	93.38
540.864	102.38
541.078	88.38
541.292	82.38
541.506	92.38
541.72	101.38
541.934	91.38
542.147	106.38
542.361	87.38
542.575	80.38
542.789	88.38
543.002	95.38
543.216	95.38
543.43	104.38
543.644	98.38
543.857	98.38
544.071	93.38
544.285	100.38
544.498	98.38
544.712	81.38
544.925	73.38
545.139	101.38
545.352	89.38
545.566	102.38
545.779	81.38
545.993	89.38
546.206	74.38
546.42	88.38
546.633	93.38
546.847	87.38
547.06	87.38
547.274	76.38
547.487	85.38
547.7	87.38
547.914	65.38
548.127	95.38
548.34	95.38
548.554	88.38
548.767	103.38
548.98	93.38
549.193	88.38
549.407	91.38
549.62	75.38
549.833	88.38
550.046	79.38
550.259	92.38
550.473	87.38
550.686	95.38
550.899	83.38
551.112	98.38
551.325	90.38
551.538	90.38
551.751	81.38
551.964	87.38
552.177	93.38
552.39	110.38
552.603	80.38
552.816	94.38
553.029	79.38
553.242	91.38
553.455	99.38
553.667	88.38
553.88	101.38
554.093	98.38
554.306	95.38
554.519	93.38
554.732	90.38
554.944	89.38
555.157	88.38
555.37	84.38
555.583	92.38
555.795	91.38
556.008	99.38
556.221	93.38
556.433	78.38
556.646	84.38
556.859	80.38
557.071	109.38
557.284	99.38
557.496	84.38
557.709	94.38
557.921	102.38
558.134	110.38
558.346	98.38
558.559	90.38
558.771	96.38
558.984	82.38
559.196	88.38
559.409	81.38
559.621	91.38
559.833	92.38
560.046	87.38
560.258	87.38
560.47	83.38
560.683	92.38
560.895	82.38
561.107	97.38
561.32	110.38
561.532	104.38
561.744	96.38
561.956	91.38
562.168	101.38
562.381	95.38
562.593	95.38
562.805	82.38
563.017	75.38
563.229	90.38
563.441	92.38
563.653	91.38
563.865	88.38
564.077	71.38
564.289	90.38
564.501	89.38
564.713	103.38
564.925	94.38
565.137	94.38
565.349	101.38
565.561	93.38
565.773	89.38
565.985	105.38
566.197	83.38
566.408	100.38
566.62	81.38
566.832	93.38
567.044	83.38
567.255	97.38
567.467	93.38
567.679	95.38
567.891	90.38
568.102	89.38
568.314	80.38
568.526	88.38
568.737	85.38
568.949	86.38
569.161	81.38
569.372	82.38
569.584	89.38
569.795	87.38
570.007	125.38
570.218	226.38
570.43	155.38
570.641	90.38
570.853	89.38
571.064	89.38
571.276	86.38
571.487	79.38
571.698	100.38
571.91	89.38
572.121	96.38
572.333	93.38
572.544	99.38
572.755	94.38
572.966	90.38
573.178	91.38
573.389	87.38
573.6	81.38
573.811	80.38
574.023	95.38
574.234	97.38
574.445	93.38
574.656	79.38
574.867	79.38
575.078	87.38
575.289	89.38
575.501	93.38
575.712	93.38
575.923	98.38
576.134	105.38
576.345	90.38
576.556	82.38
576.767	95.38
576.978	79.38
577.188	97.38
577.399	93.38
577.61	102.38
577.821	99.38
578.032	119.38
578.243	251.38
578.454	693.38
578.665	207.38
578.875	99.38
579.086	93.38
579.297	93.38
579.508	87.38
579.718	82.38
579.929	107.38
580.14	102.38
580.35	69.38
580.561	80.38
580.772	96.38
580.982	81.38
581.193	83.38
581.403	96.38
581.614	89.38
581.825	97.38
582.035	105.38
582.246	80.38
582.456	88.38
582.667	99.38
582.877	98.38
583.087	78.38
583.298	97.38
583.508	89.38
583.719	77.38
583.929	88.38
584.139	81.38
584.35	79.38
584.56	88.38
584.77	83.38
584.981	77.38
585.191	98.38
585.401	81.38
585.611	90.38
585.821	101.38
586.032	90.38
586.242	83.38
586.452	86.38
586.662	87.38
586.872	97.38
587.082	91.38
587.292	81.38
587.502	74.38
587.713	81.38
587.923	80.38
588.133	75.38
588.343	96.38
588.553	85.38
588.762	92.38
588.972	83.38
589.182	77.38
589.392	82.38
589.602	87.38
589.812	97.38
590.022	93.38
590.232	86.38
590.441	98.38
590.651	93.38
590.861	82.38
591.071	95.38
591.281	78.38
591.49	103.38
591.7	80.38
591.91	95.38
592.119	90.38
592.329	86.38
592.539	82.38
592.748	84.38
592.958	86.38
593.167	90.38
593.377	89.38
593.587	100.38
593.796	85.38
594.006	87.38
594.215	97.38
594.424	74.38
594.634	83.38
594.843	89.38
595.053	77.38
595.262	87.38
595.472	88.38
595.681	91.38
595.89	85.38
596.1	87.38
596.309	88.38
596.518	90.38
596.727	88.38
596.937	93.38
597.146	69.38
597.355	70.38
597.564	79.38
597.774	70.38
597.983	83.38
598.192	87.38
598.401	74.38
598.61	94.38
598.819	88.38
599.028	82.38
599.237	89.38
599.446	89.38
599.655	82.38
599.864	84.38
600.073	78.38
600.282	94.38
600.491	87.38
600.7	85.38
600.909	90.38
601.118	90.38
601.327	96.38
601.536	91.38
601.745	89.38
601.953	95.38
602.162	89.38
602.371	92.38
602.58	77.38
602.789	69.38
602.997	77.38
603.206	92.38
603.415	88.38
603.623	74.38
603.832	86.38
604.041	99.38
604.249	86.38
604.458	77.38
604.666	80.38
604.875	90.38
605.084	86.38
605.292	91.38
605.501	86.38
605.709	87.38
605.918	80.38
606.126	95.38
606.334	87.38
606.543	98.38
606.751	78.38
606.96	89.38
607.168	93.38
607.376	85.38
607.585	90.38
607.793	99.38
608.001	91.38
608.21	82.38
608.418	87.38
608.626	86.38
608.834	96.38
609.043	100.38
609.251	86.38
609.459	78.38
609.667	85.38
609.875	87.38
610.083	93.38
610.291	82.38
610.499	88.38
610.707	86.38
610.916	79.38
611.124	84.38
611.332	101.38
611.54	86.38
611.748	80.38
611.955	81.38
612.163	73.38
612.371	98.38
612.579	83.38
612.787	87.38
612.995	77.38
613.203	94.38
613.411	103.38
613.618	90.38
613.826	78.38
614.034	81.38
614.242	93.38
614.449	80.38
614.657	93.38
614.865	83.38
615.072	95.38
615.28	82.38
615.488	70.38
615.695	92.38
615.903	94.38
616.111	92.38
616.318	99.38
616.526	102.38
616.733	104.38
616.941	86.38
617.148	78.38
617.356	97.38
617.563	89.38
617.771	90.38
617.978	72.38
618.185	86.38
618.393	101.38
618.6	94.38
618.807	82.38
619.015	82.38
619.222	86.38
619.429	71.38
619.637	87.38
619.844	73.38
620.051	86.38
620.258	94.38
620.466	78.38
620.673	91.38
620.88	83.38
621.087	73.38
621.294	83.38
621.501	78.38
621.708	79.38
621.915	89.38
622.122	78.38
622.329	82.38
622.536	79.38
622.743	78.38
622.95	82.38
623.157	77.38
623.364	78.38
623.571	89.38
623.778	83.38
623.985	87.38
624.192	90.38
624.399	82.38
624.606	72.38
624.812	78.38
625.019	87.38
625.226	89.38
625.433	81.38
625.639	70.38
625.846	85.38
626.053	75.38
626.259	87.38
626.466	84.38
626.673	82.38
626.879	88.38
627.086	89.38
627.293	78.38
627.499	73.38
627.706	93.38
627.912	78.38
628.119	93.38
628.325	74.38
628.532	96.38
628.738	102.38
628.945	76.38
629.151	86.38
629.357	66.38
629.564	82.38
629.77	81.38
629.976	79.38
630.183	72.38
630.389	81.38
630.595	90.38
630.802	74.38
631.008	87.38
631.214	80.38
631.42	78.38
631.627	92.38
631.833	73.38
632.039	85.38
632.245	79.38
632.451	80.38
632.657	83.38
632.863	77.38
633.069	90.38
633.275	86.38
633.481	85.38
633.688	92.38
633.893	83.38
634.099	93.38
634.305	86.38
634.511	90.38
634.717	87.38
634.923	95.38
635.129	87.38
635.335	80.38
635.541	85.38
635.747	90.38
635.952	79.38
636.158	79.38
636.364	76.38
636.57	90.38
636.775	82.38
636.981	88.38
637.187	85.38
637.392	85.38
637.598	76.38
637.804	78.38
638.009	80.38
638.215	70.38
638.421	85.38
638.626	93.38
638.832	85.38
639.037	87.38
639.243	91.38
639.448	81.38
639.654	74.38
639.859	80.38
640.065	78.38
640.27	94.38
640.475	75.38
640.681	98.38
640.886	95.38
641.091	98.38
641.297	94.38
641.502	94.38
641.707	78.38
641.913	82.38
642.118	95.38
642.323	78.38
642.528	85.38
642.733	95.38
642.939	87.38
643.144	81.38
643.349	102.38
643.554	82.38
643.759	90.38
643.964	96.38
644.169	80.38
644.374	94.38
644.579	82.38
644.784	86.38
644.989	75.38
645.194	86.38
645.399	85.38
645.604	85.38
645.809	96.38
646.014	80.38
646.219	103.38
646.423	81.38
646.628	86.38
646.833	88.38
647.038	92.38
647.243	86.38
647.447	76.38
647.652	82.38
647.857	89.38
648.062	76.38
648.266	72.38
648.471	82.38
648.676	86.38
648.88	78.38
649.085	85.38
649.289	83.38
649.494	101.38
649.698	132.38
649.903	106.38
650.107	77.38
650.312	82.38
650.516	82.38
650.721	78.38
650.925	88.38
651.13	87.38
651.334	89.38
651.539	91.38
651.743	97.38
651.947	83.38
652.152	79.38
652.356	78.38
652.56	81.38
652.764	81.38
652.969	89.38
653.173	96.38
653.377	89.38
653.581	89.38
653.785	80.38
653.99	76.38
654.194	80.38
654.398	83.38
654.602	82.38
654.806	79.38
655.01	103.38
655.214	83.38
655.418	95.38
655.622	77.38
655.826	90.38
656.03	69.38
656.234	85.38
656.438	77.38
656.642	93.38
656.846	90.38
657.049	96.38
657.253	84.38
657.457	73.38
657.661	79.38
657.865	82.38
658.068	94.38
658.272	82.38
658.476	70.38
658.68	81.38
658.883	84.38
659.087	76.38
659.291	83.38
659.494	80.38
659.698	90.38
659.901	83.38
660.105	77.38
660.309	80.38
660.512	76.38
660.716	89.38
660.919	80.38
661.123	79.38
661.326	77.38
661.53	81.38
661.733	78.38
661.936	75.38
662.14	81.38
662.343	75.38
662.546	81.38
662.75	71.38
662.953	75.38
663.156	72.38
663.36	93.38
663.563	75.38
663.766	91.38
663.969	89.38
664.173	80.38
664.376	93.38
664.579	81.38
664.782	78.38
664.985	87.38
665.188	96.38
665.391	77.38
665.594	87.38
665.797	79.38
666	90.38
666.203	72.38
666.406	78.38
666.609	82.38
666.812	93.38
667.015	80.38
667.218	93.38
667.421	79.38
667.624	76.38
667.827	65.38
668.03	83.38
668.232	89.38
668.435	82.38
668.638	80.38
668.841	90.38
669.043	69.38
669.246	75.38
669.449	79.38
669.651	61.38
669.854	75.38
670.057	72.38
670.259	80.38
670.462	83.38
670.665	74.38
670.867	82.38
671.07	81.38
671.272	77.38
671.475	94.38
671.677	70.38
671.88	78.38
672.082	79.38
672.284	86.38
672.487	90.38
672.689	87.38
672.892	76.38
