Data from Uncirc_2008_H10_HRD10591_00051.txt Node
Date: Wed Jan 03 10:15:41 EST 2024
User: Yrep
Spectrometer: HR+D1059
Trigger mode: 1
Integration Time (sec): 1.000000E-1
Scans to average: 1
Electric dark correction enabled: true
Nonlinearity correction enabled: false
Boxcar width: 0
XAxis mode: Wavelengths
Number of Pixels in Spectrum: 2048
>>>>>Begin Spectral Data<<<<<
223.165	-4.56
223.4	-4.56
223.635	-4.56
223.869	-19.56
224.104	-19.56
224.338	-17.56
224.573	-18.56
224.808	-18.56
225.042	-7.56
225.277	-4.56
225.511	3.44
225.746	-14.56
225.98	19.44
226.215	12.44
226.449	14.44
226.683	28.44
226.918	24.44
227.152	22.44
227.387	28.44
227.621	26.44
227.856	37.44
228.09	59.44
228.324	47.44
228.559	62.44
228.793	53.44
229.027	66.44
229.262	59.44
229.496	79.44
229.73	81.44
229.964	82.44
230.199	70.44
230.433	85.44
230.667	63.44
230.901	82.44
231.136	85.44
231.37	93.44
231.604	74.44
231.838	84.44
232.072	70.44
232.306	82.44
232.541	81.44
232.775	91.44
233.009	87.44
233.243	73.44
233.477	85.44
233.711	81.44
233.945	86.44
234.179	74.44
234.413	81.44
234.647	75.44
234.881	70.44
235.115	86.44
235.349	77.44
235.583	83.44
235.817	79.44
236.051	70.44
236.285	84.44
236.519	100.44
236.753	79.44
236.987	81.44
237.221	81.44
237.455	83.44
237.689	82.44
237.922	72.44
238.156	93.44
238.39	91.44
238.624	76.44
238.858	76.44
239.091	92.44
239.325	67.44
239.559	88.44
239.793	86.44
240.027	79.44
240.26	85.44
240.494	86.44
240.728	77.44
240.961	87.44
241.195	86.44
241.429	72.44
241.662	69.44
241.896	81.44
242.13	77.44
242.363	74.44
242.597	68.44
242.83	80.44
243.064	79.44
243.298	78.44
243.531	83.44
243.765	93.44
243.998	88.44
244.232	86.44
244.465	83.44
244.699	87.44
244.932	87.44
245.166	72.44
245.399	88.44
245.633	76.44
245.866	90.44
246.099	72.44
246.333	91.44
246.566	88.44
246.8	81.44
247.033	94.44
247.266	82.44
247.5	69.44
247.733	85.44
247.966	85.44
248.2	91.44
248.433	98.44
248.666	73.44
248.899	85.44
249.133	85.44
249.366	82.44
249.599	101.44
249.832	72.44
250.066	77.44
250.299	91.44
250.532	89.44
250.765	78.44
250.998	82.44
251.231	75.44
251.465	69.44
251.698	85.44
251.931	74.44
252.164	83.44
252.397	61.44
252.63	80.44
252.863	87.44
253.096	79.44
253.329	85.44
253.562	86.44
253.795	79.44
254.028	88.44
254.261	81.44
254.494	86.44
254.727	77.44
254.96	86.44
255.193	81.44
255.426	80.44
255.659	74.44
255.892	84.44
256.124	92.44
256.357	106.44
256.59	80.44
256.823	90.44
257.056	94.44
257.289	79.44
257.521	76.44
257.754	86.44
257.987	83.44
258.22	90.44
258.452	81.44
258.685	79.44
258.918	84.44
259.151	88.44
259.383	68.44
259.616	75.44
259.849	93.44
260.081	84.44
260.314	78.44
260.547	95.44
260.779	79.44
261.012	76.44
261.244	79.44
261.477	90.44
261.71	103.44
261.942	94.44
262.175	119.44
262.407	88.44
262.64	88.44
262.872	91.44
263.105	90.44
263.337	78.44
263.57	98.44
263.802	92.44
264.035	85.44
264.267	84.44
264.499	100.44
264.732	88.44
264.964	83.44
265.197	90.44
265.429	92.44
265.661	96.44
265.894	77.44
266.126	85.44
266.358	91.44
266.591	64.44
266.823	70.44
267.055	71.44
267.287	92.44
267.52	74.44
267.752	84.44
267.984	94.44
268.216	85.44
268.448	87.44
268.681	78.44
268.913	87.44
269.145	82.44
269.377	94.44
269.609	94.44
269.841	80.44
270.073	76.44
270.306	86.44
270.538	85.44
270.77	74.44
271.002	82.44
271.234	90.44
271.466	93.44
271.698	99.44
271.93	75.44
272.162	80.44
272.394	95.44
272.626	98.44
272.858	80.44
273.09	76.44
273.322	97.44
273.553	97.44
273.785	91.44
274.017	77.44
274.249	78.44
274.481	69.44
274.713	76.44
274.945	84.44
275.176	92.44
275.408	88.44
275.64	90.44
275.872	90.44
276.104	82.44
276.335	92.44
276.567	113.44
276.799	90.44
277.031	101.44
277.262	92.44
277.494	81.44
277.726	81.44
277.957	86.44
278.189	79.44
278.421	84.44
278.652	86.44
278.884	89.44
279.115	92.44
279.347	77.44
279.579	85.44
279.81	88.44
280.042	81.44
280.273	101.44
280.505	89.44
280.736	84.44
280.968	91.44
281.199	108.44
281.431	91.44
281.662	82.44
281.894	85.44
282.125	104.44
282.356	104.44
282.588	134.44
282.819	108.44
283.051	90.44
283.282	86.44
283.513	96.44
283.745	88.44
283.976	84.44
284.207	79.44
284.439	83.44
284.67	77.44
284.901	101.44
285.132	73.44
285.364	86.44
285.595	88.44
285.826	85.44
286.057	92.44
286.288	89.44
286.52	88.44
286.751	90.44
286.982	89.44
287.213	92.44
287.444	90.44
287.675	117.44
287.906	89.44
288.138	95.44
288.369	89.44
288.6	84.44
288.831	101.44
289.062	101.44
289.293	90.44
289.524	82.44
289.755	82.44
289.986	99.44
290.217	89.44
290.448	89.44
290.679	99.44
290.91	90.44
291.141	87.44
291.371	103.44
291.602	95.44
291.833	96.44
292.064	84.44
292.295	87.44
292.526	96.44
292.757	96.44
292.987	90.44
293.218	90.44
293.449	88.44
293.68	67.44
293.91	97.44
294.141	103.44
294.372	84.44
294.603	91.44
294.833	87.44
295.064	95.44
295.295	94.44
295.525	83.44
295.756	98.44
295.987	97.44
296.217	137.44
296.448	111.44
296.679	91.44
296.909	89.44
297.14	90.44
297.37	78.44
297.601	91.44
297.831	91.44
298.062	86.44
298.292	92.44
298.523	91.44
298.753	86.44
298.984	91.44
299.214	93.44
299.445	88.44
299.675	93.44
299.905	97.44
300.136	84.44
300.366	97.44
300.597	110.44
300.827	90.44
301.057	96.44
301.288	97.44
301.518	92.44
301.748	85.44
301.979	92.44
302.209	96.44
302.439	81.44
302.669	92.44
302.9	100.44
303.13	95.44
303.36	91.44
303.59	96.44
303.82	99.44
304.051	84.44
304.281	80.44
304.511	101.44
304.741	80.44
304.971	80.44
305.201	104.44
305.431	91.44
305.661	86.44
305.891	88.44
306.121	87.44
306.352	100.44
306.582	100.44
306.812	89.44
307.042	90.44
307.272	81.44
307.502	98.44
307.731	106.44
307.961	87.44
308.191	96.44
308.421	92.44
308.651	93.44
308.881	94.44
309.111	92.44
309.341	84.44
309.571	93.44
309.8	100.44
310.03	97.44
310.26	100.44
310.49	102.44
310.72	106.44
310.949	102.44
311.179	111.44
311.409	99.44
311.639	99.44
311.868	102.44
312.098	99.44
312.328	83.44
312.557	96.44
312.787	97.44
313.017	91.44
313.246	98.44
313.476	90.44
313.706	98.44
313.935	90.44
314.165	91.44
314.394	105.44
314.624	94.44
314.853	96.44
315.083	103.44
315.312	98.44
315.542	85.44
315.771	106.44
316.001	91.44
316.23	84.44
316.46	84.44
316.689	83.44
316.919	103.44
317.148	89.44
317.377	94.44
317.607	99.44
317.836	85.44
318.065	86.44
318.295	84.44
318.524	90.44
318.753	80.44
318.983	97.44
319.212	111.44
319.441	113.44
319.67	91.44
319.9	93.44
320.129	87.44
320.358	105.44
320.587	96.44
320.816	100.44
321.046	89.44
321.275	97.44
321.504	96.44
321.733	108.44
321.962	110.44
322.191	98.44
322.42	99.44
322.649	94.44
322.878	108.44
323.108	112.44
323.337	113.44
323.566	135.44
323.795	142.44
324.024	177.44
324.253	352.44
324.482	739.44
324.71	1482.44
324.939	1952.44
325.168	732.44
325.397	221.44
325.626	144.44
325.855	131.44
326.084	115.44
326.313	131.44
326.542	149.44
326.77	213.44
326.999	405.44
327.228	796.44
327.457	1482.44
327.686	1144.44
327.914	341.44
328.143	176.44
328.372	135.44
328.6	110.44
328.829	112.44
329.058	109.44
329.287	123.44
329.515	111.44
329.744	98.44
329.972	113.44
330.201	100.44
330.43	97.44
330.658	118.44
330.887	148.44
331.115	113.44
331.344	109.44
331.572	99.44
331.801	102.44
332.03	106.44
332.258	88.44
332.486	94.44
332.715	98.44
332.943	99.44
333.172	89.44
333.4	93.44
333.629	114.44
333.857	96.44
334.085	94.44
334.314	88.44
334.542	106.44
334.771	84.44
334.999	102.44
335.227	112.44
335.455	95.44
335.684	100.44
335.912	84.44
336.14	100.44
336.369	120.44
336.597	109.44
336.825	90.44
337.053	99.44
337.281	104.44
337.51	96.44
337.738	97.44
337.966	93.44
338.194	94.44
338.422	89.44
338.65	89.44
338.878	104.44
339.106	98.44
339.334	93.44
339.562	101.44
339.79	89.44
340.018	91.44
340.246	87.44
340.474	90.44
340.702	85.44
340.93	88.44
341.158	90.44
341.386	80.44
341.614	83.44
341.842	100.44
342.07	102.44
342.298	83.44
342.526	105.44
342.754	78.44
342.981	92.44
343.209	94.44
343.437	105.44
343.665	86.44
343.893	92.44
344.12	101.44
344.348	89.44
344.576	123.44
344.804	91.44
345.031	93.44
345.259	96.44
345.487	97.44
345.714	99.44
345.942	103.44
346.17	108.44
346.397	95.44
346.625	100.44
346.853	96.44
347.08	91.44
347.308	102.44
347.535	104.44
347.763	90.44
347.99	118.44
348.218	88.44
348.445	103.44
348.673	99.44
348.9	100.44
349.128	93.44
349.355	102.44
349.583	93.44
349.81	91.44
350.037	97.44
350.265	98.44
350.492	104.44
350.72	92.44
350.947	87.44
351.174	113.44
351.402	117.44
351.629	105.44
351.856	106.44
352.083	103.44
352.311	99.44
352.538	104.44
352.765	121.44
352.992	122.44
353.22	110.44
353.447	93.44
353.674	94.44
353.901	109.44
354.128	89.44
354.355	99.44
354.583	101.44
354.81	93.44
355.037	105.44
355.264	115.44
355.491	100.44
355.718	100.44
355.945	104.44
356.172	95.44
356.399	86.44
356.626	100.44
356.853	100.44
357.08	98.44
357.307	93.44
357.534	94.44
357.761	84.44
357.988	92.44
358.215	94.44
358.441	92.44
358.668	99.44
358.895	100.44
359.122	90.44
359.349	84.44
359.576	93.44
359.802	84.44
360.029	117.44
360.256	97.44
360.483	83.44
360.709	89.44
360.936	101.44
361.163	93.44
361.39	96.44
361.616	87.44
361.843	105.44
362.07	104.44
362.296	107.44
362.523	91.44
362.749	100.44
362.976	75.44
363.203	90.44
363.429	108.44
363.656	92.44
363.882	101.44
364.109	104.44
364.335	85.44
364.562	85.44
364.788	73.44
365.015	93.44
365.241	93.44
365.468	107.44
365.694	103.44
365.92	103.44
366.147	93.44
366.373	100.44
366.599	86.44
366.826	94.44
367.052	91.44
367.278	82.44
367.505	75.44
367.731	103.44
367.957	92.44
368.184	101.44
368.41	85.44
368.636	101.44
368.862	106.44
369.089	101.44
369.315	98.44
369.541	109.44
369.767	91.44
369.993	107.44
370.219	93.44
370.445	96.44
370.672	73.44
370.898	96.44
371.124	110.44
371.35	96.44
371.576	92.44
371.802	93.44
372.028	87.44
372.254	77.44
372.48	83.44
372.706	93.44
372.932	91.44
373.158	81.44
373.384	86.44
373.61	91.44
373.835	90.44
374.061	86.44
374.287	99.44
374.513	100.44
374.739	100.44
374.965	94.44
375.191	89.44
375.416	85.44
375.642	96.44
375.868	89.44
376.094	96.44
376.319	90.44
376.545	77.44
376.771	87.44
376.997	92.44
377.222	104.44
377.448	92.44
377.674	96.44
377.899	85.44
378.125	86.44
378.35	82.44
378.576	103.44
378.802	102.44
379.027	101.44
379.253	94.44
379.478	96.44
379.704	98.44
379.929	101.44
380.155	96.44
380.38	89.44
380.606	87.44
380.831	93.44
381.057	106.44
381.282	94.44
381.507	104.44
381.733	100.44
381.958	100.44
382.184	94.44
382.409	92.44
382.634	84.44
382.86	90.44
383.085	98.44
383.31	102.44
383.535	107.44
383.761	86.44
383.986	104.44
384.211	93.44
384.436	91.44
384.662	82.44
384.887	92.44
385.112	93.44
385.337	108.44
385.562	123.44
385.787	108.44
386.013	122.44
386.238	124.44
386.463	111.44
386.688	99.44
386.913	96.44
387.138	98.44
387.363	107.44
387.588	100.44
387.813	106.44
388.038	96.44
388.263	108.44
388.488	115.44
388.713	110.44
388.938	89.44
389.163	98.44
389.387	91.44
389.612	93.44
389.837	98.44
390.062	93.44
390.287	94.44
390.512	97.44
390.736	85.44
390.961	93.44
391.186	101.44
391.411	108.44
391.636	92.44
391.86	86.44
392.085	94.44
392.31	91.44
392.534	95.44
392.759	76.44
392.984	99.44
393.208	86.44
393.433	97.44
393.658	89.44
393.882	80.44
394.107	81.44
394.331	81.44
394.556	79.44
394.78	78.44
395.005	90.44
395.229	89.44
395.454	86.44
395.678	86.44
395.903	94.44
396.127	85.44
396.352	82.44
396.576	97.44
396.801	95.44
397.025	99.44
397.249	94.44
397.474	87.44
397.698	88.44
397.922	86.44
398.147	81.44
398.371	69.44
398.595	91.44
398.82	76.44
399.044	85.44
399.268	73.44
399.492	98.44
399.717	92.44
399.941	86.44
400.165	101.44
400.389	98.44
400.613	92.44
400.837	106.44
401.062	81.44
401.286	104.44
401.51	100.44
401.734	94.44
401.958	98.44
402.182	111.44
402.406	133.44
402.63	124.44
402.854	80.44
403.078	85.44
403.302	86.44
403.526	97.44
403.75	86.44
403.974	85.44
404.198	102.44
404.422	79.44
404.645	95.44
404.869	93.44
405.093	102.44
405.317	90.44
405.541	109.44
405.765	94.44
405.988	112.44
406.212	154.44
406.436	224.44
406.66	150.44
406.883	118.44
407.107	91.44
407.331	90.44
407.555	96.44
407.778	96.44
408.002	97.44
408.226	95.44
408.449	104.44
408.673	99.44
408.896	97.44
409.12	92.44
409.344	95.44
409.567	84.44
409.791	105.44
410.014	96.44
410.238	84.44
410.461	97.44
410.685	102.44
410.908	93.44
411.132	108.44
411.355	92.44
411.578	77.44
411.802	90.44
412.025	96.44
412.249	107.44
412.472	93.44
412.695	95.44
412.919	86.44
413.142	79.44
413.365	97.44
413.589	98.44
413.812	89.44
414.035	86.44
414.258	80.44
414.482	93.44
414.705	89.44
414.928	113.44
415.151	104.44
415.374	85.44
415.597	98.44
415.821	83.44
416.044	90.44
416.267	99.44
416.49	101.44
416.713	98.44
416.936	91.44
417.159	104.44
417.382	94.44
417.605	73.44
417.828	84.44
418.051	94.44
418.274	90.44
418.497	95.44
418.72	91.44
418.943	101.44
419.166	84.44
419.389	98.44
419.611	85.44
419.834	89.44
420.057	88.44
420.28	89.44
420.503	92.44
420.726	99.44
420.948	89.44
421.171	97.44
421.394	92.44
421.617	94.44
421.839	80.44
422.062	82.44
422.285	102.44
422.507	98.44
422.73	97.44
422.953	98.44
423.175	101.44
423.398	93.44
423.621	100.44
423.843	96.44
424.066	96.44
424.288	89.44
424.511	96.44
424.733	88.44
424.956	111.44
425.178	97.44
425.401	97.44
425.623	93.44
425.846	84.44
426.068	106.44
426.291	103.44
426.513	93.44
426.735	95.44
426.958	85.44
427.18	100.44
427.402	117.44
427.625	149.44
427.847	112.44
428.069	92.44
428.292	100.44
428.514	100.44
428.736	87.44
428.958	92.44
429.181	80.44
429.403	85.44
429.625	95.44
429.847	95.44
430.069	99.44
430.292	94.44
430.514	81.44
430.736	98.44
430.958	86.44
431.18	79.44
431.402	97.44
431.624	95.44
431.846	95.44
432.068	78.44
432.29	82.44
432.512	82.44
432.734	86.44
432.956	110.44
433.178	102.44
433.4	91.44
433.622	95.44
433.844	99.44
434.066	99.44
434.287	86.44
434.509	90.44
434.731	79.44
434.953	89.44
435.175	80.44
435.397	102.44
435.618	108.44
435.84	91.44
436.062	109.44
436.284	106.44
436.505	107.44
436.727	96.44
436.949	93.44
437.17	98.44
437.392	100.44
437.614	92.44
437.835	108.44
438.057	125.44
438.278	120.44
438.5	93.44
438.721	108.44
438.943	111.44
439.165	85.44
439.386	97.44
439.608	102.44
439.829	99.44
440.05	110.44
440.272	132.44
440.493	91.44
440.715	75.44
440.936	98.44
441.158	103.44
441.379	82.44
441.6	85.44
441.822	79.44
442.043	90.44
442.264	98.44
442.486	100.44
442.707	94.44
442.928	89.44
443.149	123.44
443.371	121.44
443.592	102.44
443.813	115.44
444.034	100.44
444.255	85.44
444.476	88.44
444.698	86.44
444.919	93.44
445.14	140.44
445.361	105.44
445.582	111.44
445.803	126.44
446.024	125.44
446.245	121.44
446.466	102.44
446.687	97.44
446.908	87.44
447.129	84.44
447.35	91.44
447.571	82.44
447.792	97.44
448.013	97.44
448.234	100.44
448.455	92.44
448.675	119.44
448.896	111.44
449.117	96.44
449.338	118.44
449.559	132.44
449.779	131.44
450	111.44
450.221	85.44
450.442	93.44
450.662	86.44
450.883	106.44
451.104	98.44
451.324	101.44
451.545	80.44
451.766	90.44
451.986	96.44
452.207	101.44
452.428	80.44
452.648	97.44
452.869	95.44
453.089	120.44
453.31	120.44
453.53	108.44
453.751	93.44
453.971	106.44
454.192	115.44
454.412	95.44
454.633	82.44
454.853	86.44
455.073	84.44
455.294	90.44
455.514	97.44
455.734	105.44
455.955	85.44
456.175	93.44
456.395	94.44
456.616	83.44
456.836	93.44
457.056	91.44
457.276	96.44
457.497	89.44
457.717	73.44
457.937	82.44
458.157	83.44
458.377	86.44
458.598	106.44
458.818	142.44
459.038	146.44
459.258	113.44
459.478	101.44
459.698	90.44
459.918	87.44
460.138	89.44
460.358	87.44
460.578	95.44
460.798	93.44
461.018	104.44
461.238	73.44
461.458	68.44
461.678	80.44
461.898	92.44
462.118	93.44
462.338	91.44
462.558	90.44
462.777	80.44
462.997	83.44
463.217	94.44
463.437	75.44
463.657	91.44
463.876	89.44
464.096	91.44
464.316	105.44
464.536	89.44
464.755	100.44
464.975	108.44
465.195	148.44
465.414	157.44
465.634	105.44
465.854	92.44
466.073	96.44
466.293	80.44
466.512	93.44
466.732	85.44
466.951	79.44
467.171	98.44
467.391	106.44
467.61	95.44
467.829	98.44
468.049	91.44
468.268	92.44
468.488	90.44
468.707	88.44
468.927	81.44
469.146	87.44
469.365	86.44
469.585	98.44
469.804	101.44
470.023	98.44
470.243	79.44
470.462	105.44
470.681	100.44
470.901	85.44
471.12	87.44
471.339	93.44
471.558	92.44
471.777	80.44
471.997	86.44
472.216	97.44
472.435	77.44
472.654	83.44
472.873	92.44
473.092	102.44
473.311	92.44
473.53	83.44
473.749	92.44
473.968	91.44
474.187	112.44
474.406	92.44
474.625	98.44
474.844	80.44
475.063	94.44
475.282	89.44
475.501	80.44
475.72	93.44
475.939	100.44
476.158	92.44
476.377	100.44
476.596	84.44
476.814	96.44
477.033	90.44
477.252	88.44
477.471	82.44
477.69	80.44
477.908	87.44
478.127	86.44
478.346	96.44
478.564	89.44
478.783	89.44
479.002	84.44
479.22	96.44
479.439	102.44
479.658	108.44
479.876	89.44
480.095	97.44
480.313	92.44
480.532	98.44
480.751	84.44
480.969	98.44
481.188	83.44
481.406	92.44
481.624	92.44
481.843	76.44
482.061	79.44
482.28	81.44
482.498	87.44
482.717	97.44
482.935	91.44
483.153	81.44
483.372	81.44
483.59	92.44
483.808	94.44
484.027	98.44
484.245	96.44
484.463	93.44
484.681	105.44
484.9	104.44
485.118	106.44
485.336	101.44
485.554	109.44
485.772	105.44
485.99	89.44
486.209	92.44
486.427	93.44
486.645	89.44
486.863	113.44
487.081	97.44
487.299	105.44
487.517	91.44
487.735	86.44
487.953	87.44
488.171	98.44
488.389	105.44
488.607	106.44
488.825	99.44
489.043	91.44
489.261	96.44
489.479	93.44
489.696	93.44
489.914	91.44
490.132	95.44
490.35	96.44
490.568	94.44
490.786	89.44
491.003	94.44
491.221	96.44
491.439	94.44
491.657	81.44
491.874	83.44
492.092	95.44
492.31	110.44
492.527	84.44
492.745	90.44
492.963	93.44
493.18	95.44
493.398	91.44
493.615	94.44
493.833	101.44
494.05	71.44
494.268	91.44
494.485	86.44
494.703	102.44
494.92	90.44
495.138	84.44
495.355	94.44
495.573	85.44
495.79	94.44
496.008	97.44
496.225	93.44
496.442	91.44
496.66	90.44
496.877	108.44
497.094	107.44
497.312	91.44
497.529	97.44
497.746	96.44
497.963	82.44
498.181	80.44
498.398	96.44
498.615	111.44
498.832	116.44
499.049	84.44
499.267	94.44
499.484	86.44
499.701	100.44
499.918	100.44
500.135	85.44
500.352	117.44
500.569	96.44
500.786	96.44
501.003	102.44
501.22	93.44
501.437	96.44
501.654	82.44
501.871	92.44
502.088	96.44
502.305	91.44
502.522	92.44
502.739	92.44
502.956	94.44
503.172	96.44
503.389	105.44
503.606	93.44
503.823	102.44
504.04	94.44
504.256	102.44
504.473	82.44
504.69	90.44
504.907	97.44
505.123	90.44
505.34	98.44
505.557	97.44
505.773	95.44
505.99	91.44
506.207	92.44
506.423	90.44
506.64	93.44
506.856	101.44
507.073	101.44
507.289	88.44
507.506	84.44
507.722	114.44
507.939	105.44
508.155	103.44
508.372	84.44
508.588	98.44
508.805	88.44
509.021	98.44
509.238	88.44
509.454	103.44
509.67	116.44
509.887	125.44
510.103	114.44
510.319	211.44
510.536	743.44
510.752	2280.44
510.968	630.44
511.184	169.44
511.401	115.44
511.617	107.44
511.833	108.44
512.049	102.44
512.265	91.44
512.481	90.44
512.698	89.44
512.914	86.44
513.13	101.44
513.346	90.44
513.562	104.44
513.778	99.44
513.994	105.44
514.21	110.44
514.426	122.44
514.642	143.44
514.858	131.44
515.074	153.44
515.29	446.44
515.506	1388.44
515.721	532.44
515.937	141.44
516.153	118.44
516.369	94.44
516.585	99.44
516.801	105.44
517.016	95.44
517.232	91.44
517.448	104.44
517.664	96.44
517.879	101.44
518.095	85.44
518.311	91.44
518.527	97.44
518.742	83.44
518.958	92.44
519.173	99.44
519.389	105.44
519.605	95.44
519.82	83.44
520.036	125.44
520.251	144.44
520.467	113.44
520.682	126.44
520.898	121.44
521.113	116.44
521.329	138.44
521.544	186.44
521.76	524.44
521.975	2328.44
522.19	1382.44
522.406	303.44
522.621	127.44
522.836	105.44
523.052	97.44
523.267	92.44
523.482	95.44
523.698	90.44
523.913	128.44
524.128	108.44
524.343	103.44
524.559	109.44
524.774	94.44
524.989	95.44
525.204	101.44
525.419	104.44
525.634	95.44
525.849	95.44
526.064	94.44
526.28	90.44
526.495	95.44
526.71	102.44
526.925	100.44
527.14	97.44
527.355	91.44
527.57	89.44
527.785	94.44
527.999	93.44
528.214	100.44
528.429	100.44
528.644	89.44
528.859	94.44
529.074	91.44
529.289	115.44
529.503	165.44
529.718	107.44
529.933	93.44
530.148	100.44
530.363	100.44
530.577	96.44
530.792	105.44
531.007	91.44
531.221	97.44
531.436	91.44
531.651	94.44
531.865	105.44
532.08	90.44
532.295	104.44
532.509	97.44
532.724	83.44
532.938	92.44
533.153	101.44
533.367	99.44
533.582	86.44
533.796	87.44
534.011	82.44
534.225	90.44
534.44	81.44
534.654	98.44
534.868	96.44
535.083	91.44
535.297	93.44
535.511	96.44
535.726	98.44
535.94	92.44
536.154	102.44
536.369	96.44
536.583	90.44
536.797	86.44
537.011	96.44
537.225	98.44
537.44	100.44
537.654	103.44
537.868	86.44
538.082	77.44
538.296	92.44
538.51	110.44
538.724	92.44
538.938	106.44
539.153	96.44
539.367	110.44
539.581	118.44
539.795	84.44
540.009	86.44
540.222	90.44
540.436	101.44
540.65	86.44
540.864	105.44
541.078	102.44
541.292	97.44
541.506	92.44
541.72	86.44
541.934	92.44
542.147	76.44
542.361	89.44
542.575	89.44
542.789	84.44
543.002	91.44
543.216	87.44
543.43	106.44
543.644	112.44
543.857	99.44
544.071	88.44
544.285	99.44
544.498	97.44
544.712	100.44
544.925	89.44
545.139	88.44
545.352	95.44
545.566	90.44
545.779	88.44
545.993	99.44
546.206	101.44
546.42	84.44
546.633	96.44
546.847	81.44
547.06	79.44
547.274	86.44
547.487	88.44
547.7	94.44
547.914	88.44
548.127	87.44
548.34	97.44
548.554	101.44
548.767	83.44
548.98	95.44
549.193	86.44
549.407	108.44
549.62	96.44
549.833	94.44
550.046	98.44
550.259	89.44
550.473	82.44
550.686	87.44
550.899	83.44
551.112	92.44
551.325	85.44
551.538	83.44
551.751	97.44
551.964	96.44
552.177	92.44
552.39	98.44
552.603	101.44
552.816	82.44
553.029	103.44
553.242	93.44
553.455	89.44
553.667	103.44
553.88	93.44
554.093	111.44
554.306	83.44
554.519	88.44
554.732	88.44
554.944	92.44
555.157	85.44
555.37	86.44
555.583	90.44
555.795	90.44
556.008	85.44
556.221	99.44
556.433	111.44
556.646	98.44
556.859	104.44
557.071	113.44
557.284	93.44
557.496	84.44
557.709	84.44
557.921	101.44
558.134	98.44
558.346	91.44
558.559	95.44
558.771	90.44
558.984	93.44
559.196	101.44
559.409	97.44
559.621	92.44
559.833	91.44
560.046	101.44
560.258	98.44
560.47	76.44
560.683	88.44
560.895	85.44
561.107	98.44
561.32	89.44
561.532	101.44
561.744	89.44
561.956	106.44
562.168	85.44
562.381	101.44
562.593	104.44
562.805	85.44
563.017	99.44
563.229	99.44
563.441	82.44
563.653	85.44
563.865	87.44
564.077	98.44
564.289	88.44
564.501	94.44
564.713	101.44
564.925	81.44
565.137	94.44
565.349	96.44
565.561	96.44
565.773	93.44
565.985	89.44
566.197	89.44
566.408	93.44
566.62	96.44
566.832	91.44
567.044	88.44
567.255	93.44
567.467	94.44
567.679	89.44
567.891	89.44
568.102	96.44
568.314	94.44
568.526	74.44
568.737	97.44
568.949	92.44
569.161	90.44
569.372	88.44
569.584	78.44
569.795	104.44
570.007	105.44
570.218	243.44
570.43	144.44
570.641	108.44
570.853	86.44
571.064	98.44
571.276	106.44
571.487	81.44
571.698	87.44
571.91	74.44
572.121	91.44
572.333	96.44
572.544	94.44
572.755	90.44
572.966	101.44
573.178	84.44
573.389	102.44
573.6	94.44
573.811	92.44
574.023	80.44
574.234	92.44
574.445	99.44
574.656	86.44
574.867	92.44
575.078	93.44
575.289	100.44
575.501	93.44
575.712	84.44
575.923	86.44
576.134	99.44
576.345	89.44
576.556	88.44
576.767	100.44
576.978	93.44
577.188	101.44
577.399	112.44
577.61	83.44
577.821	106.44
578.032	121.44
578.243	269.44
578.454	755.44
578.665	228.44
578.875	111.44
579.086	102.44
579.297	90.44
579.508	82.44
579.718	100.44
579.929	90.44
580.14	80.44
580.35	99.44
580.561	90.44
580.772	94.44
580.982	85.44
581.193	93.44
581.403	86.44
581.614	99.44
581.825	81.44
582.035	85.44
582.246	87.44
582.456	85.44
582.667	91.44
582.877	78.44
583.087	94.44
583.298	84.44
583.508	84.44
583.719	78.44
583.929	82.44
584.139	83.44
584.35	76.44
584.56	82.44
584.77	89.44
584.981	75.44
585.191	96.44
585.401	102.44
585.611	92.44
585.821	81.44
586.032	79.44
586.242	98.44
586.452	108.44
586.662	81.44
586.872	84.44
587.082	87.44
587.292	69.44
587.502	77.44
587.713	90.44
587.923	87.44
588.133	98.44
588.343	71.44
588.553	76.44
588.762	92.44
588.972	91.44
589.182	94.44
589.392	99.44
589.602	89.44
589.812	79.44
590.022	93.44
590.232	89.44
590.441	75.44
590.651	83.44
590.861	66.44
591.071	77.44
591.281	85.44
591.49	100.44
591.7	88.44
591.91	86.44
592.119	93.44
592.329	89.44
592.539	99.44
592.748	105.44
592.958	86.44
593.167	93.44
593.377	98.44
593.587	101.44
593.796	83.44
594.006	80.44
594.215	93.44
594.424	79.44
594.634	85.44
594.843	99.44
595.053	89.44
595.262	92.44
595.472	85.44
595.681	99.44
595.89	98.44
596.1	78.44
596.309	86.44
596.518	94.44
596.727	96.44
596.937	84.44
597.146	104.44
597.355	92.44
597.564	84.44
597.774	93.44
597.983	97.44
598.192	84.44
598.401	90.44
598.61	92.44
598.819	86.44
599.028	95.44
599.237	100.44
599.446	95.44
599.655	85.44
599.864	96.44
600.073	82.44
600.282	90.44
600.491	100.44
600.7	94.44
600.909	93.44
601.118	87.44
601.327	96.44
601.536	97.44
601.745	82.44
601.953	93.44
602.162	104.44
602.371	88.44
602.58	96.44
602.789	90.44
602.997	93.44
603.206	86.44
603.415	93.44
603.623	94.44
603.832	88.44
604.041	105.44
604.249	95.44
604.458	82.44
604.666	82.44
604.875	91.44
605.084	91.44
605.292	100.44
605.501	85.44
605.709	77.44
605.918	77.44
606.126	80.44
606.334	87.44
606.543	82.44
606.751	81.44
606.96	84.44
607.168	84.44
607.376	103.44
607.585	94.44
607.793	85.44
608.001	77.44
608.21	89.44
608.418	83.44
608.626	86.44
608.834	81.44
609.043	91.44
609.251	93.44
609.459	86.44
609.667	99.44
609.875	93.44
610.083	100.44
610.291	91.44
610.499	92.44
610.707	93.44
610.916	96.44
611.124	92.44
611.332	99.44
611.54	94.44
611.748	95.44
611.955	94.44
612.163	100.44
612.371	86.44
612.579	93.44
612.787	81.44
612.995	94.44
613.203	109.44
613.411	105.44
613.618	77.44
613.826	92.44
614.034	90.44
614.242	89.44
614.449	94.44
614.657	74.44
614.865	95.44
615.072	80.44
615.28	89.44
615.488	86.44
615.695	84.44
615.903	102.44
616.111	98.44
616.318	105.44
616.526	94.44
616.733	101.44
616.941	97.44
617.148	116.44
617.356	83.44
617.563	84.44
617.771	87.44
617.978	82.44
618.185	97.44
618.393	83.44
618.6	93.44
618.807	97.44
619.015	92.44
619.222	96.44
619.429	84.44
619.637	92.44
619.844	74.44
620.051	92.44
620.258	86.44
620.466	86.44
620.673	89.44
620.88	92.44
621.087	90.44
621.294	100.44
621.501	90.44
621.708	85.44
621.915	88.44
622.122	90.44
622.329	89.44
622.536	76.44
622.743	83.44
622.95	113.44
623.157	82.44
623.364	83.44
623.571	90.44
623.778	84.44
623.985	84.44
624.192	101.44
624.399	84.44
624.606	77.44
624.812	91.44
625.019	100.44
625.226	78.44
625.433	88.44
625.639	75.44
625.846	82.44
626.053	86.44
626.259	98.44
626.466	99.44
626.673	79.44
626.879	81.44
627.086	94.44
627.293	80.44
627.499	89.44
627.706	90.44
627.912	84.44
628.119	99.44
628.325	91.44
628.532	97.44
628.738	79.44
628.945	77.44
629.151	71.44
629.357	78.44
629.564	85.44
629.77	81.44
629.976	87.44
630.183	80.44
630.389	91.44
630.595	81.44
630.802	95.44
631.008	91.44
631.214	84.44
631.42	97.44
631.627	87.44
631.833	79.44
632.039	92.44
632.245	99.44
632.451	93.44
632.657	81.44
632.863	91.44
633.069	85.44
633.275	92.44
633.481	84.44
633.688	94.44
633.893	98.44
634.099	92.44
634.305	91.44
634.511	77.44
634.717	84.44
634.923	78.44
635.129	86.44
635.335	87.44
635.541	86.44
635.747	84.44
635.952	84.44
636.158	81.44
636.364	90.44
636.57	80.44
636.775	86.44
636.981	91.44
637.187	80.44
637.392	82.44
637.598	84.44
637.804	86.44
638.009	78.44
638.215	85.44
638.421	82.44
638.626	86.44
638.832	85.44
639.037	90.44
639.243	73.44
639.448	84.44
639.654	85.44
639.859	78.44
640.065	81.44
640.27	94.44
640.475	93.44
640.681	88.44
640.886	89.44
641.091	92.44
641.297	86.44
641.502	76.44
641.707	87.44
641.913	90.44
642.118	85.44
642.323	86.44
642.528	86.44
642.733	82.44
642.939	78.44
643.144	87.44
643.349	77.44
643.554	85.44
643.759	89.44
643.964	73.44
644.169	100.44
644.374	83.44
644.579	84.44
644.784	84.44
644.989	85.44
645.194	99.44
645.399	88.44
645.604	86.44
645.809	83.44
646.014	94.44
646.219	97.44
646.423	87.44
646.628	89.44
646.833	97.44
647.038	86.44
647.243	74.44
647.447	85.44
647.652	71.44
647.857	79.44
648.062	87.44
648.266	91.44
648.471	90.44
648.676	93.44
648.88	91.44
649.085	77.44
649.289	91.44
649.494	100.44
649.698	108.44
649.903	108.44
650.107	83.44
650.312	98.44
650.516	82.44
650.721	81.44
650.925	76.44
651.13	95.44
651.334	99.44
651.539	85.44
651.743	84.44
651.947	101.44
652.152	84.44
652.356	88.44
652.56	92.44
652.764	83.44
652.969	94.44
653.173	94.44
653.377	79.44
653.581	87.44
653.785	88.44
653.99	82.44
654.194	81.44
654.398	76.44
654.602	84.44
654.806	78.44
655.01	105.44
655.214	96.44
655.418	105.44
655.622	87.44
655.826	92.44
656.03	93.44
656.234	95.44
656.438	104.44
656.642	107.44
656.846	87.44
657.049	83.44
657.253	84.44
657.457	81.44
657.661	67.44
657.865	77.44
658.068	91.44
658.272	74.44
658.476	84.44
658.68	70.44
658.883	81.44
659.087	95.44
659.291	86.44
659.494	85.44
659.698	81.44
659.901	84.44
660.105	86.44
660.309	81.44
660.512	88.44
660.716	74.44
660.919	74.44
661.123	82.44
661.326	88.44
661.53	91.44
661.733	87.44
661.936	74.44
662.14	94.44
662.343	77.44
662.546	90.44
662.75	93.44
662.953	94.44
663.156	85.44
663.36	77.44
663.563	81.44
663.766	81.44
663.969	69.44
664.173	77.44
664.376	84.44
664.579	92.44
664.782	82.44
664.985	95.44
665.188	88.44
665.391	77.44
665.594	76.44
665.797	84.44
666	81.44
666.203	93.44
666.406	85.44
666.609	79.44
666.812	82.44
667.015	88.44
667.218	82.44
667.421	78.44
667.624	74.44
667.827	86.44
668.03	79.44
668.232	76.44
668.435	85.44
668.638	93.44
668.841	81.44
669.043	90.44
669.246	104.44
669.449	85.44
669.651	84.44
669.854	88.44
670.057	77.44
670.259	85.44
670.462	88.44
670.665	77.44
670.867	81.44
671.07	86.44
671.272	104.44
671.475	78.44
671.677	84.44
671.88	79.44
672.082	86.44
672.284	86.44
672.487	66.44
672.689	68.44
672.892	90.44
