Data from Uncirc_2008_H10_HRD10591_00047.txt Node
Date: Wed Jan 03 10:15:40 EST 2024
User: Yrep
Spectrometer: HR+D1059
Trigger mode: 1
Integration Time (sec): 1.000000E-1
Scans to average: 1
Electric dark correction enabled: true
Nonlinearity correction enabled: false
Boxcar width: 0
XAxis mode: Wavelengths
Number of Pixels in Spectrum: 2048
>>>>>Begin Spectral Data<<<<<
223.165	-11.75
223.4	-11.75
223.635	-11.75
223.869	-16.75
224.104	-20.75
224.338	-33.75
224.573	-11.75
224.808	-10.75
225.042	-4.75
225.277	-5.75
225.511	-2.75
225.746	2.25
225.98	18.25
226.215	5.25
226.449	11.25
226.683	20.25
226.918	28.25
227.152	33.25
227.387	45.25
227.621	42.25
227.856	53.25
228.09	49.25
228.324	57.25
228.559	66.25
228.793	162.25
229.027	446.25
229.262	523.25
229.496	575.25
229.73	804.25
229.964	805.25
230.199	534.25
230.433	477.25
230.667	454.25
230.901	452.25
231.136	428.25
231.37	438.25
231.604	447.25
231.838	437.25
232.072	431.25
232.306	453.25
232.541	458.25
232.775	459.25
233.009	452.25
233.243	463.25
233.477	474.25
233.711	474.25
233.945	502.25
234.179	479.25
234.413	491.25
234.647	506.25
234.881	492.25
235.115	529.25
235.349	534.25
235.583	561.25
235.817	566.25
236.051	594.25
236.285	604.25
236.519	611.25
236.753	682.25
236.987	891.25
237.221	1392.25
237.455	1503.25
237.689	892.25
237.922	727.25
238.156	707.25
238.39	661.25
238.624	654.25
238.858	638.25
239.091	611.25
239.325	658.25
239.559	670.25
239.793	698.25
240.027	750.25
240.26	906.25
240.494	932.25
240.728	938.25
240.961	908.25
241.195	800.25
241.429	755.25
241.662	733.25
241.896	744.25
242.13	750.25
242.363	785.25
242.597	804.25
242.83	794.25
243.064	813.25
243.298	802.25
243.531	810.25
243.765	811.25
243.998	812.25
244.232	825.25
244.465	847.25
244.699	883.25
244.932	880.25
245.166	856.25
245.399	884.25
245.633	870.25
245.866	875.25
246.099	895.25
246.333	920.25
246.566	941.25
246.8	957.25
247.033	985.25
247.266	1007.25
247.5	1097.25
247.733	1110.25
247.966	1130.25
248.2	1099.25
248.433	1136.25
248.666	1212.25
248.899	1306.25
249.133	1430.25
249.366	1370.25
249.599	1255.25
249.832	1142.25
250.066	1160.25
250.299	1181.25
250.532	1268.25
250.765	1446.25
250.998	1681.25
251.231	1617.25
251.465	1429.25
251.698	1359.25
251.931	1353.25
252.164	1355.25
252.397	1380.25
252.63	1440.25
252.863	1533.25
253.096	1622.25
253.329	1712.25
253.562	1592.25
253.795	1520.25
254.028	1516.25
254.261	1598.25
254.494	1775.25
254.727	2100.25
254.96	2196.25
255.193	1903.25
255.426	1679.25
255.659	1558.25
255.892	1544.25
256.124	1474.25
256.357	1432.25
256.59	1444.25
256.823	1443.25
257.056	1475.25
257.289	1457.25
257.521	1499.25
257.754	1498.25
257.987	1499.25
258.22	1466.25
258.452	1473.25
258.685	1512.25
258.918	1517.25
259.151	1568.25
259.383	1650.25
259.616	1652.25
259.849	1727.25
260.081	1866.25
260.314	2021.25
260.547	1995.25
260.779	1807.25
261.012	1743.25
261.244	1712.25
261.477	1633.25
261.71	1635.25
261.942	1723.25
262.175	1740.25
262.407	1657.25
262.64	1593.25
262.872	1608.25
263.105	1616.25
263.337	1640.25
263.57	1615.25
263.802	1623.25
264.035	1606.25
264.267	1661.25
264.499	1658.25
264.732	1651.25
264.964	1666.25
265.197	1676.25
265.429	1660.25
265.661	1677.25
265.894	1700.25
266.126	1707.25
266.358	1697.25
266.591	1726.25
266.823	1792.25
267.055	1848.25
267.287	1773.25
267.52	1815.25
267.752	1842.25
267.984	1811.25
268.216	1850.25
268.448	1858.25
268.681	1982.25
268.913	2100.25
269.145	2297.25
269.377	2316.25
269.609	2248.25
269.841	2260.25
270.073	2341.25
270.306	2620.25
270.538	2812.25
270.77	2604.25
271.002	2482.25
271.234	2434.25
271.466	2573.25
271.698	2731.25
271.93	2717.25
272.162	2741.25
272.394	2635.25
272.626	2459.25
272.858	2322.25
273.09	2236.25
273.322	2226.25
273.553	2177.25
273.785	2176.25
274.017	2182.25
274.249	2173.25
274.481	2224.25
274.713	2237.25
274.945	2249.25
275.176	2234.25
275.408	2245.25
275.64	2246.25
275.872	2171.25
276.104	2249.25
276.335	2221.25
276.567	2348.25
276.799	2541.25
277.031	2719.25
277.262	2848.25
277.494	2710.25
277.726	2571.25
277.957	2437.25
278.189	2338.25
278.421	2353.25
278.652	2365.25
278.884	2331.25
279.115	2347.25
279.347	2324.25
279.579	2366.25
279.81	2360.25
280.042	2302.25
280.273	2305.25
280.505	2377.25
280.736	2380.25
280.968	2352.25
281.199	2381.25
281.431	2396.25
281.662	2394.25
281.894	2439.25
282.125	2492.25
282.356	2620.25
282.588	2758.25
282.819	2645.25
283.051	2507.25
283.282	2468.25
283.513	2528.25
283.745	2582.25
283.976	2584.25
284.207	2598.25
284.439	2566.25
284.67	2578.25
284.901	2600.25
285.132	2528.25
285.364	2556.25
285.595	2558.25
285.826	2615.25
286.057	2675.25
286.288	2550.25
286.52	2628.25
286.751	2648.25
286.982	2719.25
287.213	2700.25
287.444	2684.25
287.675	2784.25
287.906	2819.25
288.138	2923.25
288.369	2928.25
288.6	2839.25
288.831	2793.25
289.062	2757.25
289.293	2792.25
289.524	2780.25
289.755	2720.25
289.986	2745.25
290.217	2738.25
290.448	2778.25
290.679	2799.25
290.91	2772.25
291.141	2750.25
291.371	2722.25
291.602	2749.25
291.833	2757.25
292.064	2804.25
292.295	2782.25
292.526	2814.25
292.757	2735.25
292.987	2771.25
293.218	2754.25
293.449	2776.25
293.68	2780.25
293.91	2801.25
294.141	2812.25
294.372	2749.25
294.603	2796.25
294.833	2841.25
295.064	2842.25
295.295	2852.25
295.525	2818.25
295.756	2906.25
295.987	2963.25
296.217	3205.25
296.448	3111.25
296.679	2940.25
296.909	2956.25
297.14	2915.25
297.37	2999.25
297.601	2939.25
297.831	2976.25
298.062	3004.25
298.292	3028.25
298.523	3078.25
298.753	3095.25
298.984	3051.25
299.214	3072.25
299.445	3093.25
299.675	3090.25
299.905	3078.25
300.136	3081.25
300.366	3096.25
300.597	3121.25
300.827	3228.25
301.057	3328.25
301.288	3380.25
301.518	3336.25
301.748	3279.25
301.979	3313.25
302.209	3334.25
302.439	3354.25
302.669	3306.25
302.9	3292.25
303.13	3240.25
303.36	3283.25
303.59	3314.25
303.82	3264.25
304.051	3340.25
304.281	3322.25
304.511	3249.25
304.741	3256.25
304.971	3277.25
305.201	3202.25
305.431	3210.25
305.661	3233.25
305.891	3245.25
306.121	3248.25
306.352	3311.25
306.582	3232.25
306.812	3200.25
307.042	3253.25
307.272	3280.25
307.502	3265.25
307.731	3256.25
307.961	3255.25
308.191	3259.25
308.421	3280.25
308.651	3297.25
308.881	3303.25
309.111	3305.25
309.341	3352.25
309.571	3437.25
309.8	3494.25
310.03	3537.25
310.26	3605.25
310.49	3513.25
310.72	3679.25
310.949	3786.25
311.179	3756.25
311.409	3585.25
311.639	3616.25
311.868	3581.25
312.098	3615.25
312.328	3765.25
312.557	3906.25
312.787	3907.25
313.017	3804.25
313.246	3763.25
313.476	3685.25
313.706	3747.25
313.935	3778.25
314.165	3925.25
314.394	3948.25
314.624	3811.25
314.853	3749.25
315.083	3772.25
315.312	3765.25
315.542	3690.25
315.771	3602.25
316.001	3648.25
316.23	3686.25
316.46	3592.25
316.689	3758.25
316.919	3708.25
317.148	3727.25
317.377	3764.25
317.607	3740.25
317.836	3673.25
318.065	3629.25
318.295	3643.25
318.524	3646.25
318.753	3660.25
318.983	3646.25
319.212	3647.25
319.441	3699.25
319.67	3739.25
319.9	3678.25
320.129	3654.25
320.358	3681.25
320.587	3788.25
320.816	3808.25
321.046	3763.25
321.275	3774.25
321.504	3862.25
321.733	3837.25
321.962	3917.25
322.191	3988.25
322.42	4051.25
322.649	4134.25
322.878	4175.25
323.108	4262.25
323.337	4551.25
323.566	4715.25
323.795	4949.25
324.024	5562.25
324.253	7398.25
324.482	11097.25
324.71	15315.25
324.939	15606.25
325.168	13140.25
325.397	6569.25
325.626	5252.25
325.855	4863.25
326.084	4719.25
326.313	4760.25
326.542	4945.25
326.77	5595.25
326.999	7053.25
327.228	10448.25
327.457	14446.25
327.686	13586.25
327.914	7255.25
328.143	5764.25
328.372	5423.25
328.6	5174.25
328.829	5159.25
329.058	5324.25
329.287	5316.25
329.515	4954.25
329.744	4722.25
329.972	4704.25
330.201	4842.25
330.43	5106.25
330.658	5388.25
330.887	5761.25
331.115	5314.25
331.344	4945.25
331.572	4828.25
331.801	4965.25
332.03	4990.25
332.258	4891.25
332.486	4918.25
332.715	5000.25
332.943	5133.25
333.172	5260.25
333.4	5388.25
333.629	5399.25
333.857	5522.25
334.085	5451.25
334.314	5341.25
334.542	5274.25
334.771	5280.25
334.999	5216.25
335.227	5173.25
335.455	5130.25
335.684	5011.25
335.912	5012.25
336.14	4899.25
336.369	4920.25
336.597	5002.25
336.825	4908.25
337.053	4837.25
337.281	4666.25
337.51	4738.25
337.738	4736.25
337.966	4637.25
338.194	4636.25
338.422	4615.25
338.65	4502.25
338.878	4522.25
339.106	4523.25
339.334	4507.25
339.562	4402.25
339.79	4318.25
340.018	4365.25
340.246	4366.25
340.474	4425.25
340.702	4418.25
340.93	4293.25
341.158	4397.25
341.386	4382.25
341.614	4367.25
341.842	4268.25
342.07	4321.25
342.298	4312.25
342.526	4263.25
342.754	4270.25
342.981	4317.25
343.209	4392.25
343.437	4629.25
343.665	4863.25
343.893	5121.25
344.12	5101.25
344.348	4925.25
344.576	4780.25
344.804	4684.25
345.031	4629.25
345.259	4607.25
345.487	4486.25
345.714	4308.25
345.942	4228.25
346.17	4213.25
346.397	4210.25
346.625	4161.25
346.853	4165.25
347.08	4156.25
347.308	4255.25
347.535	4289.25
347.763	4299.25
347.99	4269.25
348.218	4296.25
348.445	4374.25
348.673	4192.25
348.9	4183.25
349.128	4093.25
349.355	3992.25
349.583	4052.25
349.81	4036.25
350.037	4000.25
350.265	4034.25
350.492	4093.25
350.72	4027.25
350.947	4106.25
351.174	4155.25
351.402	4221.25
351.629	4163.25
351.856	4180.25
352.083	4257.25
352.311	4290.25
352.538	4212.25
352.765	4208.25
352.992	4163.25
353.22	4118.25
353.447	4072.25
353.674	3998.25
353.901	3935.25
354.128	3940.25
354.355	3886.25
354.583	3965.25
354.81	3934.25
355.037	3954.25
355.264	3950.25
355.491	3888.25
355.718	3924.25
355.945	3941.25
356.172	3943.25
356.399	3920.25
356.626	3924.25
356.853	3911.25
357.08	3928.25
357.307	3904.25
357.534	3963.25
357.761	4008.25
357.988	3997.25
358.215	3950.25
358.441	3984.25
358.668	3995.25
358.895	4040.25
359.122	4062.25
359.349	4122.25
359.576	4311.25
359.802	4462.25
360.029	4651.25
360.256	4558.25
360.483	4361.25
360.709	4175.25
360.936	4147.25
361.163	4152.25
361.39	4216.25
361.616	4252.25
361.843	4138.25
362.07	4208.25
362.296	4219.25
362.523	4140.25
362.749	4234.25
362.976	4109.25
363.203	4009.25
363.429	4011.25
363.656	4075.25
363.882	4074.25
364.109	3995.25
364.335	4040.25
364.562	4085.25
364.788	4029.25
365.015	3992.25
365.241	4018.25
365.468	4069.25
365.694	4124.25
365.92	4090.25
366.147	4045.25
366.373	3998.25
366.599	4002.25
366.826	3915.25
367.052	3995.25
367.278	4060.25
367.505	4049.25
367.731	4136.25
367.957	4052.25
368.184	4066.25
368.41	4137.25
368.636	4245.25
368.862	4257.25
369.089	4182.25
369.315	4133.25
369.541	4139.25
369.767	4156.25
369.993	4148.25
370.219	4124.25
370.445	4177.25
370.672	4162.25
370.898	4134.25
371.124	4246.25
371.35	4345.25
371.576	4259.25
371.802	4237.25
372.028	4218.25
372.254	4308.25
372.48	4372.25
372.706	4353.25
372.932	4438.25
373.158	4420.25
373.384	4345.25
373.61	4345.25
373.835	4374.25
374.061	4370.25
374.287	4378.25
374.513	4505.25
374.739	4670.25
374.965	4644.25
375.191	4766.25
375.416	4607.25
375.642	4558.25
375.868	4460.25
376.094	4419.25
376.319	4334.25
376.545	4384.25
376.771	4333.25
376.997	4245.25
377.222	4305.25
377.448	4271.25
377.674	4286.25
377.899	4334.25
378.125	4283.25
378.35	4283.25
378.576	4218.25
378.802	4267.25
379.027	4268.25
379.253	4250.25
379.478	4211.25
379.704	4225.25
379.929	4321.25
380.155	4258.25
380.38	4243.25
380.606	4342.25
380.831	4273.25
381.057	4301.25
381.282	4350.25
381.507	4353.25
381.733	4383.25
381.958	4425.25
382.184	4474.25
382.409	4496.25
382.634	4560.25
382.86	4573.25
383.085	4548.25
383.31	4630.25
383.535	4770.25
383.761	4796.25
383.986	4856.25
384.211	4959.25
384.436	5066.25
384.662	5101.25
384.887	5217.25
385.112	5181.25
385.337	5195.25
385.562	5199.25
385.787	5279.25
386.013	5276.25
386.238	5308.25
386.463	5237.25
386.688	5228.25
386.913	5133.25
387.138	5171.25
387.363	5059.25
387.588	5069.25
387.813	5117.25
388.038	5128.25
388.263	5170.25
388.488	5192.25
388.713	5170.25
388.938	5120.25
389.163	5110.25
389.387	5172.25
389.612	5030.25
389.837	5124.25
390.062	5059.25
390.287	5056.25
390.512	5042.25
390.736	5076.25
390.961	5315.25
391.186	5285.25
391.411	5428.25
391.636	5523.25
391.86	5758.25
392.085	5764.25
392.31	5769.25
392.534	5503.25
392.759	5490.25
392.984	5390.25
393.208	5311.25
393.433	5330.25
393.658	5264.25
393.882	5307.25
394.107	5378.25
394.331	5448.25
394.556	5382.25
394.78	5507.25
395.005	5492.25
395.229	5523.25
395.454	5717.25
395.678	5801.25
395.903	5828.25
396.127	5860.25
396.352	5677.25
396.576	5407.25
396.801	5438.25
397.025	5543.25
397.249	5661.25
397.474	5804.25
397.698	5868.25
397.922	5977.25
398.147	6051.25
398.371	6115.25
398.595	6178.25
398.82	6515.25
399.044	7106.25
399.268	7972.25
399.492	8970.25
399.717	9601.25
399.941	9296.25
400.165	8722.25
400.389	8007.25
400.613	7267.25
400.837	6780.25
401.062	6643.25
401.286	6522.25
401.51	6410.25
401.734	6413.25
401.958	6631.25
402.182	6691.25
402.406	6877.25
402.63	6941.25
402.854	6993.25
403.078	7108.25
403.302	7225.25
403.526	7267.25
403.75	7370.25
403.974	7364.25
404.198	7315.25
404.422	7437.25
404.645	7459.25
404.869	7295.25
405.093	7378.25
405.317	7564.25
405.541	7466.25
405.765	7272.25
405.988	7167.25
406.212	7376.25
406.436	7474.25
406.66	7674.25
406.883	7673.25
407.107	8303.25
407.331	8870.25
407.555	9412.25
407.778	8957.25
408.002	8276.25
408.226	7850.25
408.449	7737.25
408.673	7608.25
408.896	7790.25
409.12	7904.25
409.344	7441.25
409.567	7115.25
409.791	7184.25
410.014	6952.25
410.238	6916.25
410.461	6929.25
410.685	7030.25
410.908	7049.25
411.132	7299.25
411.355	7343.25
411.578	6966.25
411.802	6743.25
412.025	6661.25
412.249	6729.25
412.472	6672.25
412.695	6617.25
412.919	6472.25
413.142	6380.25
413.365	6345.25
413.589	6491.25
413.812	6281.25
414.035	6255.25
414.258	6288.25
414.482	6360.25
414.705	6463.25
414.928	6340.25
415.151	6376.25
415.374	6403.25
415.597	6350.25
415.821	6247.25
416.044	6221.25
416.267	6175.25
416.49	6227.25
416.713	6188.25
416.936	6274.25
417.159	6239.25
417.382	6348.25
417.605	6432.25
417.828	6447.25
418.051	6522.25
418.274	6524.25
418.497	6405.25
418.72	6508.25
418.943	6483.25
419.166	6841.25
419.389	7229.25
419.611	7152.25
419.834	6863.25
420.057	6756.25
420.28	6597.25
420.503	6330.25
420.726	6409.25
420.948	6587.25
421.171	7056.25
421.394	6980.25
421.617	6480.25
421.839	6492.25
422.062	6634.25
422.285	6731.25
422.507	7417.25
422.73	7936.25
422.953	7303.25
423.175	6956.25
423.398	6948.25
423.621	6938.25
423.843	7308.25
424.066	7196.25
424.288	7144.25
424.511	7373.25
424.733	7842.25
424.956	8222.25
425.178	7824.25
425.401	7952.25
425.623	7816.25
425.846	6821.25
426.068	6567.25
426.291	6518.25
426.513	6528.25
426.735	6674.25
426.958	7082.25
427.18	7941.25
427.402	9026.25
427.625	9095.25
427.847	7551.25
428.069	6757.25
428.292	6378.25
428.514	6124.25
428.736	5948.25
428.958	5983.25
429.181	5824.25
429.403	5824.25
429.625	6035.25
429.847	6349.25
430.069	6848.25
430.292	6388.25
430.514	5837.25
430.736	5794.25
430.958	5776.25
431.18	5709.25
431.402	5688.25
431.624	5581.25
431.846	5658.25
432.068	5729.25
432.29	5775.25
432.512	5685.25
432.734	5836.25
432.956	5793.25
433.178	5822.25
433.4	5793.25
433.622	5746.25
433.844	5748.25
434.066	5785.25
434.287	5852.25
434.509	6131.25
434.731	6369.25
434.953	6438.25
435.175	6606.25
435.397	6619.25
435.618	6613.25
435.84	6965.25
436.062	7819.25
436.284	7796.25
436.505	6544.25
436.727	6200.25
436.949	5933.25
437.17	5842.25
437.392	5872.25
437.614	6027.25
437.835	6428.25
438.057	7326.25
438.278	8005.25
438.5	7996.25
438.721	8847.25
438.943	7642.25
439.165	6416.25
439.386	6253.25
439.608	6282.25
439.829	6405.25
440.05	6702.25
440.272	7125.25
440.493	6525.25
440.715	6186.25
440.936	6153.25
441.158	6185.25
441.379	6267.25
441.6	6608.25
441.822	6798.25
442.043	7301.25
442.264	8169.25
442.486	7869.25
442.707	6917.25
442.928	6624.25
443.149	6885.25
443.371	7170.25
443.592	7773.25
443.813	8792.25
444.034	8678.25
444.255	7590.25
444.476	7293.25
444.698	7537.25
444.919	7682.25
445.14	7355.25
445.361	7266.25
445.582	7408.25
445.803	7968.25
446.024	8692.25
446.245	8322.25
446.466	7502.25
446.687	6402.25
446.908	6192.25
447.129	5787.25
447.35	5711.25
447.571	5617.25
447.792	5549.25
448.013	5602.25
448.234	5908.25
448.455	6571.25
448.675	7778.25
448.896	8227.25
449.117	6810.25
449.338	6988.25
449.559	8267.25
449.779	8549.25
450	6491.25
450.221	5797.25
450.442	5581.25
450.662	5452.25
450.883	5574.25
451.104	5643.25
451.324	5512.25
451.545	5317.25
451.766	5265.25
451.986	5053.25
452.207	5053.25
452.428	5060.25
452.648	5062.25
452.869	5097.25
453.089	5235.25
453.31	5297.25
453.53	5114.25
453.751	5038.25
453.971	5114.25
454.192	5198.25
454.412	4948.25
454.633	4928.25
454.853	4893.25
455.073	4970.25
455.294	5326.25
455.514	5872.25
455.734	5413.25
455.955	4798.25
456.175	4773.25
456.395	4639.25
456.616	4654.25
456.836	4662.25
457.056	4652.25
457.276	4585.25
457.497	4737.25
457.717	4721.25
457.937	4752.25
458.157	4885.25
458.377	4990.25
458.598	5294.25
458.818	5988.25
459.038	6722.25
459.258	6622.25
459.478	5985.25
459.698	5800.25
459.918	5851.25
460.138	6041.25
460.358	6203.25
460.578	6235.25
460.798	6362.25
461.018	6413.25
461.238	6281.25
461.458	6195.25
461.678	6186.25
461.898	6361.25
462.118	6377.25
462.338	6634.25
462.558	6796.25
462.777	7058.25
462.997	7747.25
463.217	8110.25
463.437	7948.25
463.657	7352.25
463.876	7142.25
464.096	7183.25
464.316	7156.25
464.536	7177.25
464.755	7028.25
464.975	6893.25
465.195	7120.25
465.414	7115.25
465.634	6265.25
465.854	5863.25
466.073	5640.25
466.293	5506.25
466.512	5295.25
466.732	5208.25
466.951	5246.25
467.171	5276.25
467.391	5317.25
467.61	5365.25
467.829	5316.25
468.049	5232.25
468.268	5049.25
468.488	4935.25
468.707	4957.25
468.927	5018.25
469.146	5010.25
469.365	5100.25
469.585	5056.25
469.804	5251.25
470.023	5387.25
470.243	5423.25
470.462	5485.25
470.681	5621.25
470.901	5521.25
471.12	5286.25
471.339	5343.25
471.558	5233.25
471.777	5182.25
471.997	5078.25
472.216	5004.25
472.435	4943.25
472.654	4954.25
472.873	4909.25
473.092	4939.25
473.311	4891.25
473.53	4966.25
473.749	5141.25
473.968	5628.25
474.187	6652.25
474.406	6194.25
474.625	5292.25
474.844	5044.25
475.063	5007.25
475.282	5053.25
475.501	5034.25
475.72	5052.25
475.939	5181.25
476.158	5209.25
476.377	5192.25
476.596	5213.25
476.814	5357.25
477.033	5327.25
477.252	5410.25
477.471	5588.25
477.69	5675.25
477.908	5761.25
478.127	5842.25
478.346	6011.25
478.564	6068.25
478.783	6108.25
479.002	6246.25
479.22	6289.25
479.439	6385.25
479.658	6486.25
479.876	6513.25
480.095	6764.25
480.313	7161.25
480.532	7100.25
480.751	6898.25
480.969	6826.25
481.188	6598.25
481.406	6392.25
481.624	6193.25
481.843	6028.25
482.061	6014.25
482.28	5931.25
482.498	5864.25
482.717	5831.25
482.935	5889.25
483.153	5806.25
483.372	5830.25
483.59	5849.25
483.808	5894.25
484.027	5861.25
484.245	5930.25
484.463	5984.25
484.681	6012.25
484.9	5969.25
485.118	6113.25
485.336	6100.25
485.554	6173.25
485.772	6215.25
485.99	6278.25
486.209	6260.25
486.427	6215.25
486.645	6297.25
486.863	6440.25
487.081	6330.25
487.299	6383.25
487.517	6305.25
487.735	6268.25
487.953	6252.25
488.171	6313.25
488.389	6300.25
488.607	6328.25
488.825	6270.25
489.043	6304.25
489.261	6261.25
489.479	6392.25
489.696	6483.25
489.914	6514.25
490.132	6575.25
490.35	6582.25
490.568	6563.25
490.786	6663.25
491.003	6720.25
491.221	6870.25
491.439	7057.25
491.657	7086.25
491.874	7105.25
492.092	7054.25
492.31	7034.25
492.527	7185.25
492.745	7188.25
492.963	7432.25
493.18	7248.25
493.398	7440.25
493.615	7488.25
493.833	7461.25
494.05	7433.25
494.268	7504.25
494.485	7476.25
494.703	7497.25
494.92	7554.25
495.138	7505.25
495.355	7500.25
495.573	7464.25
495.79	7528.25
496.008	7471.25
496.225	7541.25
496.442	7578.25
496.66	7609.25
496.877	7610.25
497.094	7695.25
497.312	7906.25
497.529	8084.25
497.746	8159.25
497.963	8519.25
498.181	8824.25
498.398	9136.25
498.615	9546.25
498.832	10032.25
499.049	10435.25
499.267	11061.25
499.484	11849.25
499.701	12607.25
499.918	13389.25
500.135	14252.25
500.352	14837.25
500.569	14970.25
500.786	14825.25
501.003	14436.25
501.22	13760.25
501.437	13007.25
501.654	12196.25
501.871	11554.25
502.088	10835.25
502.305	10166.25
502.522	9735.25
502.739	9388.25
502.956	8845.25
503.172	8567.25
503.389	8374.25
503.606	8319.25
503.823	8172.25
504.04	8063.25
504.256	8233.25
504.473	8222.25
504.69	8342.25
504.907	8133.25
505.123	7672.25
505.34	7421.25
505.557	7267.25
505.773	7260.25
505.99	7170.25
506.207	7083.25
506.423	6978.25
506.64	6926.25
506.856	6753.25
507.073	6753.25
507.289	6651.25
507.506	6685.25
507.722	6825.25
507.939	6809.25
508.155	6533.25
508.372	6394.25
508.588	6369.25
508.805	6402.25
509.021	6491.25
509.238	6607.25
509.454	6500.25
509.67	6454.25
509.887	6304.25
510.103	6223.25
510.319	6422.25
510.536	7711.25
510.752	11335.25
510.968	7586.25
511.184	6118.25
511.401	6038.25
511.617	5972.25
511.833	5887.25
512.049	5888.25
512.265	5932.25
512.481	5882.25
512.698	5871.25
512.914	5872.25
513.13	5853.25
513.346	5800.25
513.562	5898.25
513.778	5834.25
513.994	5930.25
514.21	6080.25
514.426	6247.25
514.642	6530.25
514.858	6788.25
515.074	7162.25
515.29	8558.25
515.506	11351.25
515.721	8368.25
515.937	6901.25
516.153	6684.25
516.369	6648.25
516.585	6678.25
516.801	6910.25
517.016	6961.25
517.232	7293.25
517.448	7422.25
517.664	7651.25
517.879	7629.25
518.095	7463.25
518.311	7372.25
518.527	7046.25
518.742	6925.25
518.958	6726.25
519.173	6539.25
519.389	6326.25
519.605	6263.25
519.82	6193.25
520.036	6231.25
520.251	6404.25
520.467	6412.25
520.682	6436.25
520.898	6421.25
521.113	6517.25
521.329	6765.25
521.544	7548.25
521.76	9481.25
521.975	13984.25
522.19	11223.25
522.406	7099.25
522.621	6081.25
522.836	5773.25
523.052	5620.25
523.267	5446.25
523.482	5251.25
523.698	5266.25
523.913	5196.25
524.128	5182.25
524.343	5096.25
524.559	5012.25
524.774	5050.25
524.989	5012.25
525.204	5114.25
525.419	5072.25
525.634	4966.25
525.849	4892.25
526.064	4835.25
526.28	4764.25
526.495	4768.25
526.71	4879.25
526.925	4797.25
527.14	4768.25
527.355	4712.25
527.57	4734.25
527.785	4709.25
527.999	4747.25
528.214	4770.25
528.429	4786.25
528.644	4768.25
528.859	4762.25
529.074	4758.25
529.289	4966.25
529.503	5504.25
529.718	5264.25
529.933	4878.25
530.148	4914.25
530.363	4772.25
530.577	4758.25
530.792	4692.25
531.007	4656.25
531.221	4760.25
531.436	4706.25
531.651	4714.25
531.865	4701.25
532.08	4745.25
532.295	4622.25
532.509	4657.25
532.724	4667.25
532.938	4691.25
533.153	4653.25
533.367	4617.25
533.582	4590.25
533.796	4600.25
534.011	4608.25
534.225	4613.25
534.44	4557.25
534.654	4524.25
534.868	4571.25
535.083	4457.25
535.297	4603.25
535.511	4544.25
535.726	4584.25
535.94	4540.25
536.154	4504.25
536.369	4460.25
536.583	4388.25
536.797	4362.25
537.011	4375.25
537.225	4285.25
537.44	4280.25
537.654	4304.25
537.868	4300.25
538.082	4349.25
538.296	4356.25
538.51	4312.25
538.724	4334.25
538.938	4246.25
539.153	4217.25
539.367	4408.25
539.581	4277.25
539.795	4205.25
540.009	4267.25
540.222	4261.25
540.436	4288.25
540.65	4275.25
540.864	4297.25
541.078	4328.25
541.292	4255.25
541.506	4250.25
541.72	4135.25
541.934	4067.25
542.147	4090.25
542.361	4101.25
542.575	4022.25
542.789	4088.25
543.002	4134.25
543.216	4180.25
543.43	4188.25
543.644	4136.25
543.857	4120.25
544.071	4189.25
544.285	4103.25
544.498	4126.25
544.712	4137.25
544.925	4133.25
545.139	4109.25
545.352	4114.25
545.566	4124.25
545.779	4163.25
545.993	4212.25
546.206	4115.25
546.42	4090.25
546.633	4089.25
546.847	4053.25
547.06	4037.25
547.274	4017.25
547.487	4044.25
547.7	4168.25
547.914	4094.25
548.127	4146.25
548.34	4155.25
548.554	4147.25
548.767	4107.25
548.98	4164.25
549.193	4169.25
549.407	4172.25
549.62	4220.25
549.833	4241.25
550.046	4092.25
550.259	4036.25
550.473	4024.25
550.686	4050.25
550.899	4029.25
551.112	3939.25
551.325	3947.25
551.538	4025.25
551.751	4072.25
551.964	4037.25
552.177	4132.25
552.39	4210.25
552.603	4316.25
552.816	4421.25
553.029	4410.25
553.242	4463.25
553.455	4505.25
553.667	4563.25
553.88	4480.25
554.093	4349.25
554.306	4312.25
554.519	4161.25
554.732	4127.25
554.944	4017.25
555.157	3864.25
555.37	3927.25
555.583	3779.25
555.795	3765.25
556.008	3653.25
556.221	3618.25
556.433	3573.25
556.646	3587.25
556.859	3516.25
557.071	3474.25
557.284	3470.25
557.496	3443.25
557.709	3453.25
557.921	3418.25
558.134	3406.25
558.346	3396.25
558.559	3400.25
558.771	3344.25
558.984	3367.25
559.196	3305.25
559.409	3336.25
559.621	3324.25
559.833	3306.25
560.046	3293.25
560.258	3316.25
560.47	3290.25
560.683	3238.25
560.895	3264.25
561.107	3216.25
561.32	3248.25
561.532	3311.25
561.744	3251.25
561.956	3226.25
562.168	3299.25
562.381	3268.25
562.593	3348.25
562.805	3308.25
563.017	3344.25
563.229	3337.25
563.441	3336.25
563.653	3412.25
563.865	3401.25
564.077	3396.25
564.289	3504.25
564.501	3501.25
564.713	3562.25
564.925	3674.25
565.137	3736.25
565.349	3794.25
565.561	3876.25
565.773	4034.25
565.985	4216.25
566.197	4422.25
566.408	4748.25
566.62	5078.25
566.832	5318.25
567.044	5405.25
567.255	5482.25
567.467	5597.25
567.679	5891.25
567.891	6238.25
568.102	6216.25
568.314	5763.25
568.526	5316.25
568.737	4878.25
568.949	4502.25
569.161	4192.25
569.372	3949.25
569.584	3768.25
569.795	3661.25
570.007	3587.25
570.218	3847.25
570.43	3538.25
570.641	3397.25
570.853	3376.25
571.064	3336.25
571.276	3361.25
571.487	3249.25
571.698	3130.25
571.91	3047.25
572.121	2963.25
572.333	2944.25
572.544	2853.25
572.755	2809.25
572.966	2759.25
573.178	2725.25
573.389	2765.25
573.6	2729.25
573.811	2653.25
574.023	2702.25
574.234	2648.25
574.445	2597.25
574.656	2671.25
574.867	2670.25
575.078	2652.25
575.289	2612.25
575.501	2518.25
575.712	2515.25
575.923	2489.25
576.134	2521.25
576.345	2508.25
576.556	2506.25
576.767	2505.25
576.978	2508.25
577.188	2474.25
577.399	2422.25
577.61	2429.25
577.821	2375.25
578.032	2380.25
578.243	2789.25
578.454	4015.25
578.665	2682.25
578.875	2336.25
579.086	2333.25
579.297	2301.25
579.508	2309.25
579.718	2255.25
579.929	2270.25
580.14	2232.25
580.35	2254.25
580.561	2284.25
580.772	2250.25
580.982	2211.25
581.193	2220.25
581.403	2166.25
581.614	2172.25
581.825	2194.25
582.035	2144.25
582.246	2097.25
582.456	2112.25
582.667	2109.25
582.877	2149.25
583.087	2151.25
583.298	2148.25
583.508	2163.25
583.719	2123.25
583.929	2090.25
584.139	2100.25
584.35	2117.25
584.56	2074.25
584.77	2101.25
584.981	2049.25
585.191	2064.25
585.401	2102.25
585.611	2067.25
585.821	2069.25
586.032	2054.25
586.242	2042.25
586.452	2018.25
586.662	2018.25
586.872	2009.25
587.082	2053.25
587.292	2034.25
587.502	2018.25
587.713	2011.25
587.923	2043.25
588.133	2016.25
588.343	2025.25
588.553	1996.25
588.762	2059.25
588.972	2012.25
589.182	2003.25
589.392	1992.25
589.602	2003.25
589.812	2079.25
590.022	1996.25
590.232	2025.25
590.441	2024.25
590.651	2017.25
590.861	2041.25
591.071	2098.25
591.281	2135.25
591.49	2134.25
591.7	2152.25
591.91	2193.25
592.119	2247.25
592.329	2267.25
592.539	2368.25
592.748	2372.25
592.958	2483.25
593.167	2537.25
593.377	2624.25
593.587	2618.25
593.796	2612.25
594.006	2614.25
594.215	2611.25
594.424	2573.25
594.634	2554.25
594.843	2462.25
595.053	2325.25
595.262	2251.25
595.472	2190.25
595.681	2167.25
595.89	2053.25
596.1	2043.25
596.309	1938.25
596.518	1951.25
596.727	1946.25
596.937	1862.25
597.146	1842.25
597.355	1832.25
597.564	1801.25
597.774	1795.25
597.983	1771.25
598.192	1781.25
598.401	1750.25
598.61	1720.25
598.819	1711.25
599.028	1697.25
599.237	1692.25
599.446	1666.25
599.655	1708.25
599.864	1678.25
600.073	1641.25
600.282	1663.25
600.491	1664.25
600.7	1626.25
600.909	1586.25
601.118	1643.25
601.327	1625.25
601.536	1616.25
601.745	1611.25
601.953	1587.25
602.162	1594.25
602.371	1581.25
602.58	1557.25
602.789	1594.25
602.997	1559.25
603.206	1544.25
603.415	1557.25
603.623	1539.25
603.832	1511.25
604.041	1534.25
604.249	1506.25
604.458	1483.25
604.666	1452.25
604.875	1491.25
605.084	1464.25
605.292	1458.25
605.501	1492.25
605.709	1459.25
605.918	1455.25
606.126	1476.25
606.334	1480.25
606.543	1445.25
606.751	1484.25
606.96	1442.25
607.168	1470.25
607.376	1441.25
607.585	1437.25
607.793	1445.25
608.001	1440.25
608.21	1437.25
608.418	1442.25
608.626	1418.25
608.834	1418.25
609.043	1421.25
609.251	1380.25
609.459	1385.25
609.667	1381.25
609.875	1380.25
610.083	1380.25
610.291	1380.25
610.499	1389.25
610.707	1394.25
610.916	1363.25
611.124	1379.25
611.332	1411.25
611.54	1384.25
611.748	1392.25
611.955	1347.25
612.163	1390.25
612.371	1365.25
612.579	1346.25
612.787	1361.25
612.995	1362.25
613.203	1372.25
613.411	1373.25
613.618	1349.25
613.826	1354.25
614.034	1365.25
614.242	1348.25
614.449	1338.25
614.657	1389.25
614.865	1361.25
615.072	1366.25
615.28	1366.25
615.488	1355.25
615.695	1352.25
615.903	1388.25
616.111	1398.25
616.318	1408.25
616.526	1397.25
616.733	1407.25
616.941	1377.25
617.148	1408.25
617.356	1427.25
617.563	1374.25
617.771	1388.25
617.978	1379.25
618.185	1367.25
618.393	1370.25
618.6	1342.25
618.807	1365.25
619.015	1350.25
619.222	1305.25
619.429	1328.25
619.637	1349.25
619.844	1331.25
620.051	1319.25
620.258	1263.25
620.466	1244.25
620.673	1232.25
620.88	1224.25
621.087	1249.25
621.294	1229.25
621.501	1208.25
621.708	1208.25
621.915	1248.25
622.122	1232.25
622.329	1253.25
622.536	1229.25
622.743	1218.25
622.95	1197.25
623.157	1204.25
623.364	1204.25
623.571	1202.25
623.778	1192.25
623.985	1191.25
624.192	1165.25
624.399	1174.25
624.606	1171.25
624.812	1150.25
625.019	1168.25
625.226	1180.25
625.433	1148.25
625.639	1134.25
625.846	1126.25
626.053	1118.25
626.259	1113.25
626.466	1107.25
626.673	1111.25
626.879	1102.25
627.086	1108.25
627.293	1095.25
627.499	1094.25
627.706	1045.25
627.912	1079.25
628.119	1075.25
628.325	1089.25
628.532	1075.25
628.738	1058.25
628.945	1054.25
629.151	1025.25
629.357	1037.25
629.564	1046.25
629.77	1043.25
629.976	1038.25
630.183	1013.25
630.389	1032.25
630.595	993.25
630.802	995.25
631.008	967.25
631.214	983.25
631.42	1001.25
631.627	970.25
631.833	943.25
632.039	976.25
632.245	954.25
632.451	964.25
632.657	926.25
632.863	894.25
633.069	917.25
633.275	917.25
633.481	892.25
633.688	928.25
633.893	930.25
634.099	912.25
634.305	898.25
634.511	905.25
634.717	926.25
634.923	890.25
635.129	888.25
635.335	894.25
635.541	865.25
635.747	867.25
635.952	880.25
636.158	877.25
636.364	890.25
636.57	845.25
636.775	890.25
636.981	863.25
637.187	849.25
637.392	857.25
637.598	878.25
637.804	852.25
638.009	885.25
638.215	863.25
638.421	839.25
638.626	808.25
638.832	825.25
639.037	827.25
639.243	828.25
639.448	836.25
639.654	800.25
639.859	785.25
640.065	802.25
640.27	773.25
640.475	812.25
640.681	815.25
640.886	796.25
641.091	813.25
641.297	782.25
641.502	787.25
641.707	777.25
641.913	768.25
642.118	784.25
642.323	763.25
642.528	779.25
642.733	773.25
642.939	762.25
643.144	763.25
643.349	746.25
643.554	726.25
643.759	723.25
643.964	746.25
644.169	765.25
644.374	752.25
644.579	754.25
644.784	772.25
644.989	753.25
645.194	736.25
645.399	732.25
645.604	748.25
645.809	741.25
646.014	773.25
646.219	734.25
646.423	750.25
646.628	755.25
646.833	758.25
647.038	755.25
647.243	754.25
647.447	771.25
647.652	784.25
647.857	793.25
648.062	796.25
648.266	829.25
648.471	858.25
648.676	828.25
648.88	826.25
649.085	787.25
649.289	813.25
649.494	872.25
649.698	1016.25
649.903	890.25
650.107	757.25
650.312	731.25
650.516	690.25
650.721	671.25
650.925	645.25
651.13	631.25
651.334	626.25
651.539	634.25
651.743	602.25
651.947	593.25
652.152	593.25
652.356	561.25
652.56	550.25
652.764	557.25
652.969	555.25
653.173	532.25
653.377	500.25
653.581	509.25
653.785	522.25
653.99	515.25
654.194	516.25
654.398	498.25
654.602	494.25
654.806	507.25
655.01	548.25
655.214	524.25
655.418	473.25
655.622	478.25
655.826	465.25
656.03	464.25
656.234	484.25
656.438	481.25
656.642	474.25
656.846	448.25
657.049	416.25
657.253	406.25
657.457	348.25
657.661	324.25
657.865	306.25
658.068	311.25
658.272	270.25
658.476	266.25
658.68	247.25
658.883	241.25
659.087	258.25
659.291	232.25
659.494	216.25
659.698	198.25
659.901	188.25
660.105	199.25
660.309	180.25
660.512	174.25
660.716	187.25
660.919	170.25
661.123	156.25
661.326	156.25
661.53	144.25
661.733	126.25
661.936	140.25
662.14	139.25
662.343	111.25
662.546	124.25
662.75	114.25
662.953	116.25
663.156	107.25
663.36	104.25
663.563	97.25
663.766	112.25
663.969	86.25
664.173	79.25
664.376	78.25
664.579	83.25
664.782	81.25
664.985	86.25
665.188	76.25
665.391	92.25
665.594	86.25
665.797	82.25
666	86.25
666.203	98.25
666.406	87.25
666.609	76.25
666.812	81.25
667.015	88.25
667.218	83.25
667.421	75.25
667.624	88.25
667.827	89.25
668.03	77.25
668.232	84.25
668.435	84.25
668.638	84.25
668.841	83.25
669.043	103.25
669.246	89.25
669.449	75.25
669.651	97.25
669.854	70.25
670.057	82.25
670.259	74.25
670.462	92.25
670.665	85.25
670.867	90.25
671.07	83.25
671.272	80.25
671.475	73.25
671.677	86.25
671.88	78.25
672.082	81.25
672.284	83.25
672.487	89.25
672.689	84.25
672.892	78.25
