Data from Uncirc_2008_H10_HRD10591_00077.txt Node
Date: Wed Jan 03 10:15:46 EST 2024
User: Yrep
Spectrometer: HR+D1059
Trigger mode: 1
Integration Time (sec): 1.000000E-1
Scans to average: 1
Electric dark correction enabled: true
Nonlinearity correction enabled: false
Boxcar width: 0
XAxis mode: Wavelengths
Number of Pixels in Spectrum: 2048
>>>>>Begin Spectral Data<<<<<
223.165	-20.31
223.4	-20.31
223.635	-20.31
223.869	-12.31
224.104	-14.31
224.338	-15.31
224.573	-16.31
224.808	-14.31
225.042	-14.31
225.277	-0.31
225.511	4.69
225.746	-9.31
225.98	0.69
226.215	16.69
226.449	14.69
226.683	32.69
226.918	18.69
227.152	28.69
227.387	48.69
227.621	46.69
227.856	57.69
228.09	47.69
228.324	51.69
228.559	66.69
228.793	66.69
229.027	67.69
229.262	73.69
229.496	71.69
229.73	97.69
229.964	89.69
230.199	85.69
230.433	79.69
230.667	84.69
230.901	76.69
231.136	85.69
231.37	69.69
231.604	91.69
231.838	79.69
232.072	94.69
232.306	66.69
232.541	88.69
232.775	87.69
233.009	86.69
233.243	79.69
233.477	76.69
233.711	98.69
233.945	81.69
234.179	93.69
234.413	78.69
234.647	68.69
234.881	82.69
235.115	70.69
235.349	75.69
235.583	85.69
235.817	82.69
236.051	82.69
236.285	87.69
236.519	69.69
236.753	77.69
236.987	67.69
237.221	94.69
237.455	79.69
237.689	81.69
237.922	96.69
238.156	84.69
238.39	63.69
238.624	75.69
238.858	83.69
239.091	91.69
239.325	80.69
239.559	78.69
239.793	91.69
240.027	84.69
240.26	73.69
240.494	88.69
240.728	90.69
240.961	80.69
241.195	82.69
241.429	85.69
241.662	81.69
241.896	80.69
242.13	80.69
242.363	74.69
242.597	101.69
242.83	94.69
243.064	87.69
243.298	78.69
243.531	75.69
243.765	83.69
243.998	87.69
244.232	84.69
244.465	83.69
244.699	70.69
244.932	85.69
245.166	64.69
245.399	80.69
245.633	99.69
245.866	67.69
246.099	93.69
246.333	72.69
246.566	79.69
246.8	89.69
247.033	84.69
247.266	81.69
247.5	94.69
247.733	95.69
247.966	68.69
248.2	91.69
248.433	90.69
248.666	71.69
248.899	91.69
249.133	83.69
249.366	98.69
249.599	101.69
249.832	87.69
250.066	96.69
250.299	86.69
250.532	81.69
250.765	79.69
250.998	70.69
251.231	78.69
251.465	87.69
251.698	87.69
251.931	86.69
252.164	71.69
252.397	75.69
252.63	94.69
252.863	96.69
253.096	81.69
253.329	85.69
253.562	83.69
253.795	80.69
254.028	85.69
254.261	101.69
254.494	82.69
254.727	87.69
254.96	86.69
255.193	72.69
255.426	90.69
255.659	82.69
255.892	71.69
256.124	89.69
256.357	82.69
256.59	88.69
256.823	84.69
257.056	92.69
257.289	78.69
257.521	77.69
257.754	83.69
257.987	73.69
258.22	89.69
258.452	79.69
258.685	86.69
258.918	91.69
259.151	92.69
259.383	86.69
259.616	95.69
259.849	82.69
260.081	94.69
260.314	73.69
260.547	92.69
260.779	74.69
261.012	92.69
261.244	99.69
261.477	96.69
261.71	85.69
261.942	112.69
262.175	117.69
262.407	75.69
262.64	88.69
262.872	97.69
263.105	82.69
263.337	88.69
263.57	91.69
263.802	77.69
264.035	87.69
264.267	83.69
264.499	87.69
264.732	99.69
264.964	82.69
265.197	69.69
265.429	82.69
265.661	84.69
265.894	92.69
266.126	96.69
266.358	73.69
266.591	77.69
266.823	88.69
267.055	91.69
267.287	93.69
267.52	74.69
267.752	76.69
267.984	87.69
268.216	91.69
268.448	93.69
268.681	86.69
268.913	94.69
269.145	85.69
269.377	75.69
269.609	75.69
269.841	92.69
270.073	97.69
270.306	94.69
270.538	101.69
270.77	91.69
271.002	88.69
271.234	91.69
271.466	92.69
271.698	83.69
271.93	87.69
272.162	85.69
272.394	103.69
272.626	93.69
272.858	83.69
273.09	70.69
273.322	93.69
273.553	79.69
273.785	95.69
274.017	83.69
274.249	88.69
274.481	81.69
274.713	77.69
274.945	87.69
275.176	60.69
275.408	78.69
275.64	87.69
275.872	99.69
276.104	94.69
276.335	92.69
276.567	100.69
276.799	98.69
277.031	84.69
277.262	95.69
277.494	90.69
277.726	87.69
277.957	94.69
278.189	101.69
278.421	87.69
278.652	102.69
278.884	96.69
279.115	86.69
279.347	88.69
279.579	74.69
279.81	85.69
280.042	88.69
280.273	95.69
280.505	86.69
280.736	98.69
280.968	81.69
281.199	97.69
281.431	87.69
281.662	76.69
281.894	81.69
282.125	101.69
282.356	113.69
282.588	148.69
282.819	115.69
283.051	90.69
283.282	74.69
283.513	99.69
283.745	71.69
283.976	91.69
284.207	91.69
284.439	91.69
284.67	105.69
284.901	91.69
285.132	76.69
285.364	100.69
285.595	97.69
285.826	90.69
286.057	93.69
286.288	109.69
286.52	91.69
286.751	101.69
286.982	85.69
287.213	82.69
287.444	88.69
287.675	92.69
287.906	93.69
288.138	91.69
288.369	99.69
288.6	89.69
288.831	75.69
289.062	85.69
289.293	89.69
289.524	96.69
289.755	93.69
289.986	89.69
290.217	97.69
290.448	95.69
290.679	92.69
290.91	91.69
291.141	95.69
291.371	79.69
291.602	93.69
291.833	88.69
292.064	98.69
292.295	87.69
292.526	88.69
292.757	79.69
292.987	87.69
293.218	92.69
293.449	96.69
293.68	96.69
293.91	83.69
294.141	85.69
294.372	89.69
294.603	101.69
294.833	90.69
295.064	82.69
295.295	98.69
295.525	88.69
295.756	98.69
295.987	120.69
296.217	145.69
296.448	119.69
296.679	109.69
296.909	92.69
297.14	101.69
297.37	95.69
297.601	90.69
297.831	91.69
298.062	98.69
298.292	87.69
298.523	109.69
298.753	91.69
298.984	101.69
299.214	98.69
299.445	81.69
299.675	95.69
299.905	104.69
300.136	101.69
300.366	93.69
300.597	103.69
300.827	99.69
301.057	107.69
301.288	99.69
301.518	95.69
301.748	103.69
301.979	104.69
302.209	92.69
302.439	95.69
302.669	96.69
302.9	100.69
303.13	98.69
303.36	102.69
303.59	107.69
303.82	122.69
304.051	85.69
304.281	92.69
304.511	94.69
304.741	109.69
304.971	90.69
305.201	99.69
305.431	96.69
305.661	89.69
305.891	95.69
306.121	88.69
306.352	96.69
306.582	107.69
306.812	94.69
307.042	93.69
307.272	85.69
307.502	103.69
307.731	88.69
307.961	95.69
308.191	98.69
308.421	88.69
308.651	94.69
308.881	89.69
309.111	91.69
309.341	91.69
309.571	94.69
309.8	115.69
310.03	110.69
310.26	102.69
310.49	111.69
310.72	101.69
310.949	97.69
311.179	101.69
311.409	95.69
311.639	83.69
311.868	98.69
312.098	99.69
312.328	98.69
312.557	112.69
312.787	91.69
313.017	93.69
313.246	95.69
313.476	89.69
313.706	95.69
313.935	109.69
314.165	100.69
314.394	105.69
314.624	93.69
314.853	88.69
315.083	92.69
315.312	94.69
315.542	98.69
315.771	110.69
316.001	79.69
316.23	96.69
316.46	99.69
316.689	95.69
316.919	101.69
317.148	87.69
317.377	97.69
317.607	101.69
317.836	96.69
318.065	80.69
318.295	89.69
318.524	88.69
318.753	81.69
318.983	101.69
319.212	116.69
319.441	105.69
319.67	110.69
319.9	89.69
320.129	93.69
320.358	90.69
320.587	95.69
320.816	100.69
321.046	106.69
321.275	116.69
321.504	94.69
321.733	102.69
321.962	97.69
322.191	104.69
322.42	109.69
322.649	116.69
322.878	114.69
323.108	110.69
323.337	118.69
323.566	135.69
323.795	162.69
324.024	217.69
324.253	394.69
324.482	828.69
324.71	1646.69
324.939	2151.69
325.168	793.69
325.397	235.69
325.626	149.69
325.855	131.69
326.084	123.69
326.313	127.69
326.542	155.69
326.77	237.69
326.999	466.69
327.228	955.69
327.457	1688.69
327.686	1314.69
327.914	363.69
328.143	183.69
328.372	144.69
328.6	122.69
328.829	117.69
329.058	127.69
329.287	126.69
329.515	117.69
329.744	109.69
329.972	112.69
330.201	111.69
330.43	101.69
330.658	118.69
330.887	122.69
331.115	122.69
331.344	110.69
331.572	95.69
331.801	92.69
332.03	108.69
332.258	97.69
332.486	94.69
332.715	110.69
332.943	93.69
333.172	103.69
333.4	99.69
333.629	114.69
333.857	103.69
334.085	103.69
334.314	99.69
334.542	91.69
334.771	99.69
334.999	101.69
335.227	97.69
335.455	91.69
335.684	93.69
335.912	101.69
336.14	110.69
336.369	106.69
336.597	93.69
336.825	102.69
337.053	98.69
337.281	99.69
337.51	94.69
337.738	97.69
337.966	98.69
338.194	100.69
338.422	106.69
338.65	92.69
338.878	90.69
339.106	104.69
339.334	95.69
339.562	99.69
339.79	114.69
340.018	98.69
340.246	81.69
340.474	99.69
340.702	89.69
340.93	96.69
341.158	97.69
341.386	85.69
341.614	101.69
341.842	96.69
342.07	97.69
342.298	92.69
342.526	91.69
342.754	86.69
342.981	84.69
343.209	91.69
343.437	109.69
343.665	95.69
343.893	100.69
344.12	106.69
344.348	86.69
344.576	97.69
344.804	96.69
345.031	94.69
345.259	90.69
345.487	93.69
345.714	108.69
345.942	97.69
346.17	102.69
346.397	103.69
346.625	104.69
346.853	87.69
347.08	102.69
347.308	100.69
347.535	110.69
347.763	114.69
347.99	93.69
348.218	112.69
348.445	98.69
348.673	91.69
348.9	101.69
349.128	82.69
349.355	87.69
349.583	108.69
349.81	96.69
350.037	95.69
350.265	102.69
350.492	96.69
350.72	84.69
350.947	114.69
351.174	101.69
351.402	110.69
351.629	101.69
351.856	107.69
352.083	109.69
352.311	115.69
352.538	111.69
352.765	117.69
352.992	119.69
353.22	99.69
353.447	99.69
353.674	102.69
353.901	78.69
354.128	99.69
354.355	102.69
354.583	110.69
354.81	117.69
355.037	102.69
355.264	95.69
355.491	84.69
355.718	105.69
355.945	97.69
356.172	99.69
356.399	103.69
356.626	100.69
356.853	102.69
357.08	94.69
357.307	109.69
357.534	94.69
357.761	111.69
357.988	90.69
358.215	94.69
358.441	94.69
358.668	85.69
358.895	91.69
359.122	87.69
359.349	102.69
359.576	98.69
359.802	94.69
360.029	111.69
360.256	102.69
360.483	95.69
360.709	81.69
360.936	112.69
361.163	102.69
361.39	93.69
361.616	107.69
361.843	89.69
362.07	97.69
362.296	99.69
362.523	97.69
362.749	92.69
362.976	101.69
363.203	97.69
363.429	95.69
363.656	96.69
363.882	93.69
364.109	103.69
364.335	100.69
364.562	88.69
364.788	94.69
365.015	101.69
365.241	100.69
365.468	109.69
365.694	104.69
365.92	94.69
366.147	100.69
366.373	93.69
366.599	88.69
366.826	90.69
367.052	113.69
367.278	103.69
367.505	112.69
367.731	101.69
367.957	95.69
368.184	95.69
368.41	103.69
368.636	109.69
368.862	117.69
369.089	98.69
369.315	96.69
369.541	103.69
369.767	99.69
369.993	93.69
370.219	83.69
370.445	103.69
370.672	92.69
370.898	88.69
371.124	98.69
371.35	106.69
371.576	93.69
371.802	86.69
372.028	93.69
372.254	85.69
372.48	91.69
372.706	89.69
372.932	91.69
373.158	97.69
373.384	96.69
373.61	96.69
373.835	83.69
374.061	72.69
374.287	100.69
374.513	90.69
374.739	89.69
374.965	95.69
375.191	94.69
375.416	93.69
375.642	86.69
375.868	98.69
376.094	84.69
376.319	88.69
376.545	100.69
376.771	97.69
376.997	94.69
377.222	98.69
377.448	105.69
377.674	85.69
377.899	94.69
378.125	82.69
378.35	82.69
378.576	96.69
378.802	101.69
379.027	101.69
379.253	82.69
379.478	94.69
379.704	101.69
379.929	96.69
380.155	96.69
380.38	96.69
380.606	104.69
380.831	96.69
381.057	100.69
381.282	99.69
381.507	102.69
381.733	88.69
381.958	101.69
382.184	106.69
382.409	96.69
382.634	100.69
382.86	97.69
383.085	98.69
383.31	101.69
383.535	102.69
383.761	116.69
383.986	105.69
384.211	94.69
384.436	95.69
384.662	104.69
384.887	114.69
385.112	109.69
385.337	107.69
385.562	107.69
385.787	105.69
386.013	94.69
386.238	125.69
386.463	99.69
386.688	108.69
386.913	115.69
387.138	106.69
387.363	99.69
387.588	99.69
387.813	113.69
388.038	115.69
388.263	117.69
388.488	108.69
388.713	107.69
388.938	91.69
389.163	97.69
389.387	106.69
389.612	101.69
389.837	95.69
390.062	88.69
390.287	103.69
390.512	106.69
390.736	96.69
390.961	83.69
391.186	109.69
391.411	100.69
391.636	91.69
391.86	90.69
392.085	82.69
392.31	94.69
392.534	100.69
392.759	95.69
392.984	91.69
393.208	98.69
393.433	87.69
393.658	98.69
393.882	89.69
394.107	98.69
394.331	95.69
394.556	88.69
394.78	101.69
395.005	97.69
395.229	87.69
395.454	95.69
395.678	91.69
395.903	85.69
396.127	94.69
396.352	103.69
396.576	86.69
396.801	88.69
397.025	87.69
397.249	103.69
397.474	93.69
397.698	83.69
397.922	98.69
398.147	86.69
398.371	94.69
398.595	80.69
398.82	94.69
399.044	89.69
399.268	80.69
399.492	94.69
399.717	88.69
399.941	97.69
400.165	103.69
400.389	91.69
400.613	85.69
400.837	79.69
401.062	109.69
401.286	96.69
401.51	88.69
401.734	95.69
401.958	96.69
402.182	134.69
402.406	149.69
402.63	114.69
402.854	87.69
403.078	100.69
403.302	96.69
403.526	104.69
403.75	111.69
403.974	86.69
404.198	88.69
404.422	87.69
404.645	106.69
404.869	91.69
405.093	100.69
405.317	106.69
405.541	119.69
405.765	99.69
405.988	120.69
406.212	165.69
406.436	238.69
406.66	140.69
406.883	105.69
407.107	102.69
407.331	108.69
407.555	88.69
407.778	88.69
408.002	93.69
408.226	88.69
408.449	92.69
408.673	98.69
408.896	96.69
409.12	91.69
409.344	87.69
409.567	87.69
409.791	86.69
410.014	100.69
410.238	86.69
410.461	84.69
410.685	103.69
410.908	93.69
411.132	102.69
411.355	103.69
411.578	110.69
411.802	102.69
412.025	97.69
412.249	102.69
412.472	85.69
412.695	87.69
412.919	94.69
413.142	101.69
413.365	95.69
413.589	87.69
413.812	92.69
414.035	94.69
414.258	110.69
414.482	94.69
414.705	97.69
414.928	99.69
415.151	105.69
415.374	87.69
415.597	94.69
415.821	97.69
416.044	92.69
416.267	80.69
416.49	95.69
416.713	87.69
416.936	99.69
417.159	93.69
417.382	80.69
417.605	93.69
417.828	110.69
418.051	97.69
418.274	86.69
418.497	102.69
418.72	98.69
418.943	111.69
419.166	80.69
419.389	114.69
419.611	94.69
419.834	87.69
420.057	87.69
420.28	86.69
420.503	94.69
420.726	85.69
420.948	100.69
421.171	93.69
421.394	102.69
421.617	83.69
421.839	107.69
422.062	86.69
422.285	89.69
422.507	114.69
422.73	88.69
422.953	90.69
423.175	92.69
423.398	98.69
423.621	94.69
423.843	86.69
424.066	78.69
424.288	103.69
424.511	100.69
424.733	112.69
424.956	105.69
425.178	96.69
425.401	103.69
425.623	109.69
425.846	82.69
426.068	94.69
426.291	85.69
426.513	111.69
426.735	95.69
426.958	96.69
427.18	95.69
427.402	144.69
427.625	161.69
427.847	126.69
428.069	113.69
428.292	91.69
428.514	92.69
428.736	102.69
428.958	98.69
429.181	93.69
429.403	88.69
429.625	68.69
429.847	85.69
430.069	94.69
430.292	97.69
430.514	91.69
430.736	91.69
430.958	97.69
431.18	77.69
431.402	91.69
431.624	102.69
431.846	93.69
432.068	98.69
432.29	101.69
432.512	92.69
432.734	94.69
432.956	102.69
433.178	97.69
433.4	102.69
433.622	86.69
433.844	102.69
434.066	93.69
434.287	109.69
434.509	92.69
434.731	96.69
434.953	87.69
435.175	97.69
435.397	93.69
435.618	94.69
435.84	108.69
436.062	131.69
436.284	125.69
436.505	108.69
436.727	102.69
436.949	108.69
437.17	102.69
437.392	79.69
437.614	106.69
437.835	115.69
438.057	128.69
438.278	115.69
438.5	112.69
438.721	124.69
438.943	98.69
439.165	87.69
439.386	74.69
439.608	98.69
439.829	103.69
440.05	128.69
440.272	134.69
440.493	108.69
440.715	101.69
440.936	74.69
441.158	97.69
441.379	87.69
441.6	106.69
441.822	99.69
442.043	94.69
442.264	90.69
442.486	105.69
442.707	104.69
442.928	111.69
443.149	139.69
443.371	125.69
443.592	115.69
443.813	110.69
444.034	121.69
444.255	96.69
444.476	88.69
444.698	98.69
444.919	76.69
445.14	124.69
445.361	115.69
445.582	106.69
445.803	131.69
446.024	131.69
446.245	129.69
446.466	108.69
446.687	94.69
446.908	89.69
447.129	111.69
447.35	103.69
447.571	90.69
447.792	98.69
448.013	100.69
448.234	105.69
448.455	98.69
448.675	108.69
448.896	140.69
449.117	103.69
449.338	116.69
449.559	125.69
449.779	146.69
450	102.69
450.221	88.69
450.442	99.69
450.662	84.69
450.883	115.69
451.104	127.69
451.324	103.69
451.545	91.69
451.766	81.69
451.986	96.69
452.207	104.69
452.428	98.69
452.648	106.69
452.869	102.69
453.089	110.69
453.31	124.69
453.53	107.69
453.751	89.69
453.971	109.69
454.192	108.69
454.412	95.69
454.633	98.69
454.853	100.69
455.073	93.69
455.294	106.69
455.514	86.69
455.734	98.69
455.955	94.69
456.175	90.69
456.395	80.69
456.616	94.69
456.836	82.69
457.056	90.69
457.276	84.69
457.497	78.69
457.717	95.69
457.937	87.69
458.157	86.69
458.377	93.69
458.598	95.69
458.818	152.69
459.038	156.69
459.258	110.69
459.478	94.69
459.698	88.69
459.918	100.69
460.138	98.69
460.358	91.69
460.578	95.69
460.798	99.69
461.018	97.69
461.238	81.69
461.458	101.69
461.678	96.69
461.898	88.69
462.118	98.69
462.338	80.69
462.558	90.69
462.777	96.69
462.997	83.69
463.217	84.69
463.437	109.69
463.657	92.69
463.876	96.69
464.096	94.69
464.316	97.69
464.536	99.69
464.755	93.69
464.975	114.69
465.195	152.69
465.414	147.69
465.634	99.69
465.854	89.69
466.073	93.69
466.293	84.69
466.512	90.69
466.732	88.69
466.951	86.69
467.171	105.69
467.391	108.69
467.61	98.69
467.829	91.69
468.049	91.69
468.268	82.69
468.488	91.69
468.707	77.69
468.927	96.69
469.146	88.69
469.365	94.69
469.585	91.69
469.804	101.69
470.023	107.69
470.243	92.69
470.462	92.69
470.681	118.69
470.901	102.69
471.12	88.69
471.339	92.69
471.558	92.69
471.777	91.69
471.997	88.69
472.216	99.69
472.435	94.69
472.654	88.69
472.873	95.69
473.092	94.69
473.311	87.69
473.53	83.69
473.749	91.69
473.968	96.69
474.187	100.69
474.406	94.69
474.625	79.69
474.844	94.69
475.063	102.69
475.282	88.69
475.501	92.69
475.72	94.69
475.939	97.69
476.158	84.69
476.377	79.69
476.596	77.69
476.814	94.69
477.033	91.69
477.252	88.69
477.471	100.69
477.69	98.69
477.908	91.69
478.127	100.69
478.346	96.69
478.564	85.69
478.783	111.69
479.002	90.69
479.22	104.69
479.439	110.69
479.658	111.69
479.876	111.69
480.095	98.69
480.313	90.69
480.532	90.69
480.751	80.69
480.969	106.69
481.188	98.69
481.406	94.69
481.624	92.69
481.843	93.69
482.061	94.69
482.28	93.69
482.498	93.69
482.717	78.69
482.935	94.69
483.153	95.69
483.372	95.69
483.59	101.69
483.808	101.69
484.027	83.69
484.245	100.69
484.463	94.69
484.681	99.69
484.9	91.69
485.118	104.69
485.336	96.69
485.554	96.69
485.772	102.69
485.99	113.69
486.209	95.69
486.427	100.69
486.645	103.69
486.863	124.69
487.081	117.69
487.299	103.69
487.517	102.69
487.735	107.69
487.953	100.69
488.171	89.69
488.389	88.69
488.607	90.69
488.825	84.69
489.043	85.69
489.261	88.69
489.479	98.69
489.696	87.69
489.914	103.69
490.132	93.69
490.35	79.69
490.568	95.69
490.786	98.69
491.003	96.69
491.221	96.69
491.439	100.69
491.657	104.69
491.874	88.69
492.092	100.69
492.31	103.69
492.527	88.69
492.745	83.69
492.963	79.69
493.18	88.69
493.398	75.69
493.615	114.69
493.833	106.69
494.05	93.69
494.268	108.69
494.485	86.69
494.703	92.69
494.92	93.69
495.138	106.69
495.355	100.69
495.573	107.69
495.79	96.69
496.008	86.69
496.225	78.69
496.442	84.69
496.66	84.69
496.877	85.69
497.094	107.69
497.312	95.69
497.529	97.69
497.746	95.69
497.963	95.69
498.181	94.69
498.398	100.69
498.615	117.69
498.832	105.69
499.049	92.69
499.267	96.69
499.484	89.69
499.701	89.69
499.918	102.69
500.135	97.69
500.352	111.69
500.569	86.69
500.786	102.69
501.003	95.69
501.22	97.69
501.437	91.69
501.654	94.69
501.871	92.69
502.088	89.69
502.305	95.69
502.522	84.69
502.739	79.69
502.956	93.69
503.172	84.69
503.389	100.69
503.606	115.69
503.823	99.69
504.04	92.69
504.256	96.69
504.473	104.69
504.69	98.69
504.907	98.69
505.123	80.69
505.34	69.69
505.557	86.69
505.773	102.69
505.99	101.69
506.207	99.69
506.423	92.69
506.64	90.69
506.856	81.69
507.073	88.69
507.289	95.69
507.506	98.69
507.722	107.69
507.939	108.69
508.155	99.69
508.372	106.69
508.588	101.69
508.805	98.69
509.021	90.69
509.238	95.69
509.454	112.69
509.67	104.69
509.887	118.69
510.103	138.69
510.319	236.69
510.536	804.69
510.752	2472.69
510.968	698.69
511.184	162.69
511.401	113.69
511.617	106.69
511.833	84.69
512.049	80.69
512.265	98.69
512.481	103.69
512.698	94.69
512.914	99.69
513.13	88.69
513.346	101.69
513.562	103.69
513.778	98.69
513.994	101.69
514.21	116.69
514.426	124.69
514.642	129.69
514.858	150.69
515.074	175.69
515.29	475.69
515.506	1564.69
515.721	559.69
515.937	147.69
516.153	128.69
516.369	94.69
516.585	85.69
516.801	102.69
517.016	110.69
517.232	102.69
517.448	94.69
517.664	114.69
517.879	99.69
518.095	93.69
518.311	108.69
518.527	96.69
518.742	102.69
518.958	102.69
519.173	98.69
519.389	98.69
519.605	98.69
519.82	87.69
520.036	113.69
520.251	130.69
520.467	111.69
520.682	121.69
520.898	122.69
521.113	126.69
521.329	147.69
521.544	227.69
521.76	564.69
521.975	2538.69
522.19	1551.69
522.406	318.69
522.621	138.69
522.836	106.69
523.052	105.69
523.267	96.69
523.482	99.69
523.698	100.69
523.913	123.69
524.128	82.69
524.343	83.69
524.559	103.69
524.774	106.69
524.989	91.69
525.204	102.69
525.419	113.69
525.634	85.69
525.849	91.69
526.064	100.69
526.28	103.69
526.495	106.69
526.71	92.69
526.925	104.69
527.14	106.69
527.355	87.69
527.57	85.69
527.785	102.69
527.999	91.69
528.214	96.69
528.429	107.69
528.644	101.69
528.859	98.69
529.074	94.69
529.289	127.69
529.503	181.69
529.718	106.69
529.933	94.69
530.148	107.69
530.363	93.69
530.577	108.69
530.792	96.69
531.007	102.69
531.221	94.69
531.436	88.69
531.651	98.69
531.865	98.69
532.08	96.69
532.295	107.69
532.509	100.69
532.724	102.69
532.938	102.69
533.153	97.69
533.367	102.69
533.582	108.69
533.796	99.69
534.011	99.69
534.225	93.69
534.44	91.69
534.654	98.69
534.868	91.69
535.083	93.69
535.297	108.69
535.511	111.69
535.726	84.69
535.94	101.69
536.154	100.69
536.369	87.69
536.583	83.69
536.797	92.69
537.011	85.69
537.225	96.69
537.44	89.69
537.654	88.69
537.868	99.69
538.082	93.69
538.296	84.69
538.51	84.69
538.724	88.69
538.938	92.69
539.153	99.69
539.367	95.69
539.581	91.69
539.795	98.69
540.009	87.69
540.222	106.69
540.436	98.69
540.65	98.69
540.864	108.69
541.078	107.69
541.292	92.69
541.506	92.69
541.72	91.69
541.934	91.69
542.147	101.69
542.361	84.69
542.575	93.69
542.789	87.69
543.002	82.69
543.216	88.69
543.43	94.69
543.644	92.69
543.857	88.69
544.071	93.69
544.285	94.69
544.498	97.69
544.712	97.69
544.925	86.69
545.139	84.69
545.352	93.69
545.566	88.69
545.779	109.69
545.993	92.69
546.206	100.69
546.42	88.69
546.633	94.69
546.847	82.69
547.06	84.69
547.274	84.69
547.487	101.69
547.7	87.69
547.914	92.69
548.127	94.69
548.34	106.69
548.554	73.69
548.767	99.69
548.98	92.69
549.193	88.69
549.407	100.69
549.62	86.69
549.833	94.69
550.046	98.69
550.259	100.69
550.473	94.69
550.686	100.69
550.899	93.69
551.112	88.69
551.325	106.69
551.538	81.69
551.751	96.69
551.964	83.69
552.177	95.69
552.39	95.69
552.603	95.69
552.816	87.69
553.029	92.69
553.242	89.69
553.455	102.69
553.667	100.69
553.88	103.69
554.093	97.69
554.306	87.69
554.519	97.69
554.732	88.69
554.944	86.69
555.157	103.69
555.37	89.69
555.583	76.69
555.795	102.69
556.008	95.69
556.221	98.69
556.433	106.69
556.646	102.69
556.859	90.69
557.071	99.69
557.284	95.69
557.496	87.69
557.709	111.69
557.921	103.69
558.134	88.69
558.346	99.69
558.559	95.69
558.771	78.69
558.984	82.69
559.196	88.69
559.409	89.69
559.621	96.69
559.833	99.69
560.046	90.69
560.258	92.69
560.47	102.69
560.683	82.69
560.895	104.69
561.107	101.69
561.32	96.69
561.532	109.69
561.744	96.69
561.956	82.69
562.168	86.69
562.381	99.69
562.593	87.69
562.805	102.69
563.017	90.69
563.229	83.69
563.441	83.69
563.653	85.69
563.865	92.69
564.077	86.69
564.289	102.69
564.501	92.69
564.713	83.69
564.925	99.69
565.137	99.69
565.349	98.69
565.561	101.69
565.773	93.69
565.985	90.69
566.197	91.69
566.408	89.69
566.62	83.69
566.832	95.69
567.044	95.69
567.255	83.69
567.467	80.69
567.679	85.69
567.891	105.69
568.102	102.69
568.314	102.69
568.526	85.69
568.737	94.69
568.949	88.69
569.161	105.69
569.372	95.69
569.584	105.69
569.795	90.69
570.007	113.69
570.218	289.69
570.43	136.69
570.641	101.69
570.853	87.69
571.064	99.69
571.276	82.69
571.487	74.69
571.698	88.69
571.91	85.69
572.121	99.69
572.333	91.69
572.544	93.69
572.755	99.69
572.966	85.69
573.178	99.69
573.389	80.69
573.6	107.69
573.811	90.69
574.023	111.69
574.234	87.69
574.445	98.69
574.656	98.69
574.867	86.69
575.078	82.69
575.289	96.69
575.501	108.69
575.712	93.69
575.923	99.69
576.134	88.69
576.345	94.69
576.556	105.69
576.767	89.69
576.978	86.69
577.188	93.69
577.399	98.69
577.61	85.69
577.821	101.69
578.032	129.69
578.243	282.69
578.454	855.69
578.665	222.69
578.875	116.69
579.086	95.69
579.297	93.69
579.508	101.69
579.718	102.69
579.929	101.69
580.14	86.69
580.35	93.69
580.561	88.69
580.772	93.69
580.982	97.69
581.193	82.69
581.403	104.69
581.614	97.69
581.825	94.69
582.035	86.69
582.246	82.69
582.456	92.69
582.667	91.69
582.877	92.69
583.087	84.69
583.298	99.69
583.508	92.69
583.719	92.69
583.929	101.69
584.139	92.69
584.35	95.69
584.56	78.69
584.77	94.69
584.981	82.69
585.191	88.69
585.401	87.69
585.611	106.69
585.821	98.69
586.032	97.69
586.242	100.69
586.452	94.69
586.662	93.69
586.872	85.69
587.082	78.69
587.292	89.69
587.502	93.69
587.713	95.69
587.923	83.69
588.133	84.69
588.343	92.69
588.553	91.69
588.762	96.69
588.972	105.69
589.182	98.69
589.392	91.69
589.602	87.69
589.812	100.69
590.022	95.69
590.232	91.69
590.441	94.69
590.651	98.69
590.861	74.69
591.071	95.69
591.281	78.69
591.49	90.69
591.7	78.69
591.91	98.69
592.119	87.69
592.329	102.69
592.539	86.69
592.748	106.69
592.958	99.69
593.167	108.69
593.377	91.69
593.587	92.69
593.796	80.69
594.006	100.69
594.215	86.69
594.424	90.69
594.634	90.69
594.843	87.69
595.053	100.69
595.262	87.69
595.472	94.69
595.681	95.69
595.89	102.69
596.1	95.69
596.309	107.69
596.518	94.69
596.727	95.69
596.937	100.69
597.146	94.69
597.355	92.69
597.564	76.69
597.774	103.69
597.983	83.69
598.192	88.69
598.401	86.69
598.61	85.69
598.819	91.69
599.028	94.69
599.237	108.69
599.446	86.69
599.655	92.69
599.864	93.69
600.073	100.69
600.282	95.69
600.491	91.69
600.7	83.69
600.909	80.69
601.118	82.69
601.327	105.69
601.536	108.69
601.745	106.69
601.953	83.69
602.162	92.69
602.371	90.69
602.58	81.69
602.789	74.69
602.997	85.69
603.206	98.69
603.415	95.69
603.623	99.69
603.832	98.69
604.041	84.69
604.249	98.69
604.458	76.69
604.666	91.69
604.875	92.69
605.084	104.69
605.292	86.69
605.501	93.69
605.709	88.69
605.918	84.69
606.126	79.69
606.334	93.69
606.543	89.69
606.751	85.69
606.96	107.69
607.168	87.69
607.376	98.69
607.585	96.69
607.793	91.69
608.001	77.69
608.21	90.69
608.418	90.69
608.626	94.69
608.834	96.69
609.043	92.69
609.251	88.69
609.459	86.69
609.667	99.69
609.875	98.69
610.083	99.69
610.291	94.69
610.499	84.69
610.707	81.69
610.916	86.69
611.124	99.69
611.332	87.69
611.54	80.69
611.748	84.69
611.955	100.69
612.163	91.69
612.371	83.69
612.579	100.69
612.787	86.69
612.995	88.69
613.203	91.69
613.411	81.69
613.618	96.69
613.826	88.69
614.034	100.69
614.242	86.69
614.449	95.69
614.657	78.69
614.865	81.69
615.072	79.69
615.28	80.69
615.488	88.69
615.695	98.69
615.903	87.69
616.111	98.69
616.318	107.69
616.526	94.69
616.733	107.69
616.941	83.69
617.148	98.69
617.356	96.69
617.563	91.69
617.771	94.69
617.978	96.69
618.185	104.69
618.393	95.69
618.6	74.69
618.807	92.69
619.015	94.69
619.222	83.69
619.429	87.69
619.637	78.69
619.844	75.69
620.051	93.69
620.258	98.69
620.466	96.69
620.673	80.69
620.88	90.69
621.087	85.69
621.294	94.69
621.501	96.69
621.708	99.69
621.915	92.69
622.122	83.69
622.329	97.69
622.536	82.69
622.743	98.69
622.95	75.69
623.157	87.69
623.364	92.69
623.571	84.69
623.778	75.69
623.985	107.69
624.192	92.69
624.399	89.69
624.606	91.69
624.812	96.69
625.019	88.69
625.226	88.69
625.433	85.69
625.639	90.69
625.846	92.69
626.053	87.69
626.259	90.69
626.466	103.69
626.673	93.69
626.879	97.69
627.086	87.69
627.293	93.69
627.499	74.69
627.706	89.69
627.912	95.69
628.119	91.69
628.325	86.69
628.532	89.69
628.738	103.69
628.945	98.69
629.151	89.69
629.357	98.69
629.564	86.69
629.77	90.69
629.976	78.69
630.183	93.69
630.389	95.69
630.595	90.69
630.802	87.69
631.008	92.69
631.214	102.69
631.42	103.69
631.627	101.69
631.833	92.69
632.039	85.69
632.245	100.69
632.451	92.69
632.657	75.69
632.863	83.69
633.069	87.69
633.275	86.69
633.481	95.69
633.688	96.69
633.893	90.69
634.099	80.69
634.305	80.69
634.511	84.69
634.717	85.69
634.923	86.69
635.129	79.69
635.335	98.69
635.541	82.69
635.747	83.69
635.952	77.69
636.158	73.69
636.364	80.69
636.57	84.69
636.775	89.69
636.981	92.69
637.187	91.69
637.392	86.69
637.598	84.69
637.804	93.69
638.009	97.69
638.215	81.69
638.421	88.69
638.626	91.69
638.832	82.69
639.037	92.69
639.243	81.69
639.448	87.69
639.654	86.69
639.859	82.69
640.065	89.69
640.27	93.69
640.475	94.69
640.681	97.69
640.886	83.69
641.091	92.69
641.297	99.69
641.502	88.69
641.707	86.69
641.913	84.69
642.118	85.69
642.323	92.69
642.528	90.69
642.733	98.69
642.939	91.69
643.144	74.69
643.349	89.69
643.554	93.69
643.759	87.69
643.964	86.69
644.169	92.69
644.374	94.69
644.579	70.69
644.784	93.69
644.989	85.69
645.194	82.69
645.399	93.69
645.604	89.69
645.809	94.69
646.014	87.69
646.219	78.69
646.423	79.69
646.628	75.69
646.833	87.69
647.038	94.69
647.243	88.69
647.447	106.69
647.652	92.69
647.857	81.69
648.062	93.69
648.266	86.69
648.471	84.69
648.676	101.69
648.88	80.69
649.085	90.69
649.289	98.69
649.494	103.69
649.698	139.69
649.903	108.69
650.107	92.69
650.312	87.69
650.516	97.69
650.721	94.69
650.925	101.69
651.13	82.69
651.334	93.69
651.539	82.69
651.743	79.69
651.947	100.69
652.152	95.69
652.356	79.69
652.56	83.69
652.764	86.69
652.969	96.69
653.173	83.69
653.377	82.69
653.581	80.69
653.785	84.69
653.99	82.69
654.194	70.69
654.398	90.69
654.602	83.69
654.806	86.69
655.01	101.69
655.214	89.69
655.418	80.69
655.622	88.69
655.826	98.69
656.03	101.69
656.234	83.69
656.438	98.69
656.642	92.69
656.846	94.69
657.049	96.69
657.253	98.69
657.457	89.69
657.661	85.69
657.865	79.69
658.068	87.69
658.272	108.69
658.476	85.69
658.68	88.69
658.883	96.69
659.087	86.69
659.291	95.69
659.494	83.69
659.698	80.69
659.901	95.69
660.105	92.69
660.309	80.69
660.512	97.69
660.716	88.69
660.919	70.69
661.123	80.69
661.326	83.69
661.53	79.69
661.733	72.69
661.936	92.69
662.14	72.69
662.343	73.69
662.546	86.69
662.75	80.69
662.953	98.69
663.156	88.69
663.36	83.69
663.563	81.69
663.766	80.69
663.969	85.69
664.173	93.69
664.376	89.69
664.579	84.69
664.782	95.69
664.985	75.69
665.188	75.69
665.391	78.69
665.594	86.69
665.797	86.69
666	97.69
666.203	83.69
666.406	96.69
666.609	83.69
666.812	85.69
667.015	91.69
667.218	77.69
667.421	92.69
667.624	78.69
667.827	92.69
668.03	79.69
668.232	89.69
668.435	80.69
668.638	80.69
668.841	78.69
669.043	77.69
669.246	91.69
669.449	76.69
669.651	72.69
669.854	96.69
670.057	69.69
670.259	75.69
670.462	86.69
670.665	90.69
670.867	81.69
671.07	82.69
671.272	97.69
671.475	88.69
671.677	96.69
671.88	81.69
672.082	91.69
672.284	101.69
672.487	97.69
672.689	95.69
672.892	80.69
