Data from Uncirc_2008_H10_HRD10591_00012.txt Node
Date: Wed Jan 03 10:15:33 EST 2024
User: Yrep
Spectrometer: HR+D1059
Trigger mode: 1
Integration Time (sec): 1.000000E-1
Scans to average: 1
Electric dark correction enabled: true
Nonlinearity correction enabled: false
Boxcar width: 0
XAxis mode: Wavelengths
Number of Pixels in Spectrum: 2048
>>>>>Begin Spectral Data<<<<<
223.165	1.06
223.4	1.06
223.635	1.06
223.869	-23.94
224.104	-11.94
224.338	-27.94
224.573	-6.94
224.808	-19.94
225.042	-18.94
225.277	-7.94
225.511	-3.94
225.746	9.06
225.98	11.06
226.215	2.06
226.449	10.06
226.683	29.06
226.918	29.06
227.152	30.06
227.387	30.06
227.621	39.06
227.856	40.06
228.09	49.06
228.324	43.06
228.559	68.06
228.793	62.06
229.027	71.06
229.262	69.06
229.496	73.06
229.73	79.06
229.964	68.06
230.199	77.06
230.433	71.06
230.667	84.06
230.901	84.06
231.136	66.06
231.37	71.06
231.604	68.06
231.838	84.06
232.072	69.06
232.306	76.06
232.541	82.06
232.775	86.06
233.009	90.06
233.243	71.06
233.477	74.06
233.711	76.06
233.945	70.06
234.179	85.06
234.413	83.06
234.647	78.06
234.881	75.06
235.115	80.06
235.349	81.06
235.583	63.06
235.817	71.06
236.051	86.06
236.285	89.06
236.519	89.06
236.753	75.06
236.987	88.06
237.221	91.06
237.455	75.06
237.689	85.06
237.922	64.06
238.156	76.06
238.39	83.06
238.624	80.06
238.858	81.06
239.091	70.06
239.325	67.06
239.559	67.06
239.793	88.06
240.027	81.06
240.26	84.06
240.494	74.06
240.728	70.06
240.961	76.06
241.195	73.06
241.429	86.06
241.662	65.06
241.896	82.06
242.13	72.06
242.363	85.06
242.597	77.06
242.83	87.06
243.064	64.06
243.298	66.06
243.531	81.06
243.765	82.06
243.998	72.06
244.232	91.06
244.465	88.06
244.699	76.06
244.932	65.06
245.166	79.06
245.399	73.06
245.633	73.06
245.866	75.06
246.099	66.06
246.333	85.06
246.566	74.06
246.8	84.06
247.033	89.06
247.266	81.06
247.5	85.06
247.733	65.06
247.966	74.06
248.2	74.06
248.433	95.06
248.666	89.06
248.899	68.06
249.133	97.06
249.366	101.06
249.599	89.06
249.832	83.06
250.066	68.06
250.299	88.06
250.532	68.06
250.765	85.06
250.998	83.06
251.231	76.06
251.465	89.06
251.698	91.06
251.931	88.06
252.164	75.06
252.397	97.06
252.63	87.06
252.863	82.06
253.096	73.06
253.329	90.06
253.562	73.06
253.795	83.06
254.028	85.06
254.261	87.06
254.494	79.06
254.727	89.06
254.96	73.06
255.193	82.06
255.426	82.06
255.659	78.06
255.892	80.06
256.124	87.06
256.357	83.06
256.59	93.06
256.823	73.06
257.056	81.06
257.289	84.06
257.521	83.06
257.754	82.06
257.987	84.06
258.22	81.06
258.452	92.06
258.685	76.06
258.918	89.06
259.151	85.06
259.383	76.06
259.616	91.06
259.849	75.06
260.081	70.06
260.314	88.06
260.547	67.06
260.779	75.06
261.012	81.06
261.244	86.06
261.477	82.06
261.71	95.06
261.942	102.06
262.175	110.06
262.407	85.06
262.64	79.06
262.872	92.06
263.105	99.06
263.337	84.06
263.57	74.06
263.802	73.06
264.035	79.06
264.267	84.06
264.499	75.06
264.732	83.06
264.964	83.06
265.197	80.06
265.429	89.06
265.661	73.06
265.894	87.06
266.126	85.06
266.358	92.06
266.591	72.06
266.823	87.06
267.055	84.06
267.287	85.06
267.52	89.06
267.752	82.06
267.984	76.06
268.216	85.06
268.448	82.06
268.681	85.06
268.913	84.06
269.145	93.06
269.377	97.06
269.609	89.06
269.841	76.06
270.073	89.06
270.306	82.06
270.538	78.06
270.77	69.06
271.002	81.06
271.234	79.06
271.466	90.06
271.698	83.06
271.93	74.06
272.162	78.06
272.394	84.06
272.626	83.06
272.858	95.06
273.09	82.06
273.322	96.06
273.553	85.06
273.785	90.06
274.017	71.06
274.249	84.06
274.481	87.06
274.713	74.06
274.945	93.06
275.176	92.06
275.408	82.06
275.64	90.06
275.872	80.06
276.104	86.06
276.335	91.06
276.567	99.06
276.799	104.06
277.031	91.06
277.262	85.06
277.494	77.06
277.726	93.06
277.957	96.06
278.189	92.06
278.421	89.06
278.652	91.06
278.884	94.06
279.115	100.06
279.347	72.06
279.579	84.06
279.81	72.06
280.042	77.06
280.273	95.06
280.505	89.06
280.736	92.06
280.968	84.06
281.199	85.06
281.431	67.06
281.662	84.06
281.894	93.06
282.125	113.06
282.356	112.06
282.588	123.06
282.819	108.06
283.051	98.06
283.282	85.06
283.513	86.06
283.745	92.06
283.976	92.06
284.207	100.06
284.439	96.06
284.67	95.06
284.901	93.06
285.132	84.06
285.364	77.06
285.595	84.06
285.826	87.06
286.057	79.06
286.288	92.06
286.52	85.06
286.751	83.06
286.982	90.06
287.213	84.06
287.444	78.06
287.675	89.06
287.906	94.06
288.138	83.06
288.369	95.06
288.6	89.06
288.831	98.06
289.062	80.06
289.293	93.06
289.524	92.06
289.755	84.06
289.986	97.06
290.217	87.06
290.448	87.06
290.679	83.06
290.91	94.06
291.141	93.06
291.371	80.06
291.602	89.06
291.833	87.06
292.064	86.06
292.295	96.06
292.526	104.06
292.757	89.06
292.987	88.06
293.218	92.06
293.449	79.06
293.68	85.06
293.91	73.06
294.141	100.06
294.372	87.06
294.603	89.06
294.833	91.06
295.064	82.06
295.295	88.06
295.525	93.06
295.756	101.06
295.987	112.06
296.217	121.06
296.448	111.06
296.679	103.06
296.909	92.06
297.14	92.06
297.37	84.06
297.601	92.06
297.831	75.06
298.062	87.06
298.292	84.06
298.523	95.06
298.753	83.06
298.984	84.06
299.214	89.06
299.445	98.06
299.675	95.06
299.905	105.06
300.136	104.06
300.366	78.06
300.597	91.06
300.827	110.06
301.057	114.06
301.288	94.06
301.518	97.06
301.748	77.06
301.979	90.06
302.209	90.06
302.439	93.06
302.669	91.06
302.9	107.06
303.13	101.06
303.36	95.06
303.59	106.06
303.82	94.06
304.051	91.06
304.281	89.06
304.511	81.06
304.741	88.06
304.971	87.06
305.201	91.06
305.431	85.06
305.661	78.06
305.891	94.06
306.121	97.06
306.352	99.06
306.582	95.06
306.812	101.06
307.042	95.06
307.272	82.06
307.502	77.06
307.731	101.06
307.961	81.06
308.191	96.06
308.421	99.06
308.651	84.06
308.881	94.06
309.111	95.06
309.341	89.06
309.571	93.06
309.8	92.06
310.03	93.06
310.26	85.06
310.49	98.06
310.72	98.06
310.949	106.06
311.179	115.06
311.409	85.06
311.639	97.06
311.868	88.06
312.098	111.06
312.328	99.06
312.557	99.06
312.787	103.06
313.017	102.06
313.246	89.06
313.476	85.06
313.706	89.06
313.935	81.06
314.165	92.06
314.394	103.06
314.624	83.06
314.853	97.06
315.083	100.06
315.312	93.06
315.542	92.06
315.771	88.06
316.001	87.06
316.23	106.06
316.46	101.06
316.689	87.06
316.919	92.06
317.148	100.06
317.377	78.06
317.607	92.06
317.836	91.06
318.065	91.06
318.295	106.06
318.524	97.06
318.753	80.06
318.983	96.06
319.212	91.06
319.441	98.06
319.67	97.06
319.9	116.06
320.129	93.06
320.358	86.06
320.587	90.06
320.816	97.06
321.046	97.06
321.275	91.06
321.504	90.06
321.733	86.06
321.962	93.06
322.191	103.06
322.42	102.06
322.649	98.06
322.878	106.06
323.108	117.06
323.337	122.06
323.566	148.06
323.795	144.06
324.024	203.06
324.253	366.06
324.482	781.06
324.71	1633.06
324.939	2132.06
325.168	753.06
325.397	228.06
325.626	141.06
325.855	139.06
326.084	105.06
326.313	138.06
326.542	166.06
326.77	214.06
326.999	432.06
327.228	872.06
327.457	1655.06
327.686	1293.06
327.914	341.06
328.143	201.06
328.372	137.06
328.6	121.06
328.829	118.06
329.058	129.06
329.287	115.06
329.515	102.06
329.744	103.06
329.972	91.06
330.201	100.06
330.43	106.06
330.658	107.06
330.887	140.06
331.115	122.06
331.344	96.06
331.572	104.06
331.801	94.06
332.03	112.06
332.258	107.06
332.486	111.06
332.715	99.06
332.943	105.06
333.172	102.06
333.4	93.06
333.629	97.06
333.857	104.06
334.085	117.06
334.314	105.06
334.542	91.06
334.771	107.06
334.999	77.06
335.227	106.06
335.455	90.06
335.684	106.06
335.912	106.06
336.14	79.06
336.369	93.06
336.597	89.06
336.825	100.06
337.053	96.06
337.281	88.06
337.51	99.06
337.738	79.06
337.966	90.06
338.194	116.06
338.422	96.06
338.65	99.06
338.878	99.06
339.106	86.06
339.334	94.06
339.562	85.06
339.79	98.06
340.018	74.06
340.246	92.06
340.474	98.06
340.702	100.06
340.93	95.06
341.158	98.06
341.386	103.06
341.614	100.06
341.842	99.06
342.07	80.06
342.298	96.06
342.526	105.06
342.754	87.06
342.981	86.06
343.209	86.06
343.437	102.06
343.665	104.06
343.893	89.06
344.12	93.06
344.348	97.06
344.576	85.06
344.804	93.06
345.031	100.06
345.259	107.06
345.487	110.06
345.714	100.06
345.942	100.06
346.17	89.06
346.397	89.06
346.625	88.06
346.853	96.06
347.08	90.06
347.308	106.06
347.535	97.06
347.763	91.06
347.99	95.06
348.218	102.06
348.445	110.06
348.673	99.06
348.9	97.06
349.128	95.06
349.355	95.06
349.583	95.06
349.81	92.06
350.037	96.06
350.265	95.06
350.492	84.06
350.72	106.06
350.947	98.06
351.174	98.06
351.402	122.06
351.629	107.06
351.856	97.06
352.083	115.06
352.311	97.06
352.538	118.06
352.765	107.06
352.992	117.06
353.22	120.06
353.447	94.06
353.674	118.06
353.901	95.06
354.128	90.06
354.355	92.06
354.583	82.06
354.81	90.06
355.037	98.06
355.264	105.06
355.491	109.06
355.718	88.06
355.945	82.06
356.172	94.06
356.399	95.06
356.626	98.06
356.853	95.06
357.08	100.06
357.307	92.06
357.534	100.06
357.761	101.06
357.988	103.06
358.215	99.06
358.441	101.06
358.668	90.06
358.895	95.06
359.122	89.06
359.349	89.06
359.576	104.06
359.802	94.06
360.029	99.06
360.256	110.06
360.483	94.06
360.709	90.06
360.936	94.06
361.163	80.06
361.39	87.06
361.616	98.06
361.843	103.06
362.07	92.06
362.296	95.06
362.523	84.06
362.749	91.06
362.976	98.06
363.203	79.06
363.429	75.06
363.656	88.06
363.882	81.06
364.109	90.06
364.335	100.06
364.562	101.06
364.788	91.06
365.015	76.06
365.241	106.06
365.468	110.06
365.694	95.06
365.92	89.06
366.147	96.06
366.373	74.06
366.599	98.06
366.826	99.06
367.052	93.06
367.278	100.06
367.505	100.06
367.731	104.06
367.957	81.06
368.184	100.06
368.41	98.06
368.636	108.06
368.862	106.06
369.089	101.06
369.315	81.06
369.541	96.06
369.767	79.06
369.993	85.06
370.219	89.06
370.445	92.06
370.672	77.06
370.898	86.06
371.124	95.06
371.35	97.06
371.576	91.06
371.802	100.06
372.028	79.06
372.254	95.06
372.48	92.06
372.706	100.06
372.932	95.06
373.158	88.06
373.384	91.06
373.61	105.06
373.835	92.06
374.061	90.06
374.287	91.06
374.513	101.06
374.739	89.06
374.965	106.06
375.191	101.06
375.416	88.06
375.642	99.06
375.868	96.06
376.094	103.06
376.319	94.06
376.545	74.06
376.771	89.06
376.997	102.06
377.222	83.06
377.448	90.06
377.674	85.06
377.899	109.06
378.125	98.06
378.35	101.06
378.576	90.06
378.802	98.06
379.027	83.06
379.253	102.06
379.478	96.06
379.704	98.06
379.929	111.06
380.155	95.06
380.38	96.06
380.606	104.06
380.831	85.06
381.057	103.06
381.282	108.06
381.507	89.06
381.733	93.06
381.958	104.06
382.184	93.06
382.409	112.06
382.634	115.06
382.86	93.06
383.085	100.06
383.31	112.06
383.535	110.06
383.761	110.06
383.986	100.06
384.211	103.06
384.436	104.06
384.662	121.06
384.887	121.06
385.112	120.06
385.337	111.06
385.562	110.06
385.787	115.06
386.013	125.06
386.238	123.06
386.463	119.06
386.688	109.06
386.913	114.06
387.138	113.06
387.363	113.06
387.588	112.06
387.813	106.06
388.038	112.06
388.263	116.06
388.488	121.06
388.713	99.06
388.938	85.06
389.163	88.06
389.387	91.06
389.612	91.06
389.837	93.06
390.062	110.06
390.287	81.06
390.512	103.06
390.736	94.06
390.961	95.06
391.186	85.06
391.411	110.06
391.636	96.06
391.86	100.06
392.085	78.06
392.31	77.06
392.534	103.06
392.759	87.06
392.984	96.06
393.208	89.06
393.433	95.06
393.658	82.06
393.882	83.06
394.107	96.06
394.331	98.06
394.556	86.06
394.78	84.06
395.005	101.06
395.229	88.06
395.454	100.06
395.678	95.06
395.903	94.06
396.127	100.06
396.352	92.06
396.576	89.06
396.801	84.06
397.025	94.06
397.249	91.06
397.474	89.06
397.698	80.06
397.922	92.06
398.147	93.06
398.371	92.06
398.595	95.06
398.82	100.06
399.044	94.06
399.268	82.06
399.492	95.06
399.717	80.06
399.941	97.06
400.165	97.06
400.389	90.06
400.613	105.06
400.837	92.06
401.062	89.06
401.286	85.06
401.51	95.06
401.734	87.06
401.958	101.06
402.182	126.06
402.406	147.06
402.63	109.06
402.854	85.06
403.078	81.06
403.302	91.06
403.526	84.06
403.75	85.06
403.974	85.06
404.198	84.06
404.422	92.06
404.645	80.06
404.869	97.06
405.093	98.06
405.317	107.06
405.541	86.06
405.765	116.06
405.988	124.06
406.212	173.06
406.436	202.06
406.66	139.06
406.883	100.06
407.107	95.06
407.331	87.06
407.555	101.06
407.778	100.06
408.002	90.06
408.226	89.06
408.449	96.06
408.673	94.06
408.896	96.06
409.12	96.06
409.344	97.06
409.567	89.06
409.791	82.06
410.014	109.06
410.238	101.06
410.461	83.06
410.685	101.06
410.908	99.06
411.132	114.06
411.355	95.06
411.578	83.06
411.802	83.06
412.025	93.06
412.249	112.06
412.472	96.06
412.695	92.06
412.919	94.06
413.142	87.06
413.365	80.06
413.589	84.06
413.812	77.06
414.035	87.06
414.258	97.06
414.482	93.06
414.705	118.06
414.928	92.06
415.151	85.06
415.374	107.06
415.597	87.06
415.821	92.06
416.044	81.06
416.267	101.06
416.49	96.06
416.713	87.06
416.936	85.06
417.159	88.06
417.382	92.06
417.605	90.06
417.828	80.06
418.051	81.06
418.274	87.06
418.497	84.06
418.72	73.06
418.943	85.06
419.166	85.06
419.389	82.06
419.611	88.06
419.834	100.06
420.057	96.06
420.28	90.06
420.503	77.06
420.726	98.06
420.948	87.06
421.171	86.06
421.394	92.06
421.617	94.06
421.839	82.06
422.062	82.06
422.285	84.06
422.507	102.06
422.73	89.06
422.953	104.06
423.175	99.06
423.398	87.06
423.621	85.06
423.843	87.06
424.066	106.06
424.288	88.06
424.511	78.06
424.733	91.06
424.956	115.06
425.178	101.06
425.401	103.06
425.623	101.06
425.846	88.06
426.068	84.06
426.291	99.06
426.513	92.06
426.735	111.06
426.958	104.06
427.18	107.06
427.402	135.06
427.625	167.06
427.847	124.06
428.069	95.06
428.292	83.06
428.514	84.06
428.736	81.06
428.958	91.06
429.181	89.06
429.403	86.06
429.625	82.06
429.847	91.06
430.069	106.06
430.292	75.06
430.514	88.06
430.736	85.06
430.958	81.06
431.18	86.06
431.402	83.06
431.624	85.06
431.846	76.06
432.068	93.06
432.29	83.06
432.512	93.06
432.734	82.06
432.956	82.06
433.178	79.06
433.4	111.06
433.622	90.06
433.844	89.06
434.066	104.06
434.287	90.06
434.509	88.06
434.731	92.06
434.953	86.06
435.175	82.06
435.397	89.06
435.618	89.06
435.84	107.06
436.062	112.06
436.284	119.06
436.505	88.06
436.727	96.06
436.949	83.06
437.17	78.06
437.392	87.06
437.614	87.06
437.835	91.06
438.057	115.06
438.278	104.06
438.5	100.06
438.721	124.06
438.943	99.06
439.165	75.06
439.386	92.06
439.608	89.06
439.829	99.06
440.05	114.06
440.272	140.06
440.493	97.06
440.715	76.06
440.936	84.06
441.158	102.06
441.379	84.06
441.6	105.06
441.822	82.06
442.043	89.06
442.264	107.06
442.486	108.06
442.707	100.06
442.928	92.06
443.149	117.06
443.371	122.06
443.592	125.06
443.813	117.06
444.034	98.06
444.255	100.06
444.476	85.06
444.698	78.06
444.919	75.06
445.14	136.06
445.361	114.06
445.582	107.06
445.803	119.06
446.024	113.06
446.245	124.06
446.466	115.06
446.687	92.06
446.908	91.06
447.129	75.06
447.35	75.06
447.571	93.06
447.792	97.06
448.013	104.06
448.234	113.06
448.455	101.06
448.675	122.06
448.896	107.06
449.117	93.06
449.338	106.06
449.559	126.06
449.779	124.06
450	89.06
450.221	85.06
450.442	90.06
450.662	110.06
450.883	93.06
451.104	126.06
451.324	88.06
451.545	86.06
451.766	74.06
451.986	92.06
452.207	86.06
452.428	88.06
452.648	77.06
452.869	108.06
453.089	102.06
453.31	101.06
453.53	95.06
453.751	99.06
453.971	101.06
454.192	121.06
454.412	88.06
454.633	90.06
454.853	87.06
455.073	72.06
455.294	74.06
455.514	95.06
455.734	95.06
455.955	100.06
456.175	85.06
456.395	87.06
456.616	92.06
456.836	75.06
457.056	93.06
457.276	74.06
457.497	98.06
457.717	92.06
457.937	84.06
458.157	77.06
458.377	90.06
458.598	99.06
458.818	134.06
459.038	143.06
459.258	111.06
459.478	86.06
459.698	76.06
459.918	82.06
460.138	91.06
460.358	80.06
460.578	91.06
460.798	84.06
461.018	89.06
461.238	80.06
461.458	91.06
461.678	95.06
461.898	92.06
462.118	82.06
462.338	84.06
462.558	83.06
462.777	77.06
462.997	99.06
463.217	83.06
463.437	91.06
463.657	74.06
463.876	93.06
464.096	96.06
464.316	96.06
464.536	86.06
464.755	104.06
464.975	94.06
465.195	160.06
465.414	167.06
465.634	93.06
465.854	86.06
466.073	79.06
466.293	73.06
466.512	84.06
466.732	88.06
466.951	75.06
467.171	99.06
467.391	95.06
467.61	107.06
467.829	93.06
468.049	79.06
468.268	87.06
468.488	82.06
468.707	95.06
468.927	93.06
469.146	66.06
469.365	95.06
469.585	88.06
469.804	75.06
470.023	103.06
470.243	82.06
470.462	92.06
470.681	111.06
470.901	95.06
471.12	84.06
471.339	98.06
471.558	76.06
471.777	66.06
471.997	95.06
472.216	78.06
472.435	91.06
472.654	83.06
472.873	95.06
473.092	79.06
473.311	84.06
473.53	91.06
473.749	81.06
473.968	108.06
474.187	99.06
474.406	91.06
474.625	94.06
474.844	93.06
475.063	89.06
475.282	93.06
475.501	88.06
475.72	88.06
475.939	90.06
476.158	79.06
476.377	86.06
476.596	99.06
476.814	78.06
477.033	91.06
477.252	84.06
477.471	89.06
477.69	89.06
477.908	77.06
478.127	93.06
478.346	81.06
478.564	86.06
478.783	96.06
479.002	100.06
479.22	88.06
479.439	92.06
479.658	105.06
479.876	78.06
480.095	91.06
480.313	92.06
480.532	96.06
480.751	96.06
480.969	87.06
481.188	85.06
481.406	91.06
481.624	81.06
481.843	91.06
482.061	99.06
482.28	91.06
482.498	83.06
482.717	88.06
482.935	95.06
483.153	100.06
483.372	92.06
483.59	81.06
483.808	84.06
484.027	109.06
484.245	92.06
484.463	97.06
484.681	85.06
484.9	90.06
485.118	98.06
485.336	96.06
485.554	103.06
485.772	109.06
485.99	99.06
486.209	96.06
486.427	110.06
486.645	108.06
486.863	101.06
487.081	101.06
487.299	93.06
487.517	98.06
487.735	95.06
487.953	105.06
488.171	92.06
488.389	107.06
488.607	104.06
488.825	91.06
489.043	93.06
489.261	89.06
489.479	82.06
489.696	89.06
489.914	88.06
490.132	107.06
490.35	76.06
490.568	100.06
490.786	88.06
491.003	87.06
491.221	88.06
491.439	95.06
491.657	96.06
491.874	96.06
492.092	92.06
492.31	75.06
492.527	78.06
492.745	77.06
492.963	93.06
493.18	93.06
493.398	100.06
493.615	89.06
493.833	87.06
494.05	97.06
494.268	72.06
494.485	96.06
494.703	88.06
494.92	98.06
495.138	93.06
495.355	100.06
495.573	99.06
495.79	92.06
496.008	84.06
496.225	87.06
496.442	79.06
496.66	92.06
496.877	82.06
497.094	98.06
497.312	90.06
497.529	89.06
497.746	83.06
497.963	86.06
498.181	92.06
498.398	87.06
498.615	93.06
498.832	98.06
499.049	99.06
499.267	94.06
499.484	102.06
499.701	81.06
499.918	111.06
500.135	99.06
500.352	96.06
500.569	85.06
500.786	97.06
501.003	100.06
501.22	89.06
501.437	88.06
501.654	97.06
501.871	112.06
502.088	97.06
502.305	105.06
502.522	80.06
502.739	103.06
502.956	85.06
503.172	90.06
503.389	96.06
503.606	117.06
503.823	98.06
504.04	93.06
504.256	104.06
504.473	83.06
504.69	91.06
504.907	88.06
505.123	100.06
505.34	98.06
505.557	94.06
505.773	95.06
505.99	88.06
506.207	91.06
506.423	82.06
506.64	75.06
506.856	99.06
507.073	88.06
507.289	85.06
507.506	98.06
507.722	98.06
507.939	101.06
508.155	91.06
508.372	95.06
508.588	89.06
508.805	97.06
509.021	103.06
509.238	99.06
509.454	89.06
509.67	101.06
509.887	113.06
510.103	131.06
510.319	208.06
510.536	749.06
510.752	2448.06
510.968	661.06
511.184	153.06
511.401	115.06
511.617	95.06
511.833	91.06
512.049	84.06
512.265	98.06
512.481	92.06
512.698	107.06
512.914	91.06
513.13	96.06
513.346	86.06
513.562	93.06
513.778	89.06
513.994	95.06
514.21	118.06
514.426	114.06
514.642	127.06
514.858	129.06
515.074	161.06
515.29	450.06
515.506	1487.06
515.721	558.06
515.937	143.06
516.153	115.06
516.369	98.06
516.585	101.06
516.801	106.06
517.016	76.06
517.232	96.06
517.448	101.06
517.664	91.06
517.879	97.06
518.095	100.06
518.311	96.06
518.527	100.06
518.742	91.06
518.958	80.06
519.173	92.06
519.389	103.06
519.605	92.06
519.82	106.06
520.036	114.06
520.251	121.06
520.467	111.06
520.682	113.06
520.898	110.06
521.113	124.06
521.329	149.06
521.544	206.06
521.76	571.06
521.975	2334.06
522.19	1439.06
522.406	293.06
522.621	128.06
522.836	114.06
523.052	92.06
523.267	98.06
523.482	96.06
523.698	109.06
523.913	114.06
524.128	104.06
524.343	80.06
524.559	92.06
524.774	86.06
524.989	104.06
525.204	108.06
525.419	92.06
525.634	90.06
525.849	84.06
526.064	88.06
526.28	88.06
526.495	93.06
526.71	85.06
526.925	80.06
527.14	93.06
527.355	86.06
527.57	94.06
527.785	99.06
527.999	91.06
528.214	93.06
528.429	82.06
528.644	92.06
528.859	100.06
529.074	87.06
529.289	122.06
529.503	195.06
529.718	99.06
529.933	76.06
530.148	88.06
530.363	96.06
530.577	99.06
530.792	87.06
531.007	96.06
531.221	100.06
531.436	84.06
531.651	100.06
531.865	94.06
532.08	83.06
532.295	107.06
532.509	93.06
532.724	99.06
532.938	94.06
533.153	111.06
533.367	92.06
533.582	97.06
533.796	79.06
534.011	87.06
534.225	84.06
534.44	87.06
534.654	99.06
534.868	93.06
535.083	89.06
535.297	109.06
535.511	89.06
535.726	106.06
535.94	88.06
536.154	90.06
536.369	88.06
536.583	94.06
536.797	98.06
537.011	95.06
537.225	95.06
537.44	87.06
537.654	78.06
537.868	82.06
538.082	85.06
538.296	95.06
538.51	92.06
538.724	82.06
538.938	107.06
539.153	96.06
539.367	104.06
539.581	100.06
539.795	109.06
540.009	100.06
540.222	96.06
540.436	92.06
540.65	81.06
540.864	102.06
541.078	98.06
541.292	92.06
541.506	94.06
541.72	92.06
541.934	101.06
542.147	91.06
542.361	82.06
542.575	84.06
542.789	89.06
543.002	86.06
543.216	84.06
543.43	101.06
543.644	102.06
543.857	88.06
544.071	82.06
544.285	89.06
544.498	89.06
544.712	91.06
544.925	100.06
545.139	84.06
545.352	90.06
545.566	87.06
545.779	103.06
545.993	90.06
546.206	103.06
546.42	102.06
546.633	79.06
546.847	77.06
547.06	91.06
547.274	101.06
547.487	84.06
547.7	77.06
547.914	90.06
548.127	86.06
548.34	96.06
548.554	94.06
548.767	107.06
548.98	84.06
549.193	95.06
549.407	97.06
549.62	100.06
549.833	93.06
550.046	84.06
550.259	84.06
550.473	81.06
550.686	81.06
550.899	85.06
551.112	96.06
551.325	87.06
551.538	80.06
551.751	84.06
551.964	81.06
552.177	95.06
552.39	96.06
552.603	94.06
552.816	96.06
553.029	82.06
553.242	81.06
553.455	108.06
553.667	97.06
553.88	102.06
554.093	91.06
554.306	89.06
554.519	87.06
554.732	97.06
554.944	98.06
555.157	89.06
555.37	93.06
555.583	80.06
555.795	100.06
556.008	96.06
556.221	91.06
556.433	91.06
556.646	86.06
556.859	90.06
557.071	107.06
557.284	93.06
557.496	99.06
557.709	98.06
557.921	87.06
558.134	103.06
558.346	97.06
558.559	96.06
558.771	91.06
558.984	81.06
559.196	85.06
559.409	85.06
559.621	89.06
559.833	77.06
560.046	91.06
560.258	85.06
560.47	86.06
560.683	100.06
560.895	89.06
561.107	87.06
561.32	88.06
561.532	89.06
561.744	88.06
561.956	85.06
562.168	98.06
562.381	95.06
562.593	85.06
562.805	87.06
563.017	93.06
563.229	88.06
563.441	80.06
563.653	95.06
563.865	88.06
564.077	107.06
564.289	93.06
564.501	84.06
564.713	89.06
564.925	85.06
565.137	105.06
565.349	93.06
565.561	88.06
565.773	89.06
565.985	85.06
566.197	85.06
566.408	84.06
566.62	83.06
566.832	92.06
567.044	89.06
567.255	95.06
567.467	70.06
567.679	92.06
567.891	90.06
568.102	82.06
568.314	93.06
568.526	101.06
568.737	98.06
568.949	96.06
569.161	87.06
569.372	88.06
569.584	103.06
569.795	97.06
570.007	112.06
570.218	252.06
570.43	141.06
570.641	89.06
570.853	84.06
571.064	94.06
571.276	92.06
571.487	94.06
571.698	89.06
571.91	88.06
572.121	79.06
572.333	80.06
572.544	81.06
572.755	83.06
572.966	89.06
573.178	93.06
573.389	94.06
573.6	78.06
573.811	84.06
574.023	90.06
574.234	88.06
574.445	84.06
574.656	89.06
574.867	89.06
575.078	91.06
575.289	85.06
575.501	93.06
575.712	91.06
575.923	88.06
576.134	89.06
576.345	76.06
576.556	92.06
576.767	85.06
576.978	93.06
577.188	92.06
577.399	93.06
577.61	98.06
577.821	85.06
578.032	121.06
578.243	287.06
578.454	811.06
578.665	222.06
578.875	105.06
579.086	84.06
579.297	90.06
579.508	94.06
579.718	91.06
579.929	88.06
580.14	98.06
580.35	87.06
580.561	90.06
580.772	84.06
580.982	100.06
581.193	84.06
581.403	92.06
581.614	88.06
581.825	85.06
582.035	103.06
582.246	94.06
582.456	97.06
582.667	106.06
582.877	93.06
583.087	91.06
583.298	98.06
583.508	90.06
583.719	76.06
583.929	95.06
584.139	81.06
584.35	92.06
584.56	94.06
584.77	92.06
584.981	93.06
585.191	82.06
585.401	77.06
585.611	91.06
585.821	81.06
586.032	88.06
586.242	87.06
586.452	81.06
586.662	83.06
586.872	75.06
587.082	76.06
587.292	81.06
587.502	82.06
587.713	90.06
587.923	90.06
588.133	85.06
588.343	82.06
588.553	90.06
588.762	89.06
588.972	81.06
589.182	100.06
589.392	100.06
589.602	91.06
589.812	88.06
590.022	99.06
590.232	92.06
590.441	94.06
590.651	89.06
590.861	94.06
591.071	95.06
591.281	94.06
591.49	100.06
591.7	90.06
591.91	95.06
592.119	82.06
592.329	98.06
592.539	90.06
592.748	94.06
592.958	83.06
593.167	92.06
593.377	101.06
593.587	83.06
593.796	94.06
594.006	90.06
594.215	98.06
594.424	84.06
594.634	98.06
594.843	82.06
595.053	79.06
595.262	105.06
595.472	88.06
595.681	87.06
595.89	79.06
596.1	98.06
596.309	86.06
596.518	74.06
596.727	88.06
596.937	86.06
597.146	89.06
597.355	90.06
597.564	75.06
597.774	99.06
597.983	93.06
598.192	96.06
598.401	77.06
598.61	101.06
598.819	95.06
599.028	78.06
599.237	90.06
599.446	88.06
599.655	88.06
599.864	96.06
600.073	97.06
600.282	91.06
600.491	74.06
600.7	83.06
600.909	82.06
601.118	95.06
601.327	103.06
601.536	86.06
601.745	91.06
601.953	77.06
602.162	97.06
602.371	89.06
602.58	78.06
602.789	85.06
602.997	79.06
603.206	89.06
603.415	89.06
603.623	78.06
603.832	73.06
604.041	83.06
604.249	83.06
604.458	92.06
604.666	95.06
604.875	92.06
605.084	96.06
605.292	91.06
605.501	95.06
605.709	83.06
605.918	81.06
606.126	103.06
606.334	82.06
606.543	79.06
606.751	101.06
606.96	85.06
607.168	100.06
607.376	102.06
607.585	95.06
607.793	103.06
608.001	86.06
608.21	68.06
608.418	81.06
608.626	90.06
608.834	92.06
609.043	98.06
609.251	91.06
609.459	91.06
609.667	90.06
609.875	82.06
610.083	91.06
610.291	90.06
610.499	84.06
610.707	73.06
610.916	88.06
611.124	89.06
611.332	73.06
611.54	87.06
611.748	85.06
611.955	83.06
612.163	89.06
612.371	79.06
612.579	83.06
612.787	84.06
612.995	76.06
613.203	86.06
613.411	80.06
613.618	75.06
613.826	91.06
614.034	97.06
614.242	85.06
614.449	71.06
614.657	75.06
614.865	85.06
615.072	91.06
615.28	83.06
615.488	81.06
615.695	92.06
615.903	113.06
616.111	93.06
616.318	111.06
616.526	94.06
616.733	98.06
616.941	97.06
617.148	90.06
617.356	77.06
617.563	100.06
617.771	89.06
617.978	94.06
618.185	91.06
618.393	80.06
618.6	71.06
618.807	82.06
619.015	89.06
619.222	76.06
619.429	80.06
619.637	87.06
619.844	84.06
620.051	85.06
620.258	87.06
620.466	94.06
620.673	95.06
620.88	87.06
621.087	103.06
621.294	97.06
621.501	85.06
621.708	93.06
621.915	93.06
622.122	79.06
622.329	77.06
622.536	81.06
622.743	64.06
622.95	92.06
623.157	86.06
623.364	94.06
623.571	84.06
623.778	90.06
623.985	98.06
624.192	83.06
624.399	79.06
624.606	69.06
624.812	80.06
625.019	94.06
625.226	88.06
625.433	98.06
625.639	80.06
625.846	87.06
626.053	69.06
626.259	81.06
626.466	84.06
626.673	97.06
626.879	89.06
627.086	97.06
627.293	96.06
627.499	88.06
627.706	76.06
627.912	79.06
628.119	92.06
628.325	84.06
628.532	85.06
628.738	90.06
628.945	86.06
629.151	107.06
629.357	76.06
629.564	79.06
629.77	77.06
629.976	84.06
630.183	77.06
630.389	86.06
630.595	96.06
630.802	95.06
631.008	89.06
631.214	88.06
631.42	99.06
631.627	86.06
631.833	84.06
632.039	86.06
632.245	83.06
632.451	76.06
632.657	100.06
632.863	81.06
633.069	84.06
633.275	85.06
633.481	84.06
633.688	95.06
633.893	103.06
634.099	77.06
634.305	83.06
634.511	94.06
634.717	91.06
634.923	90.06
635.129	86.06
635.335	85.06
635.541	87.06
635.747	84.06
635.952	79.06
636.158	78.06
636.364	93.06
636.57	83.06
636.775	95.06
636.981	79.06
637.187	92.06
637.392	89.06
637.598	81.06
637.804	88.06
638.009	88.06
638.215	74.06
638.421	81.06
638.626	79.06
638.832	98.06
639.037	90.06
639.243	80.06
639.448	90.06
639.654	88.06
639.859	92.06
640.065	95.06
640.27	77.06
640.475	80.06
640.681	86.06
640.886	84.06
641.091	80.06
641.297	97.06
641.502	90.06
641.707	85.06
641.913	97.06
642.118	84.06
642.323	95.06
642.528	98.06
642.733	76.06
642.939	84.06
643.144	95.06
643.349	83.06
643.554	99.06
643.759	85.06
643.964	88.06
644.169	88.06
644.374	70.06
644.579	99.06
644.784	74.06
644.989	72.06
645.194	81.06
645.399	93.06
645.604	99.06
645.809	99.06
646.014	81.06
646.219	84.06
646.423	93.06
646.628	81.06
646.833	81.06
647.038	90.06
647.243	87.06
647.447	86.06
647.652	84.06
647.857	96.06
648.062	90.06
648.266	93.06
648.471	93.06
648.676	92.06
648.88	81.06
649.085	96.06
649.289	84.06
649.494	100.06
649.698	138.06
649.903	99.06
650.107	98.06
650.312	90.06
650.516	95.06
650.721	75.06
650.925	85.06
651.13	92.06
651.334	83.06
651.539	85.06
651.743	89.06
651.947	87.06
652.152	88.06
652.356	89.06
652.56	88.06
652.764	91.06
652.969	92.06
653.173	86.06
653.377	104.06
653.581	88.06
653.785	96.06
653.99	90.06
654.194	86.06
654.398	90.06
654.602	89.06
654.806	84.06
655.01	86.06
655.214	87.06
655.418	82.06
655.622	85.06
655.826	100.06
656.03	90.06
656.234	78.06
656.438	92.06
656.642	94.06
656.846	94.06
657.049	96.06
657.253	83.06
657.457	72.06
657.661	85.06
657.865	79.06
658.068	78.06
658.272	74.06
658.476	80.06
658.68	87.06
658.883	90.06
659.087	82.06
659.291	91.06
659.494	78.06
659.698	84.06
659.901	83.06
660.105	80.06
660.309	79.06
660.512	89.06
660.716	86.06
660.919	83.06
661.123	86.06
661.326	80.06
661.53	76.06
661.733	85.06
661.936	91.06
662.14	79.06
662.343	83.06
662.546	74.06
662.75	84.06
662.953	76.06
663.156	85.06
663.36	92.06
663.563	86.06
663.766	90.06
663.969	88.06
664.173	83.06
664.376	72.06
664.579	72.06
664.782	79.06
664.985	67.06
665.188	87.06
665.391	89.06
665.594	84.06
665.797	75.06
666	79.06
666.203	73.06
666.406	79.06
666.609	77.06
666.812	85.06
667.015	89.06
667.218	101.06
667.421	82.06
667.624	91.06
667.827	95.06
668.03	70.06
668.232	75.06
668.435	91.06
668.638	80.06
668.841	87.06
669.043	76.06
669.246	96.06
669.449	95.06
669.651	81.06
669.854	80.06
670.057	80.06
670.259	73.06
670.462	73.06
670.665	87.06
670.867	89.06
671.07	82.06
671.272	86.06
671.475	81.06
671.677	92.06
671.88	79.06
672.082	87.06
672.284	88.06
672.487	82.06
672.689	80.06
672.892	97.06
