Data from Uncirc_2008_H10_HRD10591_00044.txt Node
Date: Wed Jan 03 10:15:39 EST 2024
User: Yrep
Spectrometer: HR+D1059
Trigger mode: 1
Integration Time (sec): 1.000000E-1
Scans to average: 1
Electric dark correction enabled: true
Nonlinearity correction enabled: false
Boxcar width: 0
XAxis mode: Wavelengths
Number of Pixels in Spectrum: 2048
>>>>>Begin Spectral Data<<<<<
223.165	-31.94
223.4	-31.94
223.635	-31.94
223.869	-15.94
224.104	-10.94
224.338	-13.94
224.573	-17.94
224.808	-20.94
225.042	-20.94
225.277	-0.94
225.511	-6.94
225.746	1.06
225.98	11.06
226.215	5.06
226.449	25.06
226.683	44.06
226.918	21.06
227.152	33.06
227.387	36.06
227.621	33.06
227.856	46.06
228.09	35.06
228.324	67.06
228.559	57.06
228.793	60.06
229.027	47.06
229.262	57.06
229.496	69.06
229.73	66.06
229.964	77.06
230.199	80.06
230.433	73.06
230.667	76.06
230.901	91.06
231.136	72.06
231.37	67.06
231.604	78.06
231.838	61.06
232.072	75.06
232.306	101.06
232.541	73.06
232.775	89.06
233.009	94.06
233.243	85.06
233.477	70.06
233.711	82.06
233.945	76.06
234.179	78.06
234.413	90.06
234.647	83.06
234.881	78.06
235.115	81.06
235.349	73.06
235.583	73.06
235.817	76.06
236.051	70.06
236.285	80.06
236.519	79.06
236.753	85.06
236.987	83.06
237.221	75.06
237.455	71.06
237.689	62.06
237.922	62.06
238.156	79.06
238.39	87.06
238.624	73.06
238.858	80.06
239.091	64.06
239.325	78.06
239.559	91.06
239.793	79.06
240.027	81.06
240.26	81.06
240.494	78.06
240.728	86.06
240.961	74.06
241.195	72.06
241.429	70.06
241.662	76.06
241.896	75.06
242.13	76.06
242.363	94.06
242.597	86.06
242.83	79.06
243.064	67.06
243.298	75.06
243.531	82.06
243.765	89.06
243.998	63.06
244.232	84.06
244.465	88.06
244.699	80.06
244.932	78.06
245.166	89.06
245.399	75.06
245.633	71.06
245.866	91.06
246.099	79.06
246.333	83.06
246.566	65.06
246.8	71.06
247.033	68.06
247.266	92.06
247.5	71.06
247.733	75.06
247.966	79.06
248.2	73.06
248.433	90.06
248.666	88.06
248.899	88.06
249.133	90.06
249.366	97.06
249.599	98.06
249.832	73.06
250.066	75.06
250.299	78.06
250.532	77.06
250.765	78.06
250.998	92.06
251.231	80.06
251.465	88.06
251.698	83.06
251.931	72.06
252.164	74.06
252.397	73.06
252.63	91.06
252.863	71.06
253.096	70.06
253.329	78.06
253.562	68.06
253.795	90.06
254.028	69.06
254.261	81.06
254.494	81.06
254.727	91.06
254.96	81.06
255.193	89.06
255.426	81.06
255.659	102.06
255.892	91.06
256.124	75.06
256.357	79.06
256.59	80.06
256.823	77.06
257.056	86.06
257.289	83.06
257.521	74.06
257.754	80.06
257.987	75.06
258.22	89.06
258.452	70.06
258.685	71.06
258.918	60.06
259.151	81.06
259.383	79.06
259.616	73.06
259.849	94.06
260.081	79.06
260.314	82.06
260.547	83.06
260.779	83.06
261.012	76.06
261.244	74.06
261.477	90.06
261.71	85.06
261.942	94.06
262.175	113.06
262.407	84.06
262.64	82.06
262.872	87.06
263.105	79.06
263.337	80.06
263.57	93.06
263.802	82.06
264.035	84.06
264.267	85.06
264.499	82.06
264.732	90.06
264.964	85.06
265.197	71.06
265.429	89.06
265.661	92.06
265.894	75.06
266.126	78.06
266.358	81.06
266.591	80.06
266.823	84.06
267.055	85.06
267.287	80.06
267.52	71.06
267.752	67.06
267.984	82.06
268.216	88.06
268.448	83.06
268.681	90.06
268.913	80.06
269.145	73.06
269.377	85.06
269.609	84.06
269.841	79.06
270.073	90.06
270.306	95.06
270.538	84.06
270.77	80.06
271.002	89.06
271.234	79.06
271.466	89.06
271.698	85.06
271.93	80.06
272.162	102.06
272.394	90.06
272.626	74.06
272.858	61.06
273.09	83.06
273.322	80.06
273.553	82.06
273.785	84.06
274.017	74.06
274.249	89.06
274.481	70.06
274.713	95.06
274.945	79.06
275.176	78.06
275.408	81.06
275.64	89.06
275.872	78.06
276.104	81.06
276.335	82.06
276.567	96.06
276.799	107.06
277.031	81.06
277.262	87.06
277.494	89.06
277.726	109.06
277.957	89.06
278.189	80.06
278.421	94.06
278.652	97.06
278.884	74.06
279.115	75.06
279.347	80.06
279.579	89.06
279.81	88.06
280.042	76.06
280.273	86.06
280.505	94.06
280.736	87.06
280.968	96.06
281.199	82.06
281.431	96.06
281.662	97.06
281.894	79.06
282.125	97.06
282.356	102.06
282.588	117.06
282.819	105.06
283.051	85.06
283.282	98.06
283.513	83.06
283.745	80.06
283.976	71.06
284.207	87.06
284.439	92.06
284.67	91.06
284.901	87.06
285.132	95.06
285.364	77.06
285.595	92.06
285.826	78.06
286.057	97.06
286.288	99.06
286.52	94.06
286.751	77.06
286.982	75.06
287.213	94.06
287.444	97.06
287.675	90.06
287.906	77.06
288.138	78.06
288.369	86.06
288.6	106.06
288.831	83.06
289.062	91.06
289.293	79.06
289.524	83.06
289.755	82.06
289.986	90.06
290.217	86.06
290.448	85.06
290.679	93.06
290.91	99.06
291.141	98.06
291.371	97.06
291.602	76.06
291.833	109.06
292.064	84.06
292.295	75.06
292.526	72.06
292.757	79.06
292.987	86.06
293.218	93.06
293.449	76.06
293.68	77.06
293.91	96.06
294.141	93.06
294.372	81.06
294.603	95.06
294.833	82.06
295.064	88.06
295.295	91.06
295.525	87.06
295.756	97.06
295.987	94.06
296.217	119.06
296.448	118.06
296.679	83.06
296.909	84.06
297.14	82.06
297.37	109.06
297.601	87.06
297.831	92.06
298.062	79.06
298.292	92.06
298.523	75.06
298.753	80.06
298.984	96.06
299.214	88.06
299.445	90.06
299.675	85.06
299.905	85.06
300.136	87.06
300.366	75.06
300.597	97.06
300.827	101.06
301.057	83.06
301.288	105.06
301.518	91.06
301.748	94.06
301.979	97.06
302.209	78.06
302.439	107.06
302.669	90.06
302.9	78.06
303.13	80.06
303.36	83.06
303.59	86.06
303.82	87.06
304.051	85.06
304.281	80.06
304.511	95.06
304.741	88.06
304.971	90.06
305.201	94.06
305.431	93.06
305.661	96.06
305.891	85.06
306.121	102.06
306.352	99.06
306.582	106.06
306.812	89.06
307.042	94.06
307.272	99.06
307.502	79.06
307.731	100.06
307.961	93.06
308.191	83.06
308.421	108.06
308.651	112.06
308.881	92.06
309.111	95.06
309.341	91.06
309.571	84.06
309.8	95.06
310.03	76.06
310.26	94.06
310.49	93.06
310.72	90.06
310.949	102.06
311.179	83.06
311.409	89.06
311.639	93.06
311.868	93.06
312.098	90.06
312.328	85.06
312.557	95.06
312.787	104.06
313.017	117.06
313.246	95.06
313.476	92.06
313.706	90.06
313.935	91.06
314.165	77.06
314.394	97.06
314.624	91.06
314.853	99.06
315.083	84.06
315.312	91.06
315.542	92.06
315.771	94.06
316.001	84.06
316.23	90.06
316.46	96.06
316.689	84.06
316.919	81.06
317.148	86.06
317.377	86.06
317.607	77.06
317.836	91.06
318.065	91.06
318.295	89.06
318.524	93.06
318.753	92.06
318.983	94.06
319.212	90.06
319.441	97.06
319.67	110.06
319.9	89.06
320.129	89.06
320.358	90.06
320.587	102.06
320.816	105.06
321.046	113.06
321.275	101.06
321.504	104.06
321.733	106.06
321.962	85.06
322.191	106.06
322.42	117.06
322.649	103.06
322.878	99.06
323.108	115.06
323.337	119.06
323.566	129.06
323.795	155.06
324.024	186.06
324.253	345.06
324.482	735.06
324.71	1509.06
324.939	1923.06
325.168	708.06
325.397	222.06
325.626	140.06
325.855	131.06
326.084	122.06
326.313	134.06
326.542	154.06
326.77	214.06
326.999	411.06
327.228	827.06
327.457	1514.06
327.686	1181.06
327.914	322.06
328.143	165.06
328.372	121.06
328.6	111.06
328.829	107.06
329.058	109.06
329.287	105.06
329.515	111.06
329.744	108.06
329.972	103.06
330.201	86.06
330.43	108.06
330.658	115.06
330.887	141.06
331.115	117.06
331.344	101.06
331.572	104.06
331.801	118.06
332.03	109.06
332.258	104.06
332.486	90.06
332.715	95.06
332.943	94.06
333.172	86.06
333.4	91.06
333.629	90.06
333.857	96.06
334.085	99.06
334.314	98.06
334.542	90.06
334.771	91.06
334.999	104.06
335.227	83.06
335.455	92.06
335.684	99.06
335.912	91.06
336.14	98.06
336.369	92.06
336.597	90.06
336.825	88.06
337.053	93.06
337.281	108.06
337.51	86.06
337.738	83.06
337.966	98.06
338.194	88.06
338.422	93.06
338.65	83.06
338.878	82.06
339.106	93.06
339.334	91.06
339.562	83.06
339.79	91.06
340.018	79.06
340.246	93.06
340.474	89.06
340.702	92.06
340.93	98.06
341.158	84.06
341.386	88.06
341.614	102.06
341.842	99.06
342.07	78.06
342.298	93.06
342.526	73.06
342.754	89.06
342.981	91.06
343.209	82.06
343.437	96.06
343.665	98.06
343.893	81.06
344.12	95.06
344.348	88.06
344.576	81.06
344.804	86.06
345.031	95.06
345.259	87.06
345.487	96.06
345.714	90.06
345.942	103.06
346.17	97.06
346.397	98.06
346.625	103.06
346.853	95.06
347.08	81.06
347.308	91.06
347.535	80.06
347.763	110.06
347.99	88.06
348.218	99.06
348.445	91.06
348.673	100.06
348.9	83.06
349.128	89.06
349.355	92.06
349.583	94.06
349.81	87.06
350.037	100.06
350.265	81.06
350.492	98.06
350.72	92.06
350.947	95.06
351.174	105.06
351.402	108.06
351.629	99.06
351.856	106.06
352.083	94.06
352.311	93.06
352.538	102.06
352.765	103.06
352.992	117.06
353.22	104.06
353.447	108.06
353.674	102.06
353.901	89.06
354.128	98.06
354.355	93.06
354.583	101.06
354.81	108.06
355.037	81.06
355.264	96.06
355.491	113.06
355.718	92.06
355.945	99.06
356.172	99.06
356.399	89.06
356.626	87.06
356.853	94.06
357.08	87.06
357.307	71.06
357.534	79.06
357.761	90.06
357.988	104.06
358.215	104.06
358.441	83.06
358.668	94.06
358.895	93.06
359.122	99.06
359.349	93.06
359.576	86.06
359.802	82.06
360.029	112.06
360.256	101.06
360.483	85.06
360.709	85.06
360.936	94.06
361.163	85.06
361.39	88.06
361.616	101.06
361.843	94.06
362.07	78.06
362.296	77.06
362.523	89.06
362.749	81.06
362.976	94.06
363.203	93.06
363.429	91.06
363.656	82.06
363.882	69.06
364.109	84.06
364.335	94.06
364.562	96.06
364.788	74.06
365.015	104.06
365.241	99.06
365.468	102.06
365.694	104.06
365.92	107.06
366.147	102.06
366.373	97.06
366.599	95.06
366.826	105.06
367.052	78.06
367.278	97.06
367.505	103.06
367.731	93.06
367.957	90.06
368.184	88.06
368.41	82.06
368.636	97.06
368.862	107.06
369.089	104.06
369.315	98.06
369.541	101.06
369.767	97.06
369.993	90.06
370.219	81.06
370.445	69.06
370.672	72.06
370.898	96.06
371.124	73.06
371.35	75.06
371.576	77.06
371.802	78.06
372.028	68.06
372.254	91.06
372.48	74.06
372.706	101.06
372.932	95.06
373.158	90.06
373.384	90.06
373.61	87.06
373.835	90.06
374.061	90.06
374.287	97.06
374.513	86.06
374.739	82.06
374.965	80.06
375.191	91.06
375.416	91.06
375.642	90.06
375.868	90.06
376.094	87.06
376.319	93.06
376.545	81.06
376.771	88.06
376.997	85.06
377.222	88.06
377.448	83.06
377.674	81.06
377.899	91.06
378.125	93.06
378.35	85.06
378.576	87.06
378.802	87.06
379.027	93.06
379.253	100.06
379.478	81.06
379.704	90.06
379.929	89.06
380.155	83.06
380.38	99.06
380.606	90.06
380.831	79.06
381.057	90.06
381.282	86.06
381.507	94.06
381.733	106.06
381.958	94.06
382.184	92.06
382.409	90.06
382.634	96.06
382.86	104.06
383.085	121.06
383.31	110.06
383.535	91.06
383.761	107.06
383.986	98.06
384.211	89.06
384.436	115.06
384.662	101.06
384.887	114.06
385.112	108.06
385.337	114.06
385.562	107.06
385.787	107.06
386.013	94.06
386.238	103.06
386.463	108.06
386.688	120.06
386.913	95.06
387.138	94.06
387.363	82.06
387.588	99.06
387.813	104.06
388.038	118.06
388.263	79.06
388.488	102.06
388.713	92.06
388.938	94.06
389.163	92.06
389.387	104.06
389.612	93.06
389.837	98.06
390.062	79.06
390.287	83.06
390.512	98.06
390.736	89.06
390.961	90.06
391.186	101.06
391.411	87.06
391.636	79.06
391.86	99.06
392.085	84.06
392.31	94.06
392.534	92.06
392.759	97.06
392.984	85.06
393.208	80.06
393.433	79.06
393.658	92.06
393.882	75.06
394.107	97.06
394.331	74.06
394.556	92.06
394.78	94.06
395.005	83.06
395.229	79.06
395.454	74.06
395.678	86.06
395.903	80.06
396.127	93.06
396.352	88.06
396.576	87.06
396.801	94.06
397.025	94.06
397.249	90.06
397.474	98.06
397.698	90.06
397.922	78.06
398.147	90.06
398.371	68.06
398.595	84.06
398.82	86.06
399.044	83.06
399.268	83.06
399.492	76.06
399.717	94.06
399.941	80.06
400.165	102.06
400.389	93.06
400.613	87.06
400.837	88.06
401.062	93.06
401.286	84.06
401.51	84.06
401.734	85.06
401.958	103.06
402.182	117.06
402.406	153.06
402.63	104.06
402.854	97.06
403.078	85.06
403.302	101.06
403.526	81.06
403.75	95.06
403.974	91.06
404.198	86.06
404.422	82.06
404.645	75.06
404.869	91.06
405.093	90.06
405.317	83.06
405.541	97.06
405.765	93.06
405.988	101.06
406.212	146.06
406.436	192.06
406.66	141.06
406.883	101.06
407.107	94.06
407.331	90.06
407.555	87.06
407.778	91.06
408.002	87.06
408.226	80.06
408.449	91.06
408.673	82.06
408.896	92.06
409.12	98.06
409.344	82.06
409.567	83.06
409.791	91.06
410.014	97.06
410.238	92.06
410.461	86.06
410.685	92.06
410.908	92.06
411.132	97.06
411.355	110.06
411.578	90.06
411.802	78.06
412.025	82.06
412.249	83.06
412.472	82.06
412.695	86.06
412.919	92.06
413.142	86.06
413.365	93.06
413.589	85.06
413.812	88.06
414.035	77.06
414.258	86.06
414.482	81.06
414.705	93.06
414.928	91.06
415.151	101.06
415.374	96.06
415.597	92.06
415.821	90.06
416.044	90.06
416.267	92.06
416.49	78.06
416.713	86.06
416.936	85.06
417.159	91.06
417.382	93.06
417.605	99.06
417.828	81.06
418.051	91.06
418.274	90.06
418.497	102.06
418.72	98.06
418.943	77.06
419.166	86.06
419.389	75.06
419.611	74.06
419.834	92.06
420.057	80.06
420.28	93.06
420.503	92.06
420.726	81.06
420.948	83.06
421.171	83.06
421.394	93.06
421.617	87.06
421.839	89.06
422.062	101.06
422.285	89.06
422.507	101.06
422.73	97.06
422.953	85.06
423.175	91.06
423.398	78.06
423.621	99.06
423.843	80.06
424.066	81.06
424.288	87.06
424.511	94.06
424.733	91.06
424.956	106.06
425.178	97.06
425.401	97.06
425.623	106.06
425.846	103.06
426.068	93.06
426.291	94.06
426.513	90.06
426.735	99.06
426.958	94.06
427.18	112.06
427.402	123.06
427.625	163.06
427.847	126.06
428.069	93.06
428.292	77.06
428.514	80.06
428.736	95.06
428.958	75.06
429.181	78.06
429.403	88.06
429.625	102.06
429.847	97.06
430.069	101.06
430.292	89.06
430.514	87.06
430.736	96.06
430.958	81.06
431.18	85.06
431.402	81.06
431.624	79.06
431.846	81.06
432.068	86.06
432.29	81.06
432.512	81.06
432.734	75.06
432.956	95.06
433.178	96.06
433.4	109.06
433.622	93.06
433.844	102.06
434.066	94.06
434.287	82.06
434.509	83.06
434.731	103.06
434.953	87.06
435.175	90.06
435.397	83.06
435.618	92.06
435.84	86.06
436.062	118.06
436.284	114.06
436.505	87.06
436.727	95.06
436.949	97.06
437.17	90.06
437.392	93.06
437.614	96.06
437.835	91.06
438.057	103.06
438.278	101.06
438.5	110.06
438.721	111.06
438.943	101.06
439.165	89.06
439.386	102.06
439.608	96.06
439.829	101.06
440.05	127.06
440.272	136.06
440.493	87.06
440.715	85.06
440.936	90.06
441.158	91.06
441.379	102.06
441.6	89.06
441.822	91.06
442.043	100.06
442.264	101.06
442.486	86.06
442.707	83.06
442.928	102.06
443.149	111.06
443.371	117.06
443.592	106.06
443.813	98.06
444.034	98.06
444.255	97.06
444.476	77.06
444.698	98.06
444.919	74.06
445.14	127.06
445.361	120.06
445.582	124.06
445.803	124.06
446.024	133.06
446.245	121.06
446.466	105.06
446.687	93.06
446.908	94.06
447.129	96.06
447.35	87.06
447.571	87.06
447.792	104.06
448.013	89.06
448.234	101.06
448.455	90.06
448.675	107.06
448.896	114.06
449.117	96.06
449.338	95.06
449.559	118.06
449.779	128.06
450	89.06
450.221	96.06
450.442	90.06
450.662	98.06
450.883	112.06
451.104	97.06
451.324	80.06
451.545	81.06
451.766	90.06
451.986	87.06
452.207	75.06
452.428	94.06
452.648	90.06
452.869	113.06
453.089	117.06
453.31	109.06
453.53	86.06
453.751	81.06
453.971	110.06
454.192	113.06
454.412	97.06
454.633	78.06
454.853	81.06
455.073	80.06
455.294	87.06
455.514	98.06
455.734	92.06
455.955	89.06
456.175	87.06
456.395	78.06
456.616	81.06
456.836	94.06
457.056	76.06
457.276	75.06
457.497	77.06
457.717	84.06
457.937	97.06
458.157	75.06
458.377	85.06
458.598	102.06
458.818	128.06
459.038	121.06
459.258	94.06
459.478	87.06
459.698	79.06
459.918	91.06
460.138	93.06
460.358	94.06
460.578	78.06
460.798	88.06
461.018	92.06
461.238	83.06
461.458	85.06
461.678	73.06
461.898	83.06
462.118	81.06
462.338	77.06
462.558	94.06
462.777	76.06
462.997	83.06
463.217	79.06
463.437	96.06
463.657	95.06
463.876	86.06
464.096	93.06
464.316	96.06
464.536	81.06
464.755	78.06
464.975	112.06
465.195	133.06
465.414	136.06
465.634	106.06
465.854	84.06
466.073	81.06
466.293	96.06
466.512	89.06
466.732	82.06
466.951	86.06
467.171	88.06
467.391	80.06
467.61	95.06
467.829	93.06
468.049	88.06
468.268	96.06
468.488	86.06
468.707	83.06
468.927	87.06
469.146	91.06
469.365	81.06
469.585	94.06
469.804	104.06
470.023	94.06
470.243	76.06
470.462	91.06
470.681	117.06
470.901	85.06
471.12	92.06
471.339	91.06
471.558	96.06
471.777	91.06
471.997	98.06
472.216	102.06
472.435	93.06
472.654	77.06
472.873	93.06
473.092	75.06
473.311	85.06
473.53	87.06
473.749	98.06
473.968	87.06
474.187	86.06
474.406	97.06
474.625	84.06
474.844	105.06
475.063	89.06
475.282	87.06
475.501	82.06
475.72	84.06
475.939	82.06
476.158	89.06
476.377	76.06
476.596	78.06
476.814	81.06
477.033	80.06
477.252	86.06
477.471	91.06
477.69	78.06
477.908	73.06
478.127	90.06
478.346	93.06
478.564	78.06
478.783	79.06
479.002	85.06
479.22	90.06
479.439	86.06
479.658	93.06
479.876	99.06
480.095	101.06
480.313	89.06
480.532	83.06
480.751	91.06
480.969	86.06
481.188	97.06
481.406	100.06
481.624	101.06
481.843	79.06
482.061	89.06
482.28	94.06
482.498	87.06
482.717	87.06
482.935	91.06
483.153	98.06
483.372	88.06
483.59	80.06
483.808	88.06
484.027	93.06
484.245	101.06
484.463	103.06
484.681	87.06
484.9	92.06
485.118	82.06
485.336	81.06
485.554	105.06
485.772	108.06
485.99	93.06
486.209	103.06
486.427	89.06
486.645	103.06
486.863	108.06
487.081	102.06
487.299	105.06
487.517	85.06
487.735	89.06
487.953	95.06
488.171	103.06
488.389	95.06
488.607	98.06
488.825	88.06
489.043	101.06
489.261	83.06
489.479	84.06
489.696	96.06
489.914	96.06
490.132	95.06
490.35	95.06
490.568	86.06
490.786	82.06
491.003	86.06
491.221	99.06
491.439	92.06
491.657	96.06
491.874	93.06
492.092	91.06
492.31	94.06
492.527	82.06
492.745	90.06
492.963	80.06
493.18	98.06
493.398	93.06
493.615	72.06
493.833	77.06
494.05	106.06
494.268	89.06
494.485	90.06
494.703	98.06
494.92	104.06
495.138	97.06
495.355	100.06
495.573	76.06
495.79	90.06
496.008	106.06
496.225	83.06
496.442	84.06
496.66	91.06
496.877	82.06
497.094	112.06
497.312	95.06
497.529	92.06
497.746	112.06
497.963	88.06
498.181	91.06
498.398	96.06
498.615	88.06
498.832	110.06
499.049	103.06
499.267	93.06
499.484	89.06
499.701	85.06
499.918	90.06
500.135	89.06
500.352	84.06
500.569	78.06
500.786	90.06
501.003	83.06
501.22	74.06
501.437	83.06
501.654	86.06
501.871	112.06
502.088	105.06
502.305	106.06
502.522	107.06
502.739	76.06
502.956	95.06
503.172	88.06
503.389	103.06
503.606	90.06
503.823	99.06
504.04	102.06
504.256	99.06
504.473	79.06
504.69	91.06
504.907	94.06
505.123	86.06
505.34	80.06
505.557	81.06
505.773	81.06
505.99	92.06
506.207	99.06
506.423	90.06
506.64	96.06
506.856	88.06
507.073	81.06
507.289	87.06
507.506	88.06
507.722	87.06
507.939	102.06
508.155	101.06
508.372	82.06
508.588	88.06
508.805	86.06
509.021	90.06
509.238	102.06
509.454	103.06
509.67	102.06
509.887	111.06
510.103	119.06
510.319	202.06
510.536	703.06
510.752	2148.06
510.968	626.06
511.184	153.06
511.401	89.06
511.617	82.06
511.833	105.06
512.049	90.06
512.265	89.06
512.481	89.06
512.698	92.06
512.914	93.06
513.13	88.06
513.346	91.06
513.562	97.06
513.778	99.06
513.994	85.06
514.21	96.06
514.426	117.06
514.642	130.06
514.858	117.06
515.074	160.06
515.29	377.06
515.506	1294.06
515.721	482.06
515.937	139.06
516.153	114.06
516.369	90.06
516.585	89.06
516.801	85.06
517.016	101.06
517.232	94.06
517.448	89.06
517.664	90.06
517.879	86.06
518.095	92.06
518.311	87.06
518.527	97.06
518.742	107.06
518.958	87.06
519.173	88.06
519.389	97.06
519.605	87.06
519.82	90.06
520.036	94.06
520.251	120.06
520.467	111.06
520.682	112.06
520.898	108.06
521.113	102.06
521.329	122.06
521.544	209.06
521.76	488.06
521.975	2083.06
522.19	1298.06
522.406	281.06
522.621	124.06
522.836	95.06
523.052	93.06
523.267	102.06
523.482	82.06
523.698	94.06
523.913	110.06
524.128	103.06
524.343	93.06
524.559	87.06
524.774	87.06
524.989	81.06
525.204	105.06
525.419	86.06
525.634	102.06
525.849	94.06
526.064	101.06
526.28	88.06
526.495	78.06
526.71	96.06
526.925	83.06
527.14	80.06
527.355	89.06
527.57	83.06
527.785	80.06
527.999	90.06
528.214	87.06
528.429	82.06
528.644	87.06
528.859	101.06
529.074	94.06
529.289	123.06
529.503	173.06
529.718	111.06
529.933	93.06
530.148	97.06
530.363	108.06
530.577	89.06
530.792	86.06
531.007	85.06
531.221	92.06
531.436	91.06
531.651	89.06
531.865	90.06
532.08	76.06
532.295	94.06
532.509	98.06
532.724	102.06
532.938	102.06
533.153	113.06
533.367	84.06
533.582	99.06
533.796	93.06
534.011	77.06
534.225	96.06
534.44	88.06
534.654	84.06
534.868	81.06
535.083	101.06
535.297	89.06
535.511	97.06
535.726	92.06
535.94	93.06
536.154	96.06
536.369	111.06
536.583	86.06
536.797	90.06
537.011	106.06
537.225	81.06
537.44	101.06
537.654	109.06
537.868	87.06
538.082	100.06
538.296	95.06
538.51	104.06
538.724	79.06
538.938	104.06
539.153	99.06
539.367	106.06
539.581	92.06
539.795	96.06
540.009	82.06
540.222	102.06
540.436	94.06
540.65	79.06
540.864	90.06
541.078	90.06
541.292	93.06
541.506	84.06
541.72	80.06
541.934	97.06
542.147	102.06
542.361	87.06
542.575	93.06
542.789	100.06
543.002	82.06
543.216	83.06
543.43	98.06
543.644	89.06
543.857	95.06
544.071	90.06
544.285	93.06
544.498	90.06
544.712	88.06
544.925	93.06
545.139	89.06
545.352	98.06
545.566	93.06
545.779	92.06
545.993	87.06
546.206	87.06
546.42	96.06
546.633	85.06
546.847	85.06
547.06	93.06
547.274	99.06
547.487	78.06
547.7	73.06
547.914	101.06
548.127	85.06
548.34	81.06
548.554	85.06
548.767	82.06
548.98	77.06
549.193	93.06
549.407	99.06
549.62	82.06
549.833	85.06
550.046	86.06
550.259	94.06
550.473	108.06
550.686	91.06
550.899	82.06
551.112	96.06
551.325	85.06
551.538	82.06
551.751	90.06
551.964	86.06
552.177	79.06
552.39	75.06
552.603	92.06
552.816	99.06
553.029	82.06
553.242	96.06
553.455	91.06
553.667	95.06
553.88	92.06
554.093	95.06
554.306	82.06
554.519	85.06
554.732	81.06
554.944	78.06
555.157	90.06
555.37	95.06
555.583	100.06
555.795	98.06
556.008	89.06
556.221	86.06
556.433	95.06
556.646	90.06
556.859	89.06
557.071	85.06
557.284	96.06
557.496	98.06
557.709	82.06
557.921	103.06
558.134	96.06
558.346	87.06
558.559	97.06
558.771	94.06
558.984	83.06
559.196	87.06
559.409	86.06
559.621	92.06
559.833	84.06
560.046	97.06
560.258	97.06
560.47	98.06
560.683	95.06
560.895	76.06
561.107	85.06
561.32	81.06
561.532	84.06
561.744	83.06
561.956	93.06
562.168	87.06
562.381	83.06
562.593	88.06
562.805	102.06
563.017	75.06
563.229	97.06
563.441	83.06
563.653	88.06
563.865	93.06
564.077	88.06
564.289	87.06
564.501	94.06
564.713	87.06
564.925	97.06
565.137	86.06
565.349	96.06
565.561	83.06
565.773	80.06
565.985	94.06
566.197	93.06
566.408	88.06
566.62	83.06
566.832	79.06
567.044	84.06
567.255	80.06
567.467	92.06
567.679	101.06
567.891	75.06
568.102	82.06
568.314	94.06
568.526	92.06
568.737	87.06
568.949	82.06
569.161	80.06
569.372	89.06
569.584	85.06
569.795	98.06
570.007	112.06
570.218	221.06
570.43	142.06
570.641	102.06
570.853	90.06
571.064	87.06
571.276	93.06
571.487	88.06
571.698	87.06
571.91	108.06
572.121	68.06
572.333	86.06
572.544	82.06
572.755	98.06
572.966	90.06
573.178	93.06
573.389	92.06
573.6	84.06
573.811	88.06
574.023	89.06
574.234	99.06
574.445	80.06
574.656	78.06
574.867	78.06
575.078	78.06
575.289	81.06
575.501	78.06
575.712	87.06
575.923	98.06
576.134	100.06
576.345	90.06
576.556	77.06
576.767	84.06
576.978	89.06
577.188	85.06
577.399	87.06
577.61	93.06
577.821	87.06
578.032	113.06
578.243	266.06
578.454	707.06
578.665	210.06
578.875	106.06
579.086	120.06
579.297	82.06
579.508	101.06
579.718	99.06
579.929	89.06
580.14	88.06
580.35	91.06
580.561	85.06
580.772	89.06
580.982	79.06
581.193	88.06
581.403	89.06
581.614	86.06
581.825	79.06
582.035	91.06
582.246	75.06
582.456	80.06
582.667	78.06
582.877	90.06
583.087	82.06
583.298	82.06
583.508	73.06
583.719	77.06
583.929	93.06
584.139	101.06
584.35	89.06
584.56	95.06
584.77	71.06
584.981	86.06
585.191	79.06
585.401	94.06
585.611	101.06
585.821	75.06
586.032	84.06
586.242	82.06
586.452	93.06
586.662	102.06
586.872	87.06
587.082	64.06
587.292	73.06
587.502	92.06
587.713	91.06
587.923	83.06
588.133	83.06
588.343	94.06
588.553	78.06
588.762	95.06
588.972	79.06
589.182	90.06
589.392	84.06
589.602	93.06
589.812	95.06
590.022	79.06
590.232	78.06
590.441	87.06
590.651	98.06
590.861	89.06
591.071	95.06
591.281	101.06
591.49	87.06
591.7	96.06
591.91	85.06
592.119	76.06
592.329	83.06
592.539	78.06
592.748	98.06
592.958	77.06
593.167	96.06
593.377	80.06
593.587	88.06
593.796	70.06
594.006	92.06
594.215	96.06
594.424	81.06
594.634	91.06
594.843	79.06
595.053	90.06
595.262	83.06
595.472	87.06
595.681	86.06
595.89	88.06
596.1	79.06
596.309	98.06
596.518	77.06
596.727	82.06
596.937	67.06
597.146	94.06
597.355	96.06
597.564	63.06
597.774	86.06
597.983	94.06
598.192	96.06
598.401	81.06
598.61	91.06
598.819	87.06
599.028	90.06
599.237	77.06
599.446	82.06
599.655	77.06
599.864	87.06
600.073	80.06
600.282	104.06
600.491	78.06
600.7	90.06
600.909	75.06
601.118	88.06
601.327	86.06
601.536	94.06
601.745	89.06
601.953	83.06
602.162	86.06
602.371	89.06
602.58	102.06
602.789	101.06
602.997	91.06
603.206	82.06
603.415	82.06
603.623	81.06
603.832	88.06
604.041	85.06
604.249	82.06
604.458	87.06
604.666	93.06
604.875	90.06
605.084	84.06
605.292	79.06
605.501	89.06
605.709	98.06
605.918	89.06
606.126	89.06
606.334	96.06
606.543	82.06
606.751	107.06
606.96	78.06
607.168	100.06
607.376	79.06
607.585	80.06
607.793	65.06
608.001	71.06
608.21	76.06
608.418	88.06
608.626	78.06
608.834	87.06
609.043	86.06
609.251	91.06
609.459	85.06
609.667	86.06
609.875	85.06
610.083	107.06
610.291	83.06
610.499	80.06
610.707	75.06
610.916	88.06
611.124	98.06
611.332	82.06
611.54	86.06
611.748	96.06
611.955	94.06
612.163	83.06
612.371	79.06
612.579	84.06
612.787	86.06
612.995	80.06
613.203	79.06
613.411	87.06
613.618	96.06
613.826	82.06
614.034	88.06
614.242	74.06
614.449	93.06
614.657	94.06
614.865	75.06
615.072	94.06
615.28	82.06
615.488	69.06
615.695	82.06
615.903	95.06
616.111	96.06
616.318	107.06
616.526	93.06
616.733	97.06
616.941	77.06
617.148	90.06
617.356	86.06
617.563	94.06
617.771	84.06
617.978	87.06
618.185	82.06
618.393	90.06
618.6	97.06
618.807	80.06
619.015	94.06
619.222	86.06
619.429	86.06
619.637	76.06
619.844	92.06
620.051	81.06
620.258	82.06
620.466	73.06
620.673	80.06
620.88	83.06
621.087	90.06
621.294	81.06
621.501	90.06
621.708	87.06
621.915	77.06
622.122	80.06
622.329	86.06
622.536	78.06
622.743	87.06
622.95	83.06
623.157	80.06
623.364	80.06
623.571	89.06
623.778	71.06
623.985	102.06
624.192	86.06
624.399	84.06
624.606	87.06
624.812	79.06
625.019	77.06
625.226	93.06
625.433	73.06
625.639	78.06
625.846	77.06
626.053	70.06
626.259	91.06
626.466	83.06
626.673	73.06
626.879	77.06
627.086	89.06
627.293	99.06
627.499	88.06
627.706	81.06
627.912	88.06
628.119	83.06
628.325	87.06
628.532	93.06
628.738	85.06
628.945	83.06
629.151	77.06
629.357	72.06
629.564	82.06
629.77	87.06
629.976	93.06
630.183	88.06
630.389	76.06
630.595	84.06
630.802	87.06
631.008	91.06
631.214	73.06
631.42	85.06
631.627	92.06
631.833	95.06
632.039	84.06
632.245	88.06
632.451	81.06
632.657	90.06
632.863	101.06
633.069	89.06
633.275	83.06
633.481	72.06
633.688	76.06
633.893	91.06
634.099	103.06
634.305	77.06
634.511	76.06
634.717	82.06
634.923	92.06
635.129	88.06
635.335	83.06
635.541	78.06
635.747	81.06
635.952	81.06
636.158	89.06
636.364	93.06
636.57	86.06
636.775	79.06
636.981	86.06
637.187	79.06
637.392	84.06
637.598	83.06
637.804	85.06
638.009	85.06
638.215	91.06
638.421	88.06
638.626	80.06
638.832	97.06
639.037	83.06
639.243	73.06
639.448	75.06
639.654	88.06
639.859	81.06
640.065	73.06
640.27	95.06
640.475	87.06
640.681	70.06
640.886	71.06
641.091	90.06
641.297	79.06
641.502	91.06
641.707	91.06
641.913	103.06
642.118	99.06
642.323	88.06
642.528	91.06
642.733	79.06
642.939	82.06
643.144	86.06
643.349	66.06
643.554	87.06
643.759	82.06
643.964	87.06
644.169	80.06
644.374	73.06
644.579	85.06
644.784	86.06
644.989	83.06
645.194	72.06
645.399	93.06
645.604	77.06
645.809	82.06
646.014	79.06
646.219	81.06
646.423	84.06
646.628	73.06
646.833	81.06
647.038	73.06
647.243	73.06
647.447	88.06
647.652	74.06
647.857	82.06
648.062	91.06
648.266	97.06
648.471	79.06
648.676	89.06
648.88	97.06
649.085	80.06
649.289	86.06
649.494	93.06
649.698	118.06
649.903	96.06
650.107	81.06
650.312	81.06
650.516	77.06
650.721	87.06
650.925	77.06
651.13	83.06
651.334	79.06
651.539	65.06
651.743	82.06
651.947	78.06
652.152	98.06
652.356	74.06
652.56	87.06
652.764	93.06
652.969	92.06
653.173	95.06
653.377	75.06
653.581	75.06
653.785	98.06
653.99	73.06
654.194	85.06
654.398	83.06
654.602	93.06
654.806	75.06
655.01	87.06
655.214	71.06
655.418	84.06
655.622	74.06
655.826	92.06
656.03	72.06
656.234	83.06
656.438	76.06
656.642	90.06
656.846	86.06
657.049	88.06
657.253	79.06
657.457	82.06
657.661	86.06
657.865	82.06
658.068	83.06
658.272	97.06
658.476	80.06
658.68	85.06
658.883	75.06
659.087	73.06
659.291	79.06
659.494	89.06
659.698	88.06
659.901	88.06
660.105	81.06
660.309	75.06
660.512	86.06
660.716	80.06
660.919	83.06
661.123	78.06
661.326	81.06
661.53	91.06
661.733	94.06
661.936	65.06
662.14	71.06
662.343	88.06
662.546	70.06
662.75	74.06
662.953	82.06
663.156	76.06
663.36	81.06
663.563	82.06
663.766	81.06
663.969	76.06
664.173	85.06
664.376	74.06
664.579	75.06
664.782	88.06
664.985	93.06
665.188	65.06
665.391	77.06
665.594	68.06
665.797	80.06
666	76.06
666.203	73.06
666.406	64.06
666.609	74.06
666.812	72.06
667.015	76.06
667.218	79.06
667.421	83.06
667.624	74.06
667.827	69.06
668.03	77.06
668.232	62.06
668.435	78.06
668.638	72.06
668.841	89.06
669.043	84.06
669.246	76.06
669.449	86.06
669.651	97.06
669.854	93.06
670.057	98.06
670.259	77.06
670.462	76.06
670.665	79.06
670.867	78.06
671.07	61.06
671.272	93.06
671.475	77.06
671.677	94.06
671.88	83.06
672.082	78.06
672.284	73.06
672.487	70.06
672.689	70.06
672.892	78.06
