Data from CBS_1_HRD10591_00019.txt Node
Date: Mon Jan 19 14:03:58 EST 2026
User: Yrep
Spectrometer: HR+D1059
Trigger mode: 1
Integration Time (sec): 1.000000E-1
Scans to average: 1
Electric dark correction enabled: true
Nonlinearity correction enabled: false
Boxcar width: 0
XAxis mode: Wavelengths
Number of Pixels in Spectrum: 2048
>>>>>Begin Spectral Data<<<<<
223.165	-21.88
223.4	-21.88
223.635	-21.88
223.869	-9.88
224.104	-21.88
224.338	-22.88
224.573	-21.88
224.808	-16.88
225.042	0.12
225.277	-6.88
225.511	0.12
225.746	7.12
225.98	10.12
226.215	3.12
226.449	22.12
226.683	22.12
226.918	24.12
227.152	33.12
227.387	35.12
227.621	27.12
227.856	40.12
228.09	48.12
228.324	64.12
228.559	60.12
228.793	60.12
229.027	62.12
229.262	56.12
229.496	64.12
229.73	60.12
229.964	65.12
230.199	82.12
230.433	76.12
230.667	83.12
230.901	72.12
231.136	76.12
231.37	71.12
231.604	84.12
231.838	76.12
232.072	75.12
232.306	66.12
232.541	72.12
232.775	84.12
233.009	79.12
233.243	66.12
233.477	80.12
233.711	86.12
233.945	91.12
234.179	81.12
234.413	90.12
234.647	84.12
234.881	95.12
235.115	84.12
235.349	83.12
235.583	82.12
235.817	76.12
236.051	80.12
236.285	84.12
236.519	84.12
236.753	80.12
236.987	53.12
237.221	80.12
237.455	73.12
237.689	82.12
237.922	86.12
238.156	72.12
238.39	72.12
238.624	64.12
238.858	82.12
239.091	90.12
239.325	71.12
239.559	78.12
239.793	81.12
240.027	80.12
240.26	73.12
240.494	73.12
240.728	74.12
240.961	84.12
241.195	77.12
241.429	72.12
241.662	66.12
241.896	84.12
242.13	65.12
242.363	83.12
242.597	74.12
242.83	80.12
243.064	78.12
243.298	68.12
243.531	71.12
243.765	84.12
243.998	72.12
244.232	72.12
244.465	81.12
244.699	80.12
244.932	94.12
245.166	83.12
245.399	92.12
245.633	83.12
245.866	82.12
246.099	72.12
246.333	66.12
246.566	80.12
246.8	69.12
247.033	74.12
247.266	80.12
247.5	87.12
247.733	84.12
247.966	86.12
248.2	75.12
248.433	73.12
248.666	79.12
248.899	74.12
249.133	75.12
249.366	91.12
249.599	64.12
249.832	74.12
250.066	79.12
250.299	80.12
250.532	87.12
250.765	93.12
250.998	81.12
251.231	86.12
251.465	69.12
251.698	75.12
251.931	78.12
252.164	91.12
252.397	79.12
252.63	73.12
252.863	86.12
253.096	66.12
253.329	74.12
253.562	80.12
253.795	83.12
254.028	94.12
254.261	78.12
254.494	81.12
254.727	82.12
254.96	97.12
255.193	83.12
255.426	94.12
255.659	78.12
255.892	81.12
256.124	75.12
256.357	92.12
256.59	86.12
256.823	75.12
257.056	78.12
257.289	89.12
257.521	84.12
257.754	91.12
257.987	79.12
258.22	90.12
258.452	82.12
258.685	74.12
258.918	90.12
259.151	92.12
259.383	76.12
259.616	71.12
259.849	74.12
260.081	79.12
260.314	92.12
260.547	80.12
260.779	89.12
261.012	70.12
261.244	67.12
261.477	82.12
261.71	75.12
261.942	80.12
262.175	84.12
262.407	98.12
262.64	83.12
262.872	90.12
263.105	69.12
263.337	78.12
263.57	76.12
263.802	88.12
264.035	82.12
264.267	84.12
264.499	85.12
264.732	96.12
264.964	85.12
265.197	83.12
265.429	88.12
265.661	82.12
265.894	80.12
266.126	81.12
266.358	90.12
266.591	90.12
266.823	74.12
267.055	94.12
267.287	83.12
267.52	64.12
267.752	88.12
267.984	73.12
268.216	79.12
268.448	88.12
268.681	75.12
268.913	94.12
269.145	70.12
269.377	74.12
269.609	71.12
269.841	82.12
270.073	89.12
270.306	95.12
270.538	71.12
270.77	74.12
271.002	84.12
271.234	78.12
271.466	83.12
271.698	62.12
271.93	80.12
272.162	101.12
272.394	79.12
272.626	74.12
272.858	72.12
273.09	80.12
273.322	90.12
273.553	91.12
273.785	82.12
274.017	77.12
274.249	84.12
274.481	75.12
274.713	75.12
274.945	99.12
275.176	91.12
275.408	86.12
275.64	80.12
275.872	83.12
276.104	91.12
276.335	91.12
276.567	95.12
276.799	80.12
277.031	97.12
277.262	81.12
277.494	72.12
277.726	82.12
277.957	69.12
278.189	98.12
278.421	88.12
278.652	85.12
278.884	84.12
279.115	94.12
279.347	76.12
279.579	84.12
279.81	92.12
280.042	83.12
280.273	99.12
280.505	83.12
280.736	83.12
280.968	91.12
281.199	82.12
281.431	77.12
281.662	87.12
281.894	96.12
282.125	94.12
282.356	89.12
282.588	76.12
282.819	92.12
283.051	83.12
283.282	86.12
283.513	91.12
283.745	82.12
283.976	79.12
284.207	88.12
284.439	74.12
284.67	80.12
284.901	84.12
285.132	85.12
285.364	83.12
285.595	88.12
285.826	90.12
286.057	102.12
286.288	90.12
286.52	94.12
286.751	91.12
286.982	82.12
287.213	70.12
287.444	85.12
287.675	87.12
287.906	84.12
288.138	87.12
288.369	94.12
288.6	93.12
288.831	94.12
289.062	82.12
289.293	79.12
289.524	88.12
289.755	87.12
289.986	88.12
290.217	85.12
290.448	69.12
290.679	90.12
290.91	84.12
291.141	90.12
291.371	87.12
291.602	83.12
291.833	84.12
292.064	90.12
292.295	92.12
292.526	84.12
292.757	94.12
292.987	88.12
293.218	96.12
293.449	75.12
293.68	86.12
293.91	94.12
294.141	87.12
294.372	86.12
294.603	106.12
294.833	77.12
295.064	76.12
295.295	70.12
295.525	81.12
295.756	93.12
295.987	91.12
296.217	86.12
296.448	78.12
296.679	79.12
296.909	94.12
297.14	94.12
297.37	89.12
297.601	82.12
297.831	80.12
298.062	98.12
298.292	66.12
298.523	96.12
298.753	107.12
298.984	94.12
299.214	81.12
299.445	77.12
299.675	72.12
299.905	93.12
300.136	83.12
300.366	98.12
300.597	88.12
300.827	77.12
301.057	71.12
301.288	86.12
301.518	83.12
301.748	89.12
301.979	90.12
302.209	78.12
302.439	88.12
302.669	81.12
302.9	102.12
303.13	90.12
303.36	102.12
303.59	86.12
303.82	88.12
304.051	83.12
304.281	77.12
304.511	89.12
304.741	82.12
304.971	73.12
305.201	84.12
305.431	77.12
305.661	91.12
305.891	83.12
306.121	77.12
306.352	76.12
306.582	80.12
306.812	76.12
307.042	94.12
307.272	96.12
307.502	88.12
307.731	65.12
307.961	75.12
308.191	83.12
308.421	92.12
308.651	80.12
308.881	75.12
309.111	75.12
309.341	89.12
309.571	98.12
309.8	62.12
310.03	89.12
310.26	96.12
310.49	87.12
310.72	97.12
310.949	83.12
311.179	95.12
311.409	82.12
311.639	91.12
311.868	82.12
312.098	82.12
312.328	71.12
312.557	74.12
312.787	81.12
313.017	106.12
313.246	74.12
313.476	80.12
313.706	82.12
313.935	96.12
314.165	102.12
314.394	91.12
314.624	88.12
314.853	75.12
315.083	89.12
315.312	92.12
315.542	84.12
315.771	100.12
316.001	95.12
316.23	104.12
316.46	85.12
316.689	83.12
316.919	92.12
317.148	88.12
317.377	82.12
317.607	85.12
317.836	90.12
318.065	94.12
318.295	95.12
318.524	78.12
318.753	96.12
318.983	87.12
319.212	91.12
319.441	91.12
319.67	79.12
319.9	91.12
320.129	90.12
320.358	87.12
320.587	82.12
320.816	89.12
321.046	82.12
321.275	76.12
321.504	89.12
321.733	85.12
321.962	94.12
322.191	95.12
322.42	89.12
322.649	78.12
322.878	74.12
323.108	70.12
323.337	82.12
323.566	87.12
323.795	91.12
324.024	77.12
324.253	82.12
324.482	85.12
324.71	86.12
324.939	85.12
325.168	79.12
325.397	95.12
325.626	76.12
325.855	91.12
326.084	96.12
326.313	88.12
326.542	97.12
326.77	81.12
326.999	79.12
327.228	81.12
327.457	78.12
327.686	84.12
327.914	104.12
328.143	75.12
328.372	83.12
328.6	76.12
328.829	91.12
329.058	88.12
329.287	82.12
329.515	96.12
329.744	103.12
329.972	90.12
330.201	77.12
330.43	81.12
330.658	88.12
330.887	79.12
331.115	89.12
331.344	90.12
331.572	93.12
331.801	88.12
332.03	92.12
332.258	91.12
332.486	74.12
332.715	86.12
332.943	79.12
333.172	83.12
333.4	86.12
333.629	68.12
333.857	84.12
334.085	95.12
334.314	82.12
334.542	89.12
334.771	75.12
334.999	82.12
335.227	95.12
335.455	78.12
335.684	88.12
335.912	81.12
336.14	96.12
336.369	72.12
336.597	88.12
336.825	79.12
337.053	77.12
337.281	84.12
337.51	81.12
337.738	111.12
337.966	91.12
338.194	76.12
338.422	98.12
338.65	88.12
338.878	95.12
339.106	73.12
339.334	94.12
339.562	85.12
339.79	98.12
340.018	99.12
340.246	98.12
340.474	71.12
340.702	78.12
340.93	82.12
341.158	100.12
341.386	81.12
341.614	82.12
341.842	81.12
342.07	96.12
342.298	77.12
342.526	77.12
342.754	89.12
342.981	76.12
343.209	67.12
343.437	89.12
343.665	76.12
343.893	72.12
344.12	92.12
344.348	83.12
344.576	91.12
344.804	82.12
345.031	92.12
345.259	79.12
345.487	102.12
345.714	91.12
345.942	84.12
346.17	89.12
346.397	95.12
346.625	87.12
346.853	86.12
347.08	96.12
347.308	80.12
347.535	85.12
347.763	69.12
347.99	101.12
348.218	84.12
348.445	78.12
348.673	89.12
348.9	98.12
349.128	80.12
349.355	76.12
349.583	82.12
349.81	87.12
350.037	74.12
350.265	77.12
350.492	108.12
350.72	91.12
350.947	80.12
351.174	84.12
351.402	100.12
351.629	83.12
351.856	86.12
352.083	75.12
352.311	90.12
352.538	76.12
352.765	82.12
352.992	86.12
353.22	85.12
353.447	80.12
353.674	83.12
353.901	100.12
354.128	81.12
354.355	88.12
354.583	72.12
354.81	81.12
355.037	90.12
355.264	79.12
355.491	84.12
355.718	80.12
355.945	86.12
356.172	72.12
356.399	88.12
356.626	89.12
356.853	83.12
357.08	88.12
357.307	87.12
357.534	88.12
357.761	91.12
357.988	84.12
358.215	80.12
358.441	96.12
358.668	98.12
358.895	78.12
359.122	81.12
359.349	68.12
359.576	86.12
359.802	81.12
360.029	94.12
360.256	77.12
360.483	81.12
360.709	98.12
360.936	82.12
361.163	87.12
361.39	76.12
361.616	82.12
361.843	93.12
362.07	82.12
362.296	78.12
362.523	88.12
362.749	87.12
362.976	98.12
363.203	102.12
363.429	104.12
363.656	89.12
363.882	102.12
364.109	105.12
364.335	97.12
364.562	89.12
364.788	88.12
365.015	91.12
365.241	88.12
365.468	92.12
365.694	71.12
365.92	90.12
366.147	90.12
366.373	87.12
366.599	76.12
366.826	69.12
367.052	94.12
367.278	98.12
367.505	65.12
367.731	94.12
367.957	90.12
368.184	92.12
368.41	79.12
368.636	78.12
368.862	82.12
369.089	91.12
369.315	89.12
369.541	94.12
369.767	94.12
369.993	100.12
370.219	76.12
370.445	91.12
370.672	96.12
370.898	76.12
371.124	94.12
371.35	80.12
371.576	85.12
371.802	83.12
372.028	74.12
372.254	68.12
372.48	91.12
372.706	92.12
372.932	75.12
373.158	80.12
373.384	90.12
373.61	99.12
373.835	96.12
374.061	75.12
374.287	74.12
374.513	90.12
374.739	79.12
374.965	86.12
375.191	86.12
375.416	89.12
375.642	92.12
375.868	81.12
376.094	88.12
376.319	86.12
376.545	82.12
376.771	74.12
376.997	100.12
377.222	90.12
377.448	93.12
377.674	77.12
377.899	93.12
378.125	82.12
378.35	78.12
378.576	89.12
378.802	94.12
379.027	100.12
379.253	86.12
379.478	88.12
379.704	75.12
379.929	98.12
380.155	93.12
380.38	85.12
380.606	90.12
380.831	74.12
381.057	96.12
381.282	86.12
381.507	87.12
381.733	76.12
381.958	78.12
382.184	80.12
382.409	92.12
382.634	93.12
382.86	74.12
383.085	97.12
383.31	90.12
383.535	95.12
383.761	70.12
383.986	83.12
384.211	93.12
384.436	86.12
384.662	91.12
384.887	80.12
385.112	74.12
385.337	86.12
385.562	90.12
385.787	80.12
386.013	82.12
386.238	89.12
386.463	99.12
386.688	104.12
386.913	98.12
387.138	84.12
387.363	96.12
387.588	88.12
387.813	86.12
388.038	90.12
388.263	89.12
388.488	79.12
388.713	84.12
388.938	85.12
389.163	82.12
389.387	94.12
389.612	63.12
389.837	75.12
390.062	88.12
390.287	94.12
390.512	90.12
390.736	80.12
390.961	82.12
391.186	99.12
391.411	81.12
391.636	76.12
391.86	76.12
392.085	91.12
392.31	83.12
392.534	90.12
392.759	93.12
392.984	115.12
393.208	146.12
393.433	178.12
393.658	181.12
393.882	91.12
394.107	98.12
394.331	91.12
394.556	89.12
394.78	98.12
395.005	100.12
395.229	98.12
395.454	88.12
395.678	102.12
395.903	96.12
396.127	105.12
396.352	92.12
396.576	107.12
396.801	155.12
397.025	160.12
397.249	118.12
397.474	122.12
397.698	99.12
397.922	72.12
398.147	86.12
398.371	79.12
398.595	76.12
398.82	82.12
399.044	78.12
399.268	98.12
399.492	90.12
399.717	76.12
399.941	83.12
400.165	89.12
400.389	85.12
400.613	81.12
400.837	94.12
401.062	95.12
401.286	92.12
401.51	85.12
401.734	72.12
401.958	84.12
402.182	72.12
402.406	86.12
402.63	80.12
402.854	75.12
403.078	77.12
403.302	92.12
403.526	83.12
403.75	75.12
403.974	80.12
404.198	90.12
404.422	86.12
404.645	91.12
404.869	91.12
405.093	75.12
405.317	88.12
405.541	90.12
405.765	88.12
405.988	92.12
406.212	107.12
406.436	78.12
406.66	75.12
406.883	90.12
407.107	78.12
407.331	85.12
407.555	92.12
407.778	86.12
408.002	76.12
408.226	76.12
408.449	76.12
408.673	89.12
408.896	82.12
409.12	79.12
409.344	82.12
409.567	98.12
409.791	97.12
410.014	95.12
410.238	84.12
410.461	84.12
410.685	61.12
410.908	66.12
411.132	101.12
411.355	80.12
411.578	94.12
411.802	75.12
412.025	89.12
412.249	90.12
412.472	81.12
412.695	77.12
412.919	62.12
413.142	77.12
413.365	75.12
413.589	88.12
413.812	84.12
414.035	89.12
414.258	78.12
414.482	76.12
414.705	74.12
414.928	75.12
415.151	74.12
415.374	85.12
415.597	75.12
415.821	81.12
416.044	86.12
416.267	80.12
416.49	74.12
416.713	78.12
416.936	81.12
417.159	71.12
417.382	76.12
417.605	79.12
417.828	100.12
418.051	86.12
418.274	86.12
418.497	73.12
418.72	88.12
418.943	88.12
419.166	85.12
419.389	85.12
419.611	71.12
419.834	71.12
420.057	75.12
420.28	78.12
420.503	96.12
420.726	80.12
420.948	84.12
421.171	90.12
421.394	83.12
421.617	89.12
421.839	105.12
422.062	96.12
422.285	105.12
422.507	154.12
422.73	212.12
422.953	198.12
423.175	126.12
423.398	102.12
423.621	91.12
423.843	91.12
424.066	97.12
424.288	103.12
424.511	82.12
424.733	90.12
424.956	86.12
425.178	86.12
425.401	99.12
425.623	75.12
425.846	77.12
426.068	94.12
426.291	94.12
426.513	99.12
426.735	88.12
426.958	91.12
427.18	76.12
427.402	92.12
427.625	89.12
427.847	80.12
428.069	84.12
428.292	95.12
428.514	108.12
428.736	98.12
428.958	86.12
429.181	98.12
429.403	88.12
429.625	73.12
429.847	102.12
430.069	115.12
430.292	115.12
430.514	98.12
430.736	100.12
430.958	117.12
431.18	95.12
431.402	84.12
431.624	74.12
431.846	102.12
432.068	96.12
432.29	91.12
432.512	87.12
432.734	95.12
432.956	82.12
433.178	82.12
433.4	81.12
433.622	82.12
433.844	79.12
434.066	97.12
434.287	83.12
434.509	86.12
434.731	68.12
434.953	66.12
435.175	75.12
435.397	86.12
435.618	58.12
435.84	95.12
436.062	82.12
436.284	94.12
436.505	77.12
436.727	83.12
436.949	83.12
437.17	75.12
437.392	81.12
437.614	82.12
437.835	62.12
438.057	87.12
438.278	77.12
438.5	81.12
438.721	89.12
438.943	92.12
439.165	87.12
439.386	79.12
439.608	79.12
439.829	73.12
440.05	81.12
440.272	97.12
440.493	86.12
440.715	100.12
440.936	81.12
441.158	81.12
441.379	92.12
441.6	103.12
441.822	82.12
442.043	94.12
442.264	81.12
442.486	97.12
442.707	128.12
442.928	85.12
443.149	98.12
443.371	110.12
443.592	146.12
443.813	140.12
444.034	101.12
444.255	94.12
444.476	83.12
444.698	97.12
444.919	82.12
445.14	184.12
445.361	156.12
445.582	158.12
445.803	155.12
446.024	110.12
446.245	77.12
446.466	96.12
446.687	85.12
446.908	77.12
447.129	99.12
447.35	80.12
447.571	84.12
447.792	79.12
448.013	72.12
448.234	89.12
448.455	91.12
448.675	76.12
448.896	75.12
449.117	84.12
449.338	87.12
449.559	96.12
449.779	82.12
450	82.12
450.221	85.12
450.442	74.12
450.662	77.12
450.883	63.12
451.104	87.12
451.324	84.12
451.545	78.12
451.766	99.12
451.986	65.12
452.207	76.12
452.428	96.12
452.648	85.12
452.869	86.12
453.089	86.12
453.31	90.12
453.53	79.12
453.751	72.12
453.971	81.12
454.192	71.12
454.412	92.12
454.633	85.12
454.853	71.12
455.073	78.12
455.294	96.12
455.514	78.12
455.734	98.12
455.955	89.12
456.175	82.12
456.395	102.12
456.616	85.12
456.836	93.12
457.056	81.12
457.276	77.12
457.497	85.12
457.717	100.12
457.937	82.12
458.157	88.12
458.377	96.12
458.598	97.12
458.818	87.12
459.038	103.12
459.258	80.12
459.478	87.12
459.698	80.12
459.918	76.12
460.138	87.12
460.358	76.12
460.578	83.12
460.798	92.12
461.018	100.12
461.238	102.12
461.458	92.12
461.678	82.12
461.898	93.12
462.118	82.12
462.338	75.12
462.558	77.12
462.777	86.12
462.997	82.12
463.217	87.12
463.437	82.12
463.657	88.12
463.876	72.12
464.096	99.12
464.316	83.12
464.536	77.12
464.755	90.12
464.975	89.12
465.195	77.12
465.414	84.12
465.634	83.12
465.854	83.12
466.073	92.12
466.293	82.12
466.512	81.12
466.732	83.12
466.951	75.12
467.171	75.12
467.391	78.12
467.61	86.12
467.829	91.12
468.049	71.12
468.268	76.12
468.488	85.12
468.707	82.12
468.927	86.12
469.146	74.12
469.365	81.12
469.585	85.12
469.804	70.12
470.023	94.12
470.243	88.12
470.462	80.12
470.681	87.12
470.901	90.12
471.12	85.12
471.339	89.12
471.558	88.12
471.777	84.12
471.997	92.12
472.216	86.12
472.435	82.12
472.654	90.12
472.873	91.12
473.092	88.12
473.311	82.12
473.53	84.12
473.749	87.12
473.968	98.12
474.187	81.12
474.406	86.12
474.625	79.12
474.844	75.12
475.063	74.12
475.282	83.12
475.501	83.12
475.72	86.12
475.939	83.12
476.158	90.12
476.377	83.12
476.596	84.12
476.814	93.12
477.033	80.12
477.252	83.12
477.471	96.12
477.69	90.12
477.908	88.12
478.127	101.12
478.346	88.12
478.564	80.12
478.783	79.12
479.002	103.12
479.22	89.12
479.439	85.12
479.658	84.12
479.876	77.12
480.095	80.12
480.313	77.12
480.532	101.12
480.751	78.12
480.969	91.12
481.188	84.12
481.406	83.12
481.624	75.12
481.843	90.12
482.061	80.12
482.28	91.12
482.498	79.12
482.717	96.12
482.935	64.12
483.153	79.12
483.372	90.12
483.59	82.12
483.808	85.12
484.027	88.12
484.245	82.12
484.463	96.12
484.681	100.12
484.9	76.12
485.118	94.12
485.336	88.12
485.554	74.12
485.772	79.12
485.99	78.12
486.209	89.12
486.427	83.12
486.645	83.12
486.863	94.12
487.081	89.12
487.299	77.12
487.517	80.12
487.735	94.12
487.953	116.12
488.171	110.12
488.389	69.12
488.607	72.12
488.825	114.12
489.043	96.12
489.261	66.12
489.479	89.12
489.696	94.12
489.914	85.12
490.132	92.12
490.35	90.12
490.568	91.12
490.786	90.12
491.003	80.12
491.221	90.12
491.439	94.12
491.657	86.12
491.874	91.12
492.092	94.12
492.31	85.12
492.527	74.12
492.745	68.12
492.963	100.12
493.18	103.12
493.398	81.12
493.615	74.12
493.833	83.12
494.05	80.12
494.268	85.12
494.485	80.12
494.703	84.12
494.92	90.12
495.138	84.12
495.355	98.12
495.573	84.12
495.79	102.12
496.008	76.12
496.225	96.12
496.442	77.12
496.66	85.12
496.877	79.12
497.094	91.12
497.312	96.12
497.529	82.12
497.746	94.12
497.963	82.12
498.181	83.12
498.398	78.12
498.615	96.12
498.832	96.12
499.049	95.12
499.267	85.12
499.484	82.12
499.701	80.12
499.918	78.12
500.135	91.12
500.352	80.12
500.569	84.12
500.786	83.12
501.003	82.12
501.22	96.12
501.437	89.12
501.654	75.12
501.871	91.12
502.088	88.12
502.305	92.12
502.522	85.12
502.739	86.12
502.956	79.12
503.172	82.12
503.389	75.12
503.606	75.12
503.823	84.12
504.04	97.12
504.256	96.12
504.473	102.12
504.69	89.12
504.907	76.12
505.123	88.12
505.34	73.12
505.557	85.12
505.773	85.12
505.99	93.12
506.207	84.12
506.423	70.12
506.64	77.12
506.856	101.12
507.073	90.12
507.289	83.12
507.506	84.12
507.722	76.12
507.939	93.12
508.155	92.12
508.372	91.12
508.588	89.12
508.805	91.12
509.021	78.12
509.238	82.12
509.454	85.12
509.67	83.12
509.887	82.12
510.103	86.12
510.319	89.12
510.536	90.12
510.752	98.12
510.968	70.12
511.184	85.12
511.401	79.12
511.617	91.12
511.833	87.12
512.049	76.12
512.265	96.12
512.481	90.12
512.698	88.12
512.914	97.12
513.13	78.12
513.346	82.12
513.562	80.12
513.778	94.12
513.994	89.12
514.21	93.12
514.426	90.12
514.642	82.12
514.858	89.12
515.074	87.12
515.29	72.12
515.506	80.12
515.721	91.12
515.937	92.12
516.153	90.12
516.369	98.12
516.585	78.12
516.801	90.12
517.016	85.12
517.232	81.12
517.448	82.12
517.664	90.12
517.879	91.12
518.095	86.12
518.311	75.12
518.527	91.12
518.742	96.12
518.958	103.12
519.173	124.12
519.389	97.12
519.605	90.12
519.82	94.12
520.036	95.12
520.251	84.12
520.467	85.12
520.682	97.12
520.898	85.12
521.113	76.12
521.329	87.12
521.544	75.12
521.76	89.12
521.975	89.12
522.19	83.12
522.406	81.12
522.621	87.12
522.836	75.12
523.052	94.12
523.267	92.12
523.482	85.12
523.698	80.12
523.913	90.12
524.128	94.12
524.343	82.12
524.559	98.12
524.774	89.12
524.989	98.12
525.204	94.12
525.419	96.12
525.634	87.12
525.849	86.12
526.064	94.12
526.28	146.12
526.495	195.12
526.71	170.12
526.925	134.12
527.14	143.12
527.355	163.12
527.57	101.12
527.785	103.12
527.999	82.12
528.214	88.12
528.429	82.12
528.644	88.12
528.859	86.12
529.074	85.12
529.289	100.12
529.503	90.12
529.718	84.12
529.933	100.12
530.148	84.12
530.363	100.12
530.577	77.12
530.792	97.12
531.007	82.12
531.221	90.12
531.436	80.12
531.651	90.12
531.865	79.12
532.08	82.12
532.295	98.12
532.509	93.12
532.724	91.12
532.938	100.12
533.153	101.12
533.367	94.12
533.582	92.12
533.796	102.12
534.011	99.12
534.225	102.12
534.44	89.12
534.654	91.12
534.868	95.12
535.083	126.12
535.297	120.12
535.511	87.12
535.726	87.12
535.94	102.12
536.154	94.12
536.369	83.12
536.583	92.12
536.797	90.12
537.011	82.12
537.225	94.12
537.44	82.12
537.654	94.12
537.868	88.12
538.082	72.12
538.296	80.12
538.51	84.12
538.724	86.12
538.938	85.12
539.153	99.12
539.367	91.12
539.581	96.12
539.795	101.12
540.009	91.12
540.222	90.12
540.436	91.12
540.65	98.12
540.864	82.12
541.078	91.12
541.292	97.12
541.506	103.12
541.72	92.12
541.934	89.12
542.147	96.12
542.361	94.12
542.575	98.12
542.789	99.12
543.002	90.12
543.216	100.12
543.43	87.12
543.644	102.12
543.857	93.12
544.071	106.12
544.285	105.12
544.498	92.12
544.712	92.12
544.925	106.12
545.139	88.12
545.352	98.12
545.566	97.12
545.779	96.12
545.993	102.12
546.206	110.12
546.42	102.12
546.633	111.12
546.847	107.12
547.06	111.12
547.274	100.12
547.487	139.12
547.7	130.12
547.914	131.12
548.127	142.12
548.34	130.12
548.554	140.12
548.767	133.12
548.98	146.12
549.193	147.12
549.407	140.12
549.62	134.12
549.833	134.12
550.046	145.12
550.259	166.12
550.473	168.12
550.686	174.12
550.899	167.12
551.112	186.12
551.325	196.12
551.538	204.12
551.751	194.12
551.964	191.12
552.177	192.12
552.39	165.12
552.603	179.12
552.816	179.12
553.029	152.12
553.242	169.12
553.455	191.12
553.667	178.12
553.88	190.12
554.093	174.12
554.306	184.12
554.519	179.12
554.732	174.12
554.944	177.12
555.157	171.12
555.37	160.12
555.583	159.12
555.795	151.12
556.008	145.12
556.221	136.12
556.433	138.12
556.646	146.12
556.859	137.12
557.071	134.12
557.284	125.12
557.496	120.12
557.709	114.12
557.921	115.12
558.134	117.12
558.346	136.12
558.559	125.12
558.771	129.12
558.984	184.12
559.196	222.12
559.409	153.12
559.621	178.12
559.833	150.12
560.046	169.12
560.258	149.12
560.47	152.12
560.683	105.12
560.895	110.12
561.107	99.12
561.32	94.12
561.532	87.12
561.744	103.12
561.956	101.12
562.168	94.12
562.381	96.12
562.593	103.12
562.805	104.12
563.017	94.12
563.229	98.12
563.441	104.12
563.653	102.12
563.865	107.12
564.077	100.12
564.289	95.12
564.501	98.12
564.713	95.12
564.925	98.12
565.137	88.12
565.349	99.12
565.561	98.12
565.773	93.12
565.985	98.12
566.197	71.12
566.408	86.12
566.62	92.12
566.832	77.12
567.044	100.12
567.255	99.12
567.467	97.12
567.679	87.12
567.891	90.12
568.102	90.12
568.314	101.12
568.526	92.12
568.737	81.12
568.949	85.12
569.161	87.12
569.372	83.12
569.584	94.12
569.795	101.12
570.007	95.12
570.218	91.12
570.43	83.12
570.641	98.12
570.853	90.12
571.064	88.12
571.276	96.12
571.487	90.12
571.698	90.12
571.91	97.12
572.121	99.12
572.333	102.12
572.544	89.12
572.755	88.12
572.966	92.12
573.178	95.12
573.389	96.12
573.6	99.12
573.811	83.12
574.023	104.12
574.234	78.12
574.445	91.12
574.656	94.12
574.867	96.12
575.078	66.12
575.289	86.12
575.501	88.12
575.712	93.12
575.923	88.12
576.134	84.12
576.345	100.12
576.556	100.12
576.767	91.12
576.978	73.12
577.188	93.12
577.399	83.12
577.61	96.12
577.821	84.12
578.032	83.12
578.243	94.12
578.454	88.12
578.665	98.12
578.875	91.12
579.086	92.12
579.297	91.12
579.508	96.12
579.718	101.12
579.929	82.12
580.14	72.12
580.35	91.12
580.561	96.12
580.772	86.12
580.982	84.12
581.193	87.12
581.403	82.12
581.614	112.12
581.825	82.12
582.035	90.12
582.246	95.12
582.456	93.12
582.667	85.12
582.877	86.12
583.087	98.12
583.298	86.12
583.508	95.12
583.719	102.12
583.929	98.12
584.139	96.12
584.35	90.12
584.56	103.12
584.77	92.12
584.981	90.12
585.191	96.12
585.401	89.12
585.611	86.12
585.821	117.12
586.032	159.12
586.242	100.12
586.452	96.12
586.662	100.12
586.872	86.12
587.082	92.12
587.292	88.12
587.502	77.12
587.713	97.12
587.923	87.12
588.133	96.12
588.343	80.12
588.553	95.12
588.762	106.12
588.972	122.12
589.182	209.12
589.392	152.12
589.602	112.12
589.812	209.12
590.022	128.12
590.232	99.12
590.441	99.12
590.651	93.12
590.861	99.12
591.071	94.12
591.281	83.12
591.49	94.12
591.7	105.12
591.91	100.12
592.119	111.12
592.329	120.12
592.539	104.12
592.748	105.12
592.958	116.12
593.167	110.12
593.377	117.12
593.587	97.12
593.796	112.12
594.006	103.12
594.215	118.12
594.424	116.12
594.634	96.12
594.843	104.12
595.053	121.12
595.262	113.12
595.472	117.12
595.681	116.12
595.89	118.12
596.1	116.12
596.309	131.12
596.518	141.12
596.727	137.12
596.937	138.12
597.146	150.12
597.355	139.12
597.564	141.12
597.774	133.12
597.983	128.12
598.192	131.12
598.401	125.12
598.61	149.12
598.819	126.12
599.028	136.12
599.237	144.12
599.446	151.12
599.655	148.12
599.864	136.12
600.073	141.12
600.282	146.12
600.491	128.12
600.7	150.12
600.909	145.12
601.118	111.12
601.327	125.12
601.536	133.12
601.745	146.12
601.953	126.12
602.162	123.12
602.371	123.12
602.58	123.12
602.789	138.12
602.997	139.12
603.206	141.12
603.415	136.12
603.623	135.12
603.832	130.12
604.041	139.12
604.249	144.12
604.458	140.12
604.666	143.12
604.875	156.12
605.084	150.12
605.292	146.12
605.501	156.12
605.709	166.12
605.918	161.12
606.126	160.12
606.334	167.12
606.543	159.12
606.751	160.12
606.96	155.12
607.168	160.12
607.376	159.12
607.585	142.12
607.793	136.12
608.001	139.12
608.21	155.12
608.418	151.12
608.626	171.12
608.834	147.12
609.043	179.12
609.251	156.12
609.459	151.12
609.667	163.12
609.875	176.12
610.083	180.12
610.291	177.12
610.499	207.12
610.707	169.12
610.916	158.12
611.124	163.12
611.332	168.12
611.54	165.12
611.748	176.12
611.955	161.12
612.163	184.12
612.371	235.12
612.579	230.12
612.787	192.12
612.995	190.12
613.203	155.12
613.411	174.12
613.618	161.12
613.826	174.12
614.034	163.12
614.242	172.12
614.449	171.12
614.657	170.12
614.865	175.12
615.072	171.12
615.28	175.12
615.488	169.12
615.695	174.12
615.903	164.12
616.111	167.12
616.318	226.12
616.526	247.12
616.733	191.12
616.941	189.12
617.148	208.12
617.356	169.12
617.563	150.12
617.771	156.12
617.978	153.12
618.185	160.12
618.393	159.12
618.6	135.12
618.807	155.12
619.015	145.12
619.222	152.12
619.429	159.12
619.637	155.12
619.844	154.12
620.051	131.12
620.258	134.12
620.466	150.12
620.673	150.12
620.88	152.12
621.087	140.12
621.294	145.12
621.501	152.12
621.708	140.12
621.915	167.12
622.122	163.12
622.329	169.12
622.536	163.12
622.743	165.12
622.95	171.12
623.157	176.12
623.364	174.12
623.571	158.12
623.778	164.12
623.985	171.12
624.192	156.12
624.399	174.12
624.606	175.12
624.812	158.12
625.019	165.12
625.226	151.12
625.433	152.12
625.639	153.12
625.846	164.12
626.053	146.12
626.259	144.12
626.466	142.12
626.673	132.12
626.879	129.12
627.086	157.12
627.293	134.12
627.499	140.12
627.706	131.12
627.912	148.12
628.119	128.12
628.325	116.12
628.532	106.12
628.738	118.12
628.945	118.12
629.151	99.12
629.357	104.12
629.564	108.12
629.77	108.12
629.976	94.12
630.183	80.12
630.389	96.12
630.595	92.12
630.802	99.12
631.008	91.12
631.214	100.12
631.42	81.12
631.627	111.12
631.833	115.12
632.039	106.12
632.245	94.12
632.451	84.12
632.657	102.12
632.863	89.12
633.069	100.12
633.275	106.12
633.481	96.12
633.688	114.12
633.893	97.12
634.099	104.12
634.305	105.12
634.511	116.12
634.717	86.12
634.923	107.12
635.129	95.12
635.335	103.12
635.541	111.12
635.747	110.12
635.952	104.12
636.158	99.12
636.364	94.12
636.57	94.12
636.775	79.12
636.981	98.12
637.187	106.12
637.392	103.12
637.598	92.12
637.804	93.12
638.009	87.12
638.215	101.12
638.421	98.12
638.626	96.12
638.832	94.12
639.037	91.12
639.243	98.12
639.448	95.12
639.654	88.12
639.859	92.12
640.065	99.12
640.27	92.12
640.475	84.12
640.681	96.12
640.886	88.12
641.091	103.12
641.297	119.12
641.502	102.12
641.707	98.12
641.913	83.12
642.118	99.12
642.323	108.12
642.528	99.12
642.733	82.12
642.939	107.12
643.144	94.12
643.349	99.12
643.554	86.12
643.759	107.12
643.964	100.12
644.169	132.12
644.374	110.12
644.579	91.12
644.784	111.12
644.989	87.12
645.194	110.12
645.399	90.12
645.604	89.12
645.809	81.12
646.014	92.12
646.219	103.12
646.423	124.12
646.628	114.12
646.833	94.12
647.038	92.12
647.243	99.12
647.447	97.12
647.652	77.12
647.857	99.12
648.062	90.12
648.266	90.12
648.471	94.12
648.676	84.12
648.88	86.12
649.085	98.12
649.289	76.12
649.494	106.12
649.698	103.12
649.903	80.12
650.107	90.12
650.312	85.12
650.516	80.12
650.721	94.12
650.925	86.12
651.13	92.12
651.334	90.12
651.539	84.12
651.743	82.12
651.947	87.12
652.152	94.12
652.356	92.12
652.56	86.12
652.764	88.12
652.969	83.12
653.173	80.12
653.377	82.12
653.581	89.12
653.785	91.12
653.99	71.12
654.194	92.12
654.398	67.12
654.602	92.12
654.806	79.12
655.01	90.12
655.214	92.12
655.418	85.12
655.622	93.12
655.826	81.12
656.03	83.12
656.234	86.12
656.438	86.12
656.642	96.12
656.846	82.12
657.049	82.12
657.253	95.12
657.457	94.12
657.661	101.12
657.865	91.12
658.068	73.12
658.272	86.12
658.476	90.12
658.68	85.12
658.883	89.12
659.087	81.12
659.291	83.12
659.494	92.12
659.698	71.12
659.901	84.12
660.105	79.12
660.309	80.12
660.512	79.12
660.716	86.12
660.919	86.12
661.123	77.12
661.326	70.12
661.53	82.12
661.733	95.12
661.936	92.12
662.14	74.12
662.343	90.12
662.546	81.12
662.75	77.12
662.953	91.12
663.156	91.12
663.36	83.12
663.563	94.12
663.766	86.12
663.969	81.12
664.173	90.12
664.376	81.12
664.579	80.12
664.782	82.12
664.985	91.12
665.188	82.12
665.391	79.12
665.594	82.12
665.797	73.12
666	81.12
666.203	103.12
666.406	90.12
666.609	77.12
666.812	81.12
667.015	59.12
667.218	76.12
667.421	91.12
667.624	79.12
667.827	87.12
668.03	74.12
668.232	88.12
668.435	73.12
668.638	86.12
668.841	89.12
669.043	82.12
669.246	78.12
669.449	89.12
669.651	80.12
669.854	87.12
670.057	62.12
670.259	76.12
670.462	87.12
670.665	82.12
670.867	84.12
671.07	84.12
671.272	69.12
671.475	88.12
671.677	88.12
671.88	93.12
672.082	89.12
672.284	86.12
672.487	70.12
672.689	86.12
672.892	94.12
