Data from Soil_50_6_HRD10591_00011.txt Node
Date: Thu Feb 19 11:35:08 EST 2026
User: Yrep
Spectrometer: HR+D1059
Trigger mode: 1
Integration Time (sec): 1.000000E-1
Scans to average: 1
Electric dark correction enabled: true
Nonlinearity correction enabled: false
Boxcar width: 0
XAxis mode: Wavelengths
Number of Pixels in Spectrum: 2048
>>>>>Begin Spectral Data<<<<<
223.165	-18.75
223.4	-18.75
223.635	-18.75
223.869	-16.75
224.104	-19.75
224.338	-17.75
224.573	-22.75
224.808	-17.75
225.042	2.25
225.277	-0.75
225.511	0.25
225.746	-0.75
225.98	11.25
226.215	15.25
226.449	18.25
226.683	26.25
226.918	16.25
227.152	25.25
227.387	38.25
227.621	35.25
227.856	31.25
228.09	38.25
228.324	51.25
228.559	52.25
228.793	55.25
229.027	57.25
229.262	73.25
229.496	62.25
229.73	66.25
229.964	77.25
230.199	76.25
230.433	74.25
230.667	89.25
230.901	64.25
231.136	72.25
231.37	81.25
231.604	101.25
231.838	85.25
232.072	80.25
232.306	87.25
232.541	89.25
232.775	77.25
233.009	82.25
233.243	90.25
233.477	85.25
233.711	83.25
233.945	83.25
234.179	72.25
234.413	87.25
234.647	82.25
234.881	88.25
235.115	89.25
235.349	76.25
235.583	89.25
235.817	82.25
236.051	73.25
236.285	75.25
236.519	84.25
236.753	76.25
236.987	77.25
237.221	72.25
237.455	66.25
237.689	77.25
237.922	78.25
238.156	78.25
238.39	76.25
238.624	74.25
238.858	69.25
239.091	74.25
239.325	76.25
239.559	71.25
239.793	72.25
240.027	72.25
240.26	71.25
240.494	76.25
240.728	70.25
240.961	88.25
241.195	73.25
241.429	68.25
241.662	57.25
241.896	65.25
242.13	62.25
242.363	72.25
242.597	75.25
242.83	74.25
243.064	76.25
243.298	63.25
243.531	86.25
243.765	82.25
243.998	84.25
244.232	82.25
244.465	75.25
244.699	80.25
244.932	90.25
245.166	74.25
245.399	82.25
245.633	88.25
245.866	81.25
246.099	79.25
246.333	75.25
246.566	79.25
246.8	69.25
247.033	73.25
247.266	86.25
247.5	84.25
247.733	76.25
247.966	75.25
248.2	72.25
248.433	86.25
248.666	84.25
248.899	75.25
249.133	79.25
249.366	94.25
249.599	81.25
249.832	84.25
250.066	75.25
250.299	80.25
250.532	85.25
250.765	68.25
250.998	63.25
251.231	75.25
251.465	81.25
251.698	73.25
251.931	68.25
252.164	67.25
252.397	74.25
252.63	64.25
252.863	67.25
253.096	85.25
253.329	80.25
253.562	72.25
253.795	79.25
254.028	84.25
254.261	82.25
254.494	67.25
254.727	86.25
254.96	86.25
255.193	75.25
255.426	80.25
255.659	87.25
255.892	88.25
256.124	71.25
256.357	78.25
256.59	80.25
256.823	82.25
257.056	71.25
257.289	64.25
257.521	76.25
257.754	79.25
257.987	72.25
258.22	76.25
258.452	74.25
258.685	71.25
258.918	89.25
259.151	81.25
259.383	80.25
259.616	90.25
259.849	85.25
260.081	92.25
260.314	82.25
260.547	78.25
260.779	84.25
261.012	57.25
261.244	70.25
261.477	80.25
261.71	81.25
261.942	76.25
262.175	98.25
262.407	86.25
262.64	76.25
262.872	88.25
263.105	81.25
263.337	78.25
263.57	62.25
263.802	62.25
264.035	68.25
264.267	83.25
264.499	74.25
264.732	91.25
264.964	92.25
265.197	78.25
265.429	81.25
265.661	76.25
265.894	80.25
266.126	83.25
266.358	62.25
266.591	84.25
266.823	65.25
267.055	77.25
267.287	86.25
267.52	81.25
267.752	90.25
267.984	78.25
268.216	82.25
268.448	71.25
268.681	76.25
268.913	92.25
269.145	85.25
269.377	96.25
269.609	84.25
269.841	92.25
270.073	76.25
270.306	84.25
270.538	81.25
270.77	74.25
271.002	74.25
271.234	76.25
271.466	87.25
271.698	74.25
271.93	80.25
272.162	75.25
272.394	88.25
272.626	101.25
272.858	70.25
273.09	93.25
273.322	87.25
273.553	69.25
273.785	74.25
274.017	73.25
274.249	75.25
274.481	78.25
274.713	90.25
274.945	68.25
275.176	96.25
275.408	73.25
275.64	82.25
275.872	80.25
276.104	99.25
276.335	88.25
276.567	92.25
276.799	72.25
277.031	74.25
277.262	75.25
277.494	101.25
277.726	78.25
277.957	82.25
278.189	94.25
278.421	91.25
278.652	76.25
278.884	83.25
279.115	72.25
279.347	91.25
279.579	99.25
279.81	98.25
280.042	85.25
280.273	78.25
280.505	84.25
280.736	86.25
280.968	90.25
281.199	87.25
281.431	78.25
281.662	83.25
281.894	80.25
282.125	77.25
282.356	80.25
282.588	92.25
282.819	93.25
283.051	80.25
283.282	81.25
283.513	93.25
283.745	88.25
283.976	94.25
284.207	82.25
284.439	81.25
284.67	73.25
284.901	98.25
285.132	83.25
285.364	104.25
285.595	91.25
285.826	84.25
286.057	81.25
286.288	80.25
286.52	74.25
286.751	87.25
286.982	81.25
287.213	59.25
287.444	78.25
287.675	74.25
287.906	83.25
288.138	90.25
288.369	96.25
288.6	78.25
288.831	83.25
289.062	85.25
289.293	82.25
289.524	79.25
289.755	89.25
289.986	90.25
290.217	84.25
290.448	100.25
290.679	87.25
290.91	93.25
291.141	98.25
291.371	80.25
291.602	79.25
291.833	68.25
292.064	65.25
292.295	80.25
292.526	89.25
292.757	93.25
292.987	78.25
293.218	84.25
293.449	81.25
293.68	86.25
293.91	86.25
294.141	91.25
294.372	75.25
294.603	94.25
294.833	82.25
295.064	77.25
295.295	80.25
295.525	80.25
295.756	84.25
295.987	77.25
296.217	68.25
296.448	78.25
296.679	83.25
296.909	96.25
297.14	81.25
297.37	92.25
297.601	85.25
297.831	73.25
298.062	80.25
298.292	72.25
298.523	83.25
298.753	72.25
298.984	94.25
299.214	74.25
299.445	82.25
299.675	104.25
299.905	89.25
300.136	71.25
300.366	78.25
300.597	85.25
300.827	85.25
301.057	89.25
301.288	95.25
301.518	78.25
301.748	84.25
301.979	87.25
302.209	88.25
302.439	85.25
302.669	67.25
302.9	93.25
303.13	88.25
303.36	73.25
303.59	75.25
303.82	93.25
304.051	84.25
304.281	91.25
304.511	91.25
304.741	85.25
304.971	65.25
305.201	88.25
305.431	88.25
305.661	75.25
305.891	94.25
306.121	87.25
306.352	87.25
306.582	92.25
306.812	77.25
307.042	75.25
307.272	82.25
307.502	88.25
307.731	89.25
307.961	85.25
308.191	84.25
308.421	78.25
308.651	95.25
308.881	85.25
309.111	85.25
309.341	85.25
309.571	81.25
309.8	83.25
310.03	83.25
310.26	83.25
310.49	78.25
310.72	80.25
310.949	83.25
311.179	68.25
311.409	89.25
311.639	90.25
311.868	70.25
312.098	84.25
312.328	82.25
312.557	86.25
312.787	85.25
313.017	67.25
313.246	83.25
313.476	71.25
313.706	82.25
313.935	92.25
314.165	90.25
314.394	85.25
314.624	83.25
314.853	75.25
315.083	64.25
315.312	74.25
315.542	76.25
315.771	85.25
316.001	92.25
316.23	86.25
316.46	86.25
316.689	83.25
316.919	91.25
317.148	84.25
317.377	94.25
317.607	82.25
317.836	84.25
318.065	106.25
318.295	86.25
318.524	75.25
318.753	72.25
318.983	105.25
319.212	81.25
319.441	84.25
319.67	81.25
319.9	89.25
320.129	84.25
320.358	99.25
320.587	88.25
320.816	84.25
321.046	91.25
321.275	78.25
321.504	82.25
321.733	70.25
321.962	79.25
322.191	80.25
322.42	95.25
322.649	86.25
322.878	78.25
323.108	73.25
323.337	84.25
323.566	88.25
323.795	77.25
324.024	80.25
324.253	85.25
324.482	91.25
324.71	68.25
324.939	92.25
325.168	75.25
325.397	80.25
325.626	90.25
325.855	75.25
326.084	86.25
326.313	76.25
326.542	70.25
326.77	95.25
326.999	95.25
327.228	79.25
327.457	86.25
327.686	80.25
327.914	68.25
328.143	92.25
328.372	89.25
328.6	84.25
328.829	78.25
329.058	79.25
329.287	72.25
329.515	84.25
329.744	82.25
329.972	89.25
330.201	92.25
330.43	92.25
330.658	82.25
330.887	98.25
331.115	92.25
331.344	83.25
331.572	89.25
331.801	87.25
332.03	82.25
332.258	83.25
332.486	79.25
332.715	94.25
332.943	90.25
333.172	77.25
333.4	75.25
333.629	90.25
333.857	101.25
334.085	67.25
334.314	83.25
334.542	73.25
334.771	88.25
334.999	91.25
335.227	87.25
335.455	78.25
335.684	72.25
335.912	91.25
336.14	81.25
336.369	91.25
336.597	77.25
336.825	76.25
337.053	82.25
337.281	73.25
337.51	82.25
337.738	90.25
337.966	82.25
338.194	92.25
338.422	71.25
338.65	90.25
338.878	69.25
339.106	79.25
339.334	82.25
339.562	88.25
339.79	82.25
340.018	81.25
340.246	76.25
340.474	78.25
340.702	80.25
340.93	83.25
341.158	74.25
341.386	78.25
341.614	82.25
341.842	85.25
342.07	88.25
342.298	78.25
342.526	70.25
342.754	63.25
342.981	83.25
343.209	86.25
343.437	84.25
343.665	74.25
343.893	91.25
344.12	84.25
344.348	87.25
344.576	84.25
344.804	77.25
345.031	84.25
345.259	78.25
345.487	82.25
345.714	104.25
345.942	91.25
346.17	90.25
346.397	84.25
346.625	88.25
346.853	66.25
347.08	74.25
347.308	78.25
347.535	69.25
347.763	80.25
347.99	78.25
348.218	71.25
348.445	80.25
348.673	90.25
348.9	84.25
349.128	94.25
349.355	74.25
349.583	74.25
349.81	93.25
350.037	81.25
350.265	87.25
350.492	83.25
350.72	87.25
350.947	70.25
351.174	70.25
351.402	84.25
351.629	88.25
351.856	96.25
352.083	64.25
352.311	86.25
352.538	86.25
352.765	92.25
352.992	76.25
353.22	79.25
353.447	81.25
353.674	88.25
353.901	84.25
354.128	86.25
354.355	81.25
354.583	76.25
354.81	79.25
355.037	80.25
355.264	76.25
355.491	81.25
355.718	76.25
355.945	86.25
356.172	75.25
356.399	87.25
356.626	85.25
356.853	66.25
357.08	99.25
357.307	74.25
357.534	78.25
357.761	80.25
357.988	86.25
358.215	79.25
358.441	92.25
358.668	87.25
358.895	98.25
359.122	74.25
359.349	89.25
359.576	79.25
359.802	57.25
360.029	66.25
360.256	78.25
360.483	92.25
360.709	82.25
360.936	84.25
361.163	81.25
361.39	81.25
361.616	72.25
361.843	85.25
362.07	86.25
362.296	95.25
362.523	82.25
362.749	58.25
362.976	69.25
363.203	89.25
363.429	84.25
363.656	95.25
363.882	89.25
364.109	86.25
364.335	80.25
364.562	92.25
364.788	79.25
365.015	79.25
365.241	80.25
365.468	68.25
365.694	85.25
365.92	82.25
366.147	75.25
366.373	92.25
366.599	67.25
366.826	76.25
367.052	87.25
367.278	81.25
367.505	94.25
367.731	89.25
367.957	76.25
368.184	59.25
368.41	80.25
368.636	81.25
368.862	94.25
369.089	74.25
369.315	74.25
369.541	82.25
369.767	73.25
369.993	77.25
370.219	75.25
370.445	95.25
370.672	83.25
370.898	85.25
371.124	78.25
371.35	79.25
371.576	80.25
371.802	88.25
372.028	87.25
372.254	87.25
372.48	81.25
372.706	69.25
372.932	78.25
373.158	68.25
373.384	72.25
373.61	97.25
373.835	84.25
374.061	84.25
374.287	86.25
374.513	76.25
374.739	77.25
374.965	76.25
375.191	90.25
375.416	83.25
375.642	80.25
375.868	87.25
376.094	80.25
376.319	76.25
376.545	76.25
376.771	89.25
376.997	68.25
377.222	84.25
377.448	88.25
377.674	80.25
377.899	79.25
378.125	75.25
378.35	75.25
378.576	87.25
378.802	69.25
379.027	68.25
379.253	69.25
379.478	75.25
379.704	79.25
379.929	88.25
380.155	81.25
380.38	91.25
380.606	80.25
380.831	77.25
381.057	76.25
381.282	80.25
381.507	79.25
381.733	72.25
381.958	85.25
382.184	75.25
382.409	82.25
382.634	96.25
382.86	84.25
383.085	92.25
383.31	96.25
383.535	90.25
383.761	78.25
383.986	98.25
384.211	74.25
384.436	73.25
384.662	95.25
384.887	66.25
385.112	74.25
385.337	72.25
385.562	75.25
385.787	80.25
386.013	94.25
386.238	82.25
386.463	82.25
386.688	91.25
386.913	75.25
387.138	84.25
387.363	87.25
387.588	72.25
387.813	81.25
388.038	73.25
388.263	85.25
388.488	75.25
388.713	81.25
388.938	80.25
389.163	80.25
389.387	69.25
389.612	79.25
389.837	76.25
390.062	75.25
390.287	83.25
390.512	84.25
390.736	63.25
390.961	62.25
391.186	79.25
391.411	84.25
391.636	85.25
391.86	70.25
392.085	90.25
392.31	87.25
392.534	83.25
392.759	79.25
392.984	86.25
393.208	95.25
393.433	97.25
393.658	101.25
393.882	84.25
394.107	85.25
394.331	90.25
394.556	89.25
394.78	95.25
395.005	97.25
395.229	78.25
395.454	84.25
395.678	81.25
395.903	88.25
396.127	85.25
396.352	88.25
396.576	109.25
396.801	93.25
397.025	101.25
397.249	80.25
397.474	78.25
397.698	65.25
397.922	72.25
398.147	83.25
398.371	84.25
398.595	84.25
398.82	78.25
399.044	88.25
399.268	85.25
399.492	83.25
399.717	74.25
399.941	79.25
400.165	60.25
400.389	77.25
400.613	76.25
400.837	95.25
401.062	80.25
401.286	99.25
401.51	75.25
401.734	86.25
401.958	74.25
402.182	75.25
402.406	68.25
402.63	83.25
402.854	93.25
403.078	83.25
403.302	96.25
403.526	75.25
403.75	90.25
403.974	78.25
404.198	88.25
404.422	87.25
404.645	95.25
404.869	88.25
405.093	88.25
405.317	65.25
405.541	81.25
405.765	80.25
405.988	82.25
406.212	80.25
406.436	73.25
406.66	83.25
406.883	83.25
407.107	87.25
407.331	91.25
407.555	83.25
407.778	86.25
408.002	78.25
408.226	70.25
408.449	86.25
408.673	87.25
408.896	79.25
409.12	81.25
409.344	80.25
409.567	77.25
409.791	83.25
410.014	81.25
410.238	80.25
410.461	76.25
410.685	79.25
410.908	68.25
411.132	105.25
411.355	76.25
411.578	86.25
411.802	75.25
412.025	68.25
412.249	73.25
412.472	72.25
412.695	79.25
412.919	71.25
413.142	78.25
413.365	65.25
413.589	69.25
413.812	74.25
414.035	67.25
414.258	83.25
414.482	75.25
414.705	70.25
414.928	68.25
415.151	92.25
415.374	76.25
415.597	86.25
415.821	86.25
416.044	80.25
416.267	72.25
416.49	78.25
416.713	72.25
416.936	84.25
417.159	83.25
417.382	83.25
417.605	79.25
417.828	71.25
418.051	74.25
418.274	83.25
418.497	96.25
418.72	79.25
418.943	80.25
419.166	87.25
419.389	76.25
419.611	83.25
419.834	73.25
420.057	70.25
420.28	81.25
420.503	83.25
420.726	93.25
420.948	82.25
421.171	68.25
421.394	91.25
421.617	78.25
421.839	81.25
422.062	90.25
422.285	98.25
422.507	91.25
422.73	116.25
422.953	107.25
423.175	79.25
423.398	86.25
423.621	75.25
423.843	78.25
424.066	88.25
424.288	77.25
424.511	88.25
424.733	90.25
424.956	86.25
425.178	79.25
425.401	86.25
425.623	79.25
425.846	80.25
426.068	80.25
426.291	72.25
426.513	81.25
426.735	64.25
426.958	77.25
427.18	78.25
427.402	89.25
427.625	76.25
427.847	75.25
428.069	84.25
428.292	83.25
428.514	85.25
428.736	78.25
428.958	82.25
429.181	102.25
429.403	93.25
429.625	82.25
429.847	88.25
430.069	89.25
430.292	89.25
430.514	110.25
430.736	79.25
430.958	93.25
431.18	71.25
431.402	83.25
431.624	82.25
431.846	83.25
432.068	82.25
432.29	82.25
432.512	74.25
432.734	87.25
432.956	74.25
433.178	71.25
433.4	82.25
433.622	76.25
433.844	75.25
434.066	81.25
434.287	79.25
434.509	94.25
434.731	74.25
434.953	63.25
435.175	76.25
435.397	98.25
435.618	71.25
435.84	85.25
436.062	80.25
436.284	80.25
436.505	96.25
436.727	89.25
436.949	82.25
437.17	81.25
437.392	78.25
437.614	77.25
437.835	80.25
438.057	66.25
438.278	82.25
438.5	93.25
438.721	74.25
438.943	75.25
439.165	77.25
439.386	97.25
439.608	73.25
439.829	86.25
440.05	95.25
440.272	72.25
440.493	81.25
440.715	82.25
440.936	69.25
441.158	74.25
441.379	85.25
441.6	77.25
441.822	89.25
442.043	84.25
442.264	88.25
442.486	78.25
442.707	90.25
442.928	78.25
443.149	79.25
443.371	75.25
443.592	97.25
443.813	92.25
444.034	86.25
444.255	86.25
444.476	92.25
444.698	76.25
444.919	91.25
445.14	156.25
445.361	129.25
445.582	105.25
445.803	94.25
446.024	74.25
446.245	86.25
446.466	76.25
446.687	85.25
446.908	76.25
447.129	75.25
447.35	92.25
447.571	88.25
447.792	71.25
448.013	73.25
448.234	72.25
448.455	74.25
448.675	84.25
448.896	93.25
449.117	83.25
449.338	74.25
449.559	92.25
449.779	84.25
450	76.25
450.221	83.25
450.442	74.25
450.662	76.25
450.883	72.25
451.104	78.25
451.324	66.25
451.545	74.25
451.766	82.25
451.986	83.25
452.207	82.25
452.428	88.25
452.648	87.25
452.869	92.25
453.089	91.25
453.31	88.25
453.53	79.25
453.751	80.25
453.971	73.25
454.192	70.25
454.412	81.25
454.633	91.25
454.853	70.25
455.073	70.25
455.294	74.25
455.514	81.25
455.734	78.25
455.955	87.25
456.175	74.25
456.395	79.25
456.616	68.25
456.836	84.25
457.056	77.25
457.276	74.25
457.497	82.25
457.717	79.25
457.937	74.25
458.157	82.25
458.377	83.25
458.598	87.25
458.818	76.25
459.038	72.25
459.258	77.25
459.478	80.25
459.698	79.25
459.918	70.25
460.138	77.25
460.358	73.25
460.578	100.25
460.798	82.25
461.018	86.25
461.238	71.25
461.458	86.25
461.678	70.25
461.898	86.25
462.118	83.25
462.338	73.25
462.558	112.25
462.777	82.25
462.997	73.25
463.217	76.25
463.437	82.25
463.657	74.25
463.876	77.25
464.096	86.25
464.316	73.25
464.536	84.25
464.755	91.25
464.975	66.25
465.195	79.25
465.414	82.25
465.634	88.25
465.854	72.25
466.073	88.25
466.293	98.25
466.512	96.25
466.732	84.25
466.951	77.25
467.171	76.25
467.391	63.25
467.61	92.25
467.829	87.25
468.049	75.25
468.268	56.25
468.488	92.25
468.707	79.25
468.927	78.25
469.146	92.25
469.365	82.25
469.585	79.25
469.804	67.25
470.023	75.25
470.243	74.25
470.462	71.25
470.681	72.25
470.901	79.25
471.12	87.25
471.339	84.25
471.558	88.25
471.777	76.25
471.997	83.25
472.216	85.25
472.435	76.25
472.654	86.25
472.873	99.25
473.092	78.25
473.311	81.25
473.53	83.25
473.749	84.25
473.968	76.25
474.187	76.25
474.406	77.25
474.625	72.25
474.844	70.25
475.063	73.25
475.282	79.25
475.501	87.25
475.72	79.25
475.939	83.25
476.158	84.25
476.377	78.25
476.596	91.25
476.814	73.25
477.033	78.25
477.252	86.25
477.471	75.25
477.69	75.25
477.908	81.25
478.127	86.25
478.346	82.25
478.564	70.25
478.783	79.25
479.002	80.25
479.22	82.25
479.439	68.25
479.658	85.25
479.876	70.25
480.095	73.25
480.313	88.25
480.532	98.25
480.751	87.25
480.969	73.25
481.188	86.25
481.406	98.25
481.624	88.25
481.843	78.25
482.061	64.25
482.28	75.25
482.498	86.25
482.717	89.25
482.935	72.25
483.153	90.25
483.372	93.25
483.59	85.25
483.808	76.25
484.027	81.25
484.245	88.25
484.463	80.25
484.681	92.25
484.9	93.25
485.118	84.25
485.336	83.25
485.554	80.25
485.772	80.25
485.99	98.25
486.209	88.25
486.427	73.25
486.645	70.25
486.863	87.25
487.081	83.25
487.299	87.25
487.517	79.25
487.735	77.25
487.953	99.25
488.171	84.25
488.389	81.25
488.607	89.25
488.825	76.25
489.043	78.25
489.261	78.25
489.479	77.25
489.696	79.25
489.914	82.25
490.132	91.25
490.35	78.25
490.568	76.25
490.786	83.25
491.003	85.25
491.221	93.25
491.439	70.25
491.657	86.25
491.874	82.25
492.092	82.25
492.31	93.25
492.527	94.25
492.745	74.25
492.963	87.25
493.18	88.25
493.398	79.25
493.615	82.25
493.833	85.25
494.05	76.25
494.268	84.25
494.485	74.25
494.703	76.25
494.92	76.25
495.138	76.25
495.355	79.25
495.573	84.25
495.79	86.25
496.008	88.25
496.225	82.25
496.442	88.25
496.66	92.25
496.877	82.25
497.094	75.25
497.312	85.25
497.529	100.25
497.746	76.25
497.963	83.25
498.181	88.25
498.398	98.25
498.615	94.25
498.832	96.25
499.049	89.25
499.267	86.25
499.484	76.25
499.701	88.25
499.918	75.25
500.135	81.25
500.352	80.25
500.569	83.25
500.786	82.25
501.003	82.25
501.22	87.25
501.437	74.25
501.654	79.25
501.871	89.25
502.088	82.25
502.305	76.25
502.522	75.25
502.739	93.25
502.956	95.25
503.172	93.25
503.389	89.25
503.606	76.25
503.823	82.25
504.04	82.25
504.256	67.25
504.473	81.25
504.69	88.25
504.907	82.25
505.123	84.25
505.34	89.25
505.557	87.25
505.773	83.25
505.99	78.25
506.207	69.25
506.423	82.25
506.64	76.25
506.856	77.25
507.073	83.25
507.289	90.25
507.506	83.25
507.722	75.25
507.939	81.25
508.155	72.25
508.372	79.25
508.588	87.25
508.805	91.25
509.021	85.25
509.238	94.25
509.454	83.25
509.67	82.25
509.887	88.25
510.103	83.25
510.319	76.25
510.536	80.25
510.752	91.25
510.968	71.25
511.184	84.25
511.401	71.25
511.617	82.25
511.833	86.25
512.049	79.25
512.265	88.25
512.481	85.25
512.698	79.25
512.914	90.25
513.13	78.25
513.346	91.25
513.562	90.25
513.778	97.25
513.994	85.25
514.21	84.25
514.426	78.25
514.642	84.25
514.858	86.25
515.074	79.25
515.29	84.25
515.506	102.25
515.721	74.25
515.937	83.25
516.153	73.25
516.369	78.25
516.585	98.25
516.801	83.25
517.016	82.25
517.232	89.25
517.448	104.25
517.664	89.25
517.879	86.25
518.095	92.25
518.311	81.25
518.527	107.25
518.742	77.25
518.958	82.25
519.173	86.25
519.389	73.25
519.605	81.25
519.82	115.25
520.036	82.25
520.251	72.25
520.467	69.25
520.682	89.25
520.898	77.25
521.113	89.25
521.329	78.25
521.544	85.25
521.76	87.25
521.975	98.25
522.19	84.25
522.406	90.25
522.621	80.25
522.836	78.25
523.052	76.25
523.267	75.25
523.482	87.25
523.698	86.25
523.913	85.25
524.128	84.25
524.343	88.25
524.559	88.25
524.774	83.25
524.989	76.25
525.204	89.25
525.419	84.25
525.634	88.25
525.849	78.25
526.064	90.25
526.28	92.25
526.495	103.25
526.71	113.25
526.925	100.25
527.14	102.25
527.355	113.25
527.57	98.25
527.785	96.25
527.999	88.25
528.214	91.25
528.429	69.25
528.644	79.25
528.859	81.25
529.074	74.25
529.289	71.25
529.503	78.25
529.718	90.25
529.933	78.25
530.148	76.25
530.363	87.25
530.577	75.25
530.792	90.25
531.007	96.25
531.221	94.25
531.436	78.25
531.651	75.25
531.865	70.25
532.08	70.25
532.295	96.25
532.509	93.25
532.724	83.25
532.938	91.25
533.153	87.25
533.367	86.25
533.582	76.25
533.796	94.25
534.011	78.25
534.225	91.25
534.44	89.25
534.654	86.25
534.868	93.25
535.083	96.25
535.297	81.25
535.511	96.25
535.726	88.25
535.94	86.25
536.154	71.25
536.369	80.25
536.583	78.25
536.797	78.25
537.011	85.25
537.225	95.25
537.44	95.25
537.654	84.25
537.868	90.25
538.082	76.25
538.296	88.25
538.51	83.25
538.724	82.25
538.938	82.25
539.153	82.25
539.367	81.25
539.581	76.25
539.795	100.25
540.009	97.25
540.222	86.25
540.436	91.25
540.65	74.25
540.864	87.25
541.078	82.25
541.292	73.25
541.506	91.25
541.72	90.25
541.934	80.25
542.147	95.25
542.361	92.25
542.575	83.25
542.789	82.25
543.002	78.25
543.216	102.25
543.43	86.25
543.644	74.25
543.857	85.25
544.071	81.25
544.285	72.25
544.498	81.25
544.712	82.25
544.925	82.25
545.139	93.25
545.352	85.25
545.566	93.25
545.779	90.25
545.993	86.25
546.206	73.25
546.42	77.25
546.633	76.25
546.847	99.25
547.06	88.25
547.274	87.25
547.487	106.25
547.7	108.25
547.914	88.25
548.127	94.25
548.34	90.25
548.554	89.25
548.767	99.25
548.98	100.25
549.193	92.25
549.407	100.25
549.62	109.25
549.833	98.25
550.046	92.25
550.259	111.25
550.473	99.25
550.686	112.25
550.899	115.25
551.112	117.25
551.325	122.25
551.538	121.25
551.751	119.25
551.964	113.25
552.177	119.25
552.39	98.25
552.603	105.25
552.816	118.25
553.029	108.25
553.242	114.25
553.455	115.25
553.667	117.25
553.88	120.25
554.093	122.25
554.306	137.25
554.519	111.25
554.732	110.25
554.944	127.25
555.157	104.25
555.37	135.25
555.583	117.25
555.795	116.25
556.008	96.25
556.221	88.25
556.433	120.25
556.646	99.25
556.859	83.25
557.071	106.25
557.284	92.25
557.496	88.25
557.709	89.25
557.921	93.25
558.134	94.25
558.346	93.25
558.559	104.25
558.771	109.25
558.984	111.25
559.196	135.25
559.409	111.25
559.621	98.25
559.833	112.25
560.046	114.25
560.258	105.25
560.47	92.25
560.683	96.25
560.895	99.25
561.107	90.25
561.32	85.25
561.532	76.25
561.744	107.25
561.956	79.25
562.168	88.25
562.381	90.25
562.593	86.25
562.805	102.25
563.017	93.25
563.229	85.25
563.441	103.25
563.653	95.25
563.865	70.25
564.077	82.25
564.289	96.25
564.501	98.25
564.713	83.25
564.925	89.25
565.137	95.25
565.349	74.25
565.561	76.25
565.773	87.25
565.985	88.25
566.197	92.25
566.408	93.25
566.62	92.25
566.832	98.25
567.044	99.25
567.255	87.25
567.467	92.25
567.679	88.25
567.891	91.25
568.102	76.25
568.314	98.25
568.526	97.25
568.737	97.25
568.949	96.25
569.161	96.25
569.372	88.25
569.584	80.25
569.795	96.25
570.007	86.25
570.218	82.25
570.43	84.25
570.641	76.25
570.853	92.25
571.064	90.25
571.276	101.25
571.487	87.25
571.698	79.25
571.91	86.25
572.121	86.25
572.333	91.25
572.544	82.25
572.755	91.25
572.966	78.25
573.178	78.25
573.389	85.25
573.6	88.25
573.811	82.25
574.023	99.25
574.234	88.25
574.445	93.25
574.656	75.25
574.867	87.25
575.078	102.25
575.289	96.25
575.501	102.25
575.712	76.25
575.923	79.25
576.134	90.25
576.345	102.25
576.556	86.25
576.767	87.25
576.978	101.25
577.188	87.25
577.399	78.25
577.61	84.25
577.821	97.25
578.032	88.25
578.243	84.25
578.454	82.25
578.665	86.25
578.875	79.25
579.086	86.25
579.297	87.25
579.508	92.25
579.718	99.25
579.929	74.25
580.14	90.25
580.35	98.25
580.561	90.25
580.772	81.25
580.982	79.25
581.193	80.25
581.403	96.25
581.614	88.25
581.825	97.25
582.035	89.25
582.246	100.25
582.456	86.25
582.667	94.25
582.877	94.25
583.087	92.25
583.298	84.25
583.508	78.25
583.719	70.25
583.929	81.25
584.139	84.25
584.35	89.25
584.56	98.25
584.77	86.25
584.981	89.25
585.191	104.25
585.401	92.25
585.611	87.25
585.821	91.25
586.032	98.25
586.242	90.25
586.452	91.25
586.662	93.25
586.872	89.25
587.082	80.25
587.292	100.25
587.502	94.25
587.713	107.25
587.923	96.25
588.133	106.25
588.343	94.25
588.553	120.25
588.762	169.25
588.972	256.25
589.182	322.25
589.392	298.25
589.602	288.25
589.812	311.25
590.022	263.25
590.232	162.25
590.441	121.25
590.651	118.25
590.861	106.25
591.071	100.25
591.281	100.25
591.49	99.25
591.7	108.25
591.91	104.25
592.119	108.25
592.329	90.25
592.539	102.25
592.748	116.25
592.958	98.25
593.167	100.25
593.377	101.25
593.587	114.25
593.796	121.25
594.006	124.25
594.215	114.25
594.424	104.25
594.634	118.25
594.843	99.25
595.053	91.25
595.262	93.25
595.472	84.25
595.681	104.25
595.89	98.25
596.1	108.25
596.309	102.25
596.518	98.25
596.727	90.25
596.937	95.25
597.146	107.25
597.355	90.25
597.564	105.25
597.774	102.25
597.983	102.25
598.192	96.25
598.401	104.25
598.61	92.25
598.819	108.25
599.028	92.25
599.237	107.25
599.446	89.25
599.655	106.25
599.864	104.25
600.073	96.25
600.282	100.25
600.491	105.25
600.7	107.25
600.909	105.25
601.118	106.25
601.327	97.25
601.536	83.25
601.745	102.25
601.953	94.25
602.162	107.25
602.371	102.25
602.58	105.25
602.789	116.25
602.997	101.25
603.206	108.25
603.415	113.25
603.623	103.25
603.832	108.25
604.041	110.25
604.249	118.25
604.458	126.25
604.666	105.25
604.875	110.25
605.084	118.25
605.292	107.25
605.501	102.25
605.709	101.25
605.918	120.25
606.126	108.25
606.334	119.25
606.543	104.25
606.751	110.25
606.96	122.25
607.168	106.25
607.376	99.25
607.585	100.25
607.793	103.25
608.001	98.25
608.21	92.25
608.418	92.25
608.626	102.25
608.834	93.25
609.043	100.25
609.251	115.25
609.459	91.25
609.667	104.25
609.875	106.25
610.083	105.25
610.291	101.25
610.499	105.25
610.707	115.25
610.916	89.25
611.124	92.25
611.332	96.25
611.54	93.25
611.748	105.25
611.955	103.25
612.163	117.25
612.371	125.25
612.579	114.25
612.787	107.25
612.995	116.25
613.203	96.25
613.411	96.25
613.618	107.25
613.826	112.25
614.034	106.25
614.242	91.25
614.449	124.25
614.657	104.25
614.865	110.25
615.072	110.25
615.28	110.25
615.488	143.25
615.695	134.25
615.903	130.25
616.111	119.25
616.318	163.25
616.526	144.25
616.733	121.25
616.941	126.25
617.148	130.25
617.356	143.25
617.563	139.25
617.771	146.25
617.978	156.25
618.185	158.25
618.393	136.25
618.6	142.25
618.807	123.25
619.015	132.25
619.222	150.25
619.429	142.25
619.637	127.25
619.844	126.25
620.051	142.25
620.258	138.25
620.466	137.25
620.673	132.25
620.88	136.25
621.087	134.25
621.294	133.25
621.501	105.25
621.708	112.25
621.915	130.25
622.122	140.25
622.329	99.25
622.536	110.25
622.743	114.25
622.95	118.25
623.157	100.25
623.364	109.25
623.571	107.25
623.778	99.25
623.985	103.25
624.192	122.25
624.399	104.25
624.606	106.25
624.812	112.25
625.019	107.25
625.226	113.25
625.433	113.25
625.639	119.25
625.846	119.25
626.053	95.25
626.259	98.25
626.466	111.25
626.673	102.25
626.879	86.25
627.086	101.25
627.293	107.25
627.499	91.25
627.706	96.25
627.912	86.25
628.119	81.25
628.325	92.25
628.532	98.25
628.738	92.25
628.945	86.25
629.151	91.25
629.357	78.25
629.564	91.25
629.77	87.25
629.976	87.25
630.183	93.25
630.389	90.25
630.595	86.25
630.802	98.25
631.008	110.25
631.214	105.25
631.42	86.25
631.627	78.25
631.833	79.25
632.039	95.25
632.245	92.25
632.451	87.25
632.657	93.25
632.863	84.25
633.069	75.25
633.275	91.25
633.481	76.25
633.688	75.25
633.893	77.25
634.099	78.25
634.305	91.25
634.511	87.25
634.717	83.25
634.923	77.25
635.129	84.25
635.335	85.25
635.541	89.25
635.747	93.25
635.952	73.25
636.158	97.25
636.364	87.25
636.57	78.25
636.775	95.25
636.981	75.25
637.187	89.25
637.392	83.25
637.598	92.25
637.804	91.25
638.009	83.25
638.215	85.25
638.421	88.25
638.626	93.25
638.832	75.25
639.037	102.25
639.243	83.25
639.448	83.25
639.654	81.25
639.859	89.25
640.065	76.25
640.27	99.25
640.475	99.25
640.681	93.25
640.886	82.25
641.091	85.25
641.297	71.25
641.502	72.25
641.707	79.25
641.913	81.25
642.118	85.25
642.323	78.25
642.528	90.25
642.733	87.25
642.939	91.25
643.144	90.25
643.349	91.25
643.554	68.25
643.759	86.25
643.964	80.25
644.169	87.25
644.374	86.25
644.579	72.25
644.784	85.25
644.989	79.25
645.194	84.25
645.399	76.25
645.604	79.25
645.809	78.25
646.014	86.25
646.219	80.25
646.423	84.25
646.628	96.25
646.833	91.25
647.038	74.25
647.243	80.25
647.447	92.25
647.652	81.25
647.857	84.25
648.062	85.25
648.266	88.25
648.471	78.25
648.676	87.25
648.88	80.25
649.085	82.25
649.289	71.25
649.494	99.25
649.698	87.25
649.903	76.25
650.107	74.25
650.312	83.25
650.516	83.25
650.721	85.25
650.925	71.25
651.13	74.25
651.334	71.25
651.539	71.25
651.743	90.25
651.947	88.25
652.152	82.25
652.356	92.25
652.56	87.25
652.764	72.25
652.969	87.25
653.173	93.25
653.377	79.25
653.581	76.25
653.785	91.25
653.99	74.25
654.194	78.25
654.398	84.25
654.602	102.25
654.806	63.25
655.01	86.25
655.214	86.25
655.418	83.25
655.622	84.25
655.826	95.25
656.03	87.25
656.234	73.25
656.438	82.25
656.642	76.25
656.846	72.25
657.049	72.25
657.253	74.25
657.457	76.25
657.661	79.25
657.865	75.25
658.068	91.25
658.272	77.25
658.476	76.25
658.68	78.25
658.883	78.25
659.087	82.25
659.291	83.25
659.494	76.25
659.698	75.25
659.901	89.25
660.105	72.25
660.309	108.25
660.512	91.25
660.716	79.25
660.919	73.25
661.123	74.25
661.326	86.25
661.53	87.25
661.733	74.25
661.936	78.25
662.14	75.25
662.343	86.25
662.546	72.25
662.75	79.25
662.953	96.25
663.156	101.25
663.36	87.25
663.563	79.25
663.766	77.25
663.969	79.25
664.173	71.25
664.376	85.25
664.579	77.25
664.782	79.25
664.985	88.25
665.188	79.25
665.391	75.25
665.594	83.25
665.797	87.25
666	75.25
666.203	98.25
666.406	76.25
666.609	97.25
666.812	79.25
667.015	80.25
667.218	74.25
667.421	85.25
667.624	86.25
667.827	92.25
668.03	92.25
668.232	87.25
668.435	83.25
668.638	65.25
668.841	86.25
669.043	81.25
669.246	83.25
669.449	94.25
669.651	75.25
669.854	79.25
670.057	73.25
670.259	79.25
670.462	75.25
670.665	62.25
670.867	87.25
671.07	70.25
671.272	90.25
671.475	92.25
671.677	70.25
671.88	92.25
672.082	89.25
672.284	86.25
672.487	93.25
672.689	80.25
672.892	88.25
