Data from Soil_50_6_HRD10591_00014.txt Node
Date: Thu Feb 19 11:35:09 EST 2026
User: Yrep
Spectrometer: HR+D1059
Trigger mode: 1
Integration Time (sec): 1.000000E-1
Scans to average: 1
Electric dark correction enabled: true
Nonlinearity correction enabled: false
Boxcar width: 0
XAxis mode: Wavelengths
Number of Pixels in Spectrum: 2048
>>>>>Begin Spectral Data<<<<<
223.165	-7.5
223.4	-7.5
223.635	-7.5
223.869	-30.5
224.104	-9.5
224.338	-18.5
224.573	-23.5
224.808	-13.5
225.042	-9.5
225.277	0.5
225.511	5.5
225.746	6.5
225.98	-7.5
226.215	11.5
226.449	7.5
226.683	22.5
226.918	26.5
227.152	39.5
227.387	36.5
227.621	42.5
227.856	60.5
228.09	52.5
228.324	51.5
228.559	59.5
228.793	45.5
229.027	62.5
229.262	65.5
229.496	65.5
229.73	68.5
229.964	62.5
230.199	68.5
230.433	73.5
230.667	65.5
230.901	77.5
231.136	78.5
231.37	75.5
231.604	67.5
231.838	90.5
232.072	77.5
232.306	80.5
232.541	86.5
232.775	81.5
233.009	75.5
233.243	81.5
233.477	77.5
233.711	73.5
233.945	72.5
234.179	72.5
234.413	83.5
234.647	95.5
234.881	96.5
235.115	89.5
235.349	80.5
235.583	73.5
235.817	79.5
236.051	59.5
236.285	75.5
236.519	87.5
236.753	82.5
236.987	69.5
237.221	77.5
237.455	70.5
237.689	83.5
237.922	82.5
238.156	71.5
238.39	74.5
238.624	73.5
238.858	85.5
239.091	73.5
239.325	82.5
239.559	59.5
239.793	63.5
240.027	71.5
240.26	67.5
240.494	74.5
240.728	66.5
240.961	74.5
241.195	77.5
241.429	76.5
241.662	77.5
241.896	88.5
242.13	72.5
242.363	63.5
242.597	73.5
242.83	68.5
243.064	76.5
243.298	91.5
243.531	71.5
243.765	66.5
243.998	76.5
244.232	77.5
244.465	74.5
244.699	75.5
244.932	72.5
245.166	77.5
245.399	67.5
245.633	71.5
245.866	61.5
246.099	83.5
246.333	80.5
246.566	77.5
246.8	71.5
247.033	78.5
247.266	81.5
247.5	81.5
247.733	83.5
247.966	76.5
248.2	90.5
248.433	71.5
248.666	73.5
248.899	72.5
249.133	73.5
249.366	68.5
249.599	81.5
249.832	80.5
250.066	69.5
250.299	72.5
250.532	82.5
250.765	64.5
250.998	84.5
251.231	61.5
251.465	71.5
251.698	71.5
251.931	73.5
252.164	71.5
252.397	74.5
252.63	90.5
252.863	69.5
253.096	63.5
253.329	87.5
253.562	73.5
253.795	82.5
254.028	74.5
254.261	66.5
254.494	84.5
254.727	64.5
254.96	80.5
255.193	84.5
255.426	71.5
255.659	69.5
255.892	81.5
256.124	70.5
256.357	77.5
256.59	95.5
256.823	77.5
257.056	79.5
257.289	82.5
257.521	81.5
257.754	71.5
257.987	69.5
258.22	72.5
258.452	72.5
258.685	68.5
258.918	71.5
259.151	67.5
259.383	63.5
259.616	61.5
259.849	66.5
260.081	90.5
260.314	83.5
260.547	88.5
260.779	90.5
261.012	78.5
261.244	88.5
261.477	74.5
261.71	78.5
261.942	86.5
262.175	77.5
262.407	81.5
262.64	63.5
262.872	83.5
263.105	77.5
263.337	72.5
263.57	88.5
263.802	80.5
264.035	75.5
264.267	72.5
264.499	80.5
264.732	90.5
264.964	79.5
265.197	83.5
265.429	71.5
265.661	76.5
265.894	81.5
266.126	80.5
266.358	83.5
266.591	86.5
266.823	95.5
267.055	82.5
267.287	73.5
267.52	82.5
267.752	81.5
267.984	76.5
268.216	67.5
268.448	89.5
268.681	91.5
268.913	74.5
269.145	87.5
269.377	82.5
269.609	77.5
269.841	82.5
270.073	77.5
270.306	75.5
270.538	74.5
270.77	90.5
271.002	70.5
271.234	80.5
271.466	69.5
271.698	87.5
271.93	80.5
272.162	79.5
272.394	86.5
272.626	82.5
272.858	81.5
273.09	82.5
273.322	95.5
273.553	73.5
273.785	76.5
274.017	86.5
274.249	65.5
274.481	79.5
274.713	82.5
274.945	77.5
275.176	73.5
275.408	74.5
275.64	64.5
275.872	74.5
276.104	80.5
276.335	77.5
276.567	82.5
276.799	90.5
277.031	82.5
277.262	93.5
277.494	95.5
277.726	86.5
277.957	85.5
278.189	79.5
278.421	93.5
278.652	74.5
278.884	81.5
279.115	77.5
279.347	91.5
279.579	86.5
279.81	86.5
280.042	89.5
280.273	82.5
280.505	87.5
280.736	86.5
280.968	84.5
281.199	78.5
281.431	78.5
281.662	67.5
281.894	87.5
282.125	89.5
282.356	84.5
282.588	74.5
282.819	79.5
283.051	80.5
283.282	81.5
283.513	89.5
283.745	94.5
283.976	81.5
284.207	83.5
284.439	97.5
284.67	81.5
284.901	85.5
285.132	90.5
285.364	94.5
285.595	81.5
285.826	81.5
286.057	85.5
286.288	80.5
286.52	87.5
286.751	96.5
286.982	92.5
287.213	75.5
287.444	84.5
287.675	89.5
287.906	81.5
288.138	90.5
288.369	89.5
288.6	84.5
288.831	83.5
289.062	86.5
289.293	81.5
289.524	86.5
289.755	79.5
289.986	81.5
290.217	87.5
290.448	81.5
290.679	89.5
290.91	81.5
291.141	81.5
291.371	98.5
291.602	87.5
291.833	79.5
292.064	81.5
292.295	82.5
292.526	83.5
292.757	86.5
292.987	90.5
293.218	79.5
293.449	79.5
293.68	82.5
293.91	86.5
294.141	90.5
294.372	96.5
294.603	85.5
294.833	92.5
295.064	92.5
295.295	91.5
295.525	63.5
295.756	86.5
295.987	92.5
296.217	79.5
296.448	97.5
296.679	85.5
296.909	68.5
297.14	85.5
297.37	74.5
297.601	77.5
297.831	67.5
298.062	82.5
298.292	98.5
298.523	79.5
298.753	77.5
298.984	83.5
299.214	83.5
299.445	91.5
299.675	86.5
299.905	84.5
300.136	71.5
300.366	95.5
300.597	88.5
300.827	85.5
301.057	77.5
301.288	82.5
301.518	81.5
301.748	82.5
301.979	103.5
302.209	71.5
302.439	83.5
302.669	81.5
302.9	71.5
303.13	74.5
303.36	104.5
303.59	68.5
303.82	76.5
304.051	89.5
304.281	84.5
304.511	95.5
304.741	99.5
304.971	76.5
305.201	87.5
305.431	87.5
305.661	84.5
305.891	79.5
306.121	85.5
306.352	78.5
306.582	84.5
306.812	81.5
307.042	85.5
307.272	80.5
307.502	94.5
307.731	89.5
307.961	95.5
308.191	81.5
308.421	87.5
308.651	76.5
308.881	80.5
309.111	70.5
309.341	76.5
309.571	87.5
309.8	74.5
310.03	98.5
310.26	87.5
310.49	82.5
310.72	70.5
310.949	80.5
311.179	66.5
311.409	72.5
311.639	72.5
311.868	90.5
312.098	81.5
312.328	82.5
312.557	84.5
312.787	75.5
313.017	74.5
313.246	73.5
313.476	77.5
313.706	88.5
313.935	74.5
314.165	74.5
314.394	83.5
314.624	72.5
314.853	70.5
315.083	72.5
315.312	91.5
315.542	85.5
315.771	68.5
316.001	71.5
316.23	90.5
316.46	72.5
316.689	82.5
316.919	80.5
317.148	76.5
317.377	82.5
317.607	92.5
317.836	82.5
318.065	88.5
318.295	97.5
318.524	91.5
318.753	99.5
318.983	98.5
319.212	77.5
319.441	85.5
319.67	83.5
319.9	75.5
320.129	83.5
320.358	89.5
320.587	66.5
320.816	79.5
321.046	83.5
321.275	80.5
321.504	83.5
321.733	95.5
321.962	75.5
322.191	89.5
322.42	96.5
322.649	75.5
322.878	84.5
323.108	77.5
323.337	83.5
323.566	83.5
323.795	81.5
324.024	76.5
324.253	74.5
324.482	84.5
324.71	85.5
324.939	93.5
325.168	76.5
325.397	82.5
325.626	74.5
325.855	88.5
326.084	76.5
326.313	86.5
326.542	101.5
326.77	83.5
326.999	103.5
327.228	83.5
327.457	82.5
327.686	73.5
327.914	76.5
328.143	83.5
328.372	79.5
328.6	89.5
328.829	80.5
329.058	72.5
329.287	80.5
329.515	83.5
329.744	81.5
329.972	73.5
330.201	92.5
330.43	89.5
330.658	89.5
330.887	85.5
331.115	95.5
331.344	75.5
331.572	75.5
331.801	94.5
332.03	77.5
332.258	84.5
332.486	83.5
332.715	73.5
332.943	92.5
333.172	87.5
333.4	89.5
333.629	85.5
333.857	86.5
334.085	81.5
334.314	77.5
334.542	88.5
334.771	85.5
334.999	76.5
335.227	78.5
335.455	87.5
335.684	88.5
335.912	88.5
336.14	84.5
336.369	81.5
336.597	77.5
336.825	92.5
337.053	76.5
337.281	83.5
337.51	97.5
337.738	83.5
337.966	77.5
338.194	80.5
338.422	81.5
338.65	82.5
338.878	86.5
339.106	80.5
339.334	97.5
339.562	78.5
339.79	83.5
340.018	90.5
340.246	81.5
340.474	77.5
340.702	73.5
340.93	79.5
341.158	73.5
341.386	89.5
341.614	86.5
341.842	95.5
342.07	83.5
342.298	81.5
342.526	87.5
342.754	91.5
342.981	94.5
343.209	81.5
343.437	91.5
343.665	84.5
343.893	81.5
344.12	92.5
344.348	75.5
344.576	81.5
344.804	67.5
345.031	81.5
345.259	88.5
345.487	91.5
345.714	94.5
345.942	85.5
346.17	83.5
346.397	79.5
346.625	97.5
346.853	85.5
347.08	72.5
347.308	67.5
347.535	79.5
347.763	85.5
347.99	95.5
348.218	87.5
348.445	71.5
348.673	80.5
348.9	68.5
349.128	87.5
349.355	77.5
349.583	80.5
349.81	92.5
350.037	89.5
350.265	77.5
350.492	83.5
350.72	82.5
350.947	66.5
351.174	86.5
351.402	86.5
351.629	75.5
351.856	82.5
352.083	66.5
352.311	78.5
352.538	73.5
352.765	80.5
352.992	97.5
353.22	89.5
353.447	88.5
353.674	82.5
353.901	101.5
354.128	88.5
354.355	86.5
354.583	77.5
354.81	79.5
355.037	79.5
355.264	91.5
355.491	71.5
355.718	82.5
355.945	74.5
356.172	73.5
356.399	74.5
356.626	89.5
356.853	82.5
357.08	84.5
357.307	78.5
357.534	79.5
357.761	85.5
357.988	82.5
358.215	83.5
358.441	90.5
358.668	74.5
358.895	84.5
359.122	89.5
359.349	84.5
359.576	90.5
359.802	84.5
360.029	82.5
360.256	75.5
360.483	91.5
360.709	77.5
360.936	102.5
361.163	76.5
361.39	91.5
361.616	82.5
361.843	83.5
362.07	96.5
362.296	75.5
362.523	79.5
362.749	82.5
362.976	89.5
363.203	100.5
363.429	81.5
363.656	74.5
363.882	87.5
364.109	76.5
364.335	83.5
364.562	88.5
364.788	80.5
365.015	90.5
365.241	87.5
365.468	91.5
365.694	85.5
365.92	86.5
366.147	74.5
366.373	74.5
366.599	81.5
366.826	82.5
367.052	78.5
367.278	70.5
367.505	77.5
367.731	81.5
367.957	83.5
368.184	71.5
368.41	83.5
368.636	83.5
368.862	90.5
369.089	83.5
369.315	77.5
369.541	89.5
369.767	74.5
369.993	76.5
370.219	79.5
370.445	65.5
370.672	76.5
370.898	76.5
371.124	72.5
371.35	81.5
371.576	89.5
371.802	89.5
372.028	97.5
372.254	81.5
372.48	85.5
372.706	80.5
372.932	83.5
373.158	87.5
373.384	92.5
373.61	94.5
373.835	86.5
374.061	92.5
374.287	85.5
374.513	83.5
374.739	81.5
374.965	85.5
375.191	84.5
375.416	84.5
375.642	75.5
375.868	97.5
376.094	81.5
376.319	85.5
376.545	75.5
376.771	74.5
376.997	80.5
377.222	82.5
377.448	67.5
377.674	77.5
377.899	87.5
378.125	73.5
378.35	67.5
378.576	77.5
378.802	74.5
379.027	91.5
379.253	91.5
379.478	81.5
379.704	87.5
379.929	75.5
380.155	89.5
380.38	81.5
380.606	77.5
380.831	72.5
381.057	84.5
381.282	83.5
381.507	83.5
381.733	85.5
381.958	92.5
382.184	74.5
382.409	92.5
382.634	86.5
382.86	98.5
383.085	92.5
383.31	95.5
383.535	79.5
383.761	91.5
383.986	94.5
384.211	73.5
384.436	85.5
384.662	81.5
384.887	84.5
385.112	86.5
385.337	78.5
385.562	81.5
385.787	81.5
386.013	82.5
386.238	106.5
386.463	101.5
386.688	90.5
386.913	77.5
387.138	59.5
387.363	81.5
387.588	87.5
387.813	95.5
388.038	83.5
388.263	93.5
388.488	86.5
388.713	85.5
388.938	87.5
389.163	75.5
389.387	75.5
389.612	76.5
389.837	89.5
390.062	92.5
390.287	83.5
390.512	85.5
390.736	86.5
390.961	76.5
391.186	95.5
391.411	87.5
391.636	79.5
391.86	74.5
392.085	74.5
392.31	78.5
392.534	84.5
392.759	92.5
392.984	90.5
393.208	126.5
393.433	149.5
393.658	121.5
393.882	77.5
394.107	81.5
394.331	96.5
394.556	78.5
394.78	82.5
395.005	81.5
395.229	79.5
395.454	73.5
395.678	81.5
395.903	93.5
396.127	106.5
396.352	81.5
396.576	101.5
396.801	123.5
397.025	112.5
397.249	91.5
397.474	73.5
397.698	88.5
397.922	74.5
398.147	71.5
398.371	80.5
398.595	77.5
398.82	83.5
399.044	80.5
399.268	70.5
399.492	77.5
399.717	79.5
399.941	80.5
400.165	77.5
400.389	73.5
400.613	88.5
400.837	81.5
401.062	81.5
401.286	87.5
401.51	98.5
401.734	77.5
401.958	70.5
402.182	73.5
402.406	84.5
402.63	80.5
402.854	94.5
403.078	97.5
403.302	90.5
403.526	72.5
403.75	89.5
403.974	78.5
404.198	78.5
404.422	82.5
404.645	86.5
404.869	78.5
405.093	88.5
405.317	74.5
405.541	81.5
405.765	77.5
405.988	68.5
406.212	69.5
406.436	97.5
406.66	78.5
406.883	93.5
407.107	63.5
407.331	83.5
407.555	81.5
407.778	87.5
408.002	91.5
408.226	87.5
408.449	80.5
408.673	87.5
408.896	74.5
409.12	89.5
409.344	87.5
409.567	76.5
409.791	82.5
410.014	72.5
410.238	82.5
410.461	78.5
410.685	72.5
410.908	76.5
411.132	82.5
411.355	73.5
411.578	84.5
411.802	79.5
412.025	87.5
412.249	87.5
412.472	74.5
412.695	79.5
412.919	73.5
413.142	84.5
413.365	82.5
413.589	78.5
413.812	83.5
414.035	80.5
414.258	95.5
414.482	79.5
414.705	80.5
414.928	78.5
415.151	75.5
415.374	80.5
415.597	92.5
415.821	83.5
416.044	66.5
416.267	81.5
416.49	86.5
416.713	74.5
416.936	66.5
417.159	79.5
417.382	72.5
417.605	87.5
417.828	81.5
418.051	88.5
418.274	81.5
418.497	84.5
418.72	73.5
418.943	90.5
419.166	80.5
419.389	70.5
419.611	89.5
419.834	91.5
420.057	80.5
420.28	85.5
420.503	77.5
420.726	74.5
420.948	85.5
421.171	98.5
421.394	83.5
421.617	96.5
421.839	94.5
422.062	82.5
422.285	94.5
422.507	111.5
422.73	149.5
422.953	130.5
423.175	100.5
423.398	85.5
423.621	72.5
423.843	83.5
424.066	74.5
424.288	94.5
424.511	62.5
424.733	70.5
424.956	90.5
425.178	82.5
425.401	82.5
425.623	69.5
425.846	72.5
426.068	79.5
426.291	89.5
426.513	82.5
426.735	86.5
426.958	75.5
427.18	76.5
427.402	83.5
427.625	69.5
427.847	67.5
428.069	92.5
428.292	76.5
428.514	75.5
428.736	86.5
428.958	84.5
429.181	86.5
429.403	79.5
429.625	77.5
429.847	85.5
430.069	102.5
430.292	89.5
430.514	93.5
430.736	92.5
430.958	82.5
431.18	78.5
431.402	72.5
431.624	92.5
431.846	87.5
432.068	82.5
432.29	73.5
432.512	81.5
432.734	80.5
432.956	80.5
433.178	68.5
433.4	83.5
433.622	80.5
433.844	66.5
434.066	87.5
434.287	73.5
434.509	75.5
434.731	78.5
434.953	82.5
435.175	76.5
435.397	82.5
435.618	75.5
435.84	94.5
436.062	78.5
436.284	84.5
436.505	74.5
436.727	85.5
436.949	75.5
437.17	81.5
437.392	73.5
437.614	64.5
437.835	79.5
438.057	90.5
438.278	71.5
438.5	82.5
438.721	107.5
438.943	83.5
439.165	73.5
439.386	69.5
439.608	78.5
439.829	77.5
440.05	93.5
440.272	88.5
440.493	92.5
440.715	89.5
440.936	75.5
441.158	76.5
441.379	83.5
441.6	74.5
441.822	98.5
442.043	92.5
442.264	88.5
442.486	83.5
442.707	95.5
442.928	94.5
443.149	88.5
443.371	86.5
443.592	118.5
443.813	92.5
444.034	95.5
444.255	79.5
444.476	82.5
444.698	81.5
444.919	74.5
445.14	168.5
445.361	130.5
445.582	122.5
445.803	97.5
446.024	81.5
446.245	74.5
446.466	73.5
446.687	65.5
446.908	84.5
447.129	91.5
447.35	84.5
447.571	89.5
447.792	79.5
448.013	71.5
448.234	77.5
448.455	76.5
448.675	84.5
448.896	69.5
449.117	81.5
449.338	74.5
449.559	64.5
449.779	81.5
450	95.5
450.221	78.5
450.442	95.5
450.662	86.5
450.883	87.5
451.104	74.5
451.324	81.5
451.545	80.5
451.766	82.5
451.986	71.5
452.207	87.5
452.428	73.5
452.648	83.5
452.869	79.5
453.089	79.5
453.31	79.5
453.53	82.5
453.751	61.5
453.971	85.5
454.192	77.5
454.412	81.5
454.633	66.5
454.853	84.5
455.073	87.5
455.294	78.5
455.514	87.5
455.734	77.5
455.955	85.5
456.175	101.5
456.395	77.5
456.616	82.5
456.836	71.5
457.056	82.5
457.276	69.5
457.497	75.5
457.717	71.5
457.937	78.5
458.157	85.5
458.377	98.5
458.598	77.5
458.818	87.5
459.038	84.5
459.258	74.5
459.478	74.5
459.698	69.5
459.918	85.5
460.138	82.5
460.358	64.5
460.578	71.5
460.798	84.5
461.018	81.5
461.238	91.5
461.458	70.5
461.678	61.5
461.898	71.5
462.118	86.5
462.338	74.5
462.558	81.5
462.777	87.5
462.997	83.5
463.217	81.5
463.437	79.5
463.657	76.5
463.876	69.5
464.096	84.5
464.316	73.5
464.536	80.5
464.755	76.5
464.975	81.5
465.195	84.5
465.414	77.5
465.634	74.5
465.854	80.5
466.073	75.5
466.293	67.5
466.512	81.5
466.732	71.5
466.951	79.5
467.171	74.5
467.391	93.5
467.61	85.5
467.829	74.5
468.049	94.5
468.268	80.5
468.488	74.5
468.707	75.5
468.927	73.5
469.146	74.5
469.365	99.5
469.585	83.5
469.804	96.5
470.023	79.5
470.243	70.5
470.462	83.5
470.681	69.5
470.901	87.5
471.12	76.5
471.339	79.5
471.558	89.5
471.777	80.5
471.997	80.5
472.216	80.5
472.435	70.5
472.654	89.5
472.873	77.5
473.092	78.5
473.311	89.5
473.53	75.5
473.749	82.5
473.968	85.5
474.187	89.5
474.406	73.5
474.625	94.5
474.844	86.5
475.063	84.5
475.282	77.5
475.501	75.5
475.72	99.5
475.939	77.5
476.158	66.5
476.377	89.5
476.596	69.5
476.814	86.5
477.033	74.5
477.252	87.5
477.471	87.5
477.69	85.5
477.908	81.5
478.127	84.5
478.346	83.5
478.564	81.5
478.783	86.5
479.002	87.5
479.22	69.5
479.439	76.5
479.658	74.5
479.876	95.5
480.095	86.5
480.313	84.5
480.532	95.5
480.751	84.5
480.969	95.5
481.188	92.5
481.406	97.5
481.624	89.5
481.843	74.5
482.061	80.5
482.28	77.5
482.498	77.5
482.717	83.5
482.935	69.5
483.153	76.5
483.372	89.5
483.59	72.5
483.808	84.5
484.027	92.5
484.245	85.5
484.463	81.5
484.681	76.5
484.9	84.5
485.118	79.5
485.336	81.5
485.554	79.5
485.772	85.5
485.99	82.5
486.209	77.5
486.427	71.5
486.645	79.5
486.863	77.5
487.081	77.5
487.299	84.5
487.517	94.5
487.735	82.5
487.953	100.5
488.171	89.5
488.389	72.5
488.607	70.5
488.825	83.5
489.043	75.5
489.261	79.5
489.479	74.5
489.696	83.5
489.914	77.5
490.132	74.5
490.35	78.5
490.568	72.5
490.786	93.5
491.003	96.5
491.221	81.5
491.439	85.5
491.657	82.5
491.874	93.5
492.092	85.5
492.31	88.5
492.527	68.5
492.745	82.5
492.963	77.5
493.18	79.5
493.398	81.5
493.615	80.5
493.833	94.5
494.05	82.5
494.268	80.5
494.485	86.5
494.703	92.5
494.92	64.5
495.138	79.5
495.355	100.5
495.573	78.5
495.79	89.5
496.008	81.5
496.225	81.5
496.442	93.5
496.66	86.5
496.877	81.5
497.094	71.5
497.312	86.5
497.529	98.5
497.746	87.5
497.963	81.5
498.181	79.5
498.398	107.5
498.615	88.5
498.832	82.5
499.049	87.5
499.267	81.5
499.484	90.5
499.701	70.5
499.918	74.5
500.135	80.5
500.352	89.5
500.569	73.5
500.786	89.5
501.003	73.5
501.22	70.5
501.437	87.5
501.654	90.5
501.871	70.5
502.088	86.5
502.305	72.5
502.522	71.5
502.739	79.5
502.956	86.5
503.172	87.5
503.389	81.5
503.606	75.5
503.823	85.5
504.04	92.5
504.256	83.5
504.473	72.5
504.69	92.5
504.907	80.5
505.123	92.5
505.34	70.5
505.557	83.5
505.773	75.5
505.99	79.5
506.207	81.5
506.423	71.5
506.64	79.5
506.856	84.5
507.073	90.5
507.289	85.5
507.506	89.5
507.722	86.5
507.939	76.5
508.155	84.5
508.372	81.5
508.588	83.5
508.805	84.5
509.021	80.5
509.238	88.5
509.454	73.5
509.67	83.5
509.887	95.5
510.103	94.5
510.319	75.5
510.536	86.5
510.752	77.5
510.968	78.5
511.184	77.5
511.401	78.5
511.617	90.5
511.833	78.5
512.049	89.5
512.265	85.5
512.481	78.5
512.698	81.5
512.914	71.5
513.13	81.5
513.346	73.5
513.562	90.5
513.778	94.5
513.994	71.5
514.21	83.5
514.426	93.5
514.642	88.5
514.858	79.5
515.074	80.5
515.29	85.5
515.506	81.5
515.721	84.5
515.937	87.5
516.153	85.5
516.369	90.5
516.585	88.5
516.801	94.5
517.016	90.5
517.232	77.5
517.448	92.5
517.664	79.5
517.879	72.5
518.095	85.5
518.311	99.5
518.527	115.5
518.742	95.5
518.958	88.5
519.173	101.5
519.389	81.5
519.605	82.5
519.82	83.5
520.036	80.5
520.251	74.5
520.467	87.5
520.682	73.5
520.898	89.5
521.113	87.5
521.329	98.5
521.544	89.5
521.76	88.5
521.975	84.5
522.19	95.5
522.406	81.5
522.621	75.5
522.836	78.5
523.052	95.5
523.267	82.5
523.482	83.5
523.698	82.5
523.913	94.5
524.128	86.5
524.343	89.5
524.559	89.5
524.774	88.5
524.989	85.5
525.204	90.5
525.419	86.5
525.634	81.5
525.849	85.5
526.064	87.5
526.28	119.5
526.495	118.5
526.71	129.5
526.925	105.5
527.14	126.5
527.355	109.5
527.57	89.5
527.785	89.5
527.999	77.5
528.214	88.5
528.429	85.5
528.644	80.5
528.859	106.5
529.074	72.5
529.289	88.5
529.503	83.5
529.718	88.5
529.933	80.5
530.148	73.5
530.363	80.5
530.577	84.5
530.792	78.5
531.007	73.5
531.221	92.5
531.436	83.5
531.651	77.5
531.865	86.5
532.08	91.5
532.295	74.5
532.509	76.5
532.724	75.5
532.938	75.5
533.153	77.5
533.367	65.5
533.582	74.5
533.796	86.5
534.011	90.5
534.225	86.5
534.44	88.5
534.654	90.5
534.868	94.5
535.083	87.5
535.297	87.5
535.511	101.5
535.726	95.5
535.94	76.5
536.154	86.5
536.369	99.5
536.583	90.5
536.797	87.5
537.011	86.5
537.225	81.5
537.44	75.5
537.654	75.5
537.868	82.5
538.082	84.5
538.296	96.5
538.51	92.5
538.724	81.5
538.938	96.5
539.153	85.5
539.367	92.5
539.581	79.5
539.795	87.5
540.009	81.5
540.222	81.5
540.436	83.5
540.65	100.5
540.864	83.5
541.078	90.5
541.292	87.5
541.506	90.5
541.72	72.5
541.934	89.5
542.147	89.5
542.361	80.5
542.575	90.5
542.789	92.5
543.002	103.5
543.216	88.5
543.43	101.5
543.644	106.5
543.857	85.5
544.071	71.5
544.285	73.5
544.498	88.5
544.712	89.5
544.925	86.5
545.139	87.5
545.352	91.5
545.566	70.5
545.779	76.5
545.993	90.5
546.206	96.5
546.42	80.5
546.633	84.5
546.847	90.5
547.06	78.5
547.274	87.5
547.487	81.5
547.7	104.5
547.914	101.5
548.127	82.5
548.34	98.5
548.554	101.5
548.767	97.5
548.98	105.5
549.193	102.5
549.407	97.5
549.62	113.5
549.833	96.5
550.046	97.5
550.259	103.5
550.473	102.5
550.686	112.5
550.899	115.5
551.112	114.5
551.325	131.5
551.538	131.5
551.751	117.5
551.964	113.5
552.177	145.5
552.39	125.5
552.603	110.5
552.816	123.5
553.029	130.5
553.242	135.5
553.455	144.5
553.667	135.5
553.88	133.5
554.093	130.5
554.306	127.5
554.519	133.5
554.732	136.5
554.944	132.5
555.157	126.5
555.37	120.5
555.583	131.5
555.795	121.5
556.008	118.5
556.221	111.5
556.433	113.5
556.646	112.5
556.859	114.5
557.071	115.5
557.284	100.5
557.496	111.5
557.709	100.5
557.921	90.5
558.134	103.5
558.346	112.5
558.559	112.5
558.771	97.5
558.984	134.5
559.196	143.5
559.409	113.5
559.621	133.5
559.833	111.5
560.046	138.5
560.258	105.5
560.47	119.5
560.683	87.5
560.895	89.5
561.107	81.5
561.32	83.5
561.532	83.5
561.744	83.5
561.956	89.5
562.168	89.5
562.381	75.5
562.593	88.5
562.805	81.5
563.017	103.5
563.229	74.5
563.441	92.5
563.653	76.5
563.865	83.5
564.077	76.5
564.289	97.5
564.501	87.5
564.713	89.5
564.925	78.5
565.137	86.5
565.349	95.5
565.561	96.5
565.773	88.5
565.985	92.5
566.197	84.5
566.408	83.5
566.62	85.5
566.832	91.5
567.044	81.5
567.255	105.5
567.467	86.5
567.679	95.5
567.891	97.5
568.102	79.5
568.314	75.5
568.526	101.5
568.737	104.5
568.949	106.5
569.161	96.5
569.372	79.5
569.584	90.5
569.795	88.5
570.007	105.5
570.218	102.5
570.43	98.5
570.641	80.5
570.853	100.5
571.064	93.5
571.276	90.5
571.487	94.5
571.698	96.5
571.91	80.5
572.121	78.5
572.333	80.5
572.544	80.5
572.755	98.5
572.966	91.5
573.178	84.5
573.389	94.5
573.6	92.5
573.811	87.5
574.023	85.5
574.234	86.5
574.445	98.5
574.656	81.5
574.867	87.5
575.078	89.5
575.289	90.5
575.501	94.5
575.712	81.5
575.923	98.5
576.134	86.5
576.345	101.5
576.556	95.5
576.767	88.5
576.978	93.5
577.188	92.5
577.399	90.5
577.61	89.5
577.821	80.5
578.032	85.5
578.243	88.5
578.454	83.5
578.665	93.5
578.875	74.5
579.086	89.5
579.297	72.5
579.508	84.5
579.718	106.5
579.929	88.5
580.14	94.5
580.35	97.5
580.561	82.5
580.772	88.5
580.982	91.5
581.193	92.5
581.403	91.5
581.614	97.5
581.825	95.5
582.035	98.5
582.246	95.5
582.456	96.5
582.667	87.5
582.877	97.5
583.087	93.5
583.298	70.5
583.508	91.5
583.719	78.5
583.929	85.5
584.139	78.5
584.35	89.5
584.56	92.5
584.77	93.5
584.981	82.5
585.191	98.5
585.401	89.5
585.611	87.5
585.821	100.5
586.032	121.5
586.242	85.5
586.452	82.5
586.662	81.5
586.872	98.5
587.082	93.5
587.292	104.5
587.502	90.5
587.713	94.5
587.923	101.5
588.133	107.5
588.343	120.5
588.553	144.5
588.762	182.5
588.972	274.5
589.182	342.5
589.392	325.5
589.602	291.5
589.812	315.5
590.022	268.5
590.232	172.5
590.441	142.5
590.651	112.5
590.861	117.5
591.071	113.5
591.281	112.5
591.49	110.5
591.7	106.5
591.91	105.5
592.119	97.5
592.329	113.5
592.539	124.5
592.748	118.5
592.958	112.5
593.167	132.5
593.377	124.5
593.587	127.5
593.796	136.5
594.006	117.5
594.215	132.5
594.424	111.5
594.634	109.5
594.843	109.5
595.053	93.5
595.262	98.5
595.472	108.5
595.681	113.5
595.89	88.5
596.1	101.5
596.309	109.5
596.518	99.5
596.727	104.5
596.937	105.5
597.146	110.5
597.355	102.5
597.564	111.5
597.774	93.5
597.983	95.5
598.192	94.5
598.401	95.5
598.61	102.5
598.819	115.5
599.028	101.5
599.237	101.5
599.446	100.5
599.655	117.5
599.864	88.5
600.073	110.5
600.282	115.5
600.491	102.5
600.7	107.5
600.909	111.5
601.118	106.5
601.327	96.5
601.536	90.5
601.745	102.5
601.953	94.5
602.162	97.5
602.371	102.5
602.58	105.5
602.789	106.5
602.997	105.5
603.206	102.5
603.415	102.5
603.623	107.5
603.832	113.5
604.041	100.5
604.249	103.5
604.458	111.5
604.666	115.5
604.875	107.5
605.084	105.5
605.292	105.5
605.501	105.5
605.709	114.5
605.918	101.5
606.126	117.5
606.334	115.5
606.543	120.5
606.751	119.5
606.96	111.5
607.168	115.5
607.376	111.5
607.585	113.5
607.793	105.5
608.001	110.5
608.21	105.5
608.418	93.5
608.626	128.5
608.834	106.5
609.043	90.5
609.251	104.5
609.459	101.5
609.667	103.5
609.875	103.5
610.083	104.5
610.291	105.5
610.499	139.5
610.707	123.5
610.916	101.5
611.124	113.5
611.332	109.5
611.54	117.5
611.748	121.5
611.955	111.5
612.163	131.5
612.371	156.5
612.579	136.5
612.787	129.5
612.995	115.5
613.203	111.5
613.411	118.5
613.618	123.5
613.826	116.5
614.034	126.5
614.242	114.5
614.449	111.5
614.657	113.5
614.865	119.5
615.072	134.5
615.28	122.5
615.488	143.5
615.695	135.5
615.903	130.5
616.111	150.5
616.318	184.5
616.526	181.5
616.733	155.5
616.941	130.5
617.148	166.5
617.356	160.5
617.563	134.5
617.771	163.5
617.978	152.5
618.185	162.5
618.393	163.5
618.6	146.5
618.807	129.5
619.015	155.5
619.222	151.5
619.429	163.5
619.637	147.5
619.844	152.5
620.051	144.5
620.258	146.5
620.466	142.5
620.673	158.5
620.88	141.5
621.087	150.5
621.294	136.5
621.501	117.5
621.708	120.5
621.915	138.5
622.122	120.5
622.329	126.5
622.536	107.5
622.743	133.5
622.95	117.5
623.157	128.5
623.364	120.5
623.571	110.5
623.778	106.5
623.985	134.5
624.192	112.5
624.399	132.5
624.606	97.5
624.812	121.5
625.019	120.5
625.226	118.5
625.433	114.5
625.639	99.5
625.846	125.5
626.053	103.5
626.259	100.5
626.466	111.5
626.673	109.5
626.879	95.5
627.086	106.5
627.293	102.5
627.499	110.5
627.706	114.5
627.912	101.5
628.119	105.5
628.325	108.5
628.532	88.5
628.738	98.5
628.945	102.5
629.151	95.5
629.357	96.5
629.564	112.5
629.77	96.5
629.976	91.5
630.183	101.5
630.389	86.5
630.595	97.5
630.802	90.5
631.008	88.5
631.214	92.5
631.42	77.5
631.627	102.5
631.833	95.5
632.039	83.5
632.245	91.5
632.451	94.5
632.657	93.5
632.863	86.5
633.069	93.5
633.275	89.5
633.481	82.5
633.688	103.5
633.893	77.5
634.099	64.5
634.305	96.5
634.511	97.5
634.717	88.5
634.923	88.5
635.129	83.5
635.335	84.5
635.541	83.5
635.747	82.5
635.952	87.5
636.158	71.5
636.364	92.5
636.57	75.5
636.775	81.5
636.981	72.5
637.187	82.5
637.392	71.5
637.598	91.5
637.804	89.5
638.009	79.5
638.215	92.5
638.421	67.5
638.626	75.5
638.832	95.5
639.037	99.5
639.243	90.5
639.448	78.5
639.654	90.5
639.859	76.5
640.065	76.5
640.27	86.5
640.475	91.5
640.681	82.5
640.886	89.5
641.091	87.5
641.297	94.5
641.502	88.5
641.707	93.5
641.913	81.5
642.118	65.5
642.323	73.5
642.528	91.5
642.733	94.5
642.939	94.5
643.144	79.5
643.349	104.5
643.554	84.5
643.759	90.5
643.964	87.5
644.169	103.5
644.374	102.5
644.579	93.5
644.784	101.5
644.989	74.5
645.194	99.5
645.399	82.5
645.604	82.5
645.809	75.5
646.014	88.5
646.219	95.5
646.423	103.5
646.628	101.5
646.833	91.5
647.038	91.5
647.243	91.5
647.447	96.5
647.652	101.5
647.857	80.5
648.062	81.5
648.266	89.5
648.471	82.5
648.676	85.5
648.88	74.5
649.085	82.5
649.289	80.5
649.494	88.5
649.698	97.5
649.903	74.5
650.107	80.5
650.312	88.5
650.516	83.5
650.721	81.5
650.925	79.5
651.13	88.5
651.334	96.5
651.539	89.5
651.743	88.5
651.947	87.5
652.152	72.5
652.356	85.5
652.56	72.5
652.764	89.5
652.969	82.5
653.173	85.5
653.377	77.5
653.581	87.5
653.785	87.5
653.99	92.5
654.194	83.5
654.398	81.5
654.602	91.5
654.806	85.5
655.01	91.5
655.214	60.5
655.418	80.5
655.622	84.5
655.826	79.5
656.03	76.5
656.234	83.5
656.438	81.5
656.642	88.5
656.846	87.5
657.049	77.5
657.253	83.5
657.457	81.5
657.661	81.5
657.865	89.5
658.068	89.5
658.272	86.5
658.476	88.5
658.68	75.5
658.883	80.5
659.087	81.5
659.291	78.5
659.494	86.5
659.698	73.5
659.901	81.5
660.105	91.5
660.309	73.5
660.512	81.5
660.716	83.5
660.919	83.5
661.123	73.5
661.326	74.5
661.53	88.5
661.733	84.5
661.936	86.5
662.14	76.5
662.343	69.5
662.546	82.5
662.75	85.5
662.953	75.5
663.156	92.5
663.36	77.5
663.563	80.5
663.766	83.5
663.969	72.5
664.173	84.5
664.376	74.5
664.579	91.5
664.782	75.5
664.985	78.5
665.188	71.5
665.391	100.5
665.594	79.5
665.797	78.5
666	84.5
666.203	85.5
666.406	85.5
666.609	84.5
666.812	76.5
667.015	73.5
667.218	85.5
667.421	82.5
667.624	74.5
667.827	84.5
668.03	64.5
668.232	69.5
668.435	78.5
668.638	81.5
668.841	85.5
669.043	80.5
669.246	78.5
669.449	71.5
669.651	77.5
669.854	85.5
670.057	87.5
670.259	86.5
670.462	74.5
670.665	62.5
670.867	78.5
671.07	85.5
671.272	88.5
671.475	90.5
671.677	102.5
671.88	84.5
672.082	66.5
672.284	78.5
672.487	74.5
672.689	77.5
672.892	71.5
