Data from Soil_50_6_HRD10591_00019.txt Node
Date: Thu Feb 19 11:35:11 EST 2026
User: Yrep
Spectrometer: HR+D1059
Trigger mode: 1
Integration Time (sec): 1.000000E-1
Scans to average: 1
Electric dark correction enabled: true
Nonlinearity correction enabled: false
Boxcar width: 0
XAxis mode: Wavelengths
Number of Pixels in Spectrum: 2048
>>>>>Begin Spectral Data<<<<<
223.165	-14.44
223.4	-14.44
223.635	-14.44
223.869	-22.44
224.104	-8.44
224.338	-17.44
224.573	-1.44
224.808	-26.44
225.042	-11.44
225.277	-4.44
225.511	-4.44
225.746	-0.44
225.98	12.56
226.215	9.56
226.449	10.56
226.683	10.56
226.918	29.56
227.152	38.56
227.387	41.56
227.621	47.56
227.856	40.56
228.09	41.56
228.324	56.56
228.559	64.56
228.793	55.56
229.027	54.56
229.262	54.56
229.496	69.56
229.73	65.56
229.964	75.56
230.199	71.56
230.433	71.56
230.667	73.56
230.901	78.56
231.136	87.56
231.37	82.56
231.604	78.56
231.838	81.56
232.072	76.56
232.306	91.56
232.541	78.56
232.775	92.56
233.009	89.56
233.243	77.56
233.477	78.56
233.711	76.56
233.945	77.56
234.179	80.56
234.413	82.56
234.647	82.56
234.881	71.56
235.115	77.56
235.349	73.56
235.583	63.56
235.817	79.56
236.051	84.56
236.285	71.56
236.519	71.56
236.753	72.56
236.987	81.56
237.221	77.56
237.455	79.56
237.689	78.56
237.922	80.56
238.156	58.56
238.39	75.56
238.624	73.56
238.858	74.56
239.091	69.56
239.325	73.56
239.559	79.56
239.793	69.56
240.027	72.56
240.26	81.56
240.494	67.56
240.728	77.56
240.961	69.56
241.195	71.56
241.429	71.56
241.662	75.56
241.896	82.56
242.13	69.56
242.363	81.56
242.597	74.56
242.83	78.56
243.064	74.56
243.298	76.56
243.531	77.56
243.765	75.56
243.998	65.56
244.232	74.56
244.465	69.56
244.699	77.56
244.932	77.56
245.166	71.56
245.399	91.56
245.633	80.56
245.866	73.56
246.099	71.56
246.333	67.56
246.566	64.56
246.8	68.56
247.033	72.56
247.266	69.56
247.5	77.56
247.733	73.56
247.966	73.56
248.2	68.56
248.433	68.56
248.666	91.56
248.899	84.56
249.133	65.56
249.366	88.56
249.599	85.56
249.832	68.56
250.066	78.56
250.299	73.56
250.532	73.56
250.765	91.56
250.998	84.56
251.231	78.56
251.465	74.56
251.698	73.56
251.931	72.56
252.164	65.56
252.397	87.56
252.63	73.56
252.863	73.56
253.096	74.56
253.329	81.56
253.562	82.56
253.795	89.56
254.028	80.56
254.261	75.56
254.494	74.56
254.727	91.56
254.96	72.56
255.193	83.56
255.426	80.56
255.659	73.56
255.892	73.56
256.124	73.56
256.357	83.56
256.59	82.56
256.823	72.56
257.056	70.56
257.289	84.56
257.521	71.56
257.754	74.56
257.987	89.56
258.22	68.56
258.452	77.56
258.685	74.56
258.918	67.56
259.151	71.56
259.383	83.56
259.616	71.56
259.849	74.56
260.081	79.56
260.314	81.56
260.547	81.56
260.779	83.56
261.012	74.56
261.244	89.56
261.477	91.56
261.71	72.56
261.942	91.56
262.175	85.56
262.407	69.56
262.64	86.56
262.872	74.56
263.105	79.56
263.337	83.56
263.57	96.56
263.802	77.56
264.035	83.56
264.267	84.56
264.499	78.56
264.732	83.56
264.964	73.56
265.197	73.56
265.429	94.56
265.661	80.56
265.894	69.56
266.126	86.56
266.358	70.56
266.591	75.56
266.823	92.56
267.055	95.56
267.287	87.56
267.52	86.56
267.752	71.56
267.984	75.56
268.216	61.56
268.448	75.56
268.681	83.56
268.913	81.56
269.145	92.56
269.377	88.56
269.609	75.56
269.841	70.56
270.073	72.56
270.306	85.56
270.538	78.56
270.77	78.56
271.002	67.56
271.234	66.56
271.466	81.56
271.698	71.56
271.93	77.56
272.162	77.56
272.394	72.56
272.626	70.56
272.858	79.56
273.09	80.56
273.322	83.56
273.553	74.56
273.785	81.56
274.017	78.56
274.249	81.56
274.481	66.56
274.713	72.56
274.945	80.56
275.176	67.56
275.408	75.56
275.64	72.56
275.872	90.56
276.104	84.56
276.335	77.56
276.567	88.56
276.799	82.56
277.031	75.56
277.262	82.56
277.494	91.56
277.726	97.56
277.957	80.56
278.189	83.56
278.421	74.56
278.652	87.56
278.884	79.56
279.115	83.56
279.347	90.56
279.579	72.56
279.81	77.56
280.042	75.56
280.273	70.56
280.505	93.56
280.736	88.56
280.968	74.56
281.199	85.56
281.431	78.56
281.662	79.56
281.894	88.56
282.125	84.56
282.356	88.56
282.588	79.56
282.819	76.56
283.051	76.56
283.282	84.56
283.513	77.56
283.745	79.56
283.976	84.56
284.207	92.56
284.439	76.56
284.67	84.56
284.901	87.56
285.132	85.56
285.364	70.56
285.595	78.56
285.826	81.56
286.057	92.56
286.288	81.56
286.52	84.56
286.751	86.56
286.982	72.56
287.213	84.56
287.444	74.56
287.675	73.56
287.906	92.56
288.138	85.56
288.369	85.56
288.6	86.56
288.831	95.56
289.062	91.56
289.293	90.56
289.524	86.56
289.755	96.56
289.986	86.56
290.217	80.56
290.448	88.56
290.679	95.56
290.91	93.56
291.141	91.56
291.371	82.56
291.602	86.56
291.833	72.56
292.064	79.56
292.295	79.56
292.526	92.56
292.757	85.56
292.987	94.56
293.218	75.56
293.449	81.56
293.68	96.56
293.91	88.56
294.141	95.56
294.372	77.56
294.603	78.56
294.833	75.56
295.064	74.56
295.295	66.56
295.525	77.56
295.756	97.56
295.987	88.56
296.217	78.56
296.448	74.56
296.679	81.56
296.909	81.56
297.14	84.56
297.37	84.56
297.601	80.56
297.831	77.56
298.062	77.56
298.292	79.56
298.523	75.56
298.753	85.56
298.984	90.56
299.214	79.56
299.445	75.56
299.675	90.56
299.905	89.56
300.136	71.56
300.366	69.56
300.597	66.56
300.827	79.56
301.057	79.56
301.288	83.56
301.518	83.56
301.748	72.56
301.979	85.56
302.209	82.56
302.439	71.56
302.669	97.56
302.9	83.56
303.13	77.56
303.36	74.56
303.59	79.56
303.82	77.56
304.051	81.56
304.281	96.56
304.511	87.56
304.741	65.56
304.971	80.56
305.201	77.56
305.431	84.56
305.661	72.56
305.891	91.56
306.121	79.56
306.352	96.56
306.582	79.56
306.812	75.56
307.042	74.56
307.272	82.56
307.502	79.56
307.731	89.56
307.961	85.56
308.191	75.56
308.421	79.56
308.651	92.56
308.881	85.56
309.111	92.56
309.341	77.56
309.571	73.56
309.8	90.56
310.03	81.56
310.26	82.56
310.49	85.56
310.72	83.56
310.949	80.56
311.179	79.56
311.409	86.56
311.639	84.56
311.868	84.56
312.098	78.56
312.328	89.56
312.557	75.56
312.787	79.56
313.017	77.56
313.246	90.56
313.476	79.56
313.706	84.56
313.935	93.56
314.165	77.56
314.394	97.56
314.624	90.56
314.853	87.56
315.083	86.56
315.312	80.56
315.542	61.56
315.771	91.56
316.001	78.56
316.23	81.56
316.46	88.56
316.689	76.56
316.919	89.56
317.148	90.56
317.377	91.56
317.607	93.56
317.836	80.56
318.065	78.56
318.295	79.56
318.524	94.56
318.753	87.56
318.983	85.56
319.212	85.56
319.441	89.56
319.67	72.56
319.9	81.56
320.129	79.56
320.358	83.56
320.587	86.56
320.816	76.56
321.046	80.56
321.275	80.56
321.504	82.56
321.733	82.56
321.962	81.56
322.191	81.56
322.42	86.56
322.649	85.56
322.878	74.56
323.108	94.56
323.337	73.56
323.566	83.56
323.795	89.56
324.024	97.56
324.253	76.56
324.482	69.56
324.71	80.56
324.939	86.56
325.168	91.56
325.397	94.56
325.626	84.56
325.855	83.56
326.084	71.56
326.313	85.56
326.542	86.56
326.77	89.56
326.999	86.56
327.228	73.56
327.457	73.56
327.686	86.56
327.914	93.56
328.143	93.56
328.372	74.56
328.6	69.56
328.829	81.56
329.058	70.56
329.287	82.56
329.515	74.56
329.744	94.56
329.972	85.56
330.201	90.56
330.43	70.56
330.658	61.56
330.887	74.56
331.115	75.56
331.344	91.56
331.572	90.56
331.801	79.56
332.03	85.56
332.258	94.56
332.486	74.56
332.715	70.56
332.943	73.56
333.172	92.56
333.4	78.56
333.629	75.56
333.857	72.56
334.085	88.56
334.314	90.56
334.542	81.56
334.771	83.56
334.999	83.56
335.227	85.56
335.455	87.56
335.684	91.56
335.912	77.56
336.14	81.56
336.369	69.56
336.597	84.56
336.825	84.56
337.053	77.56
337.281	84.56
337.51	75.56
337.738	96.56
337.966	79.56
338.194	81.56
338.422	87.56
338.65	94.56
338.878	83.56
339.106	77.56
339.334	88.56
339.562	89.56
339.79	84.56
340.018	83.56
340.246	90.56
340.474	91.56
340.702	86.56
340.93	88.56
341.158	80.56
341.386	88.56
341.614	81.56
341.842	77.56
342.07	85.56
342.298	79.56
342.526	74.56
342.754	90.56
342.981	83.56
343.209	77.56
343.437	101.56
343.665	87.56
343.893	82.56
344.12	84.56
344.348	83.56
344.576	78.56
344.804	71.56
345.031	73.56
345.259	82.56
345.487	90.56
345.714	85.56
345.942	83.56
346.17	89.56
346.397	84.56
346.625	89.56
346.853	77.56
347.08	65.56
347.308	86.56
347.535	77.56
347.763	75.56
347.99	74.56
348.218	78.56
348.445	76.56
348.673	86.56
348.9	90.56
349.128	93.56
349.355	75.56
349.583	75.56
349.81	87.56
350.037	87.56
350.265	80.56
350.492	79.56
350.72	84.56
350.947	74.56
351.174	89.56
351.402	78.56
351.629	79.56
351.856	82.56
352.083	80.56
352.311	88.56
352.538	89.56
352.765	81.56
352.992	86.56
353.22	82.56
353.447	79.56
353.674	87.56
353.901	83.56
354.128	81.56
354.355	78.56
354.583	87.56
354.81	81.56
355.037	89.56
355.264	76.56
355.491	76.56
355.718	95.56
355.945	87.56
356.172	79.56
356.399	80.56
356.626	78.56
356.853	85.56
357.08	112.56
357.307	74.56
357.534	87.56
357.761	82.56
357.988	86.56
358.215	75.56
358.441	83.56
358.668	96.56
358.895	82.56
359.122	94.56
359.349	75.56
359.576	80.56
359.802	89.56
360.029	64.56
360.256	86.56
360.483	84.56
360.709	87.56
360.936	89.56
361.163	86.56
361.39	75.56
361.616	81.56
361.843	81.56
362.07	88.56
362.296	82.56
362.523	75.56
362.749	87.56
362.976	78.56
363.203	78.56
363.429	88.56
363.656	73.56
363.882	89.56
364.109	85.56
364.335	87.56
364.562	86.56
364.788	97.56
365.015	88.56
365.241	88.56
365.468	79.56
365.694	75.56
365.92	84.56
366.147	73.56
366.373	79.56
366.599	90.56
366.826	81.56
367.052	78.56
367.278	82.56
367.505	77.56
367.731	82.56
367.957	82.56
368.184	87.56
368.41	75.56
368.636	75.56
368.862	88.56
369.089	78.56
369.315	87.56
369.541	77.56
369.767	87.56
369.993	86.56
370.219	78.56
370.445	78.56
370.672	76.56
370.898	79.56
371.124	89.56
371.35	77.56
371.576	83.56
371.802	80.56
372.028	89.56
372.254	79.56
372.48	83.56
372.706	73.56
372.932	79.56
373.158	70.56
373.384	74.56
373.61	86.56
373.835	95.56
374.061	77.56
374.287	90.56
374.513	81.56
374.739	80.56
374.965	78.56
375.191	83.56
375.416	81.56
375.642	86.56
375.868	85.56
376.094	96.56
376.319	81.56
376.545	78.56
376.771	88.56
376.997	85.56
377.222	81.56
377.448	77.56
377.674	92.56
377.899	90.56
378.125	61.56
378.35	75.56
378.576	89.56
378.802	65.56
379.027	73.56
379.253	90.56
379.478	73.56
379.704	87.56
379.929	88.56
380.155	83.56
380.38	78.56
380.606	93.56
380.831	88.56
381.057	88.56
381.282	83.56
381.507	87.56
381.733	79.56
381.958	96.56
382.184	78.56
382.409	91.56
382.634	92.56
382.86	89.56
383.085	85.56
383.31	101.56
383.535	91.56
383.761	119.56
383.986	109.56
384.211	75.56
384.436	81.56
384.662	83.56
384.887	76.56
385.112	84.56
385.337	86.56
385.562	75.56
385.787	70.56
386.013	74.56
386.238	90.56
386.463	78.56
386.688	95.56
386.913	93.56
387.138	83.56
387.363	79.56
387.588	103.56
387.813	84.56
388.038	92.56
388.263	92.56
388.488	74.56
388.713	75.56
388.938	76.56
389.163	75.56
389.387	82.56
389.612	89.56
389.837	75.56
390.062	89.56
390.287	80.56
390.512	90.56
390.736	84.56
390.961	83.56
391.186	83.56
391.411	79.56
391.636	84.56
391.86	82.56
392.085	75.56
392.31	72.56
392.534	75.56
392.759	87.56
392.984	87.56
393.208	126.56
393.433	138.56
393.658	124.56
393.882	86.56
394.107	81.56
394.331	85.56
394.556	81.56
394.78	73.56
395.005	72.56
395.229	91.56
395.454	82.56
395.678	77.56
395.903	91.56
396.127	83.56
396.352	95.56
396.576	93.56
396.801	138.56
397.025	135.56
397.249	101.56
397.474	98.56
397.698	76.56
397.922	89.56
398.147	88.56
398.371	85.56
398.595	73.56
398.82	74.56
399.044	81.56
399.268	86.56
399.492	75.56
399.717	92.56
399.941	76.56
400.165	87.56
400.389	79.56
400.613	81.56
400.837	74.56
401.062	74.56
401.286	85.56
401.51	84.56
401.734	73.56
401.958	75.56
402.182	77.56
402.406	61.56
402.63	79.56
402.854	83.56
403.078	89.56
403.302	77.56
403.526	95.56
403.75	89.56
403.974	85.56
404.198	81.56
404.422	87.56
404.645	89.56
404.869	77.56
405.093	74.56
405.317	74.56
405.541	84.56
405.765	79.56
405.988	76.56
406.212	74.56
406.436	90.56
406.66	71.56
406.883	81.56
407.107	87.56
407.331	85.56
407.555	88.56
407.778	77.56
408.002	79.56
408.226	83.56
408.449	81.56
408.673	73.56
408.896	85.56
409.12	73.56
409.344	93.56
409.567	75.56
409.791	83.56
410.014	90.56
410.238	83.56
410.461	71.56
410.685	81.56
410.908	75.56
411.132	96.56
411.355	66.56
411.578	89.56
411.802	95.56
412.025	83.56
412.249	83.56
412.472	79.56
412.695	77.56
412.919	81.56
413.142	59.56
413.365	72.56
413.589	73.56
413.812	80.56
414.035	77.56
414.258	89.56
414.482	77.56
414.705	72.56
414.928	76.56
415.151	69.56
415.374	75.56
415.597	77.56
415.821	79.56
416.044	77.56
416.267	80.56
416.49	79.56
416.713	74.56
416.936	71.56
417.159	90.56
417.382	75.56
417.605	86.56
417.828	73.56
418.051	77.56
418.274	84.56
418.497	79.56
418.72	65.56
418.943	79.56
419.166	81.56
419.389	89.56
419.611	79.56
419.834	80.56
420.057	73.56
420.28	77.56
420.503	88.56
420.726	85.56
420.948	77.56
421.171	86.56
421.394	91.56
421.617	95.56
421.839	86.56
422.062	96.56
422.285	90.56
422.507	123.56
422.73	163.56
422.953	141.56
423.175	97.56
423.398	91.56
423.621	86.56
423.843	71.56
424.066	97.56
424.288	82.56
424.511	78.56
424.733	84.56
424.956	87.56
425.178	84.56
425.401	74.56
425.623	85.56
425.846	81.56
426.068	73.56
426.291	85.56
426.513	91.56
426.735	76.56
426.958	77.56
427.18	92.56
427.402	81.56
427.625	67.56
427.847	74.56
428.069	90.56
428.292	97.56
428.514	92.56
428.736	76.56
428.958	77.56
429.181	93.56
429.403	93.56
429.625	86.56
429.847	82.56
430.069	101.56
430.292	105.56
430.514	111.56
430.736	85.56
430.958	88.56
431.18	77.56
431.402	85.56
431.624	84.56
431.846	101.56
432.068	83.56
432.29	85.56
432.512	86.56
432.734	77.56
432.956	80.56
433.178	80.56
433.4	75.56
433.622	75.56
433.844	70.56
434.066	83.56
434.287	83.56
434.509	83.56
434.731	82.56
434.953	78.56
435.175	78.56
435.397	81.56
435.618	66.56
435.84	77.56
436.062	87.56
436.284	82.56
436.505	73.56
436.727	89.56
436.949	80.56
437.17	83.56
437.392	90.56
437.614	76.56
437.835	80.56
438.057	89.56
438.278	95.56
438.5	82.56
438.721	77.56
438.943	84.56
439.165	84.56
439.386	70.56
439.608	81.56
439.829	81.56
440.05	93.56
440.272	83.56
440.493	79.56
440.715	86.56
440.936	84.56
441.158	82.56
441.379	69.56
441.6	88.56
441.822	83.56
442.043	66.56
442.264	82.56
442.486	96.56
442.707	106.56
442.928	89.56
443.149	94.56
443.371	95.56
443.592	111.56
443.813	103.56
444.034	92.56
444.255	86.56
444.476	83.56
444.698	77.56
444.919	94.56
445.14	182.56
445.361	134.56
445.582	138.56
445.803	112.56
446.024	92.56
446.245	83.56
446.466	79.56
446.687	80.56
446.908	82.56
447.129	79.56
447.35	68.56
447.571	86.56
447.792	68.56
448.013	75.56
448.234	87.56
448.455	69.56
448.675	78.56
448.896	81.56
449.117	85.56
449.338	73.56
449.559	85.56
449.779	72.56
450	87.56
450.221	83.56
450.442	79.56
450.662	82.56
450.883	85.56
451.104	82.56
451.324	93.56
451.545	85.56
451.766	81.56
451.986	82.56
452.207	73.56
452.428	72.56
452.648	79.56
452.869	104.56
453.089	74.56
453.31	81.56
453.53	75.56
453.751	60.56
453.971	80.56
454.192	65.56
454.412	77.56
454.633	90.56
454.853	92.56
455.073	81.56
455.294	64.56
455.514	80.56
455.734	85.56
455.955	80.56
456.175	67.56
456.395	76.56
456.616	82.56
456.836	95.56
457.056	73.56
457.276	72.56
457.497	88.56
457.717	78.56
457.937	80.56
458.157	85.56
458.377	90.56
458.598	84.56
458.818	82.56
459.038	95.56
459.258	78.56
459.478	83.56
459.698	72.56
459.918	82.56
460.138	89.56
460.358	77.56
460.578	75.56
460.798	74.56
461.018	91.56
461.238	99.56
461.458	87.56
461.678	86.56
461.898	85.56
462.118	69.56
462.338	79.56
462.558	86.56
462.777	81.56
462.997	80.56
463.217	68.56
463.437	79.56
463.657	84.56
463.876	85.56
464.096	65.56
464.316	73.56
464.536	70.56
464.755	78.56
464.975	76.56
465.195	85.56
465.414	82.56
465.634	79.56
465.854	89.56
466.073	86.56
466.293	84.56
466.512	73.56
466.732	79.56
466.951	77.56
467.171	65.56
467.391	75.56
467.61	88.56
467.829	69.56
468.049	81.56
468.268	63.56
468.488	88.56
468.707	95.56
468.927	87.56
469.146	58.56
469.365	85.56
469.585	77.56
469.804	78.56
470.023	71.56
470.243	79.56
470.462	68.56
470.681	65.56
470.901	67.56
471.12	68.56
471.339	83.56
471.558	77.56
471.777	70.56
471.997	80.56
472.216	85.56
472.435	81.56
472.654	87.56
472.873	90.56
473.092	84.56
473.311	87.56
473.53	96.56
473.749	90.56
473.968	95.56
474.187	77.56
474.406	78.56
474.625	77.56
474.844	82.56
475.063	83.56
475.282	86.56
475.501	88.56
475.72	70.56
475.939	81.56
476.158	71.56
476.377	72.56
476.596	93.56
476.814	67.56
477.033	78.56
477.252	89.56
477.471	92.56
477.69	85.56
477.908	71.56
478.127	74.56
478.346	76.56
478.564	75.56
478.783	83.56
479.002	81.56
479.22	70.56
479.439	71.56
479.658	77.56
479.876	91.56
480.095	72.56
480.313	77.56
480.532	88.56
480.751	79.56
480.969	79.56
481.188	89.56
481.406	78.56
481.624	91.56
481.843	84.56
482.061	85.56
482.28	73.56
482.498	79.56
482.717	71.56
482.935	88.56
483.153	86.56
483.372	81.56
483.59	77.56
483.808	85.56
484.027	89.56
484.245	74.56
484.463	86.56
484.681	85.56
484.9	95.56
485.118	83.56
485.336	84.56
485.554	79.56
485.772	95.56
485.99	91.56
486.209	81.56
486.427	84.56
486.645	74.56
486.863	77.56
487.081	77.56
487.299	89.56
487.517	82.56
487.735	91.56
487.953	93.56
488.171	97.56
488.389	85.56
488.607	72.56
488.825	84.56
489.043	78.56
489.261	75.56
489.479	78.56
489.696	81.56
489.914	87.56
490.132	91.56
490.35	91.56
490.568	85.56
490.786	79.56
491.003	74.56
491.221	76.56
491.439	72.56
491.657	95.56
491.874	97.56
492.092	85.56
492.31	80.56
492.527	73.56
492.745	81.56
492.963	64.56
493.18	85.56
493.398	82.56
493.615	83.56
493.833	94.56
494.05	86.56
494.268	89.56
494.485	75.56
494.703	94.56
494.92	79.56
495.138	74.56
495.355	69.56
495.573	82.56
495.79	77.56
496.008	89.56
496.225	90.56
496.442	82.56
496.66	85.56
496.877	81.56
497.094	89.56
497.312	85.56
497.529	86.56
497.746	87.56
497.963	81.56
498.181	92.56
498.398	86.56
498.615	95.56
498.832	87.56
499.049	90.56
499.267	82.56
499.484	89.56
499.701	81.56
499.918	94.56
500.135	83.56
500.352	95.56
500.569	89.56
500.786	89.56
501.003	93.56
501.22	81.56
501.437	85.56
501.654	86.56
501.871	82.56
502.088	85.56
502.305	76.56
502.522	80.56
502.739	92.56
502.956	78.56
503.172	72.56
503.389	70.56
503.606	80.56
503.823	87.56
504.04	87.56
504.256	95.56
504.473	90.56
504.69	76.56
504.907	85.56
505.123	98.56
505.34	81.56
505.557	92.56
505.773	83.56
505.99	88.56
506.207	86.56
506.423	87.56
506.64	73.56
506.856	75.56
507.073	82.56
507.289	83.56
507.506	88.56
507.722	83.56
507.939	80.56
508.155	90.56
508.372	82.56
508.588	84.56
508.805	91.56
509.021	92.56
509.238	74.56
509.454	84.56
509.67	80.56
509.887	73.56
510.103	75.56
510.319	80.56
510.536	70.56
510.752	82.56
510.968	89.56
511.184	85.56
511.401	78.56
511.617	88.56
511.833	92.56
512.049	83.56
512.265	74.56
512.481	74.56
512.698	75.56
512.914	79.56
513.13	76.56
513.346	84.56
513.562	69.56
513.778	87.56
513.994	76.56
514.21	83.56
514.426	83.56
514.642	82.56
514.858	93.56
515.074	87.56
515.29	78.56
515.506	78.56
515.721	93.56
515.937	72.56
516.153	83.56
516.369	95.56
516.585	95.56
516.801	75.56
517.016	97.56
517.232	100.56
517.448	116.56
517.664	107.56
517.879	85.56
518.095	84.56
518.311	99.56
518.527	119.56
518.742	96.56
518.958	95.56
519.173	101.56
519.389	79.56
519.605	83.56
519.82	88.56
520.036	70.56
520.251	68.56
520.467	78.56
520.682	81.56
520.898	85.56
521.113	83.56
521.329	76.56
521.544	69.56
521.76	85.56
521.975	94.56
522.19	81.56
522.406	85.56
522.621	74.56
522.836	78.56
523.052	92.56
523.267	75.56
523.482	91.56
523.698	81.56
523.913	80.56
524.128	94.56
524.343	90.56
524.559	73.56
524.774	83.56
524.989	78.56
525.204	80.56
525.419	73.56
525.634	77.56
525.849	90.56
526.064	95.56
526.28	116.56
526.495	115.56
526.71	133.56
526.925	108.56
527.14	132.56
527.355	112.56
527.57	85.56
527.785	85.56
527.999	83.56
528.214	94.56
528.429	77.56
528.644	91.56
528.859	64.56
529.074	83.56
529.289	83.56
529.503	88.56
529.718	89.56
529.933	85.56
530.148	67.56
530.363	79.56
530.577	81.56
530.792	83.56
531.007	99.56
531.221	76.56
531.436	80.56
531.651	75.56
531.865	81.56
532.08	77.56
532.295	78.56
532.509	78.56
532.724	81.56
532.938	81.56
533.153	86.56
533.367	79.56
533.582	88.56
533.796	97.56
534.011	84.56
534.225	77.56
534.44	83.56
534.654	73.56
534.868	99.56
535.083	87.56
535.297	87.56
535.511	88.56
535.726	88.56
535.94	86.56
536.154	86.56
536.369	88.56
536.583	83.56
536.797	75.56
537.011	89.56
537.225	80.56
537.44	93.56
537.654	80.56
537.868	91.56
538.082	82.56
538.296	69.56
538.51	73.56
538.724	74.56
538.938	82.56
539.153	75.56
539.367	90.56
539.581	86.56
539.795	86.56
540.009	98.56
540.222	88.56
540.436	81.56
540.65	86.56
540.864	89.56
541.078	85.56
541.292	77.56
541.506	78.56
541.72	79.56
541.934	81.56
542.147	92.56
542.361	95.56
542.575	78.56
542.789	86.56
543.002	81.56
543.216	77.56
543.43	88.56
543.644	81.56
543.857	80.56
544.071	77.56
544.285	104.56
544.498	91.56
544.712	87.56
544.925	91.56
545.139	90.56
545.352	96.56
545.566	90.56
545.779	84.56
545.993	87.56
546.206	99.56
546.42	87.56
546.633	74.56
546.847	84.56
547.06	90.56
547.274	84.56
547.487	87.56
547.7	89.56
547.914	87.56
548.127	92.56
548.34	91.56
548.554	86.56
548.767	103.56
548.98	85.56
549.193	103.56
549.407	100.56
549.62	97.56
549.833	101.56
550.046	107.56
550.259	107.56
550.473	106.56
550.686	101.56
550.899	111.56
551.112	117.56
551.325	116.56
551.538	107.56
551.751	115.56
551.964	122.56
552.177	97.56
552.39	100.56
552.603	104.56
552.816	107.56
553.029	122.56
553.242	119.56
553.455	117.56
553.667	115.56
553.88	124.56
554.093	120.56
554.306	127.56
554.519	113.56
554.732	126.56
554.944	110.56
555.157	105.56
555.37	105.56
555.583	130.56
555.795	127.56
556.008	101.56
556.221	112.56
556.433	115.56
556.646	99.56
556.859	87.56
557.071	99.56
557.284	90.56
557.496	95.56
557.709	98.56
557.921	98.56
558.134	104.56
558.346	108.56
558.559	101.56
558.771	99.56
558.984	138.56
559.196	158.56
559.409	114.56
559.621	128.56
559.833	112.56
560.046	125.56
560.258	117.56
560.47	129.56
560.683	97.56
560.895	86.56
561.107	106.56
561.32	81.56
561.532	75.56
561.744	81.56
561.956	78.56
562.168	74.56
562.381	89.56
562.593	79.56
562.805	88.56
563.017	90.56
563.229	84.56
563.441	90.56
563.653	76.56
563.865	85.56
564.077	79.56
564.289	79.56
564.501	92.56
564.713	85.56
564.925	96.56
565.137	77.56
565.349	87.56
565.561	86.56
565.773	93.56
565.985	79.56
566.197	77.56
566.408	87.56
566.62	75.56
566.832	86.56
567.044	81.56
567.255	81.56
567.467	85.56
567.679	78.56
567.891	96.56
568.102	91.56
568.314	90.56
568.526	85.56
568.737	110.56
568.949	109.56
569.161	113.56
569.372	99.56
569.584	91.56
569.795	77.56
570.007	92.56
570.218	67.56
570.43	87.56
570.641	100.56
570.853	85.56
571.064	75.56
571.276	91.56
571.487	87.56
571.698	110.56
571.91	77.56
572.121	96.56
572.333	85.56
572.544	89.56
572.755	89.56
572.966	89.56
573.178	78.56
573.389	80.56
573.6	82.56
573.811	89.56
574.023	82.56
574.234	73.56
574.445	96.56
574.656	92.56
574.867	95.56
575.078	79.56
575.289	78.56
575.501	84.56
575.712	78.56
575.923	82.56
576.134	79.56
576.345	81.56
576.556	86.56
576.767	95.56
576.978	82.56
577.188	88.56
577.399	87.56
577.61	81.56
577.821	85.56
578.032	77.56
578.243	82.56
578.454	78.56
578.665	97.56
578.875	71.56
579.086	78.56
579.297	82.56
579.508	80.56
579.718	86.56
579.929	93.56
580.14	81.56
580.35	80.56
580.561	87.56
580.772	91.56
580.982	86.56
581.193	77.56
581.403	89.56
581.614	84.56
581.825	85.56
582.035	91.56
582.246	81.56
582.456	78.56
582.667	87.56
582.877	88.56
583.087	75.56
583.298	86.56
583.508	109.56
583.719	88.56
583.929	92.56
584.139	97.56
584.35	85.56
584.56	94.56
584.77	89.56
584.981	85.56
585.191	84.56
585.401	95.56
585.611	102.56
585.821	117.56
586.032	129.56
586.242	99.56
586.452	88.56
586.662	91.56
586.872	93.56
587.082	90.56
587.292	79.56
587.502	108.56
587.713	93.56
587.923	101.56
588.133	112.56
588.343	120.56
588.553	141.56
588.762	177.56
588.972	280.56
589.182	379.56
589.392	342.56
589.602	327.56
589.812	356.56
590.022	296.56
590.232	173.56
590.441	133.56
590.651	106.56
590.861	118.56
591.071	104.56
591.281	110.56
591.49	110.56
591.7	109.56
591.91	112.56
592.119	98.56
592.329	97.56
592.539	106.56
592.748	106.56
592.958	104.56
593.167	106.56
593.377	115.56
593.587	134.56
593.796	120.56
594.006	113.56
594.215	117.56
594.424	109.56
594.634	105.56
594.843	99.56
595.053	101.56
595.262	97.56
595.472	107.56
595.681	109.56
595.89	89.56
596.1	99.56
596.309	101.56
596.518	93.56
596.727	97.56
596.937	87.56
597.146	95.56
597.355	111.56
597.564	101.56
597.774	105.56
597.983	99.56
598.192	88.56
598.401	101.56
598.61	112.56
598.819	115.56
599.028	116.56
599.237	101.56
599.446	100.56
599.655	107.56
599.864	89.56
600.073	87.56
600.282	108.56
600.491	96.56
600.7	114.56
600.909	108.56
601.118	108.56
601.327	89.56
601.536	81.56
601.745	87.56
601.953	102.56
602.162	85.56
602.371	104.56
602.58	95.56
602.789	92.56
602.997	106.56
603.206	111.56
603.415	93.56
603.623	116.56
603.832	95.56
604.041	95.56
604.249	98.56
604.458	100.56
604.666	104.56
604.875	97.56
605.084	104.56
605.292	91.56
605.501	119.56
605.709	91.56
605.918	112.56
606.126	106.56
606.334	113.56
606.543	114.56
606.751	106.56
606.96	105.56
607.168	100.56
607.376	87.56
607.585	103.56
607.793	97.56
608.001	99.56
608.21	113.56
608.418	101.56
608.626	105.56
608.834	109.56
609.043	120.56
609.251	83.56
609.459	91.56
609.667	95.56
609.875	109.56
610.083	102.56
610.291	129.56
610.499	129.56
610.707	110.56
610.916	101.56
611.124	103.56
611.332	121.56
611.54	105.56
611.748	104.56
611.955	105.56
612.163	127.56
612.371	158.56
612.579	137.56
612.787	121.56
612.995	117.56
613.203	112.56
613.411	119.56
613.618	105.56
613.826	113.56
614.034	120.56
614.242	111.56
614.449	121.56
614.657	133.56
614.865	115.56
615.072	117.56
615.28	125.56
615.488	127.56
615.695	117.56
615.903	117.56
616.111	118.56
616.318	166.56
616.526	158.56
616.733	137.56
616.941	139.56
617.148	157.56
617.356	142.56
617.563	153.56
617.771	156.56
617.978	151.56
618.185	150.56
618.393	143.56
618.6	145.56
618.807	130.56
619.015	125.56
619.222	134.56
619.429	128.56
619.637	139.56
619.844	130.56
620.051	140.56
620.258	125.56
620.466	127.56
620.673	150.56
620.88	147.56
621.087	130.56
621.294	131.56
621.501	116.56
621.708	106.56
621.915	103.56
622.122	123.56
622.329	122.56
622.536	113.56
622.743	98.56
622.95	120.56
623.157	111.56
623.364	105.56
623.571	134.56
623.778	114.56
623.985	101.56
624.192	111.56
624.399	106.56
624.606	117.56
624.812	115.56
625.019	129.56
625.226	102.56
625.433	116.56
625.639	115.56
625.846	98.56
626.053	97.56
626.259	104.56
626.466	103.56
626.673	99.56
626.879	103.56
627.086	106.56
627.293	87.56
627.499	98.56
627.706	102.56
627.912	84.56
628.119	87.56
628.325	91.56
628.532	92.56
628.738	92.56
628.945	91.56
629.151	95.56
629.357	97.56
629.564	91.56
629.77	91.56
629.976	88.56
630.183	78.56
630.389	83.56
630.595	95.56
630.802	92.56
631.008	89.56
631.214	104.56
631.42	89.56
631.627	98.56
631.833	77.56
632.039	89.56
632.245	100.56
632.451	84.56
632.657	73.56
632.863	73.56
633.069	89.56
633.275	89.56
633.481	93.56
633.688	78.56
633.893	95.56
634.099	86.56
634.305	89.56
634.511	92.56
634.717	97.56
634.923	90.56
635.129	79.56
635.335	102.56
635.541	97.56
635.747	84.56
635.952	83.56
636.158	89.56
636.364	76.56
636.57	68.56
636.775	79.56
636.981	87.56
637.187	78.56
637.392	94.56
637.598	85.56
637.804	73.56
638.009	105.56
638.215	78.56
638.421	79.56
638.626	85.56
638.832	85.56
639.037	69.56
639.243	79.56
639.448	85.56
639.654	78.56
639.859	78.56
640.065	78.56
640.27	101.56
640.475	80.56
640.681	78.56
640.886	82.56
641.091	92.56
641.297	97.56
641.502	91.56
641.707	86.56
641.913	90.56
642.118	82.56
642.323	79.56
642.528	91.56
642.733	81.56
642.939	81.56
643.144	87.56
643.349	101.56
643.554	84.56
643.759	87.56
643.964	99.56
644.169	117.56
644.374	96.56
644.579	85.56
644.784	97.56
644.989	100.56
645.194	88.56
645.399	79.56
645.604	82.56
645.809	89.56
646.014	74.56
646.219	74.56
646.423	115.56
646.628	89.56
646.833	78.56
647.038	79.56
647.243	100.56
647.447	95.56
647.652	95.56
647.857	81.56
648.062	78.56
648.266	77.56
648.471	81.56
648.676	81.56
648.88	78.56
649.085	79.56
649.289	86.56
649.494	99.56
649.698	97.56
649.903	83.56
650.107	77.56
650.312	79.56
650.516	85.56
650.721	83.56
650.925	74.56
651.13	85.56
651.334	82.56
651.539	78.56
651.743	87.56
651.947	92.56
652.152	66.56
652.356	89.56
652.56	90.56
652.764	73.56
652.969	80.56
653.173	77.56
653.377	82.56
653.581	78.56
653.785	82.56
653.99	80.56
654.194	96.56
654.398	86.56
654.602	71.56
654.806	83.56
655.01	83.56
655.214	87.56
655.418	77.56
655.622	69.56
655.826	82.56
656.03	69.56
656.234	89.56
656.438	89.56
656.642	75.56
656.846	72.56
657.049	84.56
657.253	80.56
657.457	76.56
657.661	81.56
657.865	83.56
658.068	63.56
658.272	98.56
658.476	92.56
658.68	64.56
658.883	78.56
659.087	77.56
659.291	76.56
659.494	89.56
659.698	81.56
659.901	83.56
660.105	67.56
660.309	67.56
660.512	78.56
660.716	82.56
660.919	78.56
661.123	91.56
661.326	92.56
661.53	81.56
661.733	74.56
661.936	96.56
662.14	74.56
662.343	77.56
662.546	99.56
662.75	86.56
662.953	78.56
663.156	91.56
663.36	68.56
663.563	83.56
663.766	85.56
663.969	88.56
664.173	88.56
664.376	93.56
664.579	69.56
664.782	66.56
664.985	81.56
665.188	67.56
665.391	82.56
665.594	85.56
665.797	80.56
666	83.56
666.203	90.56
666.406	75.56
666.609	81.56
666.812	80.56
667.015	72.56
667.218	74.56
667.421	96.56
667.624	76.56
667.827	83.56
668.03	88.56
668.232	70.56
668.435	89.56
668.638	79.56
668.841	84.56
669.043	81.56
669.246	77.56
669.449	80.56
669.651	72.56
669.854	77.56
670.057	80.56
670.259	79.56
670.462	81.56
670.665	79.56
670.867	88.56
671.07	87.56
671.272	81.56
671.475	85.56
671.677	71.56
671.88	89.56
672.082	83.56
672.284	78.56
672.487	70.56
672.689	74.56
672.892	74.56
