Data from Soil_50_6_HRD10591_00008.txt Node
Date: Thu Feb 19 11:35:07 EST 2026
User: Yrep
Spectrometer: HR+D1059
Trigger mode: 1
Integration Time (sec): 1.000000E-1
Scans to average: 1
Electric dark correction enabled: true
Nonlinearity correction enabled: false
Boxcar width: 0
XAxis mode: Wavelengths
Number of Pixels in Spectrum: 2048
>>>>>Begin Spectral Data<<<<<
223.165	-25.19
223.4	-25.19
223.635	-25.19
223.869	-12.19
224.104	-24.19
224.338	-18.19
224.573	-11.19
224.808	-14.19
225.042	-13.19
225.277	-1.19
225.511	7.81
225.746	10.81
225.98	-4.19
226.215	6.81
226.449	1.81
226.683	23.81
226.918	26.81
227.152	45.81
227.387	50.81
227.621	37.81
227.856	43.81
228.09	39.81
228.324	47.81
228.559	54.81
228.793	65.81
229.027	66.81
229.262	77.81
229.496	77.81
229.73	70.81
229.964	74.81
230.199	80.81
230.433	74.81
230.667	92.81
230.901	77.81
231.136	75.81
231.37	80.81
231.604	81.81
231.838	76.81
232.072	83.81
232.306	77.81
232.541	88.81
232.775	80.81
233.009	81.81
233.243	87.81
233.477	88.81
233.711	81.81
233.945	80.81
234.179	76.81
234.413	79.81
234.647	97.81
234.881	101.81
235.115	82.81
235.349	89.81
235.583	79.81
235.817	79.81
236.051	73.81
236.285	72.81
236.519	77.81
236.753	62.81
236.987	70.81
237.221	70.81
237.455	80.81
237.689	78.81
237.922	51.81
238.156	77.81
238.39	82.81
238.624	61.81
238.858	81.81
239.091	71.81
239.325	75.81
239.559	75.81
239.793	71.81
240.027	79.81
240.26	80.81
240.494	74.81
240.728	75.81
240.961	79.81
241.195	74.81
241.429	73.81
241.662	84.81
241.896	88.81
242.13	78.81
242.363	65.81
242.597	75.81
242.83	88.81
243.064	81.81
243.298	77.81
243.531	88.81
243.765	74.81
243.998	78.81
244.232	74.81
244.465	74.81
244.699	79.81
244.932	88.81
245.166	85.81
245.399	69.81
245.633	74.81
245.866	78.81
246.099	77.81
246.333	83.81
246.566	80.81
246.8	78.81
247.033	68.81
247.266	69.81
247.5	88.81
247.733	79.81
247.966	86.81
248.2	89.81
248.433	56.81
248.666	81.81
248.899	88.81
249.133	86.81
249.366	76.81
249.599	71.81
249.832	81.81
250.066	86.81
250.299	85.81
250.532	68.81
250.765	66.81
250.998	72.81
251.231	69.81
251.465	86.81
251.698	74.81
251.931	79.81
252.164	81.81
252.397	84.81
252.63	81.81
252.863	65.81
253.096	81.81
253.329	86.81
253.562	87.81
253.795	78.81
254.028	92.81
254.261	86.81
254.494	73.81
254.727	81.81
254.96	86.81
255.193	86.81
255.426	87.81
255.659	72.81
255.892	82.81
256.124	85.81
256.357	78.81
256.59	93.81
256.823	81.81
257.056	89.81
257.289	84.81
257.521	90.81
257.754	101.81
257.987	89.81
258.22	86.81
258.452	84.81
258.685	94.81
258.918	79.81
259.151	74.81
259.383	96.81
259.616	78.81
259.849	75.81
260.081	84.81
260.314	93.81
260.547	83.81
260.779	95.81
261.012	91.81
261.244	79.81
261.477	100.81
261.71	87.81
261.942	78.81
262.175	81.81
262.407	85.81
262.64	79.81
262.872	83.81
263.105	80.81
263.337	83.81
263.57	86.81
263.802	86.81
264.035	82.81
264.267	91.81
264.499	94.81
264.732	72.81
264.964	97.81
265.197	88.81
265.429	86.81
265.661	86.81
265.894	87.81
266.126	77.81
266.358	79.81
266.591	91.81
266.823	94.81
267.055	89.81
267.287	79.81
267.52	87.81
267.752	96.81
267.984	91.81
268.216	101.81
268.448	82.81
268.681	80.81
268.913	98.81
269.145	92.81
269.377	90.81
269.609	91.81
269.841	97.81
270.073	76.81
270.306	88.81
270.538	103.81
270.77	85.81
271.002	86.81
271.234	84.81
271.466	85.81
271.698	80.81
271.93	97.81
272.162	92.81
272.394	99.81
272.626	90.81
272.858	81.81
273.09	92.81
273.322	103.81
273.553	87.81
273.785	92.81
274.017	81.81
274.249	88.81
274.481	96.81
274.713	91.81
274.945	87.81
275.176	95.81
275.408	90.81
275.64	77.81
275.872	89.81
276.104	85.81
276.335	98.81
276.567	85.81
276.799	86.81
277.031	83.81
277.262	86.81
277.494	92.81
277.726	104.81
277.957	113.81
278.189	107.81
278.421	109.81
278.652	105.81
278.884	132.81
279.115	133.81
279.347	186.81
279.579	219.81
279.81	253.81
280.042	214.81
280.273	187.81
280.505	197.81
280.736	125.81
280.968	109.81
281.199	101.81
281.431	90.81
281.662	91.81
281.894	83.81
282.125	95.81
282.356	96.81
282.588	107.81
282.819	89.81
283.051	101.81
283.282	85.81
283.513	89.81
283.745	85.81
283.976	103.81
284.207	92.81
284.439	91.81
284.67	93.81
284.901	107.81
285.132	105.81
285.364	122.81
285.595	107.81
285.826	111.81
286.057	96.81
286.288	87.81
286.52	91.81
286.751	99.81
286.982	99.81
287.213	88.81
287.444	90.81
287.675	86.81
287.906	89.81
288.138	99.81
288.369	99.81
288.6	107.81
288.831	94.81
289.062	104.81
289.293	100.81
289.524	94.81
289.755	90.81
289.986	90.81
290.217	101.81
290.448	89.81
290.679	94.81
290.91	101.81
291.141	94.81
291.371	95.81
291.602	103.81
291.833	97.81
292.064	99.81
292.295	110.81
292.526	91.81
292.757	93.81
292.987	109.81
293.218	112.81
293.449	118.81
293.68	90.81
293.91	99.81
294.141	96.81
294.372	97.81
294.603	77.81
294.833	96.81
295.064	100.81
295.295	91.81
295.525	91.81
295.756	97.81
295.987	89.81
296.217	92.81
296.448	94.81
296.679	77.81
296.909	90.81
297.14	91.81
297.37	96.81
297.601	100.81
297.831	103.81
298.062	95.81
298.292	95.81
298.523	88.81
298.753	99.81
298.984	98.81
299.214	92.81
299.445	92.81
299.675	96.81
299.905	106.81
300.136	108.81
300.366	101.81
300.597	98.81
300.827	98.81
301.057	102.81
301.288	97.81
301.518	89.81
301.748	105.81
301.979	125.81
302.209	91.81
302.439	99.81
302.669	86.81
302.9	95.81
303.13	98.81
303.36	99.81
303.59	92.81
303.82	98.81
304.051	97.81
304.281	102.81
304.511	111.81
304.741	111.81
304.971	99.81
305.201	79.81
305.431	99.81
305.661	89.81
305.891	119.81
306.121	105.81
306.352	111.81
306.582	114.81
306.812	99.81
307.042	97.81
307.272	96.81
307.502	114.81
307.731	107.81
307.961	99.81
308.191	89.81
308.421	96.81
308.651	101.81
308.881	99.81
309.111	98.81
309.341	91.81
309.571	95.81
309.8	99.81
310.03	105.81
310.26	103.81
310.49	108.81
310.72	108.81
310.949	96.81
311.179	96.81
311.409	93.81
311.639	97.81
311.868	104.81
312.098	95.81
312.328	95.81
312.557	91.81
312.787	113.81
313.017	101.81
313.246	92.81
313.476	95.81
313.706	77.81
313.935	102.81
314.165	99.81
314.394	103.81
314.624	98.81
314.853	100.81
315.083	94.81
315.312	115.81
315.542	120.81
315.771	125.81
316.001	153.81
316.23	143.81
316.46	116.81
316.689	94.81
316.919	117.81
317.148	112.81
317.377	122.81
317.607	154.81
317.836	170.81
318.065	198.81
318.295	151.81
318.524	126.81
318.753	107.81
318.983	107.81
319.212	96.81
319.441	103.81
319.67	91.81
319.9	99.81
320.129	117.81
320.358	105.81
320.587	105.81
320.816	106.81
321.046	101.81
321.275	106.81
321.504	106.81
321.733	95.81
321.962	99.81
322.191	92.81
322.42	105.81
322.649	99.81
322.878	101.81
323.108	111.81
323.337	102.81
323.566	100.81
323.795	108.81
324.024	105.81
324.253	109.81
324.482	114.81
324.71	101.81
324.939	109.81
325.168	114.81
325.397	101.81
325.626	97.81
325.855	106.81
326.084	91.81
326.313	90.81
326.542	90.81
326.77	96.81
326.999	100.81
327.228	95.81
327.457	104.81
327.686	120.81
327.914	94.81
328.143	102.81
328.372	105.81
328.6	99.81
328.829	98.81
329.058	94.81
329.287	96.81
329.515	91.81
329.744	106.81
329.972	100.81
330.201	106.81
330.43	117.81
330.658	106.81
330.887	85.81
331.115	99.81
331.344	113.81
331.572	104.81
331.801	88.81
332.03	106.81
332.258	107.81
332.486	98.81
332.715	74.81
332.943	97.81
333.172	111.81
333.4	97.81
333.629	98.81
333.857	111.81
334.085	117.81
334.314	97.81
334.542	95.81
334.771	111.81
334.999	103.81
335.227	86.81
335.455	87.81
335.684	105.81
335.912	103.81
336.14	111.81
336.369	110.81
336.597	107.81
336.825	115.81
337.053	87.81
337.281	98.81
337.51	103.81
337.738	98.81
337.966	90.81
338.194	101.81
338.422	99.81
338.65	101.81
338.878	109.81
339.106	111.81
339.334	111.81
339.562	118.81
339.79	101.81
340.018	103.81
340.246	103.81
340.474	109.81
340.702	105.81
340.93	105.81
341.158	100.81
341.386	98.81
341.614	104.81
341.842	87.81
342.07	102.81
342.298	98.81
342.526	101.81
342.754	111.81
342.981	110.81
343.209	86.81
343.437	107.81
343.665	100.81
343.893	115.81
344.12	113.81
344.348	112.81
344.576	100.81
344.804	96.81
345.031	124.81
345.259	99.81
345.487	98.81
345.714	109.81
345.942	94.81
346.17	125.81
346.397	98.81
346.625	128.81
346.853	95.81
347.08	99.81
347.308	101.81
347.535	99.81
347.763	96.81
347.99	97.81
348.218	101.81
348.445	86.81
348.673	97.81
348.9	101.81
349.128	93.81
349.355	102.81
349.583	103.81
349.81	101.81
350.037	105.81
350.265	92.81
350.492	103.81
350.72	93.81
350.947	97.81
351.174	101.81
351.402	90.81
351.629	103.81
351.856	97.81
352.083	94.81
352.311	122.81
352.538	114.81
352.765	99.81
352.992	112.81
353.22	103.81
353.447	107.81
353.674	98.81
353.901	110.81
354.128	105.81
354.355	103.81
354.583	91.81
354.81	102.81
355.037	102.81
355.264	99.81
355.491	112.81
355.718	94.81
355.945	109.81
356.172	91.81
356.399	101.81
356.626	101.81
356.853	97.81
357.08	91.81
357.307	99.81
357.534	82.81
357.761	101.81
357.988	99.81
358.215	90.81
358.441	88.81
358.668	116.81
358.895	103.81
359.122	100.81
359.349	99.81
359.576	93.81
359.802	91.81
360.029	97.81
360.256	82.81
360.483	105.81
360.709	99.81
360.936	96.81
361.163	104.81
361.39	97.81
361.616	105.81
361.843	104.81
362.07	94.81
362.296	108.81
362.523	95.81
362.749	104.81
362.976	94.81
363.203	112.81
363.429	97.81
363.656	101.81
363.882	95.81
364.109	114.81
364.335	106.81
364.562	120.81
364.788	96.81
365.015	94.81
365.241	104.81
365.468	110.81
365.694	94.81
365.92	104.81
366.147	85.81
366.373	100.81
366.599	81.81
366.826	91.81
367.052	105.81
367.278	107.81
367.505	102.81
367.731	123.81
367.957	115.81
368.184	96.81
368.41	98.81
368.636	114.81
368.862	104.81
369.089	108.81
369.315	87.81
369.541	100.81
369.767	109.81
369.993	110.81
370.219	106.81
370.445	129.81
370.672	126.81
370.898	129.81
371.124	105.81
371.35	101.81
371.576	98.81
371.802	122.81
372.028	99.81
372.254	119.81
372.48	111.81
372.706	114.81
372.932	96.81
373.158	120.81
373.384	127.81
373.61	135.81
373.835	144.81
374.061	129.81
374.287	103.81
374.513	127.81
374.739	100.81
374.965	99.81
375.191	101.81
375.416	114.81
375.642	107.81
375.868	110.81
376.094	97.81
376.319	109.81
376.545	103.81
376.771	101.81
376.997	89.81
377.222	95.81
377.448	118.81
377.674	94.81
377.899	117.81
378.125	101.81
378.35	92.81
378.576	106.81
378.802	114.81
379.027	110.81
379.253	108.81
379.478	108.81
379.704	91.81
379.929	90.81
380.155	90.81
380.38	109.81
380.606	113.81
380.831	104.81
381.057	117.81
381.282	107.81
381.507	122.81
381.733	94.81
381.958	105.81
382.184	109.81
382.409	111.81
382.634	131.81
382.86	129.81
383.085	153.81
383.31	143.81
383.535	129.81
383.761	135.81
383.986	139.81
384.211	107.81
384.436	131.81
384.662	129.81
384.887	105.81
385.112	126.81
385.337	105.81
385.562	127.81
385.787	115.81
386.013	127.81
386.238	109.81
386.463	121.81
386.688	118.81
386.913	122.81
387.138	112.81
387.363	121.81
387.588	94.81
387.813	115.81
388.038	114.81
388.263	126.81
388.488	119.81
388.713	118.81
388.938	123.81
389.163	95.81
389.387	109.81
389.612	113.81
389.837	117.81
390.062	111.81
390.287	106.81
390.512	118.81
390.736	113.81
390.961	114.81
391.186	124.81
391.411	117.81
391.636	107.81
391.86	114.81
392.085	115.81
392.31	129.81
392.534	147.81
392.759	176.81
392.984	287.81
393.208	497.81
393.433	643.81
393.658	443.81
393.882	211.81
394.107	155.81
394.331	119.81
394.556	119.81
394.78	132.81
395.005	126.81
395.229	116.81
395.454	129.81
395.678	122.81
395.903	125.81
396.127	143.81
396.352	178.81
396.576	276.81
396.801	454.81
397.025	456.81
397.249	241.81
397.474	146.81
397.698	128.81
397.922	135.81
398.147	115.81
398.371	117.81
398.595	115.81
398.82	108.81
399.044	120.81
399.268	121.81
399.492	137.81
399.717	116.81
399.941	115.81
400.165	125.81
400.389	127.81
400.613	112.81
400.837	97.81
401.062	131.81
401.286	123.81
401.51	117.81
401.734	116.81
401.958	121.81
402.182	82.81
402.406	115.81
402.63	98.81
402.854	104.81
403.078	109.81
403.302	118.81
403.526	122.81
403.75	114.81
403.974	114.81
404.198	120.81
404.422	119.81
404.645	120.81
404.869	110.81
405.093	114.81
405.317	130.81
405.541	115.81
405.765	104.81
405.988	104.81
406.212	128.81
406.436	113.81
406.66	109.81
406.883	114.81
407.107	97.81
407.331	113.81
407.555	137.81
407.778	143.81
408.002	121.81
408.226	113.81
408.449	112.81
408.673	113.81
408.896	100.81
409.12	112.81
409.344	120.81
409.567	114.81
409.791	122.81
410.014	118.81
410.238	120.81
410.461	110.81
410.685	114.81
410.908	116.81
411.132	112.81
411.355	109.81
411.578	119.81
411.802	115.81
412.025	115.81
412.249	118.81
412.472	113.81
412.695	104.81
412.919	115.81
413.142	114.81
413.365	113.81
413.589	122.81
413.812	119.81
414.035	110.81
414.258	105.81
414.482	102.81
414.705	101.81
414.928	114.81
415.151	118.81
415.374	127.81
415.597	105.81
415.821	121.81
416.044	115.81
416.267	111.81
416.49	110.81
416.713	104.81
416.936	104.81
417.159	103.81
417.382	92.81
417.605	111.81
417.828	107.81
418.051	111.81
418.274	116.81
418.497	119.81
418.72	114.81
418.943	111.81
419.166	110.81
419.389	96.81
419.611	117.81
419.834	118.81
420.057	122.81
420.28	119.81
420.503	110.81
420.726	128.81
420.948	104.81
421.171	114.81
421.394	119.81
421.617	120.81
421.839	119.81
422.062	102.81
422.285	114.81
422.507	156.81
422.73	218.81
422.953	174.81
423.175	143.81
423.398	127.81
423.621	105.81
423.843	106.81
424.066	118.81
424.288	112.81
424.511	111.81
424.733	111.81
424.956	114.81
425.178	96.81
425.401	104.81
425.623	107.81
425.846	113.81
426.068	109.81
426.291	107.81
426.513	104.81
426.735	114.81
426.958	114.81
427.18	96.81
427.402	106.81
427.625	101.81
427.847	111.81
428.069	123.81
428.292	127.81
428.514	113.81
428.736	123.81
428.958	117.81
429.181	131.81
429.403	122.81
429.625	122.81
429.847	110.81
430.069	135.81
430.292	135.81
430.514	140.81
430.736	122.81
430.958	113.81
431.18	113.81
431.402	111.81
431.624	98.81
431.846	121.81
432.068	102.81
432.29	111.81
432.512	106.81
432.734	114.81
432.956	101.81
433.178	107.81
433.4	109.81
433.622	108.81
433.844	114.81
434.066	129.81
434.287	111.81
434.509	97.81
434.731	133.81
434.953	109.81
435.175	114.81
435.397	120.81
435.618	113.81
435.84	121.81
436.062	105.81
436.284	113.81
436.505	127.81
436.727	106.81
436.949	108.81
437.17	105.81
437.392	105.81
437.614	102.81
437.835	111.81
438.057	109.81
438.278	102.81
438.5	117.81
438.721	128.81
438.943	91.81
439.165	110.81
439.386	120.81
439.608	100.81
439.829	100.81
440.05	110.81
440.272	97.81
440.493	112.81
440.715	102.81
440.936	122.81
441.158	122.81
441.379	110.81
441.6	102.81
441.822	111.81
442.043	99.81
442.264	112.81
442.486	110.81
442.707	128.81
442.928	112.81
443.149	127.81
443.371	125.81
443.592	138.81
443.813	121.81
444.034	124.81
444.255	100.81
444.476	108.81
444.698	114.81
444.919	122.81
445.14	202.81
445.361	169.81
445.582	149.81
445.803	135.81
446.024	114.81
446.245	120.81
446.466	106.81
446.687	111.81
446.908	112.81
447.129	116.81
447.35	95.81
447.571	109.81
447.792	109.81
448.013	114.81
448.234	122.81
448.455	100.81
448.675	104.81
448.896	106.81
449.117	113.81
449.338	105.81
449.559	130.81
449.779	110.81
450	119.81
450.221	111.81
450.442	103.81
450.662	97.81
450.883	105.81
451.104	109.81
451.324	109.81
451.545	114.81
451.766	98.81
451.986	101.81
452.207	112.81
452.428	112.81
452.648	108.81
452.869	112.81
453.089	103.81
453.31	91.81
453.53	97.81
453.751	97.81
453.971	104.81
454.192	105.81
454.412	94.81
454.633	93.81
454.853	107.81
455.073	103.81
455.294	112.81
455.514	97.81
455.734	105.81
455.955	95.81
456.175	99.81
456.395	108.81
456.616	107.81
456.836	97.81
457.056	87.81
457.276	95.81
457.497	97.81
457.717	106.81
457.937	106.81
458.157	102.81
458.377	102.81
458.598	106.81
458.818	118.81
459.038	111.81
459.258	118.81
459.478	104.81
459.698	122.81
459.918	106.81
460.138	105.81
460.358	100.81
460.578	103.81
460.798	104.81
461.018	103.81
461.238	99.81
461.458	116.81
461.678	111.81
461.898	107.81
462.118	125.81
462.338	111.81
462.558	117.81
462.777	108.81
462.997	119.81
463.217	120.81
463.437	122.81
463.657	115.81
463.876	101.81
464.096	118.81
464.316	107.81
464.536	127.81
464.755	113.81
464.975	103.81
465.195	116.81
465.414	117.81
465.634	105.81
465.854	106.81
466.073	112.81
466.293	103.81
466.512	123.81
466.732	98.81
466.951	110.81
467.171	96.81
467.391	104.81
467.61	105.81
467.829	113.81
468.049	115.81
468.268	112.81
468.488	113.81
468.707	117.81
468.927	107.81
469.146	101.81
469.365	104.81
469.585	111.81
469.804	95.81
470.023	105.81
470.243	89.81
470.462	105.81
470.681	92.81
470.901	118.81
471.12	117.81
471.339	101.81
471.558	108.81
471.777	126.81
471.997	122.81
472.216	109.81
472.435	117.81
472.654	118.81
472.873	111.81
473.092	110.81
473.311	113.81
473.53	114.81
473.749	120.81
473.968	103.81
474.187	109.81
474.406	105.81
474.625	82.81
474.844	100.81
475.063	91.81
475.282	120.81
475.501	102.81
475.72	117.81
475.939	106.81
476.158	107.81
476.377	115.81
476.596	96.81
476.814	111.81
477.033	93.81
477.252	119.81
477.471	107.81
477.69	121.81
477.908	105.81
478.127	112.81
478.346	109.81
478.564	117.81
478.783	117.81
479.002	108.81
479.22	131.81
479.439	109.81
479.658	110.81
479.876	125.81
480.095	114.81
480.313	122.81
480.532	117.81
480.751	114.81
480.969	109.81
481.188	129.81
481.406	138.81
481.624	114.81
481.843	118.81
482.061	122.81
482.28	113.81
482.498	123.81
482.717	125.81
482.935	116.81
483.153	120.81
483.372	109.81
483.59	127.81
483.808	135.81
484.027	104.81
484.245	123.81
484.463	103.81
484.681	120.81
484.9	111.81
485.118	137.81
485.336	110.81
485.554	120.81
485.772	119.81
485.99	117.81
486.209	126.81
486.427	123.81
486.645	112.81
486.863	107.81
487.081	123.81
487.299	113.81
487.517	121.81
487.735	128.81
487.953	131.81
488.171	131.81
488.389	113.81
488.607	98.81
488.825	113.81
489.043	120.81
489.261	131.81
489.479	113.81
489.696	110.81
489.914	103.81
490.132	103.81
490.35	131.81
490.568	108.81
490.786	120.81
491.003	118.81
491.221	107.81
491.439	114.81
491.657	118.81
491.874	122.81
492.092	109.81
492.31	125.81
492.527	126.81
492.745	114.81
492.963	121.81
493.18	121.81
493.398	125.81
493.615	118.81
493.833	139.81
494.05	130.81
494.268	126.81
494.485	116.81
494.703	125.81
494.92	117.81
495.138	123.81
495.355	126.81
495.573	132.81
495.79	104.81
496.008	119.81
496.225	120.81
496.442	104.81
496.66	121.81
496.877	122.81
497.094	129.81
497.312	127.81
497.529	126.81
497.746	127.81
497.963	121.81
498.181	134.81
498.398	145.81
498.615	123.81
498.832	132.81
499.049	138.81
499.267	146.81
499.484	149.81
499.701	151.81
499.918	152.81
500.135	157.81
500.352	141.81
500.569	159.81
500.786	173.81
501.003	150.81
501.22	147.81
501.437	154.81
501.654	132.81
501.871	120.81
502.088	142.81
502.305	131.81
502.522	131.81
502.739	136.81
502.956	133.81
503.172	121.81
503.389	119.81
503.606	120.81
503.823	111.81
504.04	123.81
504.256	121.81
504.473	128.81
504.69	119.81
504.907	120.81
505.123	121.81
505.34	127.81
505.557	114.81
505.773	112.81
505.99	112.81
506.207	114.81
506.423	120.81
506.64	113.81
506.856	122.81
507.073	119.81
507.289	115.81
507.506	103.81
507.722	102.81
507.939	114.81
508.155	117.81
508.372	98.81
508.588	108.81
508.805	101.81
509.021	113.81
509.238	126.81
509.454	115.81
509.67	119.81
509.887	120.81
510.103	122.81
510.319	121.81
510.536	118.81
510.752	119.81
510.968	117.81
511.184	110.81
511.401	117.81
511.617	103.81
511.833	105.81
512.049	106.81
512.265	113.81
512.481	106.81
512.698	109.81
512.914	94.81
513.13	115.81
513.346	105.81
513.562	110.81
513.778	108.81
513.994	102.81
514.21	107.81
514.426	113.81
514.642	106.81
514.858	121.81
515.074	111.81
515.29	106.81
515.506	106.81
515.721	113.81
515.937	117.81
516.153	109.81
516.369	126.81
516.585	108.81
516.801	118.81
517.016	130.81
517.232	126.81
517.448	142.81
517.664	142.81
517.879	123.81
518.095	117.81
518.311	122.81
518.527	159.81
518.742	131.81
518.958	114.81
519.173	135.81
519.389	110.81
519.605	111.81
519.82	117.81
520.036	114.81
520.251	121.81
520.467	118.81
520.682	103.81
520.898	104.81
521.113	101.81
521.329	109.81
521.544	113.81
521.76	117.81
521.975	118.81
522.19	106.81
522.406	114.81
522.621	103.81
522.836	98.81
523.052	94.81
523.267	111.81
523.482	97.81
523.698	117.81
523.913	109.81
524.128	105.81
524.343	95.81
524.559	105.81
524.774	111.81
524.989	99.81
525.204	108.81
525.419	99.81
525.634	115.81
525.849	113.81
526.064	112.81
526.28	128.81
526.495	121.81
526.71	131.81
526.925	129.81
527.14	132.81
527.355	139.81
527.57	106.81
527.785	112.81
527.999	116.81
528.214	109.81
528.429	106.81
528.644	96.81
528.859	102.81
529.074	107.81
529.289	107.81
529.503	122.81
529.718	97.81
529.933	122.81
530.148	107.81
530.363	115.81
530.577	105.81
530.792	110.81
531.007	98.81
531.221	113.81
531.436	102.81
531.651	106.81
531.865	111.81
532.08	116.81
532.295	113.81
532.509	106.81
532.724	110.81
532.938	102.81
533.153	109.81
533.367	103.81
533.582	100.81
533.796	118.81
534.011	106.81
534.225	97.81
534.44	105.81
534.654	117.81
534.868	110.81
535.083	114.81
535.297	120.81
535.511	125.81
535.726	99.81
535.94	110.81
536.154	113.81
536.369	110.81
536.583	105.81
536.797	94.81
537.011	112.81
537.225	101.81
537.44	99.81
537.654	113.81
537.868	110.81
538.082	106.81
538.296	119.81
538.51	104.81
538.724	103.81
538.938	122.81
539.153	115.81
539.367	119.81
539.581	123.81
539.795	104.81
540.009	107.81
540.222	111.81
540.436	112.81
540.65	113.81
540.864	123.81
541.078	109.81
541.292	111.81
541.506	114.81
541.72	104.81
541.934	106.81
542.147	125.81
542.361	119.81
542.575	113.81
542.789	110.81
543.002	107.81
543.216	95.81
543.43	101.81
543.644	97.81
543.857	105.81
544.071	118.81
544.285	125.81
544.498	129.81
544.712	110.81
544.925	108.81
545.139	103.81
545.352	117.81
545.566	108.81
545.779	122.81
545.993	98.81
546.206	110.81
546.42	92.81
546.633	111.81
546.847	109.81
547.06	113.81
547.274	101.81
547.487	132.81
547.7	114.81
547.914	119.81
548.127	105.81
548.34	113.81
548.554	123.81
548.767	109.81
548.98	117.81
549.193	122.81
549.407	112.81
549.62	120.81
549.833	113.81
550.046	118.81
550.259	108.81
550.473	121.81
550.686	110.81
550.899	121.81
551.112	123.81
551.325	122.81
551.538	121.81
551.751	135.81
551.964	139.81
552.177	136.81
552.39	126.81
552.603	129.81
552.816	129.81
553.029	107.81
553.242	132.81
553.455	135.81
553.667	128.81
553.88	136.81
554.093	128.81
554.306	134.81
554.519	133.81
554.732	139.81
554.944	127.81
555.157	121.81
555.37	113.81
555.583	117.81
555.795	141.81
556.008	123.81
556.221	111.81
556.433	111.81
556.646	107.81
556.859	119.81
557.071	103.81
557.284	101.81
557.496	119.81
557.709	121.81
557.921	110.81
558.134	102.81
558.346	134.81
558.559	120.81
558.771	121.81
558.984	151.81
559.196	177.81
559.409	155.81
559.621	151.81
559.833	138.81
560.046	130.81
560.258	133.81
560.47	127.81
560.683	122.81
560.895	138.81
561.107	112.81
561.32	116.81
561.532	115.81
561.744	94.81
561.956	100.81
562.168	108.81
562.381	125.81
562.593	103.81
562.805	106.81
563.017	102.81
563.229	101.81
563.441	104.81
563.653	109.81
563.865	99.81
564.077	91.81
564.289	105.81
564.501	113.81
564.713	111.81
564.925	98.81
565.137	117.81
565.349	99.81
565.561	114.81
565.773	108.81
565.985	104.81
566.197	109.81
566.408	118.81
566.62	116.81
566.832	125.81
567.044	121.81
567.255	120.81
567.467	124.81
567.679	116.81
567.891	104.81
568.102	118.81
568.314	108.81
568.526	123.81
568.737	130.81
568.949	130.81
569.161	125.81
569.372	97.81
569.584	112.81
569.795	108.81
570.007	101.81
570.218	119.81
570.43	121.81
570.641	115.81
570.853	108.81
571.064	113.81
571.276	103.81
571.487	112.81
571.698	111.81
571.91	103.81
572.121	100.81
572.333	104.81
572.544	105.81
572.755	91.81
572.966	99.81
573.178	92.81
573.389	102.81
573.6	109.81
573.811	109.81
574.023	99.81
574.234	102.81
574.445	97.81
574.656	91.81
574.867	95.81
575.078	89.81
575.289	104.81
575.501	107.81
575.712	94.81
575.923	115.81
576.134	109.81
576.345	112.81
576.556	102.81
576.767	111.81
576.978	100.81
577.188	101.81
577.399	108.81
577.61	109.81
577.821	105.81
578.032	114.81
578.243	92.81
578.454	113.81
578.665	106.81
578.875	100.81
579.086	99.81
579.297	109.81
579.508	108.81
579.718	101.81
579.929	117.81
580.14	92.81
580.35	85.81
580.561	93.81
580.772	98.81
580.982	102.81
581.193	101.81
581.403	110.81
581.614	96.81
581.825	97.81
582.035	97.81
582.246	95.81
582.456	108.81
582.667	89.81
582.877	92.81
583.087	99.81
583.298	100.81
583.508	95.81
583.719	107.81
583.929	116.81
584.139	97.81
584.35	87.81
584.56	89.81
584.77	90.81
584.981	101.81
585.191	108.81
585.401	117.81
585.611	103.81
585.821	117.81
586.032	127.81
586.242	96.81
586.452	99.81
586.662	101.81
586.872	102.81
587.082	109.81
587.292	108.81
587.502	105.81
587.713	105.81
587.923	110.81
588.133	107.81
588.343	120.81
588.553	126.81
588.762	170.81
588.972	262.81
589.182	451.81
589.392	337.81
589.602	277.81
589.812	383.81
590.022	278.81
590.232	171.81
590.441	138.81
590.651	111.81
590.861	125.81
591.071	109.81
591.281	121.81
591.49	106.81
591.7	108.81
591.91	93.81
592.119	108.81
592.329	102.81
592.539	102.81
592.748	111.81
592.958	113.81
593.167	126.81
593.377	118.81
593.587	130.81
593.796	106.81
594.006	108.81
594.215	111.81
594.424	94.81
594.634	101.81
594.843	106.81
595.053	104.81
595.262	106.81
595.472	89.81
595.681	102.81
595.89	88.81
596.1	101.81
596.309	104.81
596.518	104.81
596.727	94.81
596.937	111.81
597.146	113.81
597.355	101.81
597.564	97.81
597.774	106.81
597.983	113.81
598.192	101.81
598.401	103.81
598.61	99.81
598.819	114.81
599.028	114.81
599.237	101.81
599.446	117.81
599.655	105.81
599.864	111.81
600.073	115.81
600.282	97.81
600.491	109.81
600.7	97.81
600.909	113.81
601.118	110.81
601.327	98.81
601.536	97.81
601.745	99.81
601.953	100.81
602.162	92.81
602.371	106.81
602.58	118.81
602.789	114.81
602.997	110.81
603.206	96.81
603.415	94.81
603.623	91.81
603.832	103.81
604.041	109.81
604.249	102.81
604.458	105.81
604.666	122.81
604.875	94.81
605.084	110.81
605.292	99.81
605.501	81.81
605.709	115.81
605.918	97.81
606.126	105.81
606.334	100.81
606.543	113.81
606.751	112.81
606.96	106.81
607.168	117.81
607.376	121.81
607.585	110.81
607.793	109.81
608.001	104.81
608.21	105.81
608.418	134.81
608.626	116.81
608.834	121.81
609.043	107.81
609.251	102.81
609.459	94.81
609.667	106.81
609.875	102.81
610.083	109.81
610.291	99.81
610.499	105.81
610.707	111.81
610.916	91.81
611.124	103.81
611.332	111.81
611.54	111.81
611.748	106.81
611.955	114.81
612.163	119.81
612.371	143.81
612.579	118.81
612.787	111.81
612.995	126.81
613.203	115.81
613.411	102.81
613.618	93.81
613.826	94.81
614.034	111.81
614.242	110.81
614.449	112.81
614.657	119.81
614.865	110.81
615.072	115.81
615.28	99.81
615.488	109.81
615.695	118.81
615.903	111.81
616.111	126.81
616.318	139.81
616.526	144.81
616.733	125.81
616.941	112.81
617.148	115.81
617.356	139.81
617.563	130.81
617.771	119.81
617.978	125.81
618.185	120.81
618.393	125.81
618.6	121.81
618.807	105.81
619.015	103.81
619.222	127.81
619.429	103.81
619.637	113.81
619.844	115.81
620.051	109.81
620.258	111.81
620.466	116.81
620.673	118.81
620.88	117.81
621.087	112.81
621.294	109.81
621.501	94.81
621.708	110.81
621.915	112.81
622.122	113.81
622.329	98.81
622.536	100.81
622.743	87.81
622.95	103.81
623.157	95.81
623.364	108.81
623.571	107.81
623.778	98.81
623.985	105.81
624.192	104.81
624.399	107.81
624.606	109.81
624.812	100.81
625.019	95.81
625.226	97.81
625.433	91.81
625.639	97.81
625.846	109.81
626.053	97.81
626.259	100.81
626.466	108.81
626.673	95.81
626.879	92.81
627.086	95.81
627.293	99.81
627.499	88.81
627.706	79.81
627.912	90.81
628.119	100.81
628.325	89.81
628.532	89.81
628.738	86.81
628.945	97.81
629.151	80.81
629.357	98.81
629.564	105.81
629.77	84.81
629.976	91.81
630.183	110.81
630.389	95.81
630.595	97.81
630.802	99.81
631.008	92.81
631.214	85.81
631.42	94.81
631.627	96.81
631.833	106.81
632.039	103.81
632.245	90.81
632.451	84.81
632.657	100.81
632.863	99.81
633.069	100.81
633.275	84.81
633.481	99.81
633.688	95.81
633.893	87.81
634.099	95.81
634.305	96.81
634.511	103.81
634.717	93.81
634.923	108.81
635.129	99.81
635.335	103.81
635.541	95.81
635.747	98.81
635.952	80.81
636.158	92.81
636.364	87.81
636.57	85.81
636.775	76.81
636.981	89.81
637.187	81.81
637.392	97.81
637.598	98.81
637.804	85.81
638.009	87.81
638.215	82.81
638.421	80.81
638.626	89.81
638.832	97.81
639.037	92.81
639.243	86.81
639.448	96.81
639.654	96.81
639.859	97.81
640.065	78.81
640.27	81.81
640.475	87.81
640.681	88.81
640.886	94.81
641.091	85.81
641.297	83.81
641.502	95.81
641.707	92.81
641.913	92.81
642.118	86.81
642.323	85.81
642.528	81.81
642.733	85.81
642.939	89.81
643.144	87.81
643.349	84.81
643.554	102.81
643.759	78.81
643.964	101.81
644.169	101.81
644.374	96.81
644.579	93.81
644.784	105.81
644.989	96.81
645.194	75.81
645.399	92.81
645.604	87.81
645.809	91.81
646.014	76.81
646.219	91.81
646.423	96.81
646.628	106.81
646.833	81.81
647.038	93.81
647.243	108.81
647.447	98.81
647.652	89.81
647.857	99.81
648.062	96.81
648.266	83.81
648.471	101.81
648.676	94.81
648.88	87.81
649.085	88.81
649.289	76.81
649.494	77.81
649.698	83.81
649.903	103.81
650.107	83.81
650.312	95.81
650.516	75.81
650.721	77.81
650.925	91.81
651.13	82.81
651.334	78.81
651.539	93.81
651.743	86.81
651.947	88.81
652.152	87.81
652.356	91.81
652.56	101.81
652.764	81.81
652.969	84.81
653.173	97.81
653.377	85.81
653.581	87.81
653.785	76.81
653.99	92.81
654.194	82.81
654.398	102.81
654.602	87.81
654.806	94.81
655.01	96.81
655.214	94.81
655.418	101.81
655.622	92.81
655.826	100.81
656.03	86.81
656.234	83.81
656.438	88.81
656.642	94.81
656.846	85.81
657.049	99.81
657.253	83.81
657.457	85.81
657.661	75.81
657.865	87.81
658.068	97.81
658.272	87.81
658.476	95.81
658.68	81.81
658.883	85.81
659.087	87.81
659.291	84.81
659.494	79.81
659.698	71.81
659.901	81.81
660.105	95.81
660.309	80.81
660.512	75.81
660.716	85.81
660.919	70.81
661.123	85.81
661.326	75.81
661.53	89.81
661.733	74.81
661.936	79.81
662.14	75.81
662.343	83.81
662.546	90.81
662.75	85.81
662.953	82.81
663.156	72.81
663.36	93.81
663.563	63.81
663.766	75.81
663.969	74.81
664.173	68.81
664.376	81.81
664.579	87.81
664.782	78.81
664.985	77.81
665.188	80.81
665.391	74.81
665.594	87.81
665.797	92.81
666	69.81
666.203	80.81
666.406	79.81
666.609	95.81
666.812	84.81
667.015	81.81
667.218	82.81
667.421	67.81
667.624	75.81
667.827	80.81
668.03	76.81
668.232	82.81
668.435	72.81
668.638	72.81
668.841	78.81
669.043	87.81
669.246	81.81
669.449	71.81
669.651	73.81
669.854	89.81
670.057	84.81
670.259	74.81
670.462	73.81
670.665	84.81
670.867	81.81
671.07	81.81
671.272	76.81
671.475	76.81
671.677	70.81
671.88	81.81
672.082	77.81
672.284	80.81
672.487	75.81
672.689	80.81
672.892	85.81
