Data from SampD_HRD10591_00075.txt Node
Date: Mon Jan 19 11:48:03 EST 2026
User: Yrep
Spectrometer: HR+D1059
Trigger mode: 0
Integration Time (sec): 3.443000E-1
Scans to average: 1
Electric dark correction enabled: true
Nonlinearity correction enabled: false
Boxcar width: 0
XAxis mode: Wavelengths
Number of Pixels in Spectrum: 2048
>>>>>Begin Spectral Data<<<<<
223.165	-34.88
223.4	-34.88
223.635	-34.88
223.869	-21.88
224.104	-14.88
224.338	-16.88
224.573	-15.88
224.808	-8.88
225.042	-0.88
225.277	-11.88
225.511	3.12
225.746	-2.88
225.98	2.12
226.215	14.12
226.449	22.12
226.683	29.12
226.918	29.12
227.152	29.12
227.387	43.12
227.621	33.12
227.856	47.12
228.09	46.12
228.324	33.12
228.559	62.12
228.793	55.12
229.027	70.12
229.262	73.12
229.496	53.12
229.73	72.12
229.964	76.12
230.199	81.12
230.433	69.12
230.667	69.12
230.901	72.12
231.136	76.12
231.37	84.12
231.604	81.12
231.838	69.12
232.072	80.12
232.306	80.12
232.541	77.12
232.775	85.12
233.009	82.12
233.243	75.12
233.477	88.12
233.711	81.12
233.945	86.12
234.179	88.12
234.413	87.12
234.647	88.12
234.881	89.12
235.115	77.12
235.349	69.12
235.583	85.12
235.817	97.12
236.051	81.12
236.285	78.12
236.519	96.12
236.753	101.12
236.987	85.12
237.221	69.12
237.455	86.12
237.689	74.12
237.922	77.12
238.156	74.12
238.39	83.12
238.624	85.12
238.858	98.12
239.091	90.12
239.325	68.12
239.559	90.12
239.793	85.12
240.027	89.12
240.26	72.12
240.494	92.12
240.728	67.12
240.961	57.12
241.195	89.12
241.429	98.12
241.662	82.12
241.896	94.12
242.13	72.12
242.363	76.12
242.597	103.12
242.83	78.12
243.064	89.12
243.298	91.12
243.531	82.12
243.765	80.12
243.998	94.12
244.232	82.12
244.465	87.12
244.699	83.12
244.932	79.12
245.166	89.12
245.399	88.12
245.633	88.12
245.866	71.12
246.099	86.12
246.333	90.12
246.566	84.12
246.8	85.12
247.033	90.12
247.266	84.12
247.5	92.12
247.733	89.12
247.966	79.12
248.2	98.12
248.433	85.12
248.666	84.12
248.899	101.12
249.133	92.12
249.366	101.12
249.599	82.12
249.832	96.12
250.066	102.12
250.299	102.12
250.532	93.12
250.765	79.12
250.998	94.12
251.231	86.12
251.465	84.12
251.698	87.12
251.931	79.12
252.164	86.12
252.397	96.12
252.63	84.12
252.863	105.12
253.096	84.12
253.329	103.12
253.562	97.12
253.795	87.12
254.028	87.12
254.261	86.12
254.494	98.12
254.727	92.12
254.96	94.12
255.193	82.12
255.426	94.12
255.659	98.12
255.892	90.12
256.124	95.12
256.357	90.12
256.59	93.12
256.823	92.12
257.056	98.12
257.289	87.12
257.521	97.12
257.754	94.12
257.987	101.12
258.22	97.12
258.452	92.12
258.685	92.12
258.918	95.12
259.151	99.12
259.383	108.12
259.616	90.12
259.849	105.12
260.081	99.12
260.314	85.12
260.547	85.12
260.779	81.12
261.012	89.12
261.244	107.12
261.477	106.12
261.71	88.12
261.942	85.12
262.175	102.12
262.407	104.12
262.64	94.12
262.872	105.12
263.105	103.12
263.337	100.12
263.57	113.12
263.802	107.12
264.035	100.12
264.267	113.12
264.499	88.12
264.732	104.12
264.964	86.12
265.197	87.12
265.429	81.12
265.661	89.12
265.894	107.12
266.126	104.12
266.358	106.12
266.591	97.12
266.823	105.12
267.055	99.12
267.287	107.12
267.52	103.12
267.752	102.12
267.984	95.12
268.216	101.12
268.448	114.12
268.681	106.12
268.913	89.12
269.145	104.12
269.377	101.12
269.609	98.12
269.841	99.12
270.073	97.12
270.306	91.12
270.538	95.12
270.77	90.12
271.002	89.12
271.234	102.12
271.466	112.12
271.698	102.12
271.93	119.12
272.162	109.12
272.394	112.12
272.626	95.12
272.858	100.12
273.09	113.12
273.322	108.12
273.553	110.12
273.785	124.12
274.017	108.12
274.249	105.12
274.481	100.12
274.713	121.12
274.945	116.12
275.176	99.12
275.408	112.12
275.64	100.12
275.872	101.12
276.104	113.12
276.335	114.12
276.567	121.12
276.799	103.12
277.031	96.12
277.262	110.12
277.494	100.12
277.726	110.12
277.957	99.12
278.189	102.12
278.421	107.12
278.652	114.12
278.884	93.12
279.115	105.12
279.347	102.12
279.579	102.12
279.81	106.12
280.042	107.12
280.273	105.12
280.505	113.12
280.736	117.12
280.968	117.12
281.199	104.12
281.431	96.12
281.662	113.12
281.894	101.12
282.125	121.12
282.356	114.12
282.588	110.12
282.819	100.12
283.051	109.12
283.282	109.12
283.513	107.12
283.745	106.12
283.976	104.12
284.207	127.12
284.439	105.12
284.67	124.12
284.901	127.12
285.132	112.12
285.364	107.12
285.595	126.12
285.826	125.12
286.057	108.12
286.288	110.12
286.52	116.12
286.751	119.12
286.982	100.12
287.213	101.12
287.444	124.12
287.675	100.12
287.906	113.12
288.138	110.12
288.369	108.12
288.6	117.12
288.831	107.12
289.062	123.12
289.293	113.12
289.524	106.12
289.755	129.12
289.986	98.12
290.217	124.12
290.448	122.12
290.679	118.12
290.91	120.12
291.141	128.12
291.371	101.12
291.602	109.12
291.833	113.12
292.064	127.12
292.295	122.12
292.526	113.12
292.757	124.12
292.987	119.12
293.218	112.12
293.449	125.12
293.68	113.12
293.91	113.12
294.141	110.12
294.372	104.12
294.603	118.12
294.833	105.12
295.064	113.12
295.295	125.12
295.525	100.12
295.756	112.12
295.987	104.12
296.217	110.12
296.448	113.12
296.679	115.12
296.909	126.12
297.14	104.12
297.37	108.12
297.601	104.12
297.831	121.12
298.062	104.12
298.292	121.12
298.523	106.12
298.753	125.12
298.984	119.12
299.214	130.12
299.445	125.12
299.675	128.12
299.905	105.12
300.136	123.12
300.366	121.12
300.597	126.12
300.827	140.12
301.057	121.12
301.288	140.12
301.518	129.12
301.748	114.12
301.979	162.12
302.209	131.12
302.439	124.12
302.669	121.12
302.9	127.12
303.13	137.12
303.36	128.12
303.59	127.12
303.82	116.12
304.051	138.12
304.281	129.12
304.511	129.12
304.741	124.12
304.971	130.12
305.201	127.12
305.431	140.12
305.661	128.12
305.891	133.12
306.121	132.12
306.352	138.12
306.582	105.12
306.812	124.12
307.042	113.12
307.272	131.12
307.502	128.12
307.731	120.12
307.961	130.12
308.191	113.12
308.421	114.12
308.651	120.12
308.881	125.12
309.111	132.12
309.341	106.12
309.571	120.12
309.8	120.12
310.03	115.12
310.26	125.12
310.49	135.12
310.72	124.12
310.949	102.12
311.179	116.12
311.409	129.12
311.639	124.12
311.868	137.12
312.098	132.12
312.328	126.12
312.557	118.12
312.787	126.12
313.017	125.12
313.246	130.12
313.476	135.12
313.706	134.12
313.935	125.12
314.165	110.12
314.394	132.12
314.624	124.12
314.853	113.12
315.083	122.12
315.312	126.12
315.542	136.12
315.771	132.12
316.001	121.12
316.23	132.12
316.46	132.12
316.689	132.12
316.919	112.12
317.148	128.12
317.377	136.12
317.607	130.12
317.836	116.12
318.065	115.12
318.295	112.12
318.524	116.12
318.753	120.12
318.983	121.12
319.212	118.12
319.441	126.12
319.67	113.12
319.9	121.12
320.129	122.12
320.358	125.12
320.587	134.12
320.816	113.12
321.046	115.12
321.275	122.12
321.504	129.12
321.733	135.12
321.962	143.12
322.191	120.12
322.42	116.12
322.649	123.12
322.878	136.12
323.108	130.12
323.337	122.12
323.566	127.12
323.795	117.12
324.024	125.12
324.253	117.12
324.482	130.12
324.71	127.12
324.939	133.12
325.168	132.12
325.397	134.12
325.626	122.12
325.855	136.12
326.084	118.12
326.313	128.12
326.542	136.12
326.77	137.12
326.999	122.12
327.228	137.12
327.457	128.12
327.686	125.12
327.914	124.12
328.143	132.12
328.372	138.12
328.6	135.12
328.829	130.12
329.058	128.12
329.287	147.12
329.515	129.12
329.744	136.12
329.972	137.12
330.201	124.12
330.43	127.12
330.658	130.12
330.887	126.12
331.115	128.12
331.344	117.12
331.572	130.12
331.801	139.12
332.03	128.12
332.258	148.12
332.486	154.12
332.715	147.12
332.943	126.12
333.172	137.12
333.4	152.12
333.629	162.12
333.857	140.12
334.085	150.12
334.314	153.12
334.542	144.12
334.771	146.12
334.999	162.12
335.227	147.12
335.455	153.12
335.684	161.12
335.912	142.12
336.14	128.12
336.369	141.12
336.597	156.12
336.825	136.12
337.053	129.12
337.281	128.12
337.51	127.12
337.738	153.12
337.966	129.12
338.194	122.12
338.422	129.12
338.65	132.12
338.878	131.12
339.106	143.12
339.334	133.12
339.562	127.12
339.79	125.12
340.018	140.12
340.246	122.12
340.474	120.12
340.702	126.12
340.93	129.12
341.158	135.12
341.386	127.12
341.614	126.12
341.842	133.12
342.07	132.12
342.298	137.12
342.526	134.12
342.754	136.12
342.981	126.12
343.209	131.12
343.437	165.12
343.665	137.12
343.893	156.12
344.12	163.12
344.348	146.12
344.576	148.12
344.804	145.12
345.031	134.12
345.259	140.12
345.487	133.12
345.714	127.12
345.942	123.12
346.17	147.12
346.397	144.12
346.625	111.12
346.853	127.12
347.08	126.12
347.308	131.12
347.535	134.12
347.763	129.12
347.99	122.12
348.218	143.12
348.445	142.12
348.673	133.12
348.9	147.12
349.128	136.12
349.355	122.12
349.583	118.12
349.81	138.12
350.037	135.12
350.265	135.12
350.492	125.12
350.72	124.12
350.947	125.12
351.174	139.12
351.402	124.12
351.629	117.12
351.856	136.12
352.083	116.12
352.311	134.12
352.538	127.12
352.765	130.12
352.992	137.12
353.22	127.12
353.447	128.12
353.674	126.12
353.901	142.12
354.128	122.12
354.355	124.12
354.583	120.12
354.81	133.12
355.037	121.12
355.264	137.12
355.491	145.12
355.718	142.12
355.945	127.12
356.172	124.12
356.399	120.12
356.626	133.12
356.853	113.12
357.08	125.12
357.307	144.12
357.534	126.12
357.761	137.12
357.988	131.12
358.215	149.12
358.441	114.12
358.668	121.12
358.895	135.12
359.122	128.12
359.349	130.12
359.576	117.12
359.802	116.12
360.029	122.12
360.256	114.12
360.483	115.12
360.709	131.12
360.936	156.12
361.163	128.12
361.39	124.12
361.616	143.12
361.843	112.12
362.07	122.12
362.296	142.12
362.523	114.12
362.749	121.12
362.976	125.12
363.203	141.12
363.429	129.12
363.656	127.12
363.882	131.12
364.109	136.12
364.335	130.12
364.562	130.12
364.788	128.12
365.015	129.12
365.241	120.12
365.468	148.12
365.694	123.12
365.92	146.12
366.147	134.12
366.373	143.12
366.599	119.12
366.826	132.12
367.052	144.12
367.278	166.12
367.505	129.12
367.731	157.12
367.957	135.12
368.184	146.12
368.41	136.12
368.636	144.12
368.862	141.12
369.089	115.12
369.315	156.12
369.541	154.12
369.767	150.12
369.993	143.12
370.219	141.12
370.445	149.12
370.672	129.12
370.898	144.12
371.124	150.12
371.35	137.12
371.576	154.12
371.802	154.12
372.028	130.12
372.254	151.12
372.48	156.12
372.706	140.12
372.932	156.12
373.158	156.12
373.384	150.12
373.61	159.12
373.835	160.12
374.061	135.12
374.287	144.12
374.513	159.12
374.739	148.12
374.965	168.12
375.191	158.12
375.416	170.12
375.642	159.12
375.868	163.12
376.094	155.12
376.319	147.12
376.545	173.12
376.771	156.12
376.997	139.12
377.222	174.12
377.448	156.12
377.674	153.12
377.899	152.12
378.125	148.12
378.35	146.12
378.576	152.12
378.802	134.12
379.027	156.12
379.253	186.12
379.478	165.12
379.704	156.12
379.929	154.12
380.155	161.12
380.38	152.12
380.606	156.12
380.831	178.12
381.057	182.12
381.282	174.12
381.507	173.12
381.733	178.12
381.958	169.12
382.184	164.12
382.409	158.12
382.634	174.12
382.86	162.12
383.085	175.12
383.31	185.12
383.535	186.12
383.761	168.12
383.986	191.12
384.211	196.12
384.436	181.12
384.662	181.12
384.887	178.12
385.112	186.12
385.337	209.12
385.562	190.12
385.787	184.12
386.013	197.12
386.238	187.12
386.463	177.12
386.688	199.12
386.913	178.12
387.138	194.12
387.363	197.12
387.588	190.12
387.813	195.12
388.038	183.12
388.263	192.12
388.488	190.12
388.713	173.12
388.938	186.12
389.163	190.12
389.387	178.12
389.612	200.12
389.837	204.12
390.062	188.12
390.287	198.12
390.512	204.12
390.736	204.12
390.961	202.12
391.186	201.12
391.411	201.12
391.636	205.12
391.86	182.12
392.085	208.12
392.31	192.12
392.534	215.12
392.759	205.12
392.984	208.12
393.208	206.12
393.433	208.12
393.658	196.12
393.882	209.12
394.107	209.12
394.331	206.12
394.556	180.12
394.78	217.12
395.005	201.12
395.229	226.12
395.454	225.12
395.678	218.12
395.903	235.12
396.127	208.12
396.352	210.12
396.576	217.12
396.801	218.12
397.025	207.12
397.249	226.12
397.474	210.12
397.698	221.12
397.922	241.12
398.147	209.12
398.371	216.12
398.595	216.12
398.82	223.12
399.044	248.12
399.268	251.12
399.492	279.12
399.717	290.12
399.941	273.12
400.165	264.12
400.389	260.12
400.613	255.12
400.837	246.12
401.062	247.12
401.286	232.12
401.51	255.12
401.734	249.12
401.958	241.12
402.182	226.12
402.406	228.12
402.63	246.12
402.854	239.12
403.078	254.12
403.302	255.12
403.526	278.12
403.75	271.12
403.974	261.12
404.198	266.12
404.422	260.12
404.645	261.12
404.869	269.12
405.093	263.12
405.317	263.12
405.541	255.12
405.765	265.12
405.988	261.12
406.212	256.12
406.436	261.12
406.66	278.12
406.883	267.12
407.107	274.12
407.331	291.12
407.555	296.12
407.778	286.12
408.002	270.12
408.226	271.12
408.449	282.12
408.673	257.12
408.896	274.12
409.12	268.12
409.344	277.12
409.567	264.12
409.791	272.12
410.014	276.12
410.238	265.12
410.461	265.12
410.685	260.12
410.908	262.12
411.132	270.12
411.355	258.12
411.578	273.12
411.802	248.12
412.025	270.12
412.249	266.12
412.472	258.12
412.695	257.12
412.919	259.12
413.142	286.12
413.365	270.12
413.589	271.12
413.812	265.12
414.035	258.12
414.258	265.12
414.482	261.12
414.705	265.12
414.928	265.12
415.151	254.12
415.374	264.12
415.597	270.12
415.821	253.12
416.044	257.12
416.267	257.12
416.49	269.12
416.713	264.12
416.936	254.12
417.159	271.12
417.382	278.12
417.605	272.12
417.828	264.12
418.051	289.12
418.274	292.12
418.497	280.12
418.72	282.12
418.943	289.12
419.166	284.12
419.389	309.12
419.611	285.12
419.834	276.12
420.057	288.12
420.28	277.12
420.503	259.12
420.726	275.12
420.948	270.12
421.171	276.12
421.394	285.12
421.617	298.12
421.839	301.12
422.062	290.12
422.285	270.12
422.507	282.12
422.73	274.12
422.953	270.12
423.175	278.12
423.398	285.12
423.621	293.12
423.843	257.12
424.066	303.12
424.288	278.12
424.511	290.12
424.733	301.12
424.956	322.12
425.178	296.12
425.401	298.12
425.623	311.12
425.846	255.12
426.068	266.12
426.291	257.12
426.513	265.12
426.735	274.12
426.958	254.12
427.18	255.12
427.402	271.12
427.625	267.12
427.847	259.12
428.069	254.12
428.292	249.12
428.514	243.12
428.736	251.12
428.958	272.12
429.181	273.12
429.403	260.12
429.625	261.12
429.847	255.12
430.069	254.12
430.292	268.12
430.514	264.12
430.736	258.12
430.958	242.12
431.18	256.12
431.402	242.12
431.624	246.12
431.846	173.12
432.068	200.12
432.29	202.12
432.512	215.12
432.734	241.12
432.956	263.12
433.178	280.12
433.4	270.12
433.622	293.12
433.844	255.12
434.066	241.12
434.287	218.12
434.509	209.12
434.731	220.12
434.953	243.12
435.175	250.12
435.397	255.12
435.618	242.12
435.84	224.12
436.062	232.12
436.284	245.12
436.505	261.12
436.727	274.12
436.949	272.12
437.17	251.12
437.392	242.12
437.614	239.12
437.835	207.12
438.057	218.12
438.278	226.12
438.5	245.12
438.721	273.12
438.943	288.12
439.165	281.12
439.386	291.12
439.608	286.12
439.829	286.12
440.05	306.12
440.272	302.12
440.493	278.12
440.715	293.12
440.936	292.12
441.158	326.12
441.379	302.12
441.6	309.12
441.822	298.12
442.043	300.12
442.264	280.12
442.486	288.12
442.707	292.12
442.928	301.12
443.149	284.12
443.371	286.12
443.592	288.12
443.813	290.12
444.034	289.12
444.255	316.12
444.476	311.12
444.698	326.12
444.919	337.12
445.14	585.12
445.361	444.12
445.582	292.12
445.803	288.12
446.024	302.12
446.245	323.12
446.466	323.12
446.687	298.12
446.908	312.12
447.129	286.12
447.35	295.12
447.571	286.12
447.792	285.12
448.013	292.12
448.234	286.12
448.455	282.12
448.675	286.12
448.896	275.12
449.117	275.12
449.338	272.12
449.559	261.12
449.779	252.12
450	259.12
450.221	266.12
450.442	257.12
450.662	262.12
450.883	274.12
451.104	264.12
451.324	252.12
451.545	249.12
451.766	270.12
451.986	261.12
452.207	251.12
452.428	240.12
452.648	230.12
452.869	227.12
453.089	231.12
453.31	204.12
453.53	197.12
453.751	204.12
453.971	190.12
454.192	184.12
454.412	202.12
454.633	217.12
454.853	239.12
455.073	240.12
455.294	216.12
455.514	226.12
455.734	223.12
455.955	220.12
456.175	213.12
456.395	199.12
456.616	189.12
456.836	202.12
457.056	212.12
457.276	195.12
457.497	198.12
457.717	182.12
457.937	194.12
458.157	193.12
458.377	188.12
458.598	182.12
458.818	167.12
459.038	168.12
459.258	164.12
459.478	163.12
459.698	169.12
459.918	208.12
460.138	204.12
460.358	237.12
460.578	235.12
460.798	227.12
461.018	242.12
461.238	244.12
461.458	247.12
461.678	243.12
461.898	236.12
462.118	260.12
462.338	237.12
462.558	260.12
462.777	274.12
462.997	270.12
463.217	276.12
463.437	272.12
463.657	230.12
463.876	244.12
464.096	264.12
464.316	246.12
464.536	254.12
464.755	264.12
464.975	237.12
465.195	225.12
465.414	237.12
465.634	229.12
465.854	227.12
466.073	231.12
466.293	246.12
466.512	239.12
466.732	248.12
466.951	252.12
467.171	249.12
467.391	260.12
467.61	246.12
467.829	248.12
468.049	265.12
468.268	269.12
468.488	270.12
468.707	263.12
468.927	259.12
469.146	270.12
469.365	263.12
469.585	268.12
469.804	281.12
470.023	287.12
470.243	280.12
470.462	286.12
470.681	269.12
470.901	270.12
471.12	279.12
471.339	280.12
471.558	274.12
471.777	265.12
471.997	259.12
472.216	238.12
472.435	212.12
472.654	212.12
472.873	226.12
473.092	221.12
473.311	239.12
473.53	233.12
473.749	248.12
473.968	238.12
474.187	234.12
474.406	218.12
474.625	239.12
474.844	238.12
475.063	226.12
475.282	221.12
475.501	210.12
475.72	240.12
475.939	234.12
476.158	260.12
476.377	232.12
476.596	238.12
476.814	217.12
477.033	214.12
477.252	216.12
477.471	221.12
477.69	260.12
477.908	275.12
478.127	301.12
478.346	262.12
478.564	253.12
478.783	275.12
479.002	280.12
479.22	281.12
479.439	271.12
479.658	252.12
479.876	230.12
480.095	226.12
480.313	235.12
480.532	261.12
480.751	226.12
480.969	195.12
481.188	180.12
481.406	177.12
481.624	173.12
481.843	183.12
482.061	184.12
482.28	212.12
482.498	217.12
482.717	222.12
482.935	234.12
483.153	272.12
483.372	293.12
483.59	284.12
483.808	259.12
484.027	252.12
484.245	247.12
484.463	280.12
484.681	304.12
484.9	257.12
485.118	270.12
485.336	237.12
485.554	214.12
485.772	190.12
485.99	200.12
486.209	239.12
486.427	229.12
486.645	254.12
486.863	271.12
487.081	282.12
487.299	257.12
487.517	279.12
487.735	308.12
487.953	385.12
488.171	353.12
488.389	334.12
488.607	304.12
488.825	270.12
489.043	248.12
489.261	253.12
489.479	259.12
489.696	278.12
489.914	284.12
490.132	284.12
490.35	312.12
490.568	316.12
490.786	328.12
491.003	355.12
491.221	374.12
491.439	381.12
491.657	405.12
491.874	426.12
492.092	455.12
492.31	462.12
492.527	444.12
492.745	413.12
492.963	415.12
493.18	407.12
493.398	381.12
493.615	373.12
493.833	346.12
494.05	367.12
494.268	351.12
494.485	362.12
494.703	377.12
494.92	368.12
495.138	361.12
495.355	362.12
495.573	357.12
495.79	347.12
496.008	360.12
496.225	337.12
496.442	347.12
496.66	347.12
496.877	332.12
497.094	366.12
497.312	356.12
497.529	326.12
497.746	313.12
497.963	288.12
498.181	279.12
498.398	265.12
498.615	296.12
498.832	286.12
499.049	281.12
499.267	317.12
499.484	339.12
499.701	391.12
499.918	433.12
500.135	451.12
500.352	504.12
500.569	510.12
500.786	513.12
501.003	476.12
501.22	441.12
501.437	411.12
501.654	351.12
501.871	334.12
502.088	315.12
502.305	306.12
502.522	308.12
502.739	294.12
502.956	297.12
503.172	278.12
503.389	277.12
503.606	257.12
503.823	269.12
504.04	262.12
504.256	270.12
504.473	261.12
504.69	256.12
504.907	276.12
505.123	246.12
505.34	256.12
505.557	248.12
505.773	276.12
505.99	238.12
506.207	236.12
506.423	227.12
506.64	243.12
506.856	223.12
507.073	228.12
507.289	232.12
507.506	222.12
507.722	237.12
507.939	221.12
508.155	216.12
508.372	208.12
508.588	209.12
508.805	213.12
509.021	196.12
509.238	194.12
509.454	204.12
509.67	176.12
509.887	165.12
510.103	189.12
510.319	175.12
510.536	171.12
510.752	175.12
510.968	154.12
511.184	152.12
511.401	158.12
511.617	166.12
511.833	174.12
512.049	171.12
512.265	167.12
512.481	174.12
512.698	188.12
512.914	181.12
513.13	170.12
513.346	186.12
513.562	158.12
513.778	157.12
513.994	165.12
514.21	179.12
514.426	176.12
514.642	160.12
514.858	180.12
515.074	168.12
515.29	179.12
515.506	163.12
515.721	168.12
515.937	177.12
516.153	158.12
516.369	157.12
516.585	166.12
516.801	190.12
517.016	197.12
517.232	198.12
517.448	218.12
517.664	198.12
517.879	206.12
518.095	226.12
518.311	212.12
518.527	199.12
518.742	193.12
518.958	200.12
519.173	202.12
519.389	213.12
519.605	210.12
519.82	176.12
520.036	206.12
520.251	210.12
520.467	193.12
520.682	181.12
520.898	156.12
521.113	184.12
521.329	162.12
521.544	164.12
521.76	163.12
521.975	166.12
522.19	180.12
522.406	170.12
522.621	171.12
522.836	180.12
523.052	190.12
523.267	196.12
523.482	210.12
523.698	198.12
523.913	198.12
524.128	206.12
524.343	204.12
524.559	221.12
524.774	223.12
524.989	211.12
525.204	227.12
525.419	190.12
525.634	206.12
525.849	184.12
526.064	179.12
526.28	173.12
526.495	163.12
526.71	161.12
526.925	143.12
527.14	152.12
527.355	175.12
527.57	170.12
527.785	166.12
527.999	173.12
528.214	175.12
528.429	198.12
528.644	222.12
528.859	213.12
529.074	259.12
529.289	277.12
529.503	273.12
529.718	256.12
529.933	188.12
530.148	172.12
530.363	170.12
530.577	168.12
530.792	135.12
531.007	150.12
531.221	162.12
531.436	161.12
531.651	158.12
531.865	142.12
532.08	157.12
532.295	167.12
532.509	157.12
532.724	160.12
532.938	170.12
533.153	179.12
533.367	200.12
533.582	224.12
533.796	198.12
534.011	168.12
534.225	173.12
534.44	143.12
534.654	166.12
534.868	170.12
535.083	177.12
535.297	162.12
535.511	184.12
535.726	176.12
535.94	189.12
536.154	171.12
536.369	144.12
536.583	157.12
536.797	158.12
537.011	150.12
537.225	146.12
537.44	160.12
537.654	151.12
537.868	162.12
538.082	147.12
538.296	163.12
538.51	180.12
538.724	186.12
538.938	215.12
539.153	221.12
539.367	225.12
539.581	197.12
539.795	187.12
540.009	166.12
540.222	176.12
540.436	196.12
540.65	201.12
540.864	232.12
541.078	257.12
541.292	286.12
541.506	291.12
541.72	325.12
541.934	333.12
542.147	370.12
542.361	338.12
542.575	295.12
542.789	273.12
543.002	246.12
543.216	231.12
543.43	222.12
543.644	224.12
543.857	266.12
544.071	303.12
544.285	312.12
544.498	294.12
544.712	308.12
544.925	332.12
545.139	318.12
545.352	303.12
545.566	304.12
545.779	314.12
545.993	313.12
546.206	305.12
546.42	310.12
546.633	318.12
546.847	322.12
547.06	325.12
547.274	339.12
547.487	323.12
547.7	339.12
547.914	332.12
548.127	338.12
548.34	309.12
548.554	320.12
548.767	302.12
548.98	286.12
549.193	294.12
549.407	304.12
549.62	308.12
549.833	296.12
550.046	310.12
550.259	298.12
550.473	294.12
550.686	299.12
550.899	281.12
551.112	258.12
551.325	261.12
551.538	238.12
551.751	232.12
551.964	213.12
552.177	257.12
552.39	269.12
552.603	292.12
552.816	289.12
553.029	312.12
553.242	308.12
553.455	299.12
553.667	311.12
553.88	303.12
554.093	285.12
554.306	293.12
554.519	285.12
554.732	279.12
554.944	264.12
555.157	280.12
555.37	261.12
555.583	276.12
555.795	253.12
556.008	240.12
556.221	236.12
556.433	245.12
556.646	239.12
556.859	252.12
557.071	245.12
557.284	250.12
557.496	264.12
557.709	265.12
557.921	278.12
558.134	253.12
558.346	254.12
558.559	243.12
558.771	243.12
558.984	249.12
559.196	251.12
559.409	225.12
559.621	228.12
559.833	222.12
560.046	229.12
560.258	233.12
560.47	240.12
560.683	247.12
560.895	220.12
561.107	231.12
561.32	229.12
561.532	246.12
561.744	239.12
561.956	240.12
562.168	231.12
562.381	236.12
562.593	224.12
562.805	223.12
563.017	215.12
563.229	221.12
563.441	210.12
563.653	242.12
563.865	210.12
564.077	219.12
564.289	209.12
564.501	189.12
564.713	210.12
564.925	215.12
565.137	191.12
565.349	225.12
565.561	220.12
565.773	219.12
565.985	229.12
566.197	218.12
566.408	225.12
566.62	246.12
566.832	249.12
567.044	235.12
567.255	262.12
567.467	244.12
567.679	229.12
567.891	232.12
568.102	238.12
568.314	213.12
568.526	199.12
568.737	172.12
568.949	161.12
569.161	146.12
569.372	148.12
569.584	156.12
569.795	150.12
570.007	134.12
570.218	127.12
570.43	144.12
570.641	160.12
570.853	158.12
571.064	186.12
571.276	176.12
571.487	179.12
571.698	169.12
571.91	150.12
572.121	173.12
572.333	160.12
572.544	162.12
572.755	128.12
572.966	129.12
573.178	133.12
573.389	142.12
573.6	135.12
573.811	125.12
574.023	114.12
574.234	134.12
574.445	133.12
574.656	131.12
574.867	160.12
575.078	130.12
575.289	152.12
575.501	150.12
575.712	150.12
575.923	147.12
576.134	155.12
576.345	146.12
576.556	158.12
576.767	162.12
576.978	140.12
577.188	157.12
577.399	136.12
577.61	114.12
577.821	133.12
578.032	143.12
578.243	136.12
578.454	133.12
578.665	142.12
578.875	133.12
579.086	134.12
579.297	120.12
579.508	112.12
579.718	126.12
579.929	121.12
580.14	128.12
580.35	141.12
580.561	129.12
580.772	126.12
580.982	123.12
581.193	120.12
581.403	128.12
581.614	124.12
581.825	134.12
582.035	126.12
582.246	129.12
582.456	123.12
582.667	127.12
582.877	118.12
583.087	136.12
583.298	117.12
583.508	114.12
583.719	121.12
583.929	130.12
584.139	115.12
584.35	115.12
584.56	124.12
584.77	137.12
584.981	128.12
585.191	111.12
585.401	111.12
585.611	121.12
585.821	125.12
586.032	114.12
586.242	111.12
586.452	120.12
586.662	102.12
586.872	120.12
587.082	120.12
587.292	106.12
587.502	109.12
587.713	119.12
587.923	111.12
588.133	125.12
588.343	111.12
588.553	120.12
588.762	117.12
588.972	118.12
589.182	124.12
589.392	119.12
589.602	126.12
589.812	127.12
590.022	131.12
590.232	126.12
590.441	113.12
590.651	113.12
590.861	120.12
591.071	103.12
591.281	120.12
591.49	115.12
591.7	125.12
591.91	127.12
592.119	133.12
592.329	117.12
592.539	125.12
592.748	132.12
592.958	124.12
593.167	135.12
593.377	129.12
593.587	170.12
593.796	143.12
594.006	136.12
594.215	128.12
594.424	141.12
594.634	136.12
594.843	126.12
595.053	142.12
595.262	138.12
595.472	140.12
595.681	120.12
595.89	135.12
596.1	126.12
596.309	132.12
596.518	133.12
596.727	124.12
596.937	111.12
597.146	126.12
597.355	123.12
597.564	111.12
597.774	132.12
597.983	109.12
598.192	104.12
598.401	110.12
598.61	124.12
598.819	125.12
599.028	128.12
599.237	127.12
599.446	122.12
599.655	110.12
599.864	110.12
600.073	117.12
600.282	143.12
600.491	121.12
600.7	127.12
600.909	130.12
601.118	148.12
601.327	139.12
601.536	144.12
601.745	138.12
601.953	160.12
602.162	166.12
602.371	150.12
602.58	155.12
602.789	154.12
602.997	151.12
603.206	156.12
603.415	162.12
603.623	167.12
603.832	157.12
604.041	148.12
604.249	133.12
604.458	140.12
604.666	128.12
604.875	143.12
605.084	142.12
605.292	147.12
605.501	152.12
605.709	156.12
605.918	163.12
606.126	146.12
606.334	166.12
606.543	164.12
606.751	168.12
606.96	149.12
607.168	167.12
607.376	164.12
607.585	167.12
607.793	146.12
608.001	150.12
608.21	166.12
608.418	176.12
608.626	159.12
608.834	161.12
609.043	172.12
609.251	162.12
609.459	156.12
609.667	154.12
609.875	171.12
610.083	189.12
610.291	166.12
610.499	180.12
610.707	150.12
610.916	166.12
611.124	177.12
611.332	166.12
611.54	149.12
611.748	170.12
611.955	172.12
612.163	159.12
612.371	173.12
612.579	169.12
612.787	152.12
612.995	172.12
613.203	181.12
613.411	165.12
613.618	164.12
613.826	154.12
614.034	173.12
614.242	183.12
614.449	166.12
614.657	159.12
614.865	173.12
615.072	149.12
615.28	164.12
615.488	176.12
615.695	169.12
615.903	175.12
616.111	169.12
616.318	180.12
616.526	161.12
616.733	176.12
616.941	164.12
617.148	170.12
617.356	153.12
617.563	165.12
617.771	142.12
617.978	157.12
618.185	160.12
618.393	140.12
618.6	173.12
618.807	154.12
619.015	170.12
619.222	148.12
619.429	157.12
619.637	152.12
619.844	150.12
620.051	150.12
620.258	140.12
620.466	159.12
620.673	144.12
620.88	164.12
621.087	144.12
621.294	158.12
621.501	128.12
621.708	145.12
621.915	129.12
622.122	147.12
622.329	150.12
622.536	141.12
622.743	146.12
622.95	160.12
623.157	144.12
623.364	142.12
623.571	149.12
623.778	136.12
623.985	155.12
624.192	144.12
624.399	149.12
624.606	150.12
624.812	146.12
625.019	151.12
625.226	142.12
625.433	156.12
625.639	138.12
625.846	140.12
626.053	125.12
626.259	131.12
626.466	131.12
626.673	114.12
626.879	116.12
627.086	143.12
627.293	134.12
627.499	140.12
627.706	160.12
627.912	143.12
628.119	138.12
628.325	159.12
628.532	157.12
628.738	141.12
628.945	127.12
629.151	142.12
629.357	141.12
629.564	123.12
629.77	138.12
629.976	128.12
630.183	137.12
630.389	116.12
630.595	130.12
630.802	145.12
631.008	150.12
631.214	136.12
631.42	142.12
631.627	139.12
631.833	117.12
632.039	138.12
632.245	131.12
632.451	134.12
632.657	133.12
632.863	122.12
633.069	140.12
633.275	129.12
633.481	121.12
633.688	133.12
633.893	129.12
634.099	140.12
634.305	146.12
634.511	120.12
634.717	116.12
634.923	121.12
635.129	114.12
635.335	126.12
635.541	122.12
635.747	121.12
635.952	120.12
636.158	130.12
636.364	145.12
636.57	150.12
636.775	133.12
636.981	119.12
637.187	122.12
637.392	122.12
637.598	127.12
637.804	126.12
638.009	136.12
638.215	115.12
638.421	136.12
638.626	134.12
638.832	134.12
639.037	129.12
639.243	111.12
639.448	113.12
639.654	123.12
639.859	116.12
640.065	109.12
640.27	148.12
640.475	120.12
640.681	108.12
640.886	124.12
641.091	122.12
641.297	142.12
641.502	116.12
641.707	130.12
641.913	136.12
642.118	136.12
642.323	121.12
642.528	118.12
642.733	119.12
642.939	136.12
643.144	119.12
643.349	132.12
643.554	133.12
643.759	131.12
643.964	128.12
644.169	120.12
644.374	114.12
644.579	128.12
644.784	119.12
644.989	134.12
645.194	120.12
645.399	139.12
645.604	121.12
645.809	138.12
646.014	126.12
646.219	115.12
646.423	119.12
646.628	134.12
646.833	128.12
647.038	147.12
647.243	140.12
647.447	135.12
647.652	128.12
647.857	131.12
648.062	138.12
648.266	109.12
648.471	119.12
648.676	122.12
648.88	129.12
649.085	137.12
649.289	114.12
649.494	123.12
649.698	137.12
649.903	117.12
650.107	118.12
650.312	134.12
650.516	129.12
650.721	116.12
650.925	113.12
651.13	117.12
651.334	126.12
651.539	121.12
651.743	111.12
651.947	120.12
652.152	119.12
652.356	118.12
652.56	114.12
652.764	114.12
652.969	124.12
653.173	110.12
653.377	118.12
653.581	102.12
653.785	111.12
653.99	95.12
654.194	94.12
654.398	90.12
654.602	110.12
654.806	92.12
655.01	109.12
655.214	99.12
655.418	91.12
655.622	90.12
655.826	109.12
656.03	103.12
656.234	105.12
656.438	105.12
656.642	103.12
656.846	93.12
657.049	107.12
657.253	110.12
657.457	90.12
657.661	95.12
657.865	99.12
658.068	101.12
658.272	84.12
658.476	90.12
658.68	101.12
658.883	101.12
659.087	82.12
659.291	88.12
659.494	108.12
659.698	97.12
659.901	90.12
660.105	95.12
660.309	82.12
660.512	79.12
660.716	86.12
660.919	80.12
661.123	105.12
661.326	92.12
661.53	80.12
661.733	85.12
661.936	87.12
662.14	93.12
662.343	77.12
662.546	84.12
662.75	80.12
662.953	76.12
663.156	99.12
663.36	80.12
663.563	75.12
663.766	69.12
663.969	87.12
664.173	73.12
664.376	82.12
664.579	92.12
664.782	69.12
664.985	83.12
665.188	90.12
665.391	92.12
665.594	82.12
665.797	76.12
666	72.12
666.203	69.12
666.406	69.12
666.609	71.12
666.812	78.12
667.015	69.12
667.218	78.12
667.421	81.12
667.624	81.12
667.827	71.12
668.03	78.12
668.232	70.12
668.435	81.12
668.638	71.12
668.841	82.12
669.043	80.12
669.246	74.12
669.449	80.12
669.651	88.12
669.854	72.12
670.057	86.12
670.259	69.12
670.462	73.12
670.665	77.12
670.867	91.12
671.07	94.12
671.272	92.12
671.475	74.12
671.677	94.12
671.88	84.12
672.082	72.12
672.284	84.12
672.487	86.12
672.689	84.12
672.892	77.12
