Data from CBS_3_HRD10591_00013.txt Node
Date: Mon Jan 19 14:05:45 EST 2026
User: Yrep
Spectrometer: HR+D1059
Trigger mode: 1
Integration Time (sec): 1.000000E-1
Scans to average: 1
Electric dark correction enabled: true
Nonlinearity correction enabled: false
Boxcar width: 0
XAxis mode: Wavelengths
Number of Pixels in Spectrum: 2048
>>>>>Begin Spectral Data<<<<<
223.165	-21.44
223.4	-21.44
223.635	-21.44
223.869	-23.44
224.104	-10.44
224.338	-19.44
224.573	-5.44
224.808	-4.44
225.042	-2.44
225.277	-7.44
225.511	2.56
225.746	-2.44
225.98	20.56
226.215	17.56
226.449	12.56
226.683	2.56
226.918	13.56
227.152	27.56
227.387	38.56
227.621	34.56
227.856	53.56
228.09	45.56
228.324	53.56
228.559	47.56
228.793	61.56
229.027	60.56
229.262	68.56
229.496	53.56
229.73	70.56
229.964	72.56
230.199	68.56
230.433	65.56
230.667	74.56
230.901	79.56
231.136	83.56
231.37	88.56
231.604	70.56
231.838	64.56
232.072	81.56
232.306	85.56
232.541	83.56
232.775	82.56
233.009	69.56
233.243	83.56
233.477	90.56
233.711	74.56
233.945	85.56
234.179	75.56
234.413	86.56
234.647	89.56
234.881	84.56
235.115	81.56
235.349	77.56
235.583	70.56
235.817	82.56
236.051	71.56
236.285	62.56
236.519	83.56
236.753	82.56
236.987	62.56
237.221	86.56
237.455	79.56
237.689	86.56
237.922	99.56
238.156	83.56
238.39	79.56
238.624	73.56
238.858	68.56
239.091	83.56
239.325	68.56
239.559	75.56
239.793	88.56
240.027	71.56
240.26	68.56
240.494	73.56
240.728	65.56
240.961	71.56
241.195	81.56
241.429	85.56
241.662	67.56
241.896	77.56
242.13	77.56
242.363	79.56
242.597	82.56
242.83	79.56
243.064	77.56
243.298	89.56
243.531	68.56
243.765	80.56
243.998	87.56
244.232	95.56
244.465	75.56
244.699	75.56
244.932	66.56
245.166	74.56
245.399	92.56
245.633	86.56
245.866	79.56
246.099	79.56
246.333	88.56
246.566	73.56
246.8	72.56
247.033	70.56
247.266	67.56
247.5	78.56
247.733	77.56
247.966	80.56
248.2	82.56
248.433	82.56
248.666	80.56
248.899	79.56
249.133	75.56
249.366	81.56
249.599	92.56
249.832	82.56
250.066	89.56
250.299	71.56
250.532	78.56
250.765	74.56
250.998	73.56
251.231	88.56
251.465	81.56
251.698	84.56
251.931	61.56
252.164	76.56
252.397	80.56
252.63	69.56
252.863	89.56
253.096	75.56
253.329	76.56
253.562	86.56
253.795	89.56
254.028	84.56
254.261	77.56
254.494	83.56
254.727	74.56
254.96	83.56
255.193	83.56
255.426	85.56
255.659	75.56
255.892	90.56
256.124	86.56
256.357	87.56
256.59	85.56
256.823	71.56
257.056	81.56
257.289	92.56
257.521	81.56
257.754	81.56
257.987	93.56
258.22	98.56
258.452	84.56
258.685	91.56
258.918	74.56
259.151	82.56
259.383	71.56
259.616	75.56
259.849	89.56
260.081	72.56
260.314	91.56
260.547	83.56
260.779	72.56
261.012	74.56
261.244	87.56
261.477	83.56
261.71	89.56
261.942	72.56
262.175	81.56
262.407	88.56
262.64	71.56
262.872	86.56
263.105	86.56
263.337	77.56
263.57	86.56
263.802	96.56
264.035	91.56
264.267	79.56
264.499	86.56
264.732	78.56
264.964	85.56
265.197	92.56
265.429	74.56
265.661	99.56
265.894	79.56
266.126	93.56
266.358	88.56
266.591	75.56
266.823	79.56
267.055	75.56
267.287	92.56
267.52	84.56
267.752	86.56
267.984	75.56
268.216	86.56
268.448	104.56
268.681	74.56
268.913	64.56
269.145	81.56
269.377	83.56
269.609	66.56
269.841	77.56
270.073	76.56
270.306	107.56
270.538	94.56
270.77	88.56
271.002	88.56
271.234	82.56
271.466	81.56
271.698	81.56
271.93	77.56
272.162	73.56
272.394	86.56
272.626	83.56
272.858	97.56
273.09	96.56
273.322	71.56
273.553	85.56
273.785	78.56
274.017	95.56
274.249	88.56
274.481	92.56
274.713	76.56
274.945	97.56
275.176	96.56
275.408	82.56
275.64	79.56
275.872	94.56
276.104	85.56
276.335	79.56
276.567	91.56
276.799	84.56
277.031	83.56
277.262	73.56
277.494	67.56
277.726	90.56
277.957	82.56
278.189	75.56
278.421	96.56
278.652	91.56
278.884	85.56
279.115	80.56
279.347	81.56
279.579	85.56
279.81	89.56
280.042	82.56
280.273	99.56
280.505	81.56
280.736	83.56
280.968	96.56
281.199	80.56
281.431	93.56
281.662	95.56
281.894	92.56
282.125	98.56
282.356	93.56
282.588	81.56
282.819	95.56
283.051	63.56
283.282	80.56
283.513	76.56
283.745	96.56
283.976	79.56
284.207	86.56
284.439	92.56
284.67	88.56
284.901	81.56
285.132	84.56
285.364	88.56
285.595	99.56
285.826	99.56
286.057	88.56
286.288	90.56
286.52	71.56
286.751	75.56
286.982	77.56
287.213	82.56
287.444	81.56
287.675	102.56
287.906	97.56
288.138	92.56
288.369	96.56
288.6	87.56
288.831	81.56
289.062	91.56
289.293	72.56
289.524	94.56
289.755	95.56
289.986	85.56
290.217	92.56
290.448	88.56
290.679	87.56
290.91	70.56
291.141	81.56
291.371	95.56
291.602	86.56
291.833	92.56
292.064	82.56
292.295	84.56
292.526	95.56
292.757	90.56
292.987	76.56
293.218	90.56
293.449	73.56
293.68	95.56
293.91	81.56
294.141	85.56
294.372	84.56
294.603	92.56
294.833	83.56
295.064	81.56
295.295	85.56
295.525	84.56
295.756	94.56
295.987	93.56
296.217	93.56
296.448	85.56
296.679	101.56
296.909	85.56
297.14	78.56
297.37	86.56
297.601	86.56
297.831	94.56
298.062	88.56
298.292	81.56
298.523	92.56
298.753	84.56
298.984	88.56
299.214	84.56
299.445	95.56
299.675	88.56
299.905	89.56
300.136	109.56
300.366	84.56
300.597	90.56
300.827	92.56
301.057	89.56
301.288	91.56
301.518	103.56
301.748	81.56
301.979	105.56
302.209	86.56
302.439	82.56
302.669	95.56
302.9	82.56
303.13	86.56
303.36	92.56
303.59	77.56
303.82	88.56
304.051	89.56
304.281	87.56
304.511	93.56
304.741	84.56
304.971	83.56
305.201	80.56
305.431	100.56
305.661	88.56
305.891	87.56
306.121	91.56
306.352	78.56
306.582	87.56
306.812	76.56
307.042	75.56
307.272	73.56
307.502	73.56
307.731	91.56
307.961	71.56
308.191	99.56
308.421	85.56
308.651	84.56
308.881	86.56
309.111	87.56
309.341	91.56
309.571	88.56
309.8	92.56
310.03	96.56
310.26	79.56
310.49	77.56
310.72	91.56
310.949	89.56
311.179	88.56
311.409	89.56
311.639	82.56
311.868	91.56
312.098	91.56
312.328	87.56
312.557	78.56
312.787	86.56
313.017	90.56
313.246	98.56
313.476	90.56
313.706	97.56
313.935	98.56
314.165	94.56
314.394	95.56
314.624	74.56
314.853	84.56
315.083	83.56
315.312	95.56
315.542	93.56
315.771	104.56
316.001	102.56
316.23	92.56
316.46	88.56
316.689	96.56
316.919	88.56
317.148	91.56
317.377	103.56
317.607	95.56
317.836	92.56
318.065	111.56
318.295	106.56
318.524	105.56
318.753	82.56
318.983	93.56
319.212	91.56
319.441	93.56
319.67	67.56
319.9	88.56
320.129	100.56
320.358	81.56
320.587	105.56
320.816	93.56
321.046	84.56
321.275	78.56
321.504	95.56
321.733	88.56
321.962	83.56
322.191	93.56
322.42	80.56
322.649	98.56
322.878	83.56
323.108	88.56
323.337	81.56
323.566	70.56
323.795	90.56
324.024	83.56
324.253	85.56
324.482	88.56
324.71	83.56
324.939	77.56
325.168	101.56
325.397	95.56
325.626	88.56
325.855	90.56
326.084	89.56
326.313	95.56
326.542	82.56
326.77	104.56
326.999	87.56
327.228	87.56
327.457	86.56
327.686	90.56
327.914	98.56
328.143	87.56
328.372	87.56
328.6	94.56
328.829	85.56
329.058	94.56
329.287	91.56
329.515	98.56
329.744	85.56
329.972	85.56
330.201	92.56
330.43	95.56
330.658	78.56
330.887	94.56
331.115	85.56
331.344	97.56
331.572	105.56
331.801	93.56
332.03	82.56
332.258	92.56
332.486	88.56
332.715	86.56
332.943	95.56
333.172	83.56
333.4	95.56
333.629	84.56
333.857	85.56
334.085	92.56
334.314	89.56
334.542	95.56
334.771	101.56
334.999	97.56
335.227	85.56
335.455	81.56
335.684	87.56
335.912	99.56
336.14	90.56
336.369	100.56
336.597	81.56
336.825	91.56
337.053	88.56
337.281	85.56
337.51	77.56
337.738	84.56
337.966	69.56
338.194	82.56
338.422	91.56
338.65	84.56
338.878	89.56
339.106	83.56
339.334	95.56
339.562	75.56
339.79	73.56
340.018	97.56
340.246	86.56
340.474	97.56
340.702	87.56
340.93	86.56
341.158	86.56
341.386	58.56
341.614	77.56
341.842	85.56
342.07	79.56
342.298	93.56
342.526	88.56
342.754	90.56
342.981	103.56
343.209	96.56
343.437	89.56
343.665	100.56
343.893	84.56
344.12	99.56
344.348	83.56
344.576	82.56
344.804	105.56
345.031	83.56
345.259	98.56
345.487	86.56
345.714	98.56
345.942	95.56
346.17	72.56
346.397	90.56
346.625	81.56
346.853	89.56
347.08	86.56
347.308	92.56
347.535	87.56
347.763	95.56
347.99	94.56
348.218	89.56
348.445	95.56
348.673	84.56
348.9	85.56
349.128	90.56
349.355	95.56
349.583	82.56
349.81	99.56
350.037	85.56
350.265	95.56
350.492	77.56
350.72	86.56
350.947	89.56
351.174	77.56
351.402	85.56
351.629	74.56
351.856	89.56
352.083	86.56
352.311	80.56
352.538	97.56
352.765	89.56
352.992	91.56
353.22	86.56
353.447	86.56
353.674	97.56
353.901	91.56
354.128	99.56
354.355	101.56
354.583	83.56
354.81	77.56
355.037	92.56
355.264	85.56
355.491	71.56
355.718	84.56
355.945	79.56
356.172	89.56
356.399	95.56
356.626	90.56
356.853	85.56
357.08	89.56
357.307	98.56
357.534	90.56
357.761	87.56
357.988	104.56
358.215	98.56
358.441	87.56
358.668	91.56
358.895	80.56
359.122	96.56
359.349	97.56
359.576	77.56
359.802	90.56
360.029	68.56
360.256	83.56
360.483	90.56
360.709	82.56
360.936	94.56
361.163	84.56
361.39	77.56
361.616	79.56
361.843	79.56
362.07	99.56
362.296	101.56
362.523	107.56
362.749	103.56
362.976	116.56
363.203	132.56
363.429	102.56
363.656	79.56
363.882	91.56
364.109	111.56
364.335	121.56
364.562	115.56
364.788	117.56
365.015	102.56
365.241	83.56
365.468	97.56
365.694	62.56
365.92	95.56
366.147	92.56
366.373	73.56
366.599	85.56
366.826	95.56
367.052	85.56
367.278	92.56
367.505	95.56
367.731	98.56
367.957	87.56
368.184	85.56
368.41	70.56
368.636	75.56
368.862	82.56
369.089	79.56
369.315	81.56
369.541	88.56
369.767	71.56
369.993	85.56
370.219	89.56
370.445	85.56
370.672	99.56
370.898	97.56
371.124	83.56
371.35	97.56
371.576	101.56
371.802	85.56
372.028	89.56
372.254	90.56
372.48	83.56
372.706	77.56
372.932	87.56
373.158	102.56
373.384	93.56
373.61	108.56
373.835	122.56
374.061	90.56
374.287	95.56
374.513	81.56
374.739	85.56
374.965	87.56
375.191	85.56
375.416	100.56
375.642	87.56
375.868	97.56
376.094	85.56
376.319	87.56
376.545	88.56
376.771	97.56
376.997	85.56
377.222	78.56
377.448	92.56
377.674	88.56
377.899	96.56
378.125	83.56
378.35	77.56
378.576	76.56
378.802	89.56
379.027	93.56
379.253	92.56
379.478	88.56
379.704	93.56
379.929	82.56
380.155	83.56
380.38	82.56
380.606	88.56
380.831	88.56
381.057	95.56
381.282	75.56
381.507	89.56
381.733	88.56
381.958	89.56
382.184	91.56
382.409	87.56
382.634	90.56
382.86	91.56
383.085	89.56
383.31	93.56
383.535	93.56
383.761	92.56
383.986	76.56
384.211	81.56
384.436	85.56
384.662	82.56
384.887	94.56
385.112	84.56
385.337	80.56
385.562	101.56
385.787	87.56
386.013	91.56
386.238	83.56
386.463	84.56
386.688	99.56
386.913	97.56
387.138	93.56
387.363	91.56
387.588	86.56
387.813	87.56
388.038	95.56
388.263	96.56
388.488	101.56
388.713	70.56
388.938	88.56
389.163	80.56
389.387	87.56
389.612	106.56
389.837	95.56
390.062	93.56
390.287	77.56
390.512	78.56
390.736	93.56
390.961	79.56
391.186	84.56
391.411	86.56
391.636	84.56
391.86	115.56
392.085	91.56
392.31	101.56
392.534	100.56
392.759	117.56
392.984	165.56
393.208	319.56
393.433	467.56
393.658	357.56
393.882	151.56
394.107	115.56
394.331	100.56
394.556	109.56
394.78	98.56
395.005	99.56
395.229	91.56
395.454	99.56
395.678	93.56
395.903	126.56
396.127	125.56
396.352	147.56
396.576	194.56
396.801	326.56
397.025	353.56
397.249	206.56
397.474	137.56
397.698	103.56
397.922	103.56
398.147	81.56
398.371	93.56
398.595	89.56
398.82	80.56
399.044	92.56
399.268	92.56
399.492	82.56
399.717	87.56
399.941	98.56
400.165	92.56
400.389	84.56
400.613	90.56
400.837	77.56
401.062	96.56
401.286	67.56
401.51	99.56
401.734	99.56
401.958	85.56
402.182	68.56
402.406	95.56
402.63	80.56
402.854	78.56
403.078	96.56
403.302	101.56
403.526	84.56
403.75	86.56
403.974	83.56
404.198	90.56
404.422	93.56
404.645	83.56
404.869	88.56
405.093	97.56
405.317	108.56
405.541	77.56
405.765	92.56
405.988	95.56
406.212	89.56
406.436	77.56
406.66	97.56
406.883	73.56
407.107	91.56
407.331	87.56
407.555	100.56
407.778	119.56
408.002	125.56
408.226	83.56
408.449	93.56
408.673	87.56
408.896	85.56
409.12	93.56
409.344	81.56
409.567	96.56
409.791	98.56
410.014	106.56
410.238	84.56
410.461	94.56
410.685	84.56
410.908	73.56
411.132	86.56
411.355	81.56
411.578	89.56
411.802	77.56
412.025	91.56
412.249	89.56
412.472	97.56
412.695	88.56
412.919	87.56
413.142	95.56
413.365	86.56
413.589	77.56
413.812	79.56
414.035	78.56
414.258	88.56
414.482	101.56
414.705	81.56
414.928	88.56
415.151	95.56
415.374	93.56
415.597	76.56
415.821	103.56
416.044	77.56
416.267	103.56
416.49	85.56
416.713	89.56
416.936	90.56
417.159	97.56
417.382	71.56
417.605	83.56
417.828	92.56
418.051	71.56
418.274	91.56
418.497	93.56
418.72	67.56
418.943	81.56
419.166	77.56
419.389	88.56
419.611	100.56
419.834	85.56
420.057	81.56
420.28	92.56
420.503	92.56
420.726	82.56
420.948	96.56
421.171	96.56
421.394	100.56
421.617	122.56
421.839	119.56
422.062	115.56
422.285	160.56
422.507	280.56
422.73	482.56
422.953	418.56
423.175	193.56
423.398	124.56
423.621	109.56
423.843	91.56
424.066	96.56
424.288	109.56
424.511	97.56
424.733	98.56
424.956	81.56
425.178	91.56
425.401	92.56
425.623	87.56
425.846	77.56
426.068	102.56
426.291	94.56
426.513	82.56
426.735	94.56
426.958	100.56
427.18	101.56
427.402	88.56
427.625	103.56
427.847	90.56
428.069	90.56
428.292	130.56
428.514	154.56
428.736	125.56
428.958	133.56
429.181	139.56
429.403	101.56
429.625	83.56
429.847	119.56
430.069	166.56
430.292	205.56
430.514	180.56
430.736	123.56
430.958	143.56
431.18	105.56
431.402	95.56
431.624	91.56
431.846	131.56
432.068	140.56
432.29	82.56
432.512	89.56
432.734	85.56
432.956	94.56
433.178	95.56
433.4	92.56
433.622	88.56
433.844	82.56
434.066	86.56
434.287	80.56
434.509	78.56
434.731	78.56
434.953	89.56
435.175	87.56
435.397	88.56
435.618	93.56
435.84	91.56
436.062	87.56
436.284	75.56
436.505	91.56
436.727	92.56
436.949	92.56
437.17	80.56
437.392	92.56
437.614	89.56
437.835	85.56
438.057	89.56
438.278	88.56
438.5	78.56
438.721	74.56
438.943	90.56
439.165	81.56
439.386	96.56
439.608	92.56
439.829	81.56
440.05	87.56
440.272	76.56
440.493	96.56
440.715	91.56
440.936	81.56
441.158	72.56
441.379	96.56
441.6	93.56
441.822	85.56
442.043	96.56
442.264	96.56
442.486	113.56
442.707	166.56
442.928	126.56
443.149	103.56
443.371	150.56
443.592	256.56
443.813	219.56
444.034	118.56
444.255	90.56
444.476	95.56
444.698	100.56
444.919	69.56
445.14	197.56
445.361	222.56
445.582	294.56
445.803	273.56
446.024	121.56
446.245	99.56
446.466	71.56
446.687	83.56
446.908	87.56
447.129	87.56
447.35	80.56
447.571	81.56
447.792	78.56
448.013	85.56
448.234	72.56
448.455	78.56
448.675	67.56
448.896	77.56
449.117	75.56
449.338	80.56
449.559	73.56
449.779	73.56
450	78.56
450.221	78.56
450.442	93.56
450.662	92.56
450.883	85.56
451.104	76.56
451.324	92.56
451.545	87.56
451.766	72.56
451.986	75.56
452.207	93.56
452.428	68.56
452.648	95.56
452.869	107.56
453.089	83.56
453.31	87.56
453.53	89.56
453.751	87.56
453.971	82.56
454.192	87.56
454.412	82.56
454.633	78.56
454.853	66.56
455.073	89.56
455.294	89.56
455.514	98.56
455.734	73.56
455.955	87.56
456.175	84.56
456.395	95.56
456.616	89.56
456.836	86.56
457.056	90.56
457.276	81.56
457.497	95.56
457.717	90.56
457.937	102.56
458.157	125.56
458.377	127.56
458.598	125.56
458.818	126.56
459.038	85.56
459.258	91.56
459.478	84.56
459.698	84.56
459.918	93.56
460.138	67.56
460.358	84.56
460.578	87.56
460.798	113.56
461.018	108.56
461.238	96.56
461.458	75.56
461.678	81.56
461.898	90.56
462.118	82.56
462.338	92.56
462.558	92.56
462.777	93.56
462.997	93.56
463.217	92.56
463.437	81.56
463.657	85.56
463.876	83.56
464.096	91.56
464.316	99.56
464.536	79.56
464.755	84.56
464.975	87.56
465.195	97.56
465.414	88.56
465.634	84.56
465.854	82.56
466.073	87.56
466.293	95.56
466.512	76.56
466.732	87.56
466.951	84.56
467.171	87.56
467.391	82.56
467.61	82.56
467.829	85.56
468.049	100.56
468.268	91.56
468.488	91.56
468.707	94.56
468.927	83.56
469.146	85.56
469.365	77.56
469.585	85.56
469.804	85.56
470.023	73.56
470.243	93.56
470.462	83.56
470.681	78.56
470.901	74.56
471.12	73.56
471.339	100.56
471.558	79.56
471.777	78.56
471.997	88.56
472.216	86.56
472.435	84.56
472.654	80.56
472.873	93.56
473.092	91.56
473.311	91.56
473.53	91.56
473.749	89.56
473.968	81.56
474.187	92.56
474.406	84.56
474.625	92.56
474.844	96.56
475.063	97.56
475.282	87.56
475.501	94.56
475.72	102.56
475.939	85.56
476.158	90.56
476.377	104.56
476.596	74.56
476.814	77.56
477.033	87.56
477.252	87.56
477.471	91.56
477.69	82.56
477.908	69.56
478.127	93.56
478.346	104.56
478.564	95.56
478.783	99.56
479.002	90.56
479.22	88.56
479.439	85.56
479.658	85.56
479.876	68.56
480.095	72.56
480.313	79.56
480.532	75.56
480.751	87.56
480.969	92.56
481.188	83.56
481.406	92.56
481.624	93.56
481.843	75.56
482.061	89.56
482.28	87.56
482.498	80.56
482.717	83.56
482.935	89.56
483.153	87.56
483.372	104.56
483.59	107.56
483.808	92.56
484.027	100.56
484.245	91.56
484.463	94.56
484.681	86.56
484.9	89.56
485.118	91.56
485.336	89.56
485.554	81.56
485.772	73.56
485.99	89.56
486.209	85.56
486.427	81.56
486.645	84.56
486.863	85.56
487.081	78.56
487.299	107.56
487.517	100.56
487.735	109.56
487.953	160.56
488.171	149.56
488.389	83.56
488.607	88.56
488.825	81.56
489.043	84.56
489.261	99.56
489.479	92.56
489.696	90.56
489.914	89.56
490.132	76.56
490.35	94.56
490.568	91.56
490.786	86.56
491.003	72.56
491.221	87.56
491.439	97.56
491.657	80.56
491.874	90.56
492.092	86.56
492.31	89.56
492.527	95.56
492.745	90.56
492.963	90.56
493.18	95.56
493.398	86.56
493.615	91.56
493.833	87.56
494.05	79.56
494.268	83.56
494.485	99.56
494.703	92.56
494.92	85.56
495.138	103.56
495.355	81.56
495.573	86.56
495.79	100.56
496.008	87.56
496.225	77.56
496.442	83.56
496.66	98.56
496.877	95.56
497.094	79.56
497.312	95.56
497.529	86.56
497.746	93.56
497.963	78.56
498.181	83.56
498.398	95.56
498.615	81.56
498.832	80.56
499.049	90.56
499.267	91.56
499.484	100.56
499.701	98.56
499.918	85.56
500.135	92.56
500.352	104.56
500.569	96.56
500.786	87.56
501.003	97.56
501.22	90.56
501.437	90.56
501.654	87.56
501.871	95.56
502.088	75.56
502.305	95.56
502.522	93.56
502.739	93.56
502.956	84.56
503.172	104.56
503.389	94.56
503.606	92.56
503.823	93.56
504.04	104.56
504.256	137.56
504.473	123.56
504.69	98.56
504.907	88.56
505.123	93.56
505.34	71.56
505.557	85.56
505.773	83.56
505.99	83.56
506.207	75.56
506.423	94.56
506.64	93.56
506.856	80.56
507.073	94.56
507.289	92.56
507.506	70.56
507.722	69.56
507.939	90.56
508.155	93.56
508.372	106.56
508.588	96.56
508.805	86.56
509.021	95.56
509.238	85.56
509.454	86.56
509.67	89.56
509.887	92.56
510.103	101.56
510.319	99.56
510.536	81.56
510.752	87.56
510.968	97.56
511.184	102.56
511.401	87.56
511.617	78.56
511.833	84.56
512.049	92.56
512.265	88.56
512.481	103.56
512.698	82.56
512.914	88.56
513.13	81.56
513.346	93.56
513.562	78.56
513.778	95.56
513.994	88.56
514.21	82.56
514.426	87.56
514.642	97.56
514.858	84.56
515.074	96.56
515.29	96.56
515.506	80.56
515.721	83.56
515.937	90.56
516.153	84.56
516.369	78.56
516.585	93.56
516.801	89.56
517.016	81.56
517.232	91.56
517.448	97.56
517.664	85.56
517.879	85.56
518.095	81.56
518.311	97.56
518.527	105.56
518.742	100.56
518.958	159.56
519.173	189.56
519.389	82.56
519.605	90.56
519.82	91.56
520.036	100.56
520.251	91.56
520.467	82.56
520.682	92.56
520.898	98.56
521.113	97.56
521.329	87.56
521.544	86.56
521.76	83.56
521.975	81.56
522.19	105.56
522.406	99.56
522.621	91.56
522.836	95.56
523.052	84.56
523.267	83.56
523.482	91.56
523.698	94.56
523.913	97.56
524.128	79.56
524.343	91.56
524.559	88.56
524.774	95.56
524.989	95.56
525.204	83.56
525.419	86.56
525.634	107.56
525.849	93.56
526.064	136.56
526.28	223.56
526.495	314.56
526.71	312.56
526.925	211.56
527.14	277.56
527.355	257.56
527.57	119.56
527.785	107.56
527.999	99.56
528.214	84.56
528.429	80.56
528.644	99.56
528.859	88.56
529.074	73.56
529.289	91.56
529.503	93.56
529.718	99.56
529.933	91.56
530.148	105.56
530.363	88.56
530.577	97.56
530.792	95.56
531.007	82.56
531.221	95.56
531.436	96.56
531.651	83.56
531.865	89.56
532.08	91.56
532.295	101.56
532.509	100.56
532.724	102.56
532.938	94.56
533.153	77.56
533.367	75.56
533.582	82.56
533.796	100.56
534.011	90.56
534.225	98.56
534.44	101.56
534.654	93.56
534.868	118.56
535.083	155.56
535.297	148.56
535.511	115.56
535.726	104.56
535.94	121.56
536.154	100.56
536.369	93.56
536.583	112.56
536.797	99.56
537.011	103.56
537.225	112.56
537.44	95.56
537.654	97.56
537.868	86.56
538.082	100.56
538.296	106.56
538.51	101.56
538.724	113.56
538.938	95.56
539.153	89.56
539.367	105.56
539.581	114.56
539.795	107.56
540.009	96.56
540.222	109.56
540.436	95.56
540.65	100.56
540.864	92.56
541.078	99.56
541.292	106.56
541.506	100.56
541.72	95.56
541.934	108.56
542.147	87.56
542.361	107.56
542.575	105.56
542.789	94.56
543.002	96.56
543.216	101.56
543.43	120.56
543.644	103.56
543.857	106.56
544.071	101.56
544.285	104.56
544.498	106.56
544.712	104.56
544.925	91.56
545.139	107.56
545.352	101.56
545.566	98.56
545.779	101.56
545.993	124.56
546.206	111.56
546.42	115.56
546.633	128.56
546.847	136.56
547.06	125.56
547.274	143.56
547.487	151.56
547.7	177.56
547.914	163.56
548.127	181.56
548.34	184.56
548.554	189.56
548.767	156.56
548.98	185.56
549.193	199.56
549.407	193.56
549.62	178.56
549.833	195.56
550.046	228.56
550.259	228.56
550.473	237.56
550.686	234.56
550.899	254.56
551.112	260.56
551.325	289.56
551.538	293.56
551.751	288.56
551.964	265.56
552.177	249.56
552.39	233.56
552.603	240.56
552.816	249.56
553.029	208.56
553.242	219.56
553.455	228.56
553.667	239.56
553.88	236.56
554.093	236.56
554.306	263.56
554.519	245.56
554.732	243.56
554.944	221.56
555.157	232.56
555.37	232.56
555.583	244.56
555.795	213.56
556.008	191.56
556.221	190.56
556.433	186.56
556.646	173.56
556.859	176.56
557.071	175.56
557.284	161.56
557.496	174.56
557.709	154.56
557.921	162.56
558.134	150.56
558.346	205.56
558.559	175.56
558.771	159.56
558.984	330.56
559.196	389.56
559.409	217.56
559.621	309.56
559.833	247.56
560.046	286.56
560.258	233.56
560.47	217.56
560.683	152.56
560.895	114.56
561.107	101.56
561.32	113.56
561.532	115.56
561.744	121.56
561.956	104.56
562.168	99.56
562.381	113.56
562.593	119.56
562.805	109.56
563.017	115.56
563.229	106.56
563.441	102.56
563.653	91.56
563.865	91.56
564.077	106.56
564.289	103.56
564.501	100.56
564.713	114.56
564.925	104.56
565.137	104.56
565.349	97.56
565.561	97.56
565.773	92.56
565.985	111.56
566.197	88.56
566.408	103.56
566.62	87.56
566.832	99.56
567.044	96.56
567.255	104.56
567.467	98.56
567.679	96.56
567.891	99.56
568.102	112.56
568.314	99.56
568.526	103.56
568.737	100.56
568.949	95.56
569.161	111.56
569.372	95.56
569.584	88.56
569.795	115.56
570.007	97.56
570.218	95.56
570.43	111.56
570.641	94.56
570.853	99.56
571.064	97.56
571.276	94.56
571.487	101.56
571.698	95.56
571.91	101.56
572.121	95.56
572.333	101.56
572.544	108.56
572.755	111.56
572.966	93.56
573.178	88.56
573.389	111.56
573.6	113.56
573.811	96.56
574.023	105.56
574.234	96.56
574.445	102.56
574.656	100.56
574.867	93.56
575.078	99.56
575.289	98.56
575.501	83.56
575.712	95.56
575.923	94.56
576.134	91.56
576.345	95.56
576.556	88.56
576.767	91.56
576.978	93.56
577.188	90.56
577.399	99.56
577.61	94.56
577.821	107.56
578.032	101.56
578.243	83.56
578.454	88.56
578.665	108.56
578.875	105.56
579.086	94.56
579.297	88.56
579.508	88.56
579.718	96.56
579.929	89.56
580.14	108.56
580.35	81.56
580.561	97.56
580.772	97.56
580.982	100.56
581.193	113.56
581.403	94.56
581.614	93.56
581.825	87.56
582.035	96.56
582.246	109.56
582.456	104.56
582.667	101.56
582.877	88.56
583.087	95.56
583.298	111.56
583.508	104.56
583.719	101.56
583.929	105.56
584.139	91.56
584.35	100.56
584.56	94.56
584.77	104.56
584.981	105.56
585.191	94.56
585.401	88.56
585.611	101.56
585.821	167.56
586.032	241.56
586.242	123.56
586.452	118.56
586.662	106.56
586.872	112.56
587.082	111.56
587.292	87.56
587.502	99.56
587.713	96.56
587.923	120.56
588.133	111.56
588.343	91.56
588.553	106.56
588.762	141.56
588.972	201.56
589.182	461.56
589.392	324.56
589.602	231.56
589.812	412.56
590.022	230.56
590.232	128.56
590.441	111.56
590.651	119.56
590.861	120.56
591.071	111.56
591.281	121.56
591.49	97.56
591.7	111.56
591.91	119.56
592.119	97.56
592.329	137.56
592.539	116.56
592.748	121.56
592.958	119.56
593.167	117.56
593.377	127.56
593.587	129.56
593.796	119.56
594.006	115.56
594.215	114.56
594.424	119.56
594.634	129.56
594.843	140.56
595.053	129.56
595.262	134.56
595.472	141.56
595.681	148.56
595.89	158.56
596.1	158.56
596.309	165.56
596.518	171.56
596.727	150.56
596.937	172.56
597.146	164.56
597.355	178.56
597.564	195.56
597.774	178.56
597.983	180.56
598.192	177.56
598.401	189.56
598.61	206.56
598.819	202.56
599.028	191.56
599.237	192.56
599.446	205.56
599.655	191.56
599.864	179.56
600.073	178.56
600.282	175.56
600.491	184.56
600.7	215.56
600.909	184.56
601.118	164.56
601.327	162.56
601.536	159.56
601.745	145.56
601.953	148.56
602.162	164.56
602.371	140.56
602.58	173.56
602.789	159.56
602.997	162.56
603.206	155.56
603.415	167.56
603.623	174.56
603.832	175.56
604.041	182.56
604.249	182.56
604.458	195.56
604.666	203.56
604.875	211.56
605.084	210.56
605.292	207.56
605.501	218.56
605.709	228.56
605.918	224.56
606.126	232.56
606.334	217.56
606.543	207.56
606.751	211.56
606.96	226.56
607.168	211.56
607.376	199.56
607.585	221.56
607.793	203.56
608.001	206.56
608.21	197.56
608.418	179.56
608.626	184.56
608.834	202.56
609.043	218.56
609.251	220.56
609.459	219.56
609.667	205.56
609.875	232.56
610.083	218.56
610.291	228.56
610.499	311.56
610.707	239.56
610.916	213.56
611.124	218.56
611.332	217.56
611.54	229.56
611.748	247.56
611.955	230.56
612.163	261.56
612.371	421.56
612.579	353.56
612.787	288.56
612.995	257.56
613.203	237.56
613.411	219.56
613.618	232.56
613.826	220.56
614.034	234.56
614.242	248.56
614.449	225.56
614.657	227.56
614.865	237.56
615.072	235.56
615.28	227.56
615.488	241.56
615.695	233.56
615.903	214.56
616.111	248.56
616.318	401.56
616.526	459.56
616.733	294.56
616.941	283.56
617.148	320.56
617.356	257.56
617.563	231.56
617.771	208.56
617.978	220.56
618.185	209.56
618.393	211.56
618.6	212.56
618.807	209.56
619.015	198.56
619.222	198.56
619.429	198.56
619.637	187.56
619.844	197.56
620.051	188.56
620.258	202.56
620.466	184.56
620.673	181.56
620.88	174.56
621.087	203.56
621.294	181.56
621.501	206.56
621.708	191.56
621.915	193.56
622.122	198.56
622.329	185.56
622.536	204.56
622.743	203.56
622.95	187.56
623.157	182.56
623.364	182.56
623.571	196.56
623.778	195.56
623.985	183.56
624.192	179.56
624.399	196.56
624.606	200.56
624.812	189.56
625.019	187.56
625.226	192.56
625.433	195.56
625.639	167.56
625.846	169.56
626.053	173.56
626.259	173.56
626.466	155.56
626.673	145.56
626.879	136.56
627.086	151.56
627.293	168.56
627.499	149.56
627.706	148.56
627.912	138.56
628.119	136.56
628.325	132.56
628.532	124.56
628.738	108.56
628.945	123.56
629.151	129.56
629.357	108.56
629.564	108.56
629.77	113.56
629.976	92.56
630.183	122.56
630.389	103.56
630.595	99.56
630.802	104.56
631.008	115.56
631.214	103.56
631.42	86.56
631.627	115.56
631.833	111.56
632.039	124.56
632.245	99.56
632.451	105.56
632.657	116.56
632.863	105.56
633.069	99.56
633.275	102.56
633.481	99.56
633.688	99.56
633.893	107.56
634.099	119.56
634.305	96.56
634.511	117.56
634.717	113.56
634.923	100.56
635.129	113.56
635.335	96.56
635.541	98.56
635.747	109.56
635.952	103.56
636.158	107.56
636.364	108.56
636.57	93.56
636.775	97.56
636.981	92.56
637.187	102.56
637.392	91.56
637.598	96.56
637.804	106.56
638.009	102.56
638.215	113.56
638.421	101.56
638.626	99.56
638.832	92.56
639.037	114.56
639.243	100.56
639.448	106.56
639.654	100.56
639.859	92.56
640.065	84.56
640.27	115.56
640.475	97.56
640.681	65.56
640.886	90.56
641.091	90.56
641.297	97.56
641.502	88.56
641.707	84.56
641.913	97.56
642.118	96.56
642.323	72.56
642.528	106.56
642.733	101.56
642.939	109.56
643.144	120.56
643.349	115.56
643.554	101.56
643.759	111.56
643.964	158.56
644.169	190.56
644.374	101.56
644.579	103.56
644.784	92.56
644.989	111.56
645.194	126.56
645.399	94.56
645.604	99.56
645.809	115.56
646.014	93.56
646.219	104.56
646.423	171.56
646.628	139.56
646.833	91.56
647.038	90.56
647.243	107.56
647.447	107.56
647.652	103.56
647.857	88.56
648.062	100.56
648.266	96.56
648.471	90.56
648.676	99.56
648.88	80.56
649.085	93.56
649.289	90.56
649.494	120.56
649.698	117.56
649.903	85.56
650.107	99.56
650.312	98.56
650.516	102.56
650.721	104.56
650.925	83.56
651.13	81.56
651.334	85.56
651.539	89.56
651.743	106.56
651.947	100.56
652.152	84.56
652.356	89.56
652.56	101.56
652.764	89.56
652.969	86.56
653.173	81.56
653.377	91.56
653.581	101.56
653.785	98.56
653.99	88.56
654.194	100.56
654.398	86.56
654.602	84.56
654.806	97.56
655.01	89.56
655.214	100.56
655.418	91.56
655.622	88.56
655.826	88.56
656.03	91.56
656.234	83.56
656.438	86.56
656.642	76.56
656.846	84.56
657.049	90.56
657.253	93.56
657.457	87.56
657.661	82.56
657.865	82.56
658.068	84.56
658.272	84.56
658.476	77.56
658.68	77.56
658.883	74.56
659.087	88.56
659.291	90.56
659.494	71.56
659.698	99.56
659.901	74.56
660.105	89.56
660.309	90.56
660.512	86.56
660.716	87.56
660.919	80.56
661.123	83.56
661.326	97.56
661.53	75.56
661.733	87.56
661.936	72.56
662.14	95.56
662.343	83.56
662.546	88.56
662.75	97.56
662.953	85.56
663.156	101.56
663.36	87.56
663.563	90.56
663.766	76.56
663.969	86.56
664.173	77.56
664.376	69.56
664.579	88.56
664.782	78.56
664.985	85.56
665.188	82.56
665.391	85.56
665.594	77.56
665.797	76.56
666	93.56
666.203	90.56
666.406	69.56
666.609	76.56
666.812	85.56
667.015	81.56
667.218	86.56
667.421	73.56
667.624	88.56
667.827	73.56
668.03	88.56
668.232	79.56
668.435	76.56
668.638	93.56
668.841	92.56
669.043	71.56
669.246	91.56
669.449	82.56
669.651	76.56
669.854	95.56
670.057	71.56
670.259	73.56
670.462	70.56
670.665	76.56
670.867	94.56
671.07	94.56
671.272	90.56
671.475	86.56
671.677	76.56
671.88	80.56
672.082	88.56
672.284	72.56
672.487	86.56
672.689	85.56
672.892	93.56
