Data from CBS_3_HRD10591_00020.txt Node
Date: Mon Jan 19 14:05:48 EST 2026
User: Yrep
Spectrometer: HR+D1059
Trigger mode: 1
Integration Time (sec): 1.000000E-1
Scans to average: 1
Electric dark correction enabled: true
Nonlinearity correction enabled: false
Boxcar width: 0
XAxis mode: Wavelengths
Number of Pixels in Spectrum: 2048
>>>>>Begin Spectral Data<<<<<
223.165	-17.94
223.4	-17.94
223.635	-17.94
223.869	-11.94
224.104	-18.94
224.338	-17.94
224.573	-25.94
224.808	-20.94
225.042	-11.94
225.277	0.06
225.511	3.06
225.746	4.06
225.98	23.06
226.215	12.06
226.449	16.06
226.683	15.06
226.918	26.06
227.152	26.06
227.387	49.06
227.621	49.06
227.856	51.06
228.09	36.06
228.324	52.06
228.559	58.06
228.793	62.06
229.027	58.06
229.262	60.06
229.496	71.06
229.73	70.06
229.964	83.06
230.199	74.06
230.433	70.06
230.667	72.06
230.901	70.06
231.136	76.06
231.37	76.06
231.604	70.06
231.838	82.06
232.072	79.06
232.306	86.06
232.541	72.06
232.775	95.06
233.009	78.06
233.243	70.06
233.477	78.06
233.711	76.06
233.945	70.06
234.179	65.06
234.413	78.06
234.647	92.06
234.881	78.06
235.115	73.06
235.349	90.06
235.583	70.06
235.817	70.06
236.051	61.06
236.285	84.06
236.519	81.06
236.753	58.06
236.987	83.06
237.221	74.06
237.455	80.06
237.689	87.06
237.922	67.06
238.156	75.06
238.39	83.06
238.624	74.06
238.858	77.06
239.091	83.06
239.325	81.06
239.559	77.06
239.793	69.06
240.027	73.06
240.26	78.06
240.494	74.06
240.728	68.06
240.961	71.06
241.195	73.06
241.429	85.06
241.662	83.06
241.896	70.06
242.13	75.06
242.363	73.06
242.597	85.06
242.83	78.06
243.064	87.06
243.298	82.06
243.531	68.06
243.765	83.06
243.998	79.06
244.232	83.06
244.465	71.06
244.699	84.06
244.932	70.06
245.166	65.06
245.399	80.06
245.633	88.06
245.866	95.06
246.099	71.06
246.333	73.06
246.566	76.06
246.8	78.06
247.033	82.06
247.266	75.06
247.5	62.06
247.733	87.06
247.966	78.06
248.2	76.06
248.433	62.06
248.666	87.06
248.899	72.06
249.133	76.06
249.366	88.06
249.599	82.06
249.832	70.06
250.066	75.06
250.299	86.06
250.532	70.06
250.765	84.06
250.998	79.06
251.231	71.06
251.465	73.06
251.698	74.06
251.931	87.06
252.164	80.06
252.397	74.06
252.63	89.06
252.863	75.06
253.096	75.06
253.329	87.06
253.562	75.06
253.795	90.06
254.028	88.06
254.261	86.06
254.494	90.06
254.727	73.06
254.96	68.06
255.193	84.06
255.426	88.06
255.659	79.06
255.892	79.06
256.124	86.06
256.357	77.06
256.59	81.06
256.823	80.06
257.056	82.06
257.289	75.06
257.521	93.06
257.754	80.06
257.987	81.06
258.22	82.06
258.452	80.06
258.685	77.06
258.918	71.06
259.151	77.06
259.383	71.06
259.616	75.06
259.849	83.06
260.081	75.06
260.314	86.06
260.547	86.06
260.779	98.06
261.012	88.06
261.244	90.06
261.477	67.06
261.71	81.06
261.942	76.06
262.175	78.06
262.407	74.06
262.64	88.06
262.872	81.06
263.105	67.06
263.337	90.06
263.57	88.06
263.802	82.06
264.035	81.06
264.267	86.06
264.499	75.06
264.732	84.06
264.964	84.06
265.197	81.06
265.429	82.06
265.661	71.06
265.894	88.06
266.126	77.06
266.358	90.06
266.591	73.06
266.823	68.06
267.055	79.06
267.287	83.06
267.52	86.06
267.752	79.06
267.984	82.06
268.216	74.06
268.448	90.06
268.681	81.06
268.913	91.06
269.145	84.06
269.377	82.06
269.609	78.06
269.841	86.06
270.073	80.06
270.306	76.06
270.538	92.06
270.77	84.06
271.002	98.06
271.234	74.06
271.466	82.06
271.698	77.06
271.93	77.06
272.162	87.06
272.394	89.06
272.626	84.06
272.858	87.06
273.09	84.06
273.322	98.06
273.553	83.06
273.785	88.06
274.017	74.06
274.249	84.06
274.481	76.06
274.713	74.06
274.945	92.06
275.176	71.06
275.408	76.06
275.64	63.06
275.872	76.06
276.104	78.06
276.335	81.06
276.567	89.06
276.799	82.06
277.031	77.06
277.262	87.06
277.494	89.06
277.726	78.06
277.957	88.06
278.189	90.06
278.421	79.06
278.652	91.06
278.884	75.06
279.115	83.06
279.347	78.06
279.579	83.06
279.81	90.06
280.042	86.06
280.273	82.06
280.505	94.06
280.736	88.06
280.968	89.06
281.199	77.06
281.431	81.06
281.662	83.06
281.894	91.06
282.125	87.06
282.356	90.06
282.588	75.06
282.819	73.06
283.051	85.06
283.282	85.06
283.513	86.06
283.745	74.06
283.976	92.06
284.207	90.06
284.439	91.06
284.67	87.06
284.901	91.06
285.132	81.06
285.364	74.06
285.595	84.06
285.826	76.06
286.057	94.06
286.288	80.06
286.52	69.06
286.751	92.06
286.982	88.06
287.213	73.06
287.444	82.06
287.675	96.06
287.906	83.06
288.138	89.06
288.369	82.06
288.6	78.06
288.831	76.06
289.062	74.06
289.293	85.06
289.524	93.06
289.755	81.06
289.986	93.06
290.217	95.06
290.448	89.06
290.679	76.06
290.91	86.06
291.141	73.06
291.371	92.06
291.602	90.06
291.833	73.06
292.064	86.06
292.295	90.06
292.526	76.06
292.757	89.06
292.987	86.06
293.218	97.06
293.449	91.06
293.68	98.06
293.91	89.06
294.141	87.06
294.372	82.06
294.603	91.06
294.833	80.06
295.064	91.06
295.295	82.06
295.525	80.06
295.756	89.06
295.987	90.06
296.217	69.06
296.448	76.06
296.679	87.06
296.909	102.06
297.14	90.06
297.37	88.06
297.601	83.06
297.831	76.06
298.062	92.06
298.292	77.06
298.523	84.06
298.753	70.06
298.984	89.06
299.214	78.06
299.445	80.06
299.675	85.06
299.905	104.06
300.136	89.06
300.366	86.06
300.597	82.06
300.827	84.06
301.057	91.06
301.288	95.06
301.518	71.06
301.748	87.06
301.979	103.06
302.209	77.06
302.439	87.06
302.669	98.06
302.9	82.06
303.13	86.06
303.36	79.06
303.59	69.06
303.82	94.06
304.051	75.06
304.281	82.06
304.511	92.06
304.741	94.06
304.971	86.06
305.201	82.06
305.431	92.06
305.661	86.06
305.891	83.06
306.121	90.06
306.352	74.06
306.582	94.06
306.812	96.06
307.042	94.06
307.272	75.06
307.502	78.06
307.731	84.06
307.961	97.06
308.191	82.06
308.421	87.06
308.651	90.06
308.881	103.06
309.111	86.06
309.341	107.06
309.571	101.06
309.8	82.06
310.03	81.06
310.26	103.06
310.49	95.06
310.72	83.06
310.949	101.06
311.179	80.06
311.409	96.06
311.639	98.06
311.868	94.06
312.098	74.06
312.328	87.06
312.557	82.06
312.787	80.06
313.017	61.06
313.246	87.06
313.476	72.06
313.706	87.06
313.935	98.06
314.165	91.06
314.394	72.06
314.624	102.06
314.853	92.06
315.083	83.06
315.312	93.06
315.542	92.06
315.771	79.06
316.001	98.06
316.23	99.06
316.46	94.06
316.689	66.06
316.919	82.06
317.148	84.06
317.377	93.06
317.607	88.06
317.836	103.06
318.065	107.06
318.295	111.06
318.524	75.06
318.753	83.06
318.983	87.06
319.212	97.06
319.441	81.06
319.67	96.06
319.9	80.06
320.129	84.06
320.358	84.06
320.587	88.06
320.816	91.06
321.046	74.06
321.275	80.06
321.504	90.06
321.733	88.06
321.962	82.06
322.191	84.06
322.42	90.06
322.649	104.06
322.878	100.06
323.108	90.06
323.337	84.06
323.566	92.06
323.795	101.06
324.024	94.06
324.253	73.06
324.482	94.06
324.71	72.06
324.939	86.06
325.168	96.06
325.397	81.06
325.626	82.06
325.855	97.06
326.084	73.06
326.313	82.06
326.542	82.06
326.77	96.06
326.999	82.06
327.228	95.06
327.457	87.06
327.686	95.06
327.914	77.06
328.143	71.06
328.372	79.06
328.6	98.06
328.829	80.06
329.058	76.06
329.287	78.06
329.515	80.06
329.744	85.06
329.972	87.06
330.201	88.06
330.43	85.06
330.658	91.06
330.887	98.06
331.115	86.06
331.344	72.06
331.572	90.06
331.801	80.06
332.03	83.06
332.258	75.06
332.486	92.06
332.715	87.06
332.943	80.06
333.172	87.06
333.4	89.06
333.629	82.06
333.857	81.06
334.085	99.06
334.314	76.06
334.542	76.06
334.771	95.06
334.999	92.06
335.227	86.06
335.455	96.06
335.684	102.06
335.912	80.06
336.14	106.06
336.369	94.06
336.597	87.06
336.825	86.06
337.053	87.06
337.281	72.06
337.51	106.06
337.738	71.06
337.966	86.06
338.194	82.06
338.422	85.06
338.65	74.06
338.878	91.06
339.106	86.06
339.334	92.06
339.562	95.06
339.79	73.06
340.018	89.06
340.246	82.06
340.474	87.06
340.702	69.06
340.93	97.06
341.158	76.06
341.386	73.06
341.614	83.06
341.842	82.06
342.07	86.06
342.298	95.06
342.526	88.06
342.754	67.06
342.981	87.06
343.209	76.06
343.437	94.06
343.665	82.06
343.893	83.06
344.12	86.06
344.348	90.06
344.576	91.06
344.804	74.06
345.031	91.06
345.259	72.06
345.487	93.06
345.714	92.06
345.942	85.06
346.17	94.06
346.397	92.06
346.625	84.06
346.853	94.06
347.08	79.06
347.308	82.06
347.535	86.06
347.763	90.06
347.99	93.06
348.218	81.06
348.445	86.06
348.673	100.06
348.9	85.06
349.128	84.06
349.355	80.06
349.583	82.06
349.81	71.06
350.037	78.06
350.265	87.06
350.492	77.06
350.72	78.06
350.947	87.06
351.174	86.06
351.402	90.06
351.629	77.06
351.856	82.06
352.083	84.06
352.311	89.06
352.538	79.06
352.765	98.06
352.992	95.06
353.22	79.06
353.447	84.06
353.674	89.06
353.901	83.06
354.128	90.06
354.355	84.06
354.583	96.06
354.81	83.06
355.037	77.06
355.264	85.06
355.491	83.06
355.718	84.06
355.945	88.06
356.172	105.06
356.399	82.06
356.626	94.06
356.853	97.06
357.08	86.06
357.307	92.06
357.534	79.06
357.761	95.06
357.988	84.06
358.215	91.06
358.441	85.06
358.668	82.06
358.895	96.06
359.122	79.06
359.349	98.06
359.576	92.06
359.802	92.06
360.029	83.06
360.256	70.06
360.483	78.06
360.709	85.06
360.936	93.06
361.163	89.06
361.39	87.06
361.616	86.06
361.843	85.06
362.07	81.06
362.296	104.06
362.523	102.06
362.749	92.06
362.976	90.06
363.203	115.06
363.429	104.06
363.656	109.06
363.882	81.06
364.109	100.06
364.335	118.06
364.562	114.06
364.788	112.06
365.015	100.06
365.241	84.06
365.468	90.06
365.694	79.06
365.92	84.06
366.147	73.06
366.373	85.06
366.599	81.06
366.826	81.06
367.052	85.06
367.278	100.06
367.505	75.06
367.731	84.06
367.957	84.06
368.184	79.06
368.41	78.06
368.636	88.06
368.862	89.06
369.089	84.06
369.315	90.06
369.541	79.06
369.767	90.06
369.993	86.06
370.219	78.06
370.445	90.06
370.672	100.06
370.898	91.06
371.124	89.06
371.35	75.06
371.576	83.06
371.802	95.06
372.028	104.06
372.254	94.06
372.48	95.06
372.706	98.06
372.932	90.06
373.158	88.06
373.384	98.06
373.61	114.06
373.835	97.06
374.061	90.06
374.287	85.06
374.513	91.06
374.739	84.06
374.965	92.06
375.191	86.06
375.416	94.06
375.642	88.06
375.868	91.06
376.094	90.06
376.319	82.06
376.545	82.06
376.771	73.06
376.997	81.06
377.222	89.06
377.448	84.06
377.674	94.06
377.899	91.06
378.125	72.06
378.35	88.06
378.576	93.06
378.802	87.06
379.027	92.06
379.253	98.06
379.478	75.06
379.704	94.06
379.929	96.06
380.155	85.06
380.38	74.06
380.606	82.06
380.831	95.06
381.057	105.06
381.282	77.06
381.507	79.06
381.733	98.06
381.958	84.06
382.184	85.06
382.409	80.06
382.634	90.06
382.86	89.06
383.085	70.06
383.31	86.06
383.535	90.06
383.761	84.06
383.986	96.06
384.211	84.06
384.436	80.06
384.662	101.06
384.887	75.06
385.112	84.06
385.337	90.06
385.562	90.06
385.787	95.06
386.013	103.06
386.238	90.06
386.463	89.06
386.688	110.06
386.913	91.06
387.138	93.06
387.363	95.06
387.588	104.06
387.813	98.06
388.038	100.06
388.263	96.06
388.488	89.06
388.713	101.06
388.938	86.06
389.163	90.06
389.387	91.06
389.612	100.06
389.837	100.06
390.062	101.06
390.287	89.06
390.512	92.06
390.736	88.06
390.961	91.06
391.186	77.06
391.411	78.06
391.636	97.06
391.86	99.06
392.085	101.06
392.31	97.06
392.534	101.06
392.759	120.06
392.984	186.06
393.208	332.06
393.433	483.06
393.658	351.06
393.882	148.06
394.107	102.06
394.331	105.06
394.556	105.06
394.78	106.06
395.005	108.06
395.229	99.06
395.454	89.06
395.678	97.06
395.903	99.06
396.127	118.06
396.352	147.06
396.576	208.06
396.801	324.06
397.025	368.06
397.249	209.06
397.474	144.06
397.698	99.06
397.922	112.06
398.147	95.06
398.371	74.06
398.595	80.06
398.82	85.06
399.044	82.06
399.268	83.06
399.492	91.06
399.717	88.06
399.941	76.06
400.165	103.06
400.389	90.06
400.613	83.06
400.837	75.06
401.062	76.06
401.286	74.06
401.51	92.06
401.734	75.06
401.958	86.06
402.182	90.06
402.406	85.06
402.63	82.06
402.854	84.06
403.078	75.06
403.302	87.06
403.526	81.06
403.75	77.06
403.974	90.06
404.198	98.06
404.422	98.06
404.645	101.06
404.869	98.06
405.093	84.06
405.317	72.06
405.541	72.06
405.765	82.06
405.988	80.06
406.212	92.06
406.436	80.06
406.66	86.06
406.883	94.06
407.107	83.06
407.331	88.06
407.555	92.06
407.778	110.06
408.002	110.06
408.226	83.06
408.449	82.06
408.673	76.06
408.896	84.06
409.12	92.06
409.344	80.06
409.567	86.06
409.791	97.06
410.014	93.06
410.238	83.06
410.461	90.06
410.685	88.06
410.908	83.06
411.132	77.06
411.355	91.06
411.578	82.06
411.802	87.06
412.025	95.06
412.249	89.06
412.472	72.06
412.695	84.06
412.919	89.06
413.142	99.06
413.365	79.06
413.589	82.06
413.812	80.06
414.035	86.06
414.258	83.06
414.482	77.06
414.705	71.06
414.928	86.06
415.151	74.06
415.374	69.06
415.597	73.06
415.821	80.06
416.044	83.06
416.267	90.06
416.49	74.06
416.713	92.06
416.936	83.06
417.159	94.06
417.382	93.06
417.605	82.06
417.828	82.06
418.051	82.06
418.274	88.06
418.497	72.06
418.72	84.06
418.943	86.06
419.166	92.06
419.389	98.06
419.611	88.06
419.834	83.06
420.057	94.06
420.28	82.06
420.503	84.06
420.726	95.06
420.948	86.06
421.171	94.06
421.394	88.06
421.617	127.06
421.839	119.06
422.062	106.06
422.285	144.06
422.507	278.06
422.73	444.06
422.953	386.06
423.175	188.06
423.398	112.06
423.621	104.06
423.843	88.06
424.066	100.06
424.288	98.06
424.511	98.06
424.733	102.06
424.956	90.06
425.178	91.06
425.401	92.06
425.623	86.06
425.846	96.06
426.068	85.06
426.291	86.06
426.513	79.06
426.735	92.06
426.958	74.06
427.18	69.06
427.402	89.06
427.625	83.06
427.847	97.06
428.069	94.06
428.292	131.06
428.514	144.06
428.736	110.06
428.958	122.06
429.181	135.06
429.403	105.06
429.625	93.06
429.847	116.06
430.069	163.06
430.292	178.06
430.514	166.06
430.736	120.06
430.958	150.06
431.18	86.06
431.402	81.06
431.624	87.06
431.846	130.06
432.068	130.06
432.29	102.06
432.512	86.06
432.734	90.06
432.956	89.06
433.178	91.06
433.4	74.06
433.622	86.06
433.844	76.06
434.066	86.06
434.287	83.06
434.509	85.06
434.731	85.06
434.953	84.06
435.175	74.06
435.397	94.06
435.618	74.06
435.84	93.06
436.062	93.06
436.284	82.06
436.505	73.06
436.727	75.06
436.949	73.06
437.17	82.06
437.392	66.06
437.614	82.06
437.835	78.06
438.057	98.06
438.278	80.06
438.5	95.06
438.721	76.06
438.943	75.06
439.165	79.06
439.386	86.06
439.608	89.06
439.829	83.06
440.05	84.06
440.272	95.06
440.493	82.06
440.715	96.06
440.936	86.06
441.158	87.06
441.379	91.06
441.6	95.06
441.822	84.06
442.043	86.06
442.264	92.06
442.486	111.06
442.707	185.06
442.928	120.06
443.149	105.06
443.371	153.06
443.592	246.06
443.813	227.06
444.034	104.06
444.255	97.06
444.476	85.06
444.698	80.06
444.919	99.06
445.14	200.06
445.361	221.06
445.582	287.06
445.803	263.06
446.024	121.06
446.245	84.06
446.466	86.06
446.687	84.06
446.908	83.06
447.129	86.06
447.35	90.06
447.571	91.06
447.792	98.06
448.013	82.06
448.234	90.06
448.455	87.06
448.675	91.06
448.896	79.06
449.117	76.06
449.338	84.06
449.559	88.06
449.779	98.06
450	84.06
450.221	82.06
450.442	87.06
450.662	75.06
450.883	74.06
451.104	71.06
451.324	86.06
451.545	88.06
451.766	75.06
451.986	75.06
452.207	76.06
452.428	94.06
452.648	92.06
452.869	102.06
453.089	88.06
453.31	75.06
453.53	100.06
453.751	71.06
453.971	78.06
454.192	77.06
454.412	88.06
454.633	87.06
454.853	88.06
455.073	82.06
455.294	82.06
455.514	77.06
455.734	86.06
455.955	84.06
456.175	79.06
456.395	91.06
456.616	90.06
456.836	79.06
457.056	85.06
457.276	87.06
457.497	78.06
457.717	81.06
457.937	101.06
458.157	117.06
458.377	129.06
458.598	118.06
458.818	106.06
459.038	105.06
459.258	82.06
459.478	75.06
459.698	86.06
459.918	90.06
460.138	83.06
460.358	79.06
460.578	115.06
460.798	130.06
461.018	120.06
461.238	90.06
461.458	78.06
461.678	73.06
461.898	84.06
462.118	99.06
462.338	79.06
462.558	66.06
462.777	84.06
462.997	94.06
463.217	87.06
463.437	90.06
463.657	83.06
463.876	75.06
464.096	84.06
464.316	80.06
464.536	87.06
464.755	94.06
464.975	74.06
465.195	93.06
465.414	84.06
465.634	80.06
465.854	80.06
466.073	83.06
466.293	86.06
466.512	80.06
466.732	83.06
466.951	82.06
467.171	88.06
467.391	74.06
467.61	88.06
467.829	88.06
468.049	87.06
468.268	85.06
468.488	75.06
468.707	82.06
468.927	80.06
469.146	67.06
469.365	75.06
469.585	86.06
469.804	90.06
470.023	86.06
470.243	89.06
470.462	87.06
470.681	90.06
470.901	90.06
471.12	95.06
471.339	77.06
471.558	79.06
471.777	88.06
471.997	82.06
472.216	107.06
472.435	86.06
472.654	83.06
472.873	76.06
473.092	78.06
473.311	81.06
473.53	99.06
473.749	98.06
473.968	91.06
474.187	87.06
474.406	79.06
474.625	84.06
474.844	73.06
475.063	83.06
475.282	80.06
475.501	88.06
475.72	88.06
475.939	83.06
476.158	87.06
476.377	82.06
476.596	79.06
476.814	83.06
477.033	82.06
477.252	93.06
477.471	83.06
477.69	91.06
477.908	94.06
478.127	100.06
478.346	79.06
478.564	77.06
478.783	85.06
479.002	98.06
479.22	94.06
479.439	95.06
479.658	95.06
479.876	85.06
480.095	85.06
480.313	86.06
480.532	77.06
480.751	104.06
480.969	72.06
481.188	85.06
481.406	92.06
481.624	70.06
481.843	81.06
482.061	86.06
482.28	79.06
482.498	75.06
482.717	85.06
482.935	90.06
483.153	98.06
483.372	96.06
483.59	79.06
483.808	92.06
484.027	91.06
484.245	80.06
484.463	103.06
484.681	113.06
484.9	71.06
485.118	76.06
485.336	93.06
485.554	82.06
485.772	95.06
485.99	94.06
486.209	88.06
486.427	89.06
486.645	94.06
486.863	81.06
487.081	93.06
487.299	83.06
487.517	95.06
487.735	118.06
487.953	170.06
488.171	141.06
488.389	100.06
488.607	84.06
488.825	77.06
489.043	80.06
489.261	80.06
489.479	90.06
489.696	84.06
489.914	91.06
490.132	99.06
490.35	92.06
490.568	95.06
490.786	90.06
491.003	83.06
491.221	79.06
491.439	94.06
491.657	85.06
491.874	89.06
492.092	88.06
492.31	103.06
492.527	95.06
492.745	87.06
492.963	91.06
493.18	86.06
493.398	79.06
493.615	80.06
493.833	102.06
494.05	98.06
494.268	100.06
494.485	96.06
494.703	74.06
494.92	90.06
495.138	74.06
495.355	86.06
495.573	84.06
495.79	85.06
496.008	76.06
496.225	92.06
496.442	97.06
496.66	100.06
496.877	86.06
497.094	95.06
497.312	82.06
497.529	82.06
497.746	99.06
497.963	89.06
498.181	100.06
498.398	85.06
498.615	82.06
498.832	92.06
499.049	90.06
499.267	93.06
499.484	95.06
499.701	96.06
499.918	87.06
500.135	93.06
500.352	88.06
500.569	88.06
500.786	89.06
501.003	80.06
501.22	90.06
501.437	90.06
501.654	106.06
501.871	81.06
502.088	89.06
502.305	77.06
502.522	82.06
502.739	91.06
502.956	84.06
503.172	88.06
503.389	87.06
503.606	79.06
503.823	91.06
504.04	92.06
504.256	127.06
504.473	120.06
504.69	97.06
504.907	90.06
505.123	77.06
505.34	85.06
505.557	85.06
505.773	89.06
505.99	104.06
506.207	90.06
506.423	96.06
506.64	98.06
506.856	86.06
507.073	81.06
507.289	91.06
507.506	88.06
507.722	102.06
507.939	69.06
508.155	82.06
508.372	88.06
508.588	73.06
508.805	101.06
509.021	92.06
509.238	92.06
509.454	75.06
509.67	90.06
509.887	94.06
510.103	82.06
510.319	75.06
510.536	92.06
510.752	75.06
510.968	86.06
511.184	85.06
511.401	73.06
511.617	102.06
511.833	92.06
512.049	100.06
512.265	74.06
512.481	92.06
512.698	80.06
512.914	96.06
513.13	105.06
513.346	77.06
513.562	88.06
513.778	86.06
513.994	83.06
514.21	98.06
514.426	91.06
514.642	75.06
514.858	100.06
515.074	106.06
515.29	90.06
515.506	83.06
515.721	81.06
515.937	88.06
516.153	86.06
516.369	86.06
516.585	103.06
516.801	85.06
517.016	93.06
517.232	90.06
517.448	92.06
517.664	94.06
517.879	101.06
518.095	87.06
518.311	76.06
518.527	94.06
518.742	117.06
518.958	150.06
519.173	163.06
519.389	111.06
519.605	88.06
519.82	85.06
520.036	81.06
520.251	91.06
520.467	83.06
520.682	86.06
520.898	97.06
521.113	67.06
521.329	91.06
521.544	72.06
521.76	94.06
521.975	82.06
522.19	95.06
522.406	79.06
522.621	99.06
522.836	88.06
523.052	95.06
523.267	71.06
523.482	97.06
523.698	82.06
523.913	82.06
524.128	90.06
524.343	113.06
524.559	103.06
524.774	101.06
524.989	90.06
525.204	89.06
525.419	92.06
525.634	90.06
525.849	110.06
526.064	137.06
526.28	216.06
526.495	296.06
526.71	324.06
526.925	212.06
527.14	280.06
527.355	257.06
527.57	111.06
527.785	100.06
527.999	86.06
528.214	86.06
528.429	90.06
528.644	99.06
528.859	91.06
529.074	89.06
529.289	85.06
529.503	85.06
529.718	99.06
529.933	96.06
530.148	90.06
530.363	96.06
530.577	90.06
530.792	89.06
531.007	88.06
531.221	90.06
531.436	90.06
531.651	105.06
531.865	97.06
532.08	98.06
532.295	97.06
532.509	102.06
532.724	86.06
532.938	103.06
533.153	93.06
533.367	94.06
533.582	91.06
533.796	106.06
534.011	92.06
534.225	87.06
534.44	104.06
534.654	98.06
534.868	123.06
535.083	160.06
535.297	137.06
535.511	91.06
535.726	96.06
535.94	94.06
536.154	89.06
536.369	91.06
536.583	86.06
536.797	98.06
537.011	99.06
537.225	97.06
537.44	84.06
537.654	94.06
537.868	91.06
538.082	97.06
538.296	91.06
538.51	91.06
538.724	102.06
538.938	102.06
539.153	105.06
539.367	91.06
539.581	88.06
539.795	92.06
540.009	100.06
540.222	107.06
540.436	119.06
540.65	96.06
540.864	91.06
541.078	94.06
541.292	79.06
541.506	99.06
541.72	101.06
541.934	98.06
542.147	99.06
542.361	99.06
542.575	105.06
542.789	92.06
543.002	103.06
543.216	95.06
543.43	83.06
543.644	115.06
543.857	95.06
544.071	110.06
544.285	109.06
544.498	92.06
544.712	98.06
544.925	99.06
545.139	97.06
545.352	102.06
545.566	103.06
545.779	112.06
545.993	98.06
546.206	92.06
546.42	116.06
546.633	112.06
546.847	126.06
547.06	127.06
547.274	114.06
547.487	140.06
547.7	159.06
547.914	158.06
548.127	162.06
548.34	179.06
548.554	143.06
548.767	164.06
548.98	187.06
549.193	154.06
549.407	163.06
549.62	167.06
549.833	176.06
550.046	186.06
550.259	211.06
550.473	187.06
550.686	224.06
550.899	222.06
551.112	238.06
551.325	250.06
551.538	268.06
551.751	247.06
551.964	204.06
552.177	215.06
552.39	216.06
552.603	211.06
552.816	197.06
553.029	203.06
553.242	209.06
553.455	192.06
553.667	219.06
553.88	211.06
554.093	210.06
554.306	222.06
554.519	211.06
554.732	203.06
554.944	190.06
555.157	185.06
555.37	192.06
555.583	180.06
555.795	186.06
556.008	163.06
556.221	161.06
556.433	165.06
556.646	160.06
556.859	144.06
557.071	134.06
557.284	138.06
557.496	131.06
557.709	133.06
557.921	123.06
558.134	136.06
558.346	180.06
558.559	163.06
558.771	164.06
558.984	315.06
559.196	393.06
559.409	203.06
559.621	311.06
559.833	212.06
560.046	274.06
560.258	227.06
560.47	235.06
560.683	136.06
560.895	113.06
561.107	108.06
561.32	90.06
561.532	106.06
561.744	101.06
561.956	86.06
562.168	91.06
562.381	91.06
562.593	98.06
562.805	112.06
563.017	99.06
563.229	98.06
563.441	96.06
563.653	89.06
563.865	94.06
564.077	92.06
564.289	98.06
564.501	90.06
564.713	110.06
564.925	88.06
565.137	110.06
565.349	91.06
565.561	86.06
565.773	98.06
565.985	99.06
566.197	78.06
566.408	100.06
566.62	92.06
566.832	106.06
567.044	92.06
567.255	98.06
567.467	109.06
567.679	96.06
567.891	97.06
568.102	104.06
568.314	95.06
568.526	102.06
568.737	94.06
568.949	102.06
569.161	105.06
569.372	103.06
569.584	94.06
569.795	87.06
570.007	102.06
570.218	106.06
570.43	100.06
570.641	104.06
570.853	92.06
571.064	112.06
571.276	91.06
571.487	97.06
571.698	95.06
571.91	102.06
572.121	94.06
572.333	87.06
572.544	97.06
572.755	104.06
572.966	108.06
573.178	85.06
573.389	91.06
573.6	99.06
573.811	91.06
574.023	91.06
574.234	93.06
574.445	89.06
574.656	90.06
574.867	102.06
575.078	94.06
575.289	89.06
575.501	96.06
575.712	84.06
575.923	98.06
576.134	75.06
576.345	96.06
576.556	101.06
576.767	94.06
576.978	101.06
577.188	91.06
577.399	100.06
577.61	92.06
577.821	103.06
578.032	86.06
578.243	91.06
578.454	108.06
578.665	82.06
578.875	103.06
579.086	89.06
579.297	110.06
579.508	99.06
579.718	79.06
579.929	92.06
580.14	91.06
580.35	92.06
580.561	86.06
580.772	98.06
580.982	83.06
581.193	98.06
581.403	95.06
581.614	90.06
581.825	100.06
582.035	92.06
582.246	99.06
582.456	85.06
582.667	88.06
582.877	104.06
583.087	99.06
583.298	94.06
583.508	85.06
583.719	90.06
583.929	95.06
584.139	89.06
584.35	93.06
584.56	90.06
584.77	88.06
584.981	89.06
585.191	89.06
585.401	94.06
585.611	101.06
585.821	171.06
586.032	228.06
586.242	123.06
586.452	114.06
586.662	103.06
586.872	108.06
587.082	100.06
587.292	112.06
587.502	107.06
587.713	96.06
587.923	118.06
588.133	108.06
588.343	104.06
588.553	114.06
588.762	145.06
588.972	192.06
589.182	480.06
589.392	326.06
589.602	231.06
589.812	424.06
590.022	232.06
590.232	140.06
590.441	112.06
590.651	94.06
590.861	100.06
591.071	127.06
591.281	117.06
591.49	97.06
591.7	112.06
591.91	130.06
592.119	107.06
592.329	107.06
592.539	96.06
592.748	99.06
592.958	103.06
593.167	111.06
593.377	113.06
593.587	118.06
593.796	116.06
594.006	123.06
594.215	122.06
594.424	115.06
594.634	123.06
594.843	114.06
595.053	118.06
595.262	129.06
595.472	130.06
595.681	127.06
595.89	121.06
596.1	127.06
596.309	128.06
596.518	132.06
596.727	153.06
596.937	158.06
597.146	144.06
597.355	160.06
597.564	153.06
597.774	170.06
597.983	152.06
598.192	157.06
598.401	148.06
598.61	165.06
598.819	175.06
599.028	167.06
599.237	169.06
599.446	190.06
599.655	176.06
599.864	174.06
600.073	155.06
600.282	172.06
600.491	180.06
600.7	166.06
600.909	166.06
601.118	167.06
601.327	151.06
601.536	143.06
601.745	136.06
601.953	135.06
602.162	124.06
602.371	139.06
602.58	157.06
602.789	151.06
602.997	153.06
603.206	152.06
603.415	166.06
603.623	163.06
603.832	166.06
604.041	169.06
604.249	185.06
604.458	179.06
604.666	182.06
604.875	191.06
605.084	166.06
605.292	188.06
605.501	178.06
605.709	192.06
605.918	201.06
606.126	198.06
606.334	220.06
606.543	200.06
606.751	210.06
606.96	203.06
607.168	176.06
607.376	172.06
607.585	216.06
607.793	186.06
608.001	176.06
608.21	180.06
608.418	168.06
608.626	201.06
608.834	196.06
609.043	197.06
609.251	208.06
609.459	184.06
609.667	202.06
609.875	214.06
610.083	220.06
610.291	210.06
610.499	293.06
610.707	220.06
610.916	193.06
611.124	206.06
611.332	195.06
611.54	204.06
611.748	204.06
611.955	210.06
612.163	230.06
612.371	372.06
612.579	331.06
612.787	230.06
612.995	232.06
613.203	210.06
613.411	204.06
613.618	199.06
613.826	219.06
614.034	204.06
614.242	223.06
614.449	206.06
614.657	214.06
614.865	213.06
615.072	214.06
615.28	208.06
615.488	204.06
615.695	210.06
615.903	209.06
616.111	233.06
616.318	364.06
616.526	404.06
616.733	263.06
616.941	248.06
617.148	292.06
617.356	224.06
617.563	205.06
617.771	186.06
617.978	199.06
618.185	190.06
618.393	188.06
618.6	194.06
618.807	192.06
619.015	156.06
619.222	163.06
619.429	160.06
619.637	163.06
619.844	175.06
620.051	156.06
620.258	154.06
620.466	163.06
620.673	160.06
620.88	169.06
621.087	192.06
621.294	169.06
621.501	171.06
621.708	177.06
621.915	164.06
622.122	172.06
622.329	161.06
622.536	188.06
622.743	178.06
622.95	164.06
623.157	187.06
623.364	191.06
623.571	184.06
623.778	176.06
623.985	167.06
624.192	185.06
624.399	166.06
624.606	190.06
624.812	176.06
625.019	190.06
625.226	179.06
625.433	190.06
625.639	171.06
625.846	179.06
626.053	168.06
626.259	163.06
626.466	168.06
626.673	138.06
626.879	130.06
627.086	136.06
627.293	162.06
627.499	159.06
627.706	142.06
627.912	125.06
628.119	120.06
628.325	127.06
628.532	119.06
628.738	113.06
628.945	113.06
629.151	117.06
629.357	98.06
629.564	107.06
629.77	106.06
629.976	103.06
630.183	101.06
630.389	102.06
630.595	98.06
630.802	94.06
631.008	97.06
631.214	95.06
631.42	110.06
631.627	96.06
631.833	103.06
632.039	116.06
632.245	96.06
632.451	102.06
632.657	97.06
632.863	97.06
633.069	92.06
633.275	101.06
633.481	97.06
633.688	108.06
633.893	102.06
634.099	116.06
634.305	102.06
634.511	113.06
634.717	98.06
634.923	96.06
635.129	107.06
635.335	103.06
635.541	107.06
635.747	114.06
635.952	122.06
636.158	91.06
636.364	103.06
636.57	98.06
636.775	114.06
636.981	111.06
637.187	103.06
637.392	103.06
637.598	96.06
637.804	87.06
638.009	90.06
638.215	91.06
638.421	103.06
638.626	100.06
638.832	103.06
639.037	96.06
639.243	81.06
639.448	95.06
639.654	85.06
639.859	94.06
640.065	94.06
640.27	93.06
640.475	97.06
640.681	91.06
640.886	99.06
641.091	92.06
641.297	94.06
641.502	87.06
641.707	88.06
641.913	98.06
642.118	73.06
642.323	82.06
642.528	98.06
642.733	95.06
642.939	76.06
643.144	100.06
643.349	99.06
643.554	106.06
643.759	98.06
643.964	136.06
644.169	190.06
644.374	116.06
644.579	110.06
644.784	102.06
644.989	101.06
645.194	131.06
645.399	106.06
645.604	92.06
645.809	94.06
646.014	108.06
646.219	101.06
646.423	158.06
646.628	121.06
646.833	93.06
647.038	87.06
647.243	111.06
647.447	117.06
647.652	92.06
647.857	89.06
648.062	93.06
648.266	90.06
648.471	90.06
648.676	88.06
648.88	92.06
649.085	94.06
649.289	86.06
649.494	140.06
649.698	133.06
649.903	94.06
650.107	98.06
650.312	119.06
650.516	94.06
650.721	90.06
650.925	95.06
651.13	73.06
651.334	83.06
651.539	77.06
651.743	84.06
651.947	91.06
652.152	90.06
652.356	94.06
652.56	82.06
652.764	80.06
652.969	79.06
653.173	78.06
653.377	79.06
653.581	104.06
653.785	76.06
653.99	91.06
654.194	76.06
654.398	87.06
654.602	91.06
654.806	84.06
655.01	64.06
655.214	72.06
655.418	83.06
655.622	93.06
655.826	81.06
656.03	84.06
656.234	88.06
656.438	96.06
656.642	94.06
656.846	83.06
657.049	90.06
657.253	73.06
657.457	77.06
657.661	89.06
657.865	91.06
658.068	74.06
658.272	94.06
658.476	84.06
658.68	95.06
658.883	94.06
659.087	95.06
659.291	95.06
659.494	96.06
659.698	78.06
659.901	88.06
660.105	83.06
660.309	88.06
660.512	83.06
660.716	80.06
660.919	80.06
661.123	88.06
661.326	97.06
661.53	90.06
661.733	83.06
661.936	74.06
662.14	91.06
662.343	86.06
662.546	80.06
662.75	85.06
662.953	77.06
663.156	92.06
663.36	91.06
663.563	90.06
663.766	74.06
663.969	67.06
664.173	71.06
664.376	68.06
664.579	86.06
664.782	69.06
664.985	90.06
665.188	86.06
665.391	81.06
665.594	70.06
665.797	72.06
666	66.06
666.203	69.06
666.406	72.06
666.609	82.06
666.812	74.06
667.015	65.06
667.218	73.06
667.421	86.06
667.624	85.06
667.827	88.06
668.03	85.06
668.232	79.06
668.435	72.06
668.638	76.06
668.841	87.06
669.043	90.06
669.246	88.06
669.449	85.06
669.651	81.06
669.854	97.06
670.057	110.06
670.259	86.06
670.462	79.06
670.665	75.06
670.867	75.06
671.07	89.06
671.272	83.06
671.475	86.06
671.677	86.06
671.88	83.06
672.082	75.06
672.284	70.06
672.487	84.06
672.689	73.06
672.892	92.06
