Data from StA_HRD10591_004.txt Node
Date: Fri May 16 15:18:46 EDT 2025
User: Yrep
Spectrometer: HR+D1059
Trigger mode: 1
Integration Time (sec): 1.000000E-1
Scans to average: 1
Electric dark correction enabled: true
Nonlinearity correction enabled: false
Boxcar width: 0
XAxis mode: Wavelengths
Number of Pixels in Spectrum: 2048
>>>>>Begin Spectral Data<<<<<
223.165	-2.88
223.4	-2.88
223.635	-2.88
223.869	-24.88
224.104	-28.88
224.338	-15.88
224.573	-19.88
224.808	-27.88
225.042	3.12
225.277	-1.88
225.511	6.12
225.746	4.12
225.98	11.12
226.215	6.12
226.449	7.12
226.683	20.12
226.918	22.12
227.152	42.12
227.387	28.12
227.621	44.12
227.856	38.12
228.09	47.12
228.324	51.12
228.559	52.12
228.793	61.12
229.027	75.12
229.262	65.12
229.496	73.12
229.73	85.12
229.964	83.12
230.199	70.12
230.433	65.12
230.667	82.12
230.901	96.12
231.136	89.12
231.37	90.12
231.604	101.12
231.838	81.12
232.072	107.12
232.306	98.12
232.541	97.12
232.775	107.12
233.009	99.12
233.243	89.12
233.477	83.12
233.711	95.12
233.945	94.12
234.179	102.12
234.413	86.12
234.647	82.12
234.881	82.12
235.115	104.12
235.349	90.12
235.583	89.12
235.817	87.12
236.051	99.12
236.285	85.12
236.519	93.12
236.753	85.12
236.987	89.12
237.221	90.12
237.455	96.12
237.689	93.12
237.922	98.12
238.156	109.12
238.39	84.12
238.624	71.12
238.858	99.12
239.091	78.12
239.325	95.12
239.559	80.12
239.793	88.12
240.027	105.12
240.26	96.12
240.494	100.12
240.728	95.12
240.961	93.12
241.195	86.12
241.429	102.12
241.662	91.12
241.896	95.12
242.13	84.12
242.363	95.12
242.597	109.12
242.83	99.12
243.064	90.12
243.298	111.12
243.531	101.12
243.765	89.12
243.998	90.12
244.232	104.12
244.465	87.12
244.699	90.12
244.932	103.12
245.166	112.12
245.399	106.12
245.633	95.12
245.866	102.12
246.099	108.12
246.333	100.12
246.566	117.12
246.8	130.12
247.033	106.12
247.266	110.12
247.5	117.12
247.733	95.12
247.966	122.12
248.2	108.12
248.433	131.12
248.666	111.12
248.899	135.12
249.133	126.12
249.366	123.12
249.599	126.12
249.832	112.12
250.066	131.12
250.299	126.12
250.532	111.12
250.765	119.12
250.998	120.12
251.231	134.12
251.465	131.12
251.698	126.12
251.931	142.12
252.164	134.12
252.397	146.12
252.63	144.12
252.863	147.12
253.096	153.12
253.329	143.12
253.562	156.12
253.795	139.12
254.028	135.12
254.261	130.12
254.494	120.12
254.727	143.12
254.96	140.12
255.193	137.12
255.426	130.12
255.659	119.12
255.892	147.12
256.124	137.12
256.357	146.12
256.59	167.12
256.823	152.12
257.056	151.12
257.289	164.12
257.521	175.12
257.754	161.12
257.987	150.12
258.22	175.12
258.452	153.12
258.685	164.12
258.918	165.12
259.151	168.12
259.383	152.12
259.616	161.12
259.849	143.12
260.081	170.12
260.314	159.12
260.547	179.12
260.779	171.12
261.012	183.12
261.244	169.12
261.477	168.12
261.71	163.12
261.942	179.12
262.175	181.12
262.407	200.12
262.64	180.12
262.872	187.12
263.105	191.12
263.337	176.12
263.57	172.12
263.802	163.12
264.035	188.12
264.267	143.12
264.499	164.12
264.732	171.12
264.964	167.12
265.197	179.12
265.429	176.12
265.661	203.12
265.894	215.12
266.126	246.12
266.358	274.12
266.591	284.12
266.823	293.12
267.055	295.12
267.287	292.12
267.52	287.12
267.752	310.12
267.984	365.12
268.216	291.12
268.448	233.12
268.681	206.12
268.913	252.12
269.145	294.12
269.377	272.12
269.609	251.12
269.841	274.12
270.073	302.12
270.306	275.12
270.538	260.12
270.77	245.12
271.002	222.12
271.234	241.12
271.466	219.12
271.698	211.12
271.93	228.12
272.162	239.12
272.394	257.12
272.626	251.12
272.858	223.12
273.09	219.12
273.322	193.12
273.553	199.12
273.785	195.12
274.017	203.12
274.249	246.12
274.481	296.12
274.713	293.12
274.945	302.12
275.176	353.12
275.408	347.12
275.64	343.12
275.872	369.12
276.104	393.12
276.335	423.12
276.567	421.12
276.799	393.12
277.031	311.12
277.262	282.12
277.494	247.12
277.726	272.12
277.957	296.12
278.189	303.12
278.421	291.12
278.652	283.12
278.884	281.12
279.115	276.12
279.347	277.12
279.579	255.12
279.81	251.12
280.042	261.12
280.273	286.12
280.505	255.12
280.736	221.12
280.968	247.12
281.199	277.12
281.431	289.12
281.662	297.12
281.894	316.12
282.125	353.12
282.356	361.12
282.588	334.12
282.819	319.12
283.051	377.12
283.282	436.12
283.513	504.12
283.745	517.12
283.976	504.12
284.207	460.12
284.439	501.12
284.67	455.12
284.901	419.12
285.132	493.12
285.364	496.12
285.595	489.12
285.826	505.12
286.057	491.12
286.288	487.12
286.52	524.12
286.751	540.12
286.982	473.12
287.213	414.12
287.444	407.12
287.675	456.12
287.906	411.12
288.138	338.12
288.369	293.12
288.6	299.12
288.831	328.12
289.062	360.12
289.293	391.12
289.524	393.12
289.755	391.12
289.986	383.12
290.217	309.12
290.448	279.12
290.679	257.12
290.91	253.12
291.141	243.12
291.371	266.12
291.602	257.12
291.833	268.12
292.064	294.12
292.295	348.12
292.526	365.12
292.757	360.12
292.987	373.12
293.218	348.12
293.449	345.12
293.68	332.12
293.91	296.12
294.141	282.12
294.372	261.12
294.603	244.12
294.833	258.12
295.064	252.12
295.295	243.12
295.525	243.12
295.756	228.12
295.987	235.12
296.217	248.12
296.448	234.12
296.679	245.12
296.909	267.12
297.14	326.12
297.37	339.12
297.601	311.12
297.831	299.12
298.062	335.12
298.292	311.12
298.523	335.12
298.753	356.12
298.984	323.12
299.214	284.12
299.445	249.12
299.675	237.12
299.905	215.12
300.136	214.12
300.366	211.12
300.597	219.12
300.827	212.12
301.057	243.12
301.288	253.12
301.518	276.12
301.748	286.12
301.979	280.12
302.209	276.12
302.439	276.12
302.669	284.12
302.9	288.12
303.13	265.12
303.36	230.12
303.59	223.12
303.82	277.12
304.051	308.12
304.281	341.12
304.511	287.12
304.741	276.12
304.971	299.12
305.201	279.12
305.431	252.12
305.661	235.12
305.891	228.12
306.121	208.12
306.352	214.12
306.582	202.12
306.812	203.12
307.042	196.12
307.272	197.12
307.502	189.12
307.731	203.12
307.961	203.12
308.191	201.12
308.421	189.12
308.651	193.12
308.881	205.12
309.111	213.12
309.341	203.12
309.571	228.12
309.8	225.12
310.03	200.12
310.26	203.12
310.49	211.12
310.72	241.12
310.949	231.12
311.179	256.12
311.409	286.12
311.639	383.12
311.868	460.12
312.098	521.12
312.328	535.12
312.557	532.12
312.787	503.12
313.017	488.12
313.246	513.12
313.476	500.12
313.706	384.12
313.935	321.12
314.165	278.12
314.394	270.12
314.624	261.12
314.853	281.12
315.083	250.12
315.312	240.12
315.542	220.12
315.771	210.12
316.001	197.12
316.23	186.12
316.46	208.12
316.689	197.12
316.919	210.12
317.148	208.12
317.377	218.12
317.607	224.12
317.836	249.12
318.065	272.12
318.295	282.12
318.524	266.12
318.753	208.12
318.983	196.12
319.212	221.12
319.441	222.12
319.67	260.12
319.9	278.12
320.129	263.12
320.358	229.12
320.587	239.12
320.816	248.12
321.046	260.12
321.275	256.12
321.504	246.12
321.733	265.12
321.962	245.12
322.191	209.12
322.42	198.12
322.649	192.12
322.878	194.12
323.108	201.12
323.337	225.12
323.566	231.12
323.795	233.12
324.024	230.12
324.253	202.12
324.482	191.12
324.71	198.12
324.939	211.12
325.168	196.12
325.397	191.12
325.626	194.12
325.855	197.12
326.084	188.12
326.313	203.12
326.542	194.12
326.77	203.12
326.999	220.12
327.228	215.12
327.457	190.12
327.686	178.12
327.914	176.12
328.143	183.12
328.372	185.12
328.6	198.12
328.829	199.12
329.058	227.12
329.287	216.12
329.515	219.12
329.744	216.12
329.972	203.12
330.201	199.12
330.43	232.12
330.658	222.12
330.887	251.12
331.115	245.12
331.344	244.12
331.572	244.12
331.801	209.12
332.03	217.12
332.258	233.12
332.486	261.12
332.715	252.12
332.943	237.12
333.172	251.12
333.4	263.12
333.629	302.12
333.857	291.12
334.085	294.12
334.314	277.12
334.542	275.12
334.771	249.12
334.999	253.12
335.227	254.12
335.455	270.12
335.684	289.12
335.912	350.12
336.14	361.12
336.369	335.12
336.597	357.12
336.825	387.12
337.053	359.12
337.281	249.12
337.51	250.12
337.738	245.12
337.966	284.12
338.194	283.12
338.422	250.12
338.65	243.12
338.878	237.12
339.106	213.12
339.334	248.12
339.562	251.12
339.79	242.12
340.018	248.12
340.246	277.12
340.474	307.12
340.702	285.12
340.93	307.12
341.158	272.12
341.386	227.12
341.614	234.12
341.842	244.12
342.07	287.12
342.298	336.12
342.526	293.12
342.754	224.12
342.981	229.12
343.209	259.12
343.437	276.12
343.665	243.12
343.893	215.12
344.12	196.12
344.348	221.12
344.576	205.12
344.804	207.12
345.031	207.12
345.259	204.12
345.487	211.12
345.714	217.12
345.942	180.12
346.17	201.12
346.397	184.12
346.625	192.12
346.853	182.12
347.08	190.12
347.308	200.12
347.535	185.12
347.763	176.12
347.99	179.12
348.218	179.12
348.445	192.12
348.673	180.12
348.9	183.12
349.128	171.12
349.355	187.12
349.583	175.12
349.81	182.12
350.037	172.12
350.265	185.12
350.492	177.12
350.72	168.12
350.947	191.12
351.174	193.12
351.402	187.12
351.629	186.12
351.856	172.12
352.083	166.12
352.311	189.12
352.538	178.12
352.765	167.12
352.992	173.12
353.22	168.12
353.447	190.12
353.674	173.12
353.901	158.12
354.128	172.12
354.355	161.12
354.583	191.12
354.81	183.12
355.037	195.12
355.264	194.12
355.491	183.12
355.718	191.12
355.945	191.12
356.172	204.12
356.399	210.12
356.626	204.12
356.853	215.12
357.08	215.12
357.307	219.12
357.534	269.12
357.761	291.12
357.988	316.12
358.215	280.12
358.441	229.12
358.668	247.12
358.895	231.12
359.122	251.12
359.349	303.12
359.576	277.12
359.802	221.12
360.029	209.12
360.256	237.12
360.483	268.12
360.709	296.12
360.936	216.12
361.163	207.12
361.39	183.12
361.616	196.12
361.843	177.12
362.07	173.12
362.296	180.12
362.523	196.12
362.749	190.12
362.976	187.12
363.203	217.12
363.429	197.12
363.656	201.12
363.882	230.12
364.109	222.12
364.335	200.12
364.562	189.12
364.788	197.12
365.015	203.12
365.241	193.12
365.468	198.12
365.694	176.12
365.92	192.12
366.147	202.12
366.373	180.12
366.599	193.12
366.826	196.12
367.052	183.12
367.278	181.12
367.505	202.12
367.731	203.12
367.957	198.12
368.184	193.12
368.41	189.12
368.636	211.12
368.862	215.12
369.089	181.12
369.315	186.12
369.541	195.12
369.767	155.12
369.993	182.12
370.219	180.12
370.445	175.12
370.672	182.12
370.898	168.12
371.124	188.12
371.35	190.12
371.576	196.12
371.802	184.12
372.028	179.12
372.254	188.12
372.48	197.12
372.706	178.12
372.932	182.12
373.158	183.12
373.384	193.12
373.61	194.12
373.835	181.12
374.061	209.12
374.287	205.12
374.513	218.12
374.739	228.12
374.965	220.12
375.191	199.12
375.416	211.12
375.642	203.12
375.868	192.12
376.094	199.12
376.319	187.12
376.545	185.12
376.771	203.12
376.997	188.12
377.222	197.12
377.448	175.12
377.674	169.12
377.899	183.12
378.125	182.12
378.35	182.12
378.576	180.12
378.802	168.12
379.027	198.12
379.253	210.12
379.478	217.12
379.704	205.12
379.929	220.12
380.155	198.12
380.38	203.12
380.606	212.12
380.831	199.12
381.057	179.12
381.282	193.12
381.507	201.12
381.733	207.12
381.958	197.12
382.184	201.12
382.409	214.12
382.634	182.12
382.86	207.12
383.085	210.12
383.31	216.12
383.535	204.12
383.761	210.12
383.986	196.12
384.211	216.12
384.436	200.12
384.662	204.12
384.887	228.12
385.112	224.12
385.337	228.12
385.562	235.12
385.787	238.12
386.013	225.12
386.238	208.12
386.463	216.12
386.688	225.12
386.913	199.12
387.138	209.12
387.363	201.12
387.588	209.12
387.813	217.12
388.038	189.12
388.263	216.12
388.488	216.12
388.713	217.12
388.938	203.12
389.163	207.12
389.387	197.12
389.612	202.12
389.837	204.12
390.062	200.12
390.287	185.12
390.512	215.12
390.736	204.12
390.961	233.12
391.186	233.12
391.411	214.12
391.636	223.12
391.86	239.12
392.085	245.12
392.31	213.12
392.534	199.12
392.759	209.12
392.984	203.12
393.208	217.12
393.433	209.12
393.658	206.12
393.882	214.12
394.107	207.12
394.331	208.12
394.556	208.12
394.78	213.12
395.005	208.12
395.229	201.12
395.454	207.12
395.678	213.12
395.903	211.12
396.127	208.12
396.352	245.12
396.576	249.12
396.801	227.12
397.025	261.12
397.249	254.12
397.474	245.12
397.698	259.12
397.922	263.12
398.147	237.12
398.371	250.12
398.595	261.12
398.82	237.12
399.044	265.12
399.268	243.12
399.492	241.12
399.717	249.12
399.941	245.12
400.165	252.12
400.389	247.12
400.613	225.12
400.837	232.12
401.062	227.12
401.286	217.12
401.51	217.12
401.734	222.12
401.958	204.12
402.182	241.12
402.406	220.12
402.63	201.12
402.854	212.12
403.078	229.12
403.302	224.12
403.526	216.12
403.75	233.12
403.974	232.12
404.198	218.12
404.422	208.12
404.645	215.12
404.869	224.12
405.093	233.12
405.317	213.12
405.541	240.12
405.765	226.12
405.988	222.12
406.212	245.12
406.436	224.12
406.66	241.12
406.883	241.12
407.107	222.12
407.331	218.12
407.555	243.12
407.778	238.12
408.002	236.12
408.226	234.12
408.449	237.12
408.673	235.12
408.896	219.12
409.12	217.12
409.344	232.12
409.567	232.12
409.791	216.12
410.014	223.12
410.238	215.12
410.461	215.12
410.685	233.12
410.908	237.12
411.132	231.12
411.355	237.12
411.578	222.12
411.802	231.12
412.025	222.12
412.249	235.12
412.472	243.12
412.695	230.12
412.919	206.12
413.142	223.12
413.365	221.12
413.589	211.12
413.812	209.12
414.035	216.12
414.258	227.12
414.482	208.12
414.705	219.12
414.928	224.12
415.151	223.12
415.374	208.12
415.597	225.12
415.821	215.12
416.044	218.12
416.267	212.12
416.49	229.12
416.713	228.12
416.936	216.12
417.159	216.12
417.382	208.12
417.605	219.12
417.828	212.12
418.051	210.12
418.274	217.12
418.497	225.12
418.72	214.12
418.943	207.12
419.166	220.12
419.389	224.12
419.611	227.12
419.834	222.12
420.057	220.12
420.28	235.12
420.503	211.12
420.726	218.12
420.948	216.12
421.171	212.12
421.394	204.12
421.617	227.12
421.839	206.12
422.062	197.12
422.285	209.12
422.507	231.12
422.73	218.12
422.953	207.12
423.175	229.12
423.398	204.12
423.621	209.12
423.843	212.12
424.066	237.12
424.288	233.12
424.511	207.12
424.733	240.12
424.956	219.12
425.178	250.12
425.401	322.12
425.623	373.12
425.846	259.12
426.068	227.12
426.291	239.12
426.513	233.12
426.735	232.12
426.958	244.12
427.18	248.12
427.402	298.12
427.625	356.12
427.847	238.12
428.069	211.12
428.292	227.12
428.514	211.12
428.736	236.12
428.958	286.12
429.181	286.12
429.403	249.12
429.625	220.12
429.847	217.12
430.069	208.12
430.292	214.12
430.514	212.12
430.736	213.12
430.958	203.12
431.18	194.12
431.402	197.12
431.624	205.12
431.846	202.12
432.068	189.12
432.29	200.12
432.512	201.12
432.734	201.12
432.956	222.12
433.178	214.12
433.4	205.12
433.622	229.12
433.844	255.12
434.066	259.12
434.287	251.12
434.509	260.12
434.731	245.12
434.953	247.12
435.175	252.12
435.397	254.12
435.618	243.12
435.84	209.12
436.062	219.12
436.284	213.12
436.505	208.12
436.727	209.12
436.949	201.12
437.17	231.12
437.392	215.12
437.614	221.12
437.835	200.12
438.057	193.12
438.278	203.12
438.5	198.12
438.721	205.12
438.943	221.12
439.165	186.12
439.386	200.12
439.608	201.12
439.829	189.12
440.05	190.12
440.272	199.12
440.493	202.12
440.715	203.12
440.936	224.12
441.158	222.12
441.379	218.12
441.6	216.12
441.822	201.12
442.043	202.12
442.264	228.12
442.486	214.12
442.707	202.12
442.928	224.12
443.149	228.12
443.371	207.12
443.592	208.12
443.813	212.12
444.034	214.12
444.255	221.12
444.476	218.12
444.698	210.12
444.919	216.12
445.14	302.12
445.361	259.12
445.582	209.12
445.803	217.12
446.024	212.12
446.245	208.12
446.466	209.12
446.687	201.12
446.908	213.12
447.129	208.12
447.35	189.12
447.571	210.12
447.792	197.12
448.013	201.12
448.234	206.12
448.455	209.12
448.675	209.12
448.896	205.12
449.117	207.12
449.338	205.12
449.559	201.12
449.779	229.12
450	234.12
450.221	201.12
450.442	199.12
450.662	194.12
450.883	204.12
451.104	216.12
451.324	197.12
451.545	204.12
451.766	226.12
451.986	200.12
452.207	189.12
452.428	193.12
452.648	197.12
452.869	209.12
453.089	223.12
453.31	220.12
453.53	193.12
453.751	213.12
453.971	197.12
454.192	193.12
454.412	219.12
454.633	214.12
454.853	222.12
455.073	196.12
455.294	196.12
455.514	184.12
455.734	219.12
455.955	205.12
456.175	207.12
456.395	200.12
456.616	209.12
456.836	199.12
457.056	211.12
457.276	213.12
457.497	199.12
457.717	200.12
457.937	197.12
458.157	219.12
458.377	204.12
458.598	211.12
458.818	225.12
459.038	232.12
459.258	224.12
459.478	221.12
459.698	231.12
459.918	215.12
460.138	235.12
460.358	227.12
460.578	237.12
460.798	205.12
461.018	232.12
461.238	221.12
461.458	235.12
461.678	226.12
461.898	231.12
462.118	244.12
462.338	225.12
462.558	255.12
462.777	251.12
462.997	251.12
463.217	232.12
463.437	257.12
463.657	237.12
463.876	236.12
464.096	259.12
464.316	241.12
464.536	256.12
464.755	275.12
464.975	245.12
465.195	255.12
465.414	241.12
465.634	195.12
465.854	205.12
466.073	190.12
466.293	203.12
466.512	215.12
466.732	233.12
466.951	222.12
467.171	209.12
467.391	214.12
467.61	206.12
467.829	207.12
468.049	212.12
468.268	206.12
468.488	186.12
468.707	194.12
468.927	198.12
469.146	196.12
469.365	191.12
469.585	213.12
469.804	200.12
470.023	232.12
470.243	211.12
470.462	188.12
470.681	215.12
470.901	202.12
471.12	221.12
471.339	213.12
471.558	202.12
471.777	217.12
471.997	222.12
472.216	218.12
472.435	202.12
472.654	224.12
472.873	206.12
473.092	209.12
473.311	201.12
473.53	215.12
473.749	208.12
473.968	205.12
474.187	200.12
474.406	183.12
474.625	204.12
474.844	191.12
475.063	195.12
475.282	191.12
475.501	194.12
475.72	221.12
475.939	206.12
476.158	220.12
476.377	199.12
476.596	220.12
476.814	211.12
477.033	205.12
477.252	205.12
477.471	205.12
477.69	222.12
477.908	208.12
478.127	222.12
478.346	206.12
478.564	208.12
478.783	220.12
479.002	244.12
479.22	247.12
479.439	231.12
479.658	222.12
479.876	227.12
480.095	238.12
480.313	235.12
480.532	242.12
480.751	223.12
480.969	225.12
481.188	230.12
481.406	223.12
481.624	216.12
481.843	212.12
482.061	234.12
482.28	225.12
482.498	237.12
482.717	226.12
482.935	227.12
483.153	227.12
483.372	226.12
483.59	212.12
483.808	213.12
484.027	222.12
484.245	219.12
484.463	221.12
484.681	239.12
484.9	230.12
485.118	213.12
485.336	211.12
485.554	217.12
485.772	222.12
485.99	225.12
486.209	231.12
486.427	235.12
486.645	238.12
486.863	239.12
487.081	222.12
487.299	264.12
487.517	249.12
487.735	230.12
487.953	237.12
488.171	225.12
488.389	234.12
488.607	231.12
488.825	248.12
489.043	245.12
489.261	219.12
489.479	215.12
489.696	215.12
489.914	229.12
490.132	232.12
490.35	224.12
490.568	250.12
490.786	230.12
491.003	213.12
491.221	243.12
491.439	244.12
491.657	233.12
491.874	232.12
492.092	264.12
492.31	286.12
492.527	270.12
492.745	237.12
492.963	232.12
493.18	228.12
493.398	242.12
493.615	257.12
493.833	241.12
494.05	241.12
494.268	241.12
494.485	256.12
494.703	245.12
494.92	233.12
495.138	244.12
495.355	224.12
495.573	265.12
495.79	270.12
496.008	256.12
496.225	244.12
496.442	251.12
496.66	275.12
496.877	254.12
497.094	267.12
497.312	266.12
497.529	268.12
497.746	262.12
497.963	277.12
498.181	275.12
498.398	265.12
498.615	282.12
498.832	291.12
499.049	287.12
499.267	299.12
499.484	321.12
499.701	332.12
499.918	341.12
500.135	365.12
500.352	375.12
500.569	364.12
500.786	398.12
501.003	373.12
501.22	347.12
501.437	311.12
501.654	334.12
501.871	311.12
502.088	284.12
502.305	296.12
502.522	280.12
502.739	273.12
502.956	275.12
503.172	270.12
503.389	245.12
503.606	257.12
503.823	256.12
504.04	273.12
504.256	264.12
504.473	266.12
504.69	257.12
504.907	260.12
505.123	257.12
505.34	249.12
505.557	255.12
505.773	248.12
505.99	243.12
506.207	237.12
506.423	239.12
506.64	235.12
506.856	240.12
507.073	237.12
507.289	236.12
507.506	224.12
507.722	219.12
507.939	235.12
508.155	219.12
508.372	239.12
508.588	232.12
508.805	234.12
509.021	203.12
509.238	211.12
509.454	208.12
509.67	215.12
509.887	232.12
510.103	208.12
510.319	239.12
510.536	225.12
510.752	204.12
510.968	235.12
511.184	205.12
511.401	207.12
511.617	217.12
511.833	215.12
512.049	216.12
512.265	202.12
512.481	233.12
512.698	211.12
512.914	218.12
513.13	220.12
513.346	208.12
513.562	220.12
513.778	227.12
513.994	231.12
514.21	225.12
514.426	231.12
514.642	219.12
514.858	241.12
515.074	211.12
515.29	214.12
515.506	217.12
515.721	222.12
515.937	214.12
516.153	225.12
516.369	232.12
516.585	230.12
516.801	250.12
517.016	243.12
517.232	255.12
517.448	247.12
517.664	237.12
517.879	252.12
518.095	243.12
518.311	252.12
518.527	246.12
518.742	241.12
518.958	233.12
519.173	247.12
519.389	239.12
519.605	246.12
519.82	247.12
520.036	256.12
520.251	291.12
520.467	412.12
520.682	761.12
520.898	766.12
521.113	612.12
521.329	307.12
521.544	241.12
521.76	227.12
521.975	235.12
522.19	233.12
522.406	245.12
522.621	246.12
522.836	249.12
523.052	246.12
523.267	240.12
523.482	219.12
523.698	225.12
523.913	241.12
524.128	211.12
524.343	203.12
524.559	221.12
524.774	242.12
524.989	240.12
525.204	216.12
525.419	223.12
525.634	223.12
525.849	227.12
526.064	228.12
526.28	238.12
526.495	275.12
526.71	315.12
526.925	228.12
527.14	233.12
527.355	239.12
527.57	256.12
527.785	286.12
527.999	247.12
528.214	250.12
528.429	210.12
528.644	210.12
528.859	209.12
529.074	223.12
529.289	223.12
529.503	222.12
529.718	282.12
529.933	399.12
530.148	326.12
530.363	249.12
530.577	247.12
530.792	241.12
531.007	212.12
531.221	213.12
531.436	229.12
531.651	238.12
531.865	224.12
532.08	245.12
532.295	239.12
532.509	236.12
532.724	254.12
532.938	305.12
533.153	319.12
533.367	264.12
533.582	253.12
533.796	232.12
534.011	244.12
534.225	249.12
534.44	235.12
534.654	298.12
534.868	356.12
535.083	304.12
535.297	231.12
535.511	261.12
535.726	268.12
535.94	253.12
536.154	226.12
536.369	221.12
536.583	231.12
536.797	249.12
537.011	216.12
537.225	208.12
537.44	221.12
537.654	241.12
537.868	236.12
538.082	225.12
538.296	220.12
538.51	246.12
538.724	218.12
538.938	231.12
539.153	235.12
539.367	237.12
539.581	232.12
539.795	238.12
540.009	244.12
540.222	251.12
540.436	223.12
540.65	229.12
540.864	243.12
541.078	328.12
541.292	297.12
541.506	239.12
541.72	221.12
541.934	241.12
542.147	207.12
542.361	227.12
542.575	238.12
542.789	207.12
543.002	188.12
543.216	211.12
543.43	205.12
543.644	214.12
543.857	213.12
544.071	217.12
544.285	218.12
544.498	221.12
544.712	204.12
544.925	215.12
545.139	224.12
545.352	224.12
545.566	219.12
545.779	229.12
545.993	219.12
546.206	200.12
546.42	208.12
546.633	200.12
546.847	200.12
547.06	209.12
547.274	214.12
547.487	214.12
547.7	202.12
547.914	211.12
548.127	217.12
548.34	200.12
548.554	228.12
548.767	215.12
548.98	225.12
549.193	193.12
549.407	229.12
549.62	195.12
549.833	216.12
550.046	242.12
550.259	231.12
550.473	232.12
550.686	216.12
550.899	227.12
551.112	221.12
551.325	217.12
551.538	219.12
551.751	227.12
551.964	239.12
552.177	233.12
552.39	229.12
552.603	215.12
552.816	230.12
553.029	225.12
553.242	222.12
553.455	244.12
553.667	233.12
553.88	224.12
554.093	221.12
554.306	217.12
554.519	210.12
554.732	194.12
554.944	215.12
555.157	208.12
555.37	204.12
555.583	193.12
555.795	210.12
556.008	199.12
556.221	208.12
556.433	215.12
556.646	213.12
556.859	212.12
557.071	208.12
557.284	195.12
557.496	205.12
557.709	216.12
557.921	215.12
558.134	191.12
558.346	194.12
558.559	205.12
558.771	198.12
558.984	195.12
559.196	204.12
559.409	199.12
559.621	191.12
559.833	183.12
560.046	185.12
560.258	195.12
560.47	201.12
560.683	212.12
560.895	189.12
561.107	203.12
561.32	201.12
561.532	184.12
561.744	182.12
561.956	183.12
562.168	200.12
562.381	189.12
562.593	204.12
562.805	216.12
563.017	215.12
563.229	201.12
563.441	199.12
563.653	185.12
563.865	181.12
564.077	205.12
564.289	207.12
564.501	221.12
564.713	234.12
564.925	201.12
565.137	201.12
565.349	223.12
565.561	193.12
565.773	201.12
565.985	192.12
566.197	221.12
566.408	221.12
566.62	223.12
566.832	233.12
567.044	247.12
567.255	251.12
567.467	266.12
567.679	223.12
567.891	218.12
568.102	244.12
568.314	241.12
568.526	229.12
568.737	237.12
568.949	241.12
569.161	201.12
569.372	185.12
569.584	203.12
569.795	191.12
570.007	195.12
570.218	206.12
570.43	205.12
570.641	190.12
570.853	183.12
571.064	187.12
571.276	212.12
571.487	198.12
571.698	184.12
571.91	191.12
572.121	187.12
572.333	186.12
572.544	182.12
572.755	195.12
572.966	177.12
573.178	169.12
573.389	203.12
573.6	183.12
573.811	171.12
574.023	176.12
574.234	164.12
574.445	174.12
574.656	176.12
574.867	176.12
575.078	176.12
575.289	185.12
575.501	192.12
575.712	173.12
575.923	168.12
576.134	168.12
576.345	171.12
576.556	183.12
576.767	168.12
576.978	154.12
577.188	159.12
577.399	152.12
577.61	163.12
577.821	170.12
578.032	166.12
578.243	175.12
578.454	180.12
578.665	188.12
578.875	192.12
579.086	184.12
579.297	201.12
579.508	173.12
579.718	168.12
579.929	168.12
580.14	170.12
580.35	151.12
580.561	150.12
580.772	165.12
580.982	158.12
581.193	168.12
581.403	170.12
581.614	152.12
581.825	130.12
582.035	156.12
582.246	157.12
582.456	166.12
582.667	146.12
582.877	139.12
583.087	147.12
583.298	157.12
583.508	140.12
583.719	151.12
583.929	151.12
584.139	148.12
584.35	135.12
584.56	149.12
584.77	159.12
584.981	163.12
585.191	158.12
585.401	146.12
585.611	145.12
585.821	163.12
586.032	151.12
586.242	157.12
586.452	142.12
586.662	161.12
586.872	153.12
587.082	168.12
587.292	149.12
587.502	144.12
587.713	153.12
587.923	154.12
588.133	158.12
588.343	148.12
588.553	153.12
588.762	129.12
588.972	148.12
589.182	150.12
589.392	143.12
589.602	141.12
589.812	134.12
590.022	145.12
590.232	148.12
590.441	141.12
590.651	157.12
590.861	152.12
591.071	151.12
591.281	160.12
591.49	147.12
591.7	159.12
591.91	141.12
592.119	139.12
592.329	148.12
592.539	166.12
592.748	149.12
592.958	137.12
593.167	141.12
593.377	148.12
593.587	154.12
593.796	147.12
594.006	156.12
594.215	163.12
594.424	152.12
594.634	183.12
594.843	150.12
595.053	145.12
595.262	134.12
595.472	131.12
595.681	142.12
595.89	146.12
596.1	153.12
596.309	158.12
596.518	136.12
596.727	132.12
596.937	144.12
597.146	151.12
597.355	137.12
597.564	142.12
597.774	149.12
597.983	129.12
598.192	135.12
598.401	122.12
598.61	132.12
598.819	144.12
599.028	120.12
599.237	116.12
599.446	120.12
599.655	131.12
599.864	125.12
600.073	137.12
600.282	118.12
600.491	122.12
600.7	114.12
600.909	128.12
601.118	137.12
601.327	129.12
601.536	127.12
601.745	128.12
601.953	129.12
602.162	134.12
602.371	139.12
602.58	121.12
602.789	129.12
602.997	125.12
603.206	124.12
603.415	126.12
603.623	121.12
603.832	138.12
604.041	119.12
604.249	123.12
604.458	152.12
604.666	123.12
604.875	128.12
605.084	137.12
605.292	126.12
605.501	131.12
605.709	129.12
605.918	125.12
606.126	121.12
606.334	130.12
606.543	140.12
606.751	121.12
606.96	148.12
607.168	131.12
607.376	127.12
607.585	149.12
607.793	137.12
608.001	124.12
608.21	125.12
608.418	121.12
608.626	133.12
608.834	133.12
609.043	130.12
609.251	128.12
609.459	128.12
609.667	121.12
609.875	121.12
610.083	122.12
610.291	121.12
610.499	134.12
610.707	123.12
610.916	132.12
611.124	128.12
611.332	126.12
611.54	126.12
611.748	137.12
611.955	124.12
612.163	118.12
612.371	118.12
612.579	122.12
612.787	121.12
612.995	114.12
613.203	118.12
613.411	126.12
613.618	133.12
613.826	133.12
614.034	123.12
614.242	138.12
614.449	113.12
614.657	124.12
614.865	118.12
615.072	109.12
615.28	126.12
615.488	127.12
615.695	131.12
615.903	134.12
616.111	115.12
616.318	141.12
616.526	125.12
616.733	128.12
616.941	116.12
617.148	126.12
617.356	122.12
617.563	124.12
617.771	122.12
617.978	133.12
618.185	123.12
618.393	128.12
618.6	137.12
618.807	112.12
619.015	130.12
619.222	124.12
619.429	95.12
619.637	117.12
619.844	122.12
620.051	123.12
620.258	134.12
620.466	116.12
620.673	104.12
620.88	111.12
621.087	96.12
621.294	111.12
621.501	126.12
621.708	116.12
621.915	110.12
622.122	124.12
622.329	132.12
622.536	136.12
622.743	118.12
622.95	121.12
623.157	124.12
623.364	122.12
623.571	120.12
623.778	114.12
623.985	137.12
624.192	128.12
624.399	120.12
624.606	135.12
624.812	127.12
625.019	116.12
625.226	126.12
625.433	118.12
625.639	124.12
625.846	127.12
626.053	128.12
626.259	118.12
626.466	135.12
626.673	114.12
626.879	97.12
627.086	123.12
627.293	110.12
627.499	112.12
627.706	120.12
627.912	124.12
628.119	108.12
628.325	118.12
628.532	120.12
628.738	114.12
628.945	125.12
629.151	112.12
629.357	120.12
629.564	104.12
629.77	132.12
629.976	115.12
630.183	99.12
630.389	94.12
630.595	102.12
630.802	117.12
631.008	112.12
631.214	101.12
631.42	104.12
631.627	110.12
631.833	108.12
632.039	110.12
632.245	92.12
632.451	120.12
632.657	120.12
632.863	111.12
633.069	116.12
633.275	108.12
633.481	103.12
633.688	121.12
633.893	111.12
634.099	103.12
634.305	112.12
634.511	107.12
634.717	121.12
634.923	128.12
635.129	121.12
635.335	119.12
635.541	114.12
635.747	107.12
635.952	91.12
636.158	111.12
636.364	115.12
636.57	116.12
636.775	111.12
636.981	110.12
637.187	119.12
637.392	91.12
637.598	97.12
637.804	113.12
638.009	91.12
638.215	103.12
638.421	105.12
638.626	113.12
638.832	106.12
639.037	97.12
639.243	87.12
639.448	92.12
639.654	103.12
639.859	106.12
640.065	101.12
640.27	110.12
640.475	109.12
640.681	105.12
640.886	101.12
641.091	111.12
641.297	120.12
641.502	99.12
641.707	106.12
641.913	97.12
642.118	104.12
642.323	112.12
642.528	107.12
642.733	100.12
642.939	120.12
643.144	116.12
643.349	104.12
643.554	105.12
643.759	87.12
643.964	108.12
644.169	111.12
644.374	99.12
644.579	97.12
644.784	105.12
644.989	101.12
645.194	109.12
645.399	109.12
645.604	111.12
645.809	117.12
646.014	107.12
646.219	103.12
646.423	108.12
646.628	108.12
646.833	110.12
647.038	106.12
647.243	97.12
647.447	109.12
647.652	100.12
647.857	101.12
648.062	93.12
648.266	106.12
648.471	99.12
648.676	97.12
648.88	95.12
649.085	108.12
649.289	85.12
649.494	124.12
649.698	107.12
649.903	111.12
650.107	97.12
650.312	96.12
650.516	96.12
650.721	120.12
650.925	101.12
651.13	115.12
651.334	116.12
651.539	92.12
651.743	100.12
651.947	97.12
652.152	107.12
652.356	95.12
652.56	108.12
652.764	111.12
652.969	96.12
653.173	104.12
653.377	92.12
653.581	99.12
653.785	96.12
653.99	87.12
654.194	103.12
654.398	111.12
654.602	103.12
654.806	89.12
655.01	95.12
655.214	102.12
655.418	94.12
655.622	104.12
655.826	107.12
656.03	107.12
656.234	108.12
656.438	111.12
656.642	116.12
656.846	105.12
657.049	99.12
657.253	104.12
657.457	91.12
657.661	88.12
657.865	89.12
658.068	104.12
658.272	85.12
658.476	83.12
658.68	86.12
658.883	101.12
659.087	92.12
659.291	73.12
659.494	104.12
659.698	100.12
659.901	86.12
660.105	90.12
660.309	80.12
660.512	85.12
660.716	84.12
660.919	98.12
661.123	89.12
661.326	93.12
661.53	86.12
661.733	77.12
661.936	78.12
662.14	83.12
662.343	94.12
662.546	81.12
662.75	90.12
662.953	94.12
663.156	83.12
663.36	83.12
663.563	81.12
663.766	90.12
663.969	73.12
664.173	75.12
664.376	84.12
664.579	75.12
664.782	76.12
664.985	86.12
665.188	79.12
665.391	81.12
665.594	80.12
665.797	88.12
666	83.12
666.203	81.12
666.406	83.12
666.609	88.12
666.812	86.12
667.015	86.12
667.218	85.12
667.421	99.12
667.624	95.12
667.827	79.12
668.03	75.12
668.232	80.12
668.435	84.12
668.638	76.12
668.841	79.12
669.043	80.12
669.246	87.12
669.449	81.12
669.651	71.12
669.854	80.12
670.057	83.12
670.259	82.12
670.462	73.12
670.665	77.12
670.867	77.12
671.07	87.12
671.272	79.12
671.475	84.12
671.677	81.12
671.88	94.12
672.082	80.12
672.284	92.12
672.487	87.12
672.689	84.12
672.892	88.12
