Data from StA_HRD10591_063.txt Node
Date: Fri May 16 15:19:15 EDT 2025
User: Yrep
Spectrometer: HR+D1059
Trigger mode: 1
Integration Time (sec): 1.000000E-1
Scans to average: 1
Electric dark correction enabled: true
Nonlinearity correction enabled: false
Boxcar width: 0
XAxis mode: Wavelengths
Number of Pixels in Spectrum: 2048
>>>>>Begin Spectral Data<<<<<
223.165	-24.56
223.4	-24.56
223.635	-24.56
223.869	-16.56
224.104	-17.56
224.338	-19.56
224.573	-20.56
224.808	-8.56
225.042	-0.56
225.277	-5.56
225.511	-4.56
225.746	11.44
225.98	5.44
226.215	8.44
226.449	16.44
226.683	23.44
226.918	22.44
227.152	30.44
227.387	35.44
227.621	29.44
227.856	41.44
228.09	30.44
228.324	51.44
228.559	57.44
228.793	55.44
229.027	60.44
229.262	59.44
229.496	76.44
229.73	77.44
229.964	87.44
230.199	97.44
230.433	96.44
230.667	84.44
230.901	90.44
231.136	81.44
231.37	87.44
231.604	106.44
231.838	97.44
232.072	107.44
232.306	93.44
232.541	93.44
232.775	93.44
233.009	86.44
233.243	88.44
233.477	85.44
233.711	88.44
233.945	85.44
234.179	68.44
234.413	81.44
234.647	81.44
234.881	88.44
235.115	97.44
235.349	98.44
235.583	91.44
235.817	91.44
236.051	88.44
236.285	91.44
236.519	81.44
236.753	89.44
236.987	89.44
237.221	88.44
237.455	87.44
237.689	101.44
237.922	82.44
238.156	90.44
238.39	77.44
238.624	83.44
238.858	83.44
239.091	87.44
239.325	82.44
239.559	85.44
239.793	98.44
240.027	91.44
240.26	91.44
240.494	96.44
240.728	102.44
240.961	94.44
241.195	102.44
241.429	87.44
241.662	86.44
241.896	93.44
242.13	87.44
242.363	94.44
242.597	89.44
242.83	87.44
243.064	85.44
243.298	97.44
243.531	104.44
243.765	90.44
243.998	102.44
244.232	101.44
244.465	116.44
244.699	98.44
244.932	106.44
245.166	85.44
245.399	103.44
245.633	111.44
245.866	109.44
246.099	99.44
246.333	103.44
246.566	102.44
246.8	116.44
247.033	97.44
247.266	113.44
247.5	109.44
247.733	114.44
247.966	117.44
248.2	110.44
248.433	129.44
248.666	112.44
248.899	130.44
249.133	141.44
249.366	138.44
249.599	123.44
249.832	120.44
250.066	127.44
250.299	125.44
250.532	121.44
250.765	130.44
250.998	115.44
251.231	117.44
251.465	140.44
251.698	138.44
251.931	147.44
252.164	147.44
252.397	148.44
252.63	148.44
252.863	157.44
253.096	146.44
253.329	141.44
253.562	147.44
253.795	137.44
254.028	154.44
254.261	151.44
254.494	156.44
254.727	131.44
254.96	144.44
255.193	139.44
255.426	134.44
255.659	143.44
255.892	138.44
256.124	151.44
256.357	163.44
256.59	167.44
256.823	159.44
257.056	161.44
257.289	187.44
257.521	181.44
257.754	163.44
257.987	168.44
258.22	162.44
258.452	163.44
258.685	181.44
258.918	177.44
259.151	171.44
259.383	173.44
259.616	157.44
259.849	166.44
260.081	162.44
260.314	183.44
260.547	169.44
260.779	182.44
261.012	190.44
261.244	182.44
261.477	189.44
261.71	183.44
261.942	166.44
262.175	197.44
262.407	189.44
262.64	183.44
262.872	196.44
263.105	190.44
263.337	202.44
263.57	196.44
263.802	179.44
264.035	177.44
264.267	181.44
264.499	160.44
264.732	169.44
264.964	172.44
265.197	186.44
265.429	202.44
265.661	229.44
265.894	227.44
266.126	254.44
266.358	301.44
266.591	312.44
266.823	340.44
267.055	334.44
267.287	329.44
267.52	342.44
267.752	364.44
267.984	370.44
268.216	300.44
268.448	245.44
268.681	233.44
268.913	295.44
269.145	327.44
269.377	303.44
269.609	284.44
269.841	298.44
270.073	325.44
270.306	298.44
270.538	269.44
270.77	253.44
271.002	255.44
271.234	246.44
271.466	259.44
271.698	229.44
271.93	255.44
272.162	278.44
272.394	283.44
272.626	270.44
272.858	255.44
273.09	227.44
273.322	193.44
273.553	204.44
273.785	222.44
274.017	248.44
274.249	289.44
274.481	311.44
274.713	337.44
274.945	362.44
275.176	419.44
275.408	386.44
275.64	390.44
275.872	396.44
276.104	471.44
276.335	463.44
276.567	460.44
276.799	427.44
277.031	377.44
277.262	289.44
277.494	289.44
277.726	291.44
277.957	327.44
278.189	324.44
278.421	340.44
278.652	301.44
278.884	315.44
279.115	311.44
279.347	279.44
279.579	262.44
279.81	247.44
280.042	276.44
280.273	304.44
280.505	266.44
280.736	261.44
280.968	288.44
281.199	302.44
281.431	310.44
281.662	311.44
281.894	342.44
282.125	377.44
282.356	395.44
282.588	390.44
282.819	342.44
283.051	412.44
283.282	492.44
283.513	562.44
283.745	599.44
283.976	553.44
284.207	536.44
284.439	530.44
284.67	512.44
284.901	492.44
285.132	545.44
285.364	539.44
285.595	529.44
285.826	542.44
286.057	555.44
286.288	552.44
286.52	597.44
286.751	587.44
286.982	544.44
287.213	483.44
287.444	468.44
287.675	526.44
287.906	486.44
288.138	381.44
288.369	332.44
288.6	294.44
288.831	347.44
289.062	417.44
289.293	425.44
289.524	452.44
289.755	468.44
289.986	464.44
290.217	355.44
290.448	300.44
290.679	272.44
290.91	270.44
291.141	262.44
291.371	302.44
291.602	286.44
291.833	301.44
292.064	337.44
292.295	397.44
292.526	420.44
292.757	410.44
292.987	432.44
293.218	390.44
293.449	367.44
293.68	376.44
293.91	315.44
294.141	297.44
294.372	281.44
294.603	253.44
294.833	282.44
295.064	284.44
295.295	281.44
295.525	268.44
295.756	278.44
295.987	242.44
296.217	248.44
296.448	264.44
296.679	260.44
296.909	308.44
297.14	359.44
297.37	374.44
297.601	326.44
297.831	323.44
298.062	357.44
298.292	348.44
298.523	382.44
298.753	407.44
298.984	355.44
299.214	311.44
299.445	261.44
299.675	255.44
299.905	249.44
300.136	230.44
300.366	239.44
300.597	228.44
300.827	214.44
301.057	227.44
301.288	267.44
301.518	296.44
301.748	326.44
301.979	310.44
302.209	297.44
302.439	303.44
302.669	303.44
302.9	310.44
303.13	284.44
303.36	260.44
303.59	262.44
303.82	313.44
304.051	319.44
304.281	351.44
304.511	311.44
304.741	326.44
304.971	323.44
305.201	322.44
305.431	299.44
305.661	256.44
305.891	238.44
306.121	221.44
306.352	225.44
306.582	217.44
306.812	191.44
307.042	199.44
307.272	219.44
307.502	214.44
307.731	211.44
307.961	211.44
308.191	193.44
308.421	205.44
308.651	201.44
308.881	210.44
309.111	220.44
309.341	225.44
309.571	254.44
309.8	231.44
310.03	237.44
310.26	225.44
310.49	213.44
310.72	226.44
310.949	243.44
311.179	264.44
311.409	307.44
311.639	416.44
311.868	519.44
312.098	598.44
312.328	599.44
312.557	562.44
312.787	571.44
313.017	540.44
313.246	589.44
313.476	550.44
313.706	398.44
313.935	344.44
314.165	295.44
314.394	287.44
314.624	277.44
314.853	295.44
315.083	287.44
315.312	257.44
315.542	249.44
315.771	218.44
316.001	217.44
316.23	217.44
316.46	216.44
316.689	194.44
316.919	216.44
317.148	214.44
317.377	222.44
317.607	234.44
317.836	250.44
318.065	318.44
318.295	343.44
318.524	280.44
318.753	235.44
318.983	204.44
319.212	227.44
319.441	229.44
319.67	290.44
319.9	301.44
320.129	273.44
320.358	229.44
320.587	255.44
320.816	281.44
321.046	300.44
321.275	289.44
321.504	273.44
321.733	269.44
321.962	268.44
322.191	237.44
322.42	195.44
322.649	188.44
322.878	227.44
323.108	203.44
323.337	234.44
323.566	238.44
323.795	246.44
324.024	230.44
324.253	215.44
324.482	202.44
324.71	195.44
324.939	186.44
325.168	194.44
325.397	209.44
325.626	212.44
325.855	199.44
326.084	219.44
326.313	206.44
326.542	218.44
326.77	223.44
326.999	208.44
327.228	235.44
327.457	206.44
327.686	194.44
327.914	191.44
328.143	187.44
328.372	203.44
328.6	197.44
328.829	206.44
329.058	218.44
329.287	245.44
329.515	225.44
329.744	233.44
329.972	212.44
330.201	202.44
330.43	227.44
330.658	250.44
330.887	287.44
331.115	282.44
331.344	272.44
331.572	236.44
331.801	230.44
332.03	229.44
332.258	250.44
332.486	267.44
332.715	268.44
332.943	228.44
333.172	266.44
333.4	275.44
333.629	325.44
333.857	327.44
334.085	340.44
334.314	302.44
334.542	286.44
334.771	268.44
334.999	266.44
335.227	258.44
335.455	295.44
335.684	332.44
335.912	383.44
336.14	391.44
336.369	368.44
336.597	387.44
336.825	418.44
337.053	393.44
337.281	290.44
337.51	254.44
337.738	275.44
337.966	309.44
338.194	301.44
338.422	264.44
338.65	240.44
338.878	245.44
339.106	249.44
339.334	276.44
339.562	273.44
339.79	241.44
340.018	251.44
340.246	288.44
340.474	333.44
340.702	323.44
340.93	338.44
341.158	301.44
341.386	227.44
341.614	227.44
341.842	283.44
342.07	320.44
342.298	364.44
342.526	312.44
342.754	239.44
342.981	235.44
343.209	274.44
343.437	285.44
343.665	250.44
343.893	231.44
344.12	222.44
344.348	209.44
344.576	214.44
344.804	209.44
345.031	213.44
345.259	209.44
345.487	202.44
345.714	226.44
345.942	224.44
346.17	207.44
346.397	189.44
346.625	179.44
346.853	196.44
347.08	197.44
347.308	188.44
347.535	192.44
347.763	173.44
347.99	192.44
348.218	189.44
348.445	167.44
348.673	184.44
348.9	197.44
349.128	194.44
349.355	177.44
349.583	191.44
349.81	186.44
350.037	179.44
350.265	178.44
350.492	179.44
350.72	194.44
350.947	171.44
351.174	193.44
351.402	190.44
351.629	201.44
351.856	187.44
352.083	168.44
352.311	177.44
352.538	175.44
352.765	186.44
352.992	200.44
353.22	198.44
353.447	164.44
353.674	168.44
353.901	194.44
354.128	173.44
354.355	193.44
354.583	182.44
354.81	177.44
355.037	190.44
355.264	206.44
355.491	203.44
355.718	197.44
355.945	189.44
356.172	201.44
356.399	205.44
356.626	200.44
356.853	204.44
357.08	234.44
357.307	244.44
357.534	278.44
357.761	319.44
357.988	337.44
358.215	302.44
358.441	283.44
358.668	267.44
358.895	246.44
359.122	263.44
359.349	321.44
359.576	311.44
359.802	237.44
360.029	242.44
360.256	243.44
360.483	297.44
360.709	291.44
360.936	235.44
361.163	204.44
361.39	209.44
361.616	203.44
361.843	188.44
362.07	177.44
362.296	191.44
362.523	197.44
362.749	189.44
362.976	197.44
363.203	219.44
363.429	209.44
363.656	204.44
363.882	225.44
364.109	218.44
364.335	200.44
364.562	200.44
364.788	204.44
365.015	203.44
365.241	211.44
365.468	219.44
365.694	207.44
365.92	198.44
366.147	191.44
366.373	200.44
366.599	200.44
366.826	213.44
367.052	191.44
367.278	215.44
367.505	205.44
367.731	199.44
367.957	213.44
368.184	189.44
368.41	196.44
368.636	199.44
368.862	204.44
369.089	191.44
369.315	187.44
369.541	201.44
369.767	180.44
369.993	197.44
370.219	187.44
370.445	185.44
370.672	184.44
370.898	179.44
371.124	187.44
371.35	200.44
371.576	209.44
371.802	222.44
372.028	191.44
372.254	206.44
372.48	195.44
372.706	189.44
372.932	200.44
373.158	201.44
373.384	196.44
373.61	194.44
373.835	206.44
374.061	198.44
374.287	223.44
374.513	232.44
374.739	203.44
374.965	214.44
375.191	198.44
375.416	203.44
375.642	191.44
375.868	201.44
376.094	190.44
376.319	195.44
376.545	182.44
376.771	177.44
376.997	185.44
377.222	174.44
377.448	177.44
377.674	189.44
377.899	174.44
378.125	193.44
378.35	188.44
378.576	178.44
378.802	207.44
379.027	191.44
379.253	218.44
379.478	199.44
379.704	212.44
379.929	215.44
380.155	207.44
380.38	199.44
380.606	212.44
380.831	211.44
381.057	208.44
381.282	201.44
381.507	208.44
381.733	219.44
381.958	209.44
382.184	210.44
382.409	201.44
382.634	209.44
382.86	206.44
383.085	215.44
383.31	199.44
383.535	205.44
383.761	199.44
383.986	209.44
384.211	216.44
384.436	217.44
384.662	214.44
384.887	228.44
385.112	248.44
385.337	238.44
385.562	225.44
385.787	236.44
386.013	224.44
386.238	225.44
386.463	226.44
386.688	223.44
386.913	227.44
387.138	214.44
387.363	208.44
387.588	220.44
387.813	199.44
388.038	220.44
388.263	222.44
388.488	241.44
388.713	234.44
388.938	208.44
389.163	185.44
389.387	218.44
389.612	215.44
389.837	205.44
390.062	195.44
390.287	214.44
390.512	214.44
390.736	207.44
390.961	221.44
391.186	230.44
391.411	217.44
391.636	215.44
391.86	226.44
392.085	234.44
392.31	221.44
392.534	209.44
392.759	188.44
392.984	188.44
393.208	194.44
393.433	208.44
393.658	213.44
393.882	184.44
394.107	202.44
394.331	205.44
394.556	210.44
394.78	199.44
395.005	195.44
395.229	195.44
395.454	198.44
395.678	191.44
395.903	222.44
396.127	235.44
396.352	271.44
396.576	267.44
396.801	258.44
397.025	266.44
397.249	243.44
397.474	243.44
397.698	236.44
397.922	241.44
398.147	230.44
398.371	247.44
398.595	255.44
398.82	253.44
399.044	268.44
399.268	279.44
399.492	263.44
399.717	249.44
399.941	259.44
400.165	247.44
400.389	244.44
400.613	231.44
400.837	232.44
401.062	230.44
401.286	241.44
401.51	235.44
401.734	205.44
401.958	229.44
402.182	228.44
402.406	227.44
402.63	227.44
402.854	232.44
403.078	211.44
403.302	233.44
403.526	227.44
403.75	228.44
403.974	240.44
404.198	250.44
404.422	229.44
404.645	233.44
404.869	222.44
405.093	243.44
405.317	235.44
405.541	232.44
405.765	239.44
405.988	231.44
406.212	231.44
406.436	204.44
406.66	227.44
406.883	237.44
407.107	233.44
407.331	239.44
407.555	264.44
407.778	235.44
408.002	246.44
408.226	237.44
408.449	242.44
408.673	224.44
408.896	227.44
409.12	218.44
409.344	239.44
409.567	222.44
409.791	241.44
410.014	227.44
410.238	226.44
410.461	211.44
410.685	230.44
410.908	239.44
411.132	239.44
411.355	222.44
411.578	222.44
411.802	217.44
412.025	228.44
412.249	226.44
412.472	220.44
412.695	259.44
412.919	243.44
413.142	214.44
413.365	237.44
413.589	228.44
413.812	212.44
414.035	227.44
414.258	203.44
414.482	207.44
414.705	206.44
414.928	218.44
415.151	240.44
415.374	226.44
415.597	216.44
415.821	210.44
416.044	188.44
416.267	233.44
416.49	232.44
416.713	217.44
416.936	225.44
417.159	213.44
417.382	211.44
417.605	216.44
417.828	220.44
418.051	215.44
418.274	227.44
418.497	213.44
418.72	210.44
418.943	215.44
419.166	222.44
419.389	262.44
419.611	239.44
419.834	231.44
420.057	230.44
420.28	219.44
420.503	211.44
420.726	203.44
420.948	232.44
421.171	215.44
421.394	212.44
421.617	193.44
421.839	205.44
422.062	196.44
422.285	219.44
422.507	203.44
422.73	217.44
422.953	213.44
423.175	217.44
423.398	226.44
423.621	222.44
423.843	225.44
424.066	222.44
424.288	214.44
424.511	228.44
424.733	225.44
424.956	213.44
425.178	272.44
425.401	349.44
425.623	386.44
425.846	273.44
426.068	247.44
426.291	248.44
426.513	238.44
426.735	226.44
426.958	247.44
427.18	260.44
427.402	319.44
427.625	375.44
427.847	293.44
428.069	237.44
428.292	229.44
428.514	241.44
428.736	229.44
428.958	309.44
429.181	319.44
429.403	235.44
429.625	221.44
429.847	229.44
430.069	230.44
430.292	229.44
430.514	204.44
430.736	215.44
430.958	212.44
431.18	194.44
431.402	201.44
431.624	202.44
431.846	195.44
432.068	211.44
432.29	225.44
432.512	221.44
432.734	211.44
432.956	213.44
433.178	209.44
433.4	226.44
433.622	230.44
433.844	254.44
434.066	277.44
434.287	259.44
434.509	263.44
434.731	251.44
434.953	241.44
435.175	267.44
435.397	259.44
435.618	210.44
435.84	219.44
436.062	213.44
436.284	218.44
436.505	215.44
436.727	198.44
436.949	201.44
437.17	223.44
437.392	220.44
437.614	212.44
437.835	204.44
438.057	212.44
438.278	201.44
438.5	203.44
438.721	209.44
438.943	219.44
439.165	205.44
439.386	193.44
439.608	201.44
439.829	208.44
440.05	208.44
440.272	208.44
440.493	207.44
440.715	198.44
440.936	203.44
441.158	211.44
441.379	202.44
441.6	220.44
441.822	211.44
442.043	214.44
442.264	218.44
442.486	220.44
442.707	216.44
442.928	216.44
443.149	217.44
443.371	213.44
443.592	235.44
443.813	213.44
444.034	223.44
444.255	209.44
444.476	201.44
444.698	215.44
444.919	226.44
445.14	297.44
445.361	254.44
445.582	220.44
445.803	208.44
446.024	232.44
446.245	212.44
446.466	229.44
446.687	219.44
446.908	195.44
447.129	209.44
447.35	226.44
447.571	216.44
447.792	201.44
448.013	201.44
448.234	182.44
448.455	195.44
448.675	210.44
448.896	203.44
449.117	220.44
449.338	201.44
449.559	201.44
449.779	223.44
450	250.44
450.221	209.44
450.442	202.44
450.662	204.44
450.883	226.44
451.104	215.44
451.324	209.44
451.545	211.44
451.766	230.44
451.986	204.44
452.207	202.44
452.428	205.44
452.648	212.44
452.869	230.44
453.089	221.44
453.31	209.44
453.53	200.44
453.751	221.44
453.971	221.44
454.192	220.44
454.412	217.44
454.633	206.44
454.853	221.44
455.073	172.44
455.294	191.44
455.514	201.44
455.734	222.44
455.955	231.44
456.175	218.44
456.395	217.44
456.616	197.44
456.836	190.44
457.056	216.44
457.276	204.44
457.497	191.44
457.717	187.44
457.937	197.44
458.157	199.44
458.377	207.44
458.598	185.44
458.818	214.44
459.038	229.44
459.258	215.44
459.478	237.44
459.698	221.44
459.918	239.44
460.138	237.44
460.358	235.44
460.578	223.44
460.798	214.44
461.018	217.44
461.238	205.44
461.458	254.44
461.678	258.44
461.898	254.44
462.118	260.44
462.338	235.44
462.558	246.44
462.777	250.44
462.997	252.44
463.217	239.44
463.437	264.44
463.657	244.44
463.876	235.44
464.096	257.44
464.316	237.44
464.536	249.44
464.755	295.44
464.975	267.44
465.195	245.44
465.414	253.44
465.634	223.44
465.854	203.44
466.073	198.44
466.293	212.44
466.512	214.44
466.732	224.44
466.951	213.44
467.171	227.44
467.391	187.44
467.61	199.44
467.829	198.44
468.049	205.44
468.268	194.44
468.488	203.44
468.707	202.44
468.927	204.44
469.146	217.44
469.365	205.44
469.585	197.44
469.804	206.44
470.023	233.44
470.243	205.44
470.462	203.44
470.681	191.44
470.901	216.44
471.12	221.44
471.339	199.44
471.558	217.44
471.777	229.44
471.997	214.44
472.216	220.44
472.435	201.44
472.654	219.44
472.873	221.44
473.092	235.44
473.311	227.44
473.53	214.44
473.749	202.44
473.968	213.44
474.187	200.44
474.406	214.44
474.625	193.44
474.844	205.44
475.063	194.44
475.282	209.44
475.501	221.44
475.72	237.44
475.939	232.44
476.158	201.44
476.377	197.44
476.596	227.44
476.814	222.44
477.033	222.44
477.252	201.44
477.471	214.44
477.69	223.44
477.908	199.44
478.127	214.44
478.346	213.44
478.564	231.44
478.783	218.44
479.002	249.44
479.22	242.44
479.439	234.44
479.658	230.44
479.876	233.44
480.095	257.44
480.313	257.44
480.532	222.44
480.751	226.44
480.969	220.44
481.188	219.44
481.406	233.44
481.624	223.44
481.843	228.44
482.061	227.44
482.28	230.44
482.498	233.44
482.717	234.44
482.935	214.44
483.153	252.44
483.372	216.44
483.59	206.44
483.808	228.44
484.027	233.44
484.245	235.44
484.463	215.44
484.681	226.44
484.9	239.44
485.118	257.44
485.336	236.44
485.554	230.44
485.772	219.44
485.99	231.44
486.209	241.44
486.427	266.44
486.645	245.44
486.863	249.44
487.081	242.44
487.299	252.44
487.517	246.44
487.735	243.44
487.953	233.44
488.171	240.44
488.389	229.44
488.607	244.44
488.825	284.44
489.043	254.44
489.261	241.44
489.479	244.44
489.696	227.44
489.914	242.44
490.132	242.44
490.35	241.44
490.568	244.44
490.786	243.44
491.003	240.44
491.221	229.44
491.439	242.44
491.657	231.44
491.874	235.44
492.092	257.44
492.31	290.44
492.527	284.44
492.745	250.44
492.963	250.44
493.18	253.44
493.398	252.44
493.615	244.44
493.833	292.44
494.05	250.44
494.268	261.44
494.485	245.44
494.703	226.44
494.92	233.44
495.138	239.44
495.355	255.44
495.573	260.44
495.79	269.44
496.008	242.44
496.225	237.44
496.442	251.44
496.66	250.44
496.877	233.44
497.094	251.44
497.312	254.44
497.529	251.44
497.746	269.44
497.963	277.44
498.181	262.44
498.398	282.44
498.615	290.44
498.832	303.44
499.049	307.44
499.267	308.44
499.484	332.44
499.701	351.44
499.918	359.44
500.135	373.44
500.352	353.44
500.569	384.44
500.786	374.44
501.003	366.44
501.22	353.44
501.437	351.44
501.654	337.44
501.871	316.44
502.088	277.44
502.305	283.44
502.522	292.44
502.739	294.44
502.956	270.44
503.172	285.44
503.389	271.44
503.606	258.44
503.823	277.44
504.04	277.44
504.256	263.44
504.473	273.44
504.69	266.44
504.907	265.44
505.123	268.44
505.34	258.44
505.557	260.44
505.773	239.44
505.99	244.44
506.207	253.44
506.423	247.44
506.64	244.44
506.856	217.44
507.073	231.44
507.289	225.44
507.506	220.44
507.722	220.44
507.939	222.44
508.155	217.44
508.372	229.44
508.588	226.44
508.805	238.44
509.021	219.44
509.238	218.44
509.454	210.44
509.67	213.44
509.887	234.44
510.103	215.44
510.319	221.44
510.536	221.44
510.752	212.44
510.968	238.44
511.184	212.44
511.401	224.44
511.617	212.44
511.833	208.44
512.049	208.44
512.265	230.44
512.481	238.44
512.698	242.44
512.914	227.44
513.13	213.44
513.346	204.44
513.562	226.44
513.778	221.44
513.994	235.44
514.21	231.44
514.426	226.44
514.642	226.44
514.858	236.44
515.074	213.44
515.29	214.44
515.506	214.44
515.721	218.44
515.937	231.44
516.153	227.44
516.369	238.44
516.585	236.44
516.801	257.44
517.016	251.44
517.232	250.44
517.448	254.44
517.664	233.44
517.879	245.44
518.095	243.44
518.311	266.44
518.527	245.44
518.742	250.44
518.958	238.44
519.173	253.44
519.389	246.44
519.605	264.44
519.82	271.44
520.036	272.44
520.251	293.44
520.467	445.44
520.682	838.44
520.898	887.44
521.113	680.44
521.329	333.44
521.544	270.44
521.76	246.44
521.975	245.44
522.19	237.44
522.406	249.44
522.621	278.44
522.836	273.44
523.052	231.44
523.267	218.44
523.482	210.44
523.698	220.44
523.913	249.44
524.128	244.44
524.343	244.44
524.559	239.44
524.774	244.44
524.989	268.44
525.204	219.44
525.419	240.44
525.634	229.44
525.849	233.44
526.064	219.44
526.28	239.44
526.495	273.44
526.71	329.44
526.925	237.44
527.14	237.44
527.355	243.44
527.57	290.44
527.785	323.44
527.999	249.44
528.214	237.44
528.429	229.44
528.644	235.44
528.859	228.44
529.074	231.44
529.289	234.44
529.503	252.44
529.718	299.44
529.933	446.44
530.148	341.44
530.363	250.44
530.577	238.44
530.792	243.44
531.007	244.44
531.221	227.44
531.436	221.44
531.651	230.44
531.865	227.44
532.08	235.44
532.295	246.44
532.509	249.44
532.724	261.44
532.938	341.44
533.153	353.44
533.367	296.44
533.582	276.44
533.796	261.44
534.011	255.44
534.225	247.44
534.44	270.44
534.654	365.44
534.868	378.44
535.083	327.44
535.297	245.44
535.511	281.44
535.726	297.44
535.94	268.44
536.154	237.44
536.369	247.44
536.583	225.44
536.797	229.44
537.011	203.44
537.225	222.44
537.44	228.44
537.654	230.44
537.868	247.44
538.082	254.44
538.296	223.44
538.51	247.44
538.724	244.44
538.938	241.44
539.153	238.44
539.367	227.44
539.581	251.44
539.795	270.44
540.009	259.44
540.222	237.44
540.436	245.44
540.65	239.44
540.864	255.44
541.078	360.44
541.292	333.44
541.506	228.44
541.72	235.44
541.934	230.44
542.147	225.44
542.361	237.44
542.575	225.44
542.789	219.44
543.002	215.44
543.216	223.44
543.43	217.44
543.644	219.44
543.857	222.44
544.071	222.44
544.285	226.44
544.498	215.44
544.712	233.44
544.925	231.44
545.139	229.44
545.352	212.44
545.566	212.44
545.779	218.44
545.993	228.44
546.206	218.44
546.42	210.44
546.633	214.44
546.847	213.44
547.06	192.44
547.274	205.44
547.487	206.44
547.7	221.44
547.914	232.44
548.127	217.44
548.34	213.44
548.554	229.44
548.767	212.44
548.98	209.44
549.193	233.44
549.407	225.44
549.62	204.44
549.833	227.44
550.046	229.44
550.259	244.44
550.473	236.44
550.686	241.44
550.899	236.44
551.112	218.44
551.325	227.44
551.538	215.44
551.751	233.44
551.964	243.44
552.177	270.44
552.39	247.44
552.603	248.44
552.816	239.44
553.029	224.44
553.242	241.44
553.455	254.44
553.667	252.44
553.88	244.44
554.093	229.44
554.306	210.44
554.519	225.44
554.732	220.44
554.944	197.44
555.157	227.44
555.37	208.44
555.583	201.44
555.795	212.44
556.008	215.44
556.221	204.44
556.433	205.44
556.646	215.44
556.859	220.44
557.071	208.44
557.284	221.44
557.496	224.44
557.709	212.44
557.921	224.44
558.134	214.44
558.346	205.44
558.559	225.44
558.771	208.44
558.984	203.44
559.196	205.44
559.409	197.44
559.621	205.44
559.833	195.44
560.046	218.44
560.258	218.44
560.47	207.44
560.683	218.44
560.895	199.44
561.107	190.44
561.32	189.44
561.532	188.44
561.744	201.44
561.956	185.44
562.168	203.44
562.381	205.44
562.593	210.44
562.805	195.44
563.017	197.44
563.229	211.44
563.441	190.44
563.653	205.44
563.865	210.44
564.077	195.44
564.289	198.44
564.501	212.44
564.713	229.44
564.925	205.44
565.137	225.44
565.349	196.44
565.561	192.44
565.773	212.44
565.985	205.44
566.197	224.44
566.408	247.44
566.62	238.44
566.832	232.44
567.044	243.44
567.255	277.44
567.467	258.44
567.679	228.44
567.891	234.44
568.102	235.44
568.314	247.44
568.526	246.44
568.737	232.44
568.949	226.44
569.161	221.44
569.372	203.44
569.584	198.44
569.795	199.44
570.007	219.44
570.218	215.44
570.43	194.44
570.641	212.44
570.853	210.44
571.064	201.44
571.276	205.44
571.487	226.44
571.698	189.44
571.91	209.44
572.121	187.44
572.333	201.44
572.544	181.44
572.755	209.44
572.966	196.44
573.178	204.44
573.389	216.44
573.6	195.44
573.811	202.44
574.023	181.44
574.234	189.44
574.445	172.44
574.656	173.44
574.867	174.44
575.078	174.44
575.289	164.44
575.501	204.44
575.712	183.44
575.923	176.44
576.134	165.44
576.345	178.44
576.556	165.44
576.767	182.44
576.978	159.44
577.188	159.44
577.399	163.44
577.61	171.44
577.821	154.44
578.032	169.44
578.243	179.44
578.454	186.44
578.665	183.44
578.875	192.44
579.086	201.44
579.297	216.44
579.508	178.44
579.718	202.44
579.929	188.44
580.14	166.44
580.35	157.44
580.561	164.44
580.772	167.44
580.982	152.44
581.193	161.44
581.403	164.44
581.614	143.44
581.825	154.44
582.035	155.44
582.246	141.44
582.456	142.44
582.667	154.44
582.877	155.44
583.087	143.44
583.298	167.44
583.508	144.44
583.719	152.44
583.929	147.44
584.139	149.44
584.35	150.44
584.56	156.44
584.77	152.44
584.981	162.44
585.191	158.44
585.401	152.44
585.611	177.44
585.821	151.44
586.032	167.44
586.242	138.44
586.452	157.44
586.662	165.44
586.872	150.44
587.082	152.44
587.292	147.44
587.502	144.44
587.713	135.44
587.923	155.44
588.133	147.44
588.343	156.44
588.553	149.44
588.762	148.44
588.972	157.44
589.182	133.44
589.392	147.44
589.602	145.44
589.812	145.44
590.022	170.44
590.232	124.44
590.441	146.44
590.651	151.44
590.861	139.44
591.071	131.44
591.281	146.44
591.49	144.44
591.7	149.44
591.91	154.44
592.119	133.44
592.329	143.44
592.539	147.44
592.748	142.44
592.958	139.44
593.167	143.44
593.377	153.44
593.587	161.44
593.796	156.44
594.006	150.44
594.215	156.44
594.424	142.44
594.634	154.44
594.843	135.44
595.053	141.44
595.262	156.44
595.472	148.44
595.681	137.44
595.89	147.44
596.1	146.44
596.309	148.44
596.518	140.44
596.727	132.44
596.937	127.44
597.146	155.44
597.355	161.44
597.564	143.44
597.774	130.44
597.983	141.44
598.192	135.44
598.401	130.44
598.61	131.44
598.819	126.44
599.028	135.44
599.237	129.44
599.446	131.44
599.655	126.44
599.864	131.44
600.073	130.44
600.282	136.44
600.491	140.44
600.7	117.44
600.909	124.44
601.118	131.44
601.327	122.44
601.536	131.44
601.745	138.44
601.953	117.44
602.162	120.44
602.371	106.44
602.58	116.44
602.789	123.44
602.997	140.44
603.206	140.44
603.415	135.44
603.623	120.44
603.832	123.44
604.041	140.44
604.249	106.44
604.458	117.44
604.666	141.44
604.875	126.44
605.084	116.44
605.292	123.44
605.501	117.44
605.709	135.44
605.918	125.44
606.126	118.44
606.334	129.44
606.543	127.44
606.751	143.44
606.96	127.44
607.168	131.44
607.376	120.44
607.585	134.44
607.793	125.44
608.001	130.44
608.21	122.44
608.418	123.44
608.626	115.44
608.834	123.44
609.043	131.44
609.251	118.44
609.459	131.44
609.667	109.44
609.875	118.44
610.083	145.44
610.291	142.44
610.499	130.44
610.707	125.44
610.916	128.44
611.124	125.44
611.332	119.44
611.54	130.44
611.748	118.44
611.955	128.44
612.163	126.44
612.371	134.44
612.579	123.44
612.787	126.44
612.995	130.44
613.203	123.44
613.411	123.44
613.618	128.44
613.826	130.44
614.034	125.44
614.242	129.44
614.449	131.44
614.657	113.44
614.865	122.44
615.072	113.44
615.28	124.44
615.488	119.44
615.695	142.44
615.903	133.44
616.111	121.44
616.318	130.44
616.526	132.44
616.733	113.44
616.941	125.44
617.148	123.44
617.356	122.44
617.563	122.44
617.771	139.44
617.978	130.44
618.185	116.44
618.393	117.44
618.6	124.44
618.807	115.44
619.015	143.44
619.222	127.44
619.429	115.44
619.637	128.44
619.844	134.44
620.051	129.44
620.258	134.44
620.466	126.44
620.673	120.44
620.88	124.44
621.087	105.44
621.294	111.44
621.501	113.44
621.708	119.44
621.915	119.44
622.122	125.44
622.329	134.44
622.536	116.44
622.743	115.44
622.95	108.44
623.157	115.44
623.364	123.44
623.571	128.44
623.778	129.44
623.985	127.44
624.192	135.44
624.399	129.44
624.606	125.44
624.812	118.44
625.019	119.44
625.226	140.44
625.433	117.44
625.639	119.44
625.846	124.44
626.053	111.44
626.259	122.44
626.466	131.44
626.673	133.44
626.879	124.44
627.086	128.44
627.293	127.44
627.499	111.44
627.706	108.44
627.912	105.44
628.119	100.44
628.325	114.44
628.532	114.44
628.738	101.44
628.945	113.44
629.151	107.44
629.357	115.44
629.564	114.44
629.77	121.44
629.976	95.44
630.183	108.44
630.389	93.44
630.595	103.44
630.802	113.44
631.008	109.44
631.214	93.44
631.42	103.44
631.627	122.44
631.833	104.44
632.039	105.44
632.245	106.44
632.451	105.44
632.657	117.44
632.863	102.44
633.069	99.44
633.275	102.44
633.481	97.44
633.688	99.44
633.893	94.44
634.099	105.44
634.305	97.44
634.511	110.44
634.717	108.44
634.923	91.44
635.129	105.44
635.335	91.44
635.541	115.44
635.747	110.44
635.952	113.44
636.158	107.44
636.364	106.44
636.57	121.44
636.775	98.44
636.981	114.44
637.187	110.44
637.392	98.44
637.598	102.44
637.804	119.44
638.009	98.44
638.215	98.44
638.421	119.44
638.626	92.44
638.832	110.44
639.037	82.44
639.243	101.44
639.448	108.44
639.654	109.44
639.859	103.44
640.065	106.44
640.27	125.44
640.475	113.44
640.681	99.44
640.886	83.44
641.091	99.44
641.297	113.44
641.502	105.44
641.707	113.44
641.913	102.44
642.118	105.44
642.323	105.44
642.528	104.44
642.733	110.44
642.939	102.44
643.144	100.44
643.349	103.44
643.554	106.44
643.759	103.44
643.964	105.44
644.169	105.44
644.374	105.44
644.579	102.44
644.784	120.44
644.989	108.44
645.194	114.44
645.399	104.44
645.604	99.44
645.809	114.44
646.014	95.44
646.219	106.44
646.423	111.44
646.628	93.44
646.833	100.44
647.038	107.44
647.243	100.44
647.447	90.44
647.652	101.44
647.857	111.44
648.062	101.44
648.266	105.44
648.471	112.44
648.676	107.44
648.88	111.44
649.085	103.44
649.289	111.44
649.494	104.44
649.698	103.44
649.903	108.44
650.107	102.44
650.312	93.44
650.516	104.44
650.721	103.44
650.925	90.44
651.13	98.44
651.334	89.44
651.539	89.44
651.743	87.44
651.947	79.44
652.152	101.44
652.356	102.44
652.56	91.44
652.764	90.44
652.969	103.44
653.173	84.44
653.377	92.44
653.581	100.44
653.785	97.44
653.99	87.44
654.194	105.44
654.398	105.44
654.602	98.44
654.806	100.44
655.01	97.44
655.214	107.44
655.418	100.44
655.622	87.44
655.826	113.44
656.03	91.44
656.234	109.44
656.438	91.44
656.642	104.44
656.846	101.44
657.049	97.44
657.253	86.44
657.457	94.44
657.661	94.44
657.865	92.44
658.068	98.44
658.272	99.44
658.476	85.44
658.68	84.44
658.883	78.44
659.087	83.44
659.291	103.44
659.494	77.44
659.698	74.44
659.901	101.44
660.105	86.44
660.309	80.44
660.512	86.44
660.716	78.44
660.919	93.44
661.123	86.44
661.326	74.44
661.53	79.44
661.733	82.44
661.936	78.44
662.14	71.44
662.343	76.44
662.546	77.44
662.75	87.44
662.953	82.44
663.156	96.44
663.36	71.44
663.563	94.44
663.766	73.44
663.969	76.44
664.173	73.44
664.376	78.44
664.579	67.44
664.782	66.44
664.985	84.44
665.188	89.44
665.391	81.44
665.594	80.44
665.797	79.44
666	84.44
666.203	92.44
666.406	73.44
666.609	89.44
666.812	72.44
667.015	76.44
667.218	79.44
667.421	72.44
667.624	78.44
667.827	69.44
668.03	78.44
668.232	84.44
668.435	80.44
668.638	74.44
668.841	80.44
669.043	86.44
669.246	89.44
669.449	73.44
669.651	70.44
669.854	76.44
670.057	84.44
670.259	76.44
670.462	77.44
670.665	90.44
670.867	73.44
671.07	76.44
671.272	96.44
671.475	63.44
671.677	73.44
671.88	64.44
672.082	68.44
672.284	69.44
672.487	93.44
672.689	81.44
672.892	66.44
