Data from Circ_2010_H10_HRD10591_00060.txt Node
Date: Wed Jan 03 10:09:53 EST 2024
User: Yrep
Spectrometer: HR+D1059
Trigger mode: 1
Integration Time (sec): 1.000000E-1
Scans to average: 1
Electric dark correction enabled: true
Nonlinearity correction enabled: false
Boxcar width: 0
XAxis mode: Wavelengths
Number of Pixels in Spectrum: 2048
>>>>>Begin Spectral Data<<<<<
223.165	-20.06
223.4	-20.06
223.635	-20.06
223.869	-24.06
224.104	-18.06
224.338	-4.06
224.573	-27.06
224.808	-13.06
225.042	-12.06
225.277	-11.06
225.511	-6.06
225.746	5.94
225.98	6.94
226.215	29.94
226.449	20.94
226.683	16.94
226.918	21.94
227.152	32.94
227.387	37.94
227.621	32.94
227.856	46.94
228.09	44.94
228.324	59.94
228.559	65.94
228.793	58.94
229.027	56.94
229.262	73.94
229.496	82.94
229.73	83.94
229.964	86.94
230.199	63.94
230.433	80.94
230.667	77.94
230.901	68.94
231.136	85.94
231.37	92.94
231.604	70.94
231.838	71.94
232.072	80.94
232.306	91.94
232.541	77.94
232.775	79.94
233.009	71.94
233.243	64.94
233.477	79.94
233.711	75.94
233.945	74.94
234.179	77.94
234.413	71.94
234.647	63.94
234.881	91.94
235.115	84.94
235.349	79.94
235.583	85.94
235.817	80.94
236.051	87.94
236.285	87.94
236.519	86.94
236.753	93.94
236.987	79.94
237.221	93.94
237.455	67.94
237.689	56.94
237.922	76.94
238.156	74.94
238.39	79.94
238.624	82.94
238.858	63.94
239.091	72.94
239.325	91.94
239.559	74.94
239.793	79.94
240.027	71.94
240.26	77.94
240.494	82.94
240.728	71.94
240.961	67.94
241.195	78.94
241.429	82.94
241.662	88.94
241.896	82.94
242.13	53.94
242.363	60.94
242.597	79.94
242.83	64.94
243.064	74.94
243.298	88.94
243.531	87.94
243.765	77.94
243.998	78.94
244.232	85.94
244.465	70.94
244.699	75.94
244.932	74.94
245.166	70.94
245.399	80.94
245.633	69.94
245.866	75.94
246.099	63.94
246.333	92.94
246.566	63.94
246.8	61.94
247.033	89.94
247.266	73.94
247.5	63.94
247.733	82.94
247.966	95.94
248.2	73.94
248.433	88.94
248.666	83.94
248.899	79.94
249.133	84.94
249.366	96.94
249.599	95.94
249.832	84.94
250.066	84.94
250.299	71.94
250.532	86.94
250.765	83.94
250.998	69.94
251.231	74.94
251.465	73.94
251.698	76.94
251.931	91.94
252.164	74.94
252.397	74.94
252.63	85.94
252.863	78.94
253.096	82.94
253.329	82.94
253.562	79.94
253.795	92.94
254.028	86.94
254.261	82.94
254.494	79.94
254.727	67.94
254.96	84.94
255.193	79.94
255.426	78.94
255.659	80.94
255.892	77.94
256.124	78.94
256.357	73.94
256.59	77.94
256.823	73.94
257.056	86.94
257.289	79.94
257.521	74.94
257.754	78.94
257.987	85.94
258.22	87.94
258.452	84.94
258.685	90.94
258.918	78.94
259.151	69.94
259.383	86.94
259.616	84.94
259.849	82.94
260.081	75.94
260.314	73.94
260.547	62.94
260.779	82.94
261.012	89.94
261.244	91.94
261.477	93.94
261.71	96.94
261.942	107.94
262.175	111.94
262.407	78.94
262.64	68.94
262.872	78.94
263.105	97.94
263.337	82.94
263.57	87.94
263.802	77.94
264.035	79.94
264.267	81.94
264.499	73.94
264.732	78.94
264.964	83.94
265.197	88.94
265.429	90.94
265.661	95.94
265.894	87.94
266.126	76.94
266.358	74.94
266.591	83.94
266.823	90.94
267.055	60.94
267.287	76.94
267.52	86.94
267.752	89.94
267.984	79.94
268.216	84.94
268.448	86.94
268.681	74.94
268.913	82.94
269.145	95.94
269.377	100.94
269.609	88.94
269.841	85.94
270.073	78.94
270.306	62.94
270.538	85.94
270.77	75.94
271.002	84.94
271.234	78.94
271.466	94.94
271.698	81.94
271.93	74.94
272.162	86.94
272.394	80.94
272.626	93.94
272.858	86.94
273.09	80.94
273.322	91.94
273.553	81.94
273.785	89.94
274.017	84.94
274.249	89.94
274.481	78.94
274.713	75.94
274.945	82.94
275.176	87.94
275.408	70.94
275.64	84.94
275.872	66.94
276.104	75.94
276.335	95.94
276.567	102.94
276.799	109.94
277.031	130.94
277.262	108.94
277.494	78.94
277.726	83.94
277.957	88.94
278.189	72.94
278.421	81.94
278.652	96.94
278.884	86.94
279.115	80.94
279.347	70.94
279.579	88.94
279.81	97.94
280.042	107.94
280.273	104.94
280.505	88.94
280.736	81.94
280.968	97.94
281.199	98.94
281.431	101.94
281.662	76.94
281.894	91.94
282.125	89.94
282.356	110.94
282.588	139.94
282.819	122.94
283.051	104.94
283.282	79.94
283.513	94.94
283.745	88.94
283.976	74.94
284.207	80.94
284.439	83.94
284.67	80.94
284.901	72.94
285.132	73.94
285.364	95.94
285.595	85.94
285.826	80.94
286.057	92.94
286.288	92.94
286.52	83.94
286.751	93.94
286.982	85.94
287.213	103.94
287.444	78.94
287.675	85.94
287.906	93.94
288.138	90.94
288.369	96.94
288.6	98.94
288.831	90.94
289.062	77.94
289.293	85.94
289.524	75.94
289.755	79.94
289.986	85.94
290.217	79.94
290.448	88.94
290.679	80.94
290.91	92.94
291.141	94.94
291.371	103.94
291.602	97.94
291.833	84.94
292.064	92.94
292.295	91.94
292.526	86.94
292.757	77.94
292.987	93.94
293.218	83.94
293.449	93.94
293.68	98.94
293.91	93.94
294.141	92.94
294.372	72.94
294.603	70.94
294.833	79.94
295.064	90.94
295.295	87.94
295.525	95.94
295.756	109.94
295.987	102.94
296.217	140.94
296.448	118.94
296.679	83.94
296.909	104.94
297.14	92.94
297.37	86.94
297.601	94.94
297.831	97.94
298.062	79.94
298.292	94.94
298.523	93.94
298.753	84.94
298.984	86.94
299.214	87.94
299.445	101.94
299.675	100.94
299.905	84.94
300.136	63.94
300.366	68.94
300.597	98.94
300.827	101.94
301.057	95.94
301.288	97.94
301.518	75.94
301.748	77.94
301.979	117.94
302.209	86.94
302.439	99.94
302.669	79.94
302.9	86.94
303.13	91.94
303.36	102.94
303.59	90.94
303.82	95.94
304.051	90.94
304.281	87.94
304.511	85.94
304.741	91.94
304.971	87.94
305.201	92.94
305.431	95.94
305.661	95.94
305.891	96.94
306.121	84.94
306.352	105.94
306.582	84.94
306.812	94.94
307.042	99.94
307.272	93.94
307.502	114.94
307.731	107.94
307.961	91.94
308.191	87.94
308.421	75.94
308.651	80.94
308.881	91.94
309.111	93.94
309.341	89.94
309.571	107.94
309.8	99.94
310.03	72.94
310.26	93.94
310.49	93.94
310.72	92.94
310.949	86.94
311.179	96.94
311.409	96.94
311.639	100.94
311.868	114.94
312.098	99.94
312.328	98.94
312.557	86.94
312.787	107.94
313.017	98.94
313.246	90.94
313.476	97.94
313.706	83.94
313.935	99.94
314.165	97.94
314.394	93.94
314.624	97.94
314.853	90.94
315.083	93.94
315.312	93.94
315.542	80.94
315.771	87.94
316.001	99.94
316.23	86.94
316.46	84.94
316.689	84.94
316.919	84.94
317.148	99.94
317.377	90.94
317.607	89.94
317.836	87.94
318.065	93.94
318.295	105.94
318.524	101.94
318.753	83.94
318.983	99.94
319.212	97.94
319.441	103.94
319.67	84.94
319.9	91.94
320.129	87.94
320.358	108.94
320.587	111.94
320.816	100.94
321.046	101.94
321.275	94.94
321.504	90.94
321.733	101.94
321.962	102.94
322.191	98.94
322.42	109.94
322.649	115.94
322.878	104.94
323.108	119.94
323.337	140.94
323.566	98.94
323.795	135.94
324.024	196.94
324.253	380.94
324.482	771.94
324.71	1609.94
324.939	2068.94
325.168	765.94
325.397	248.94
325.626	140.94
325.855	119.94
326.084	130.94
326.313	132.94
326.542	157.94
326.77	226.94
326.999	447.94
327.228	899.94
327.457	1575.94
327.686	1272.94
327.914	382.94
328.143	227.94
328.372	201.94
328.6	150.94
328.829	115.94
329.058	115.94
329.287	132.94
329.515	130.94
329.744	116.94
329.972	159.94
330.201	238.94
330.43	302.94
330.658	196.94
330.887	143.94
331.115	122.94
331.344	112.94
331.572	100.94
331.801	109.94
332.03	99.94
332.258	96.94
332.486	92.94
332.715	93.94
332.943	87.94
333.172	84.94
333.4	102.94
333.629	125.94
333.857	115.94
334.085	168.94
334.314	234.94
334.542	365.94
334.771	353.94
334.999	152.94
335.227	106.94
335.455	114.94
335.684	103.94
335.912	86.94
336.14	100.94
336.369	104.94
336.597	102.94
336.825	88.94
337.053	96.94
337.281	72.94
337.51	90.94
337.738	95.94
337.966	97.94
338.194	90.94
338.422	109.94
338.65	92.94
338.878	95.94
339.106	110.94
339.334	88.94
339.562	81.94
339.79	90.94
340.018	94.94
340.246	89.94
340.474	99.94
340.702	97.94
340.93	89.94
341.158	101.94
341.386	99.94
341.614	93.94
341.842	96.94
342.07	86.94
342.298	95.94
342.526	66.94
342.754	87.94
342.981	81.94
343.209	95.94
343.437	99.94
343.665	84.94
343.893	82.94
344.12	87.94
344.348	99.94
344.576	92.94
344.804	98.94
345.031	83.94
345.259	87.94
345.487	102.94
345.714	86.94
345.942	86.94
346.17	93.94
346.397	96.94
346.625	84.94
346.853	79.94
347.08	91.94
347.308	90.94
347.535	86.94
347.763	97.94
347.99	98.94
348.218	94.94
348.445	107.94
348.673	96.94
348.9	85.94
349.128	85.94
349.355	87.94
349.583	101.94
349.81	91.94
350.037	92.94
350.265	91.94
350.492	96.94
350.72	89.94
350.947	99.94
351.174	92.94
351.402	101.94
351.629	95.94
351.856	110.94
352.083	117.94
352.311	102.94
352.538	130.94
352.765	95.94
352.992	112.94
353.22	111.94
353.447	118.94
353.674	100.94
353.901	93.94
354.128	91.94
354.355	99.94
354.583	100.94
354.81	96.94
355.037	97.94
355.264	94.94
355.491	106.94
355.718	90.94
355.945	91.94
356.172	93.94
356.399	91.94
356.626	95.94
356.853	99.94
357.08	107.94
357.307	97.94
357.534	95.94
357.761	84.94
357.988	102.94
358.215	101.94
358.441	91.94
358.668	103.94
358.895	83.94
359.122	87.94
359.349	94.94
359.576	94.94
359.802	98.94
360.029	106.94
360.256	100.94
360.483	90.94
360.709	99.94
360.936	88.94
361.163	105.94
361.39	96.94
361.616	93.94
361.843	88.94
362.07	95.94
362.296	96.94
362.523	84.94
362.749	96.94
362.976	84.94
363.203	76.94
363.429	87.94
363.656	100.94
363.882	89.94
364.109	100.94
364.335	95.94
364.562	88.94
364.788	75.94
365.015	92.94
365.241	102.94
365.468	103.94
365.694	101.94
365.92	96.94
366.147	85.94
366.373	91.94
366.599	107.94
366.826	92.94
367.052	100.94
367.278	106.94
367.505	96.94
367.731	102.94
367.957	85.94
368.184	98.94
368.41	102.94
368.636	101.94
368.862	91.94
369.089	94.94
369.315	87.94
369.541	71.94
369.767	90.94
369.993	87.94
370.219	86.94
370.445	97.94
370.672	78.94
370.898	95.94
371.124	94.94
371.35	95.94
371.576	87.94
371.802	94.94
372.028	84.94
372.254	88.94
372.48	86.94
372.706	93.94
372.932	90.94
373.158	87.94
373.384	107.94
373.61	87.94
373.835	91.94
374.061	92.94
374.287	78.94
374.513	87.94
374.739	98.94
374.965	82.94
375.191	86.94
375.416	84.94
375.642	88.94
375.868	81.94
376.094	96.94
376.319	88.94
376.545	82.94
376.771	98.94
376.997	90.94
377.222	84.94
377.448	91.94
377.674	106.94
377.899	87.94
378.125	88.94
378.35	82.94
378.576	87.94
378.802	95.94
379.027	82.94
379.253	79.94
379.478	93.94
379.704	97.94
379.929	93.94
380.155	94.94
380.38	94.94
380.606	90.94
380.831	102.94
381.057	84.94
381.282	104.94
381.507	102.94
381.733	85.94
381.958	96.94
382.184	91.94
382.409	87.94
382.634	100.94
382.86	95.94
383.085	103.94
383.31	107.94
383.535	107.94
383.761	100.94
383.986	101.94
384.211	84.94
384.436	110.94
384.662	87.94
384.887	99.94
385.112	88.94
385.337	100.94
385.562	115.94
385.787	106.94
386.013	101.94
386.238	112.94
386.463	88.94
386.688	99.94
386.913	78.94
387.138	94.94
387.363	97.94
387.588	91.94
387.813	93.94
388.038	103.94
388.263	92.94
388.488	100.94
388.713	98.94
388.938	97.94
389.163	80.94
389.387	79.94
389.612	88.94
389.837	92.94
390.062	80.94
390.287	81.94
390.512	101.94
390.736	88.94
390.961	98.94
391.186	95.94
391.411	95.94
391.636	88.94
391.86	88.94
392.085	94.94
392.31	89.94
392.534	75.94
392.759	78.94
392.984	91.94
393.208	100.94
393.433	102.94
393.658	106.94
393.882	102.94
394.107	86.94
394.331	79.94
394.556	97.94
394.78	82.94
395.005	75.94
395.229	81.94
395.454	83.94
395.678	84.94
395.903	92.94
396.127	98.94
396.352	89.94
396.576	92.94
396.801	104.94
397.025	90.94
397.249	96.94
397.474	95.94
397.698	84.94
397.922	80.94
398.147	91.94
398.371	80.94
398.595	89.94
398.82	92.94
399.044	83.94
399.268	80.94
399.492	91.94
399.717	83.94
399.941	92.94
400.165	89.94
400.389	83.94
400.613	90.94
400.837	86.94
401.062	94.94
401.286	90.94
401.51	92.94
401.734	86.94
401.958	104.94
402.182	121.94
402.406	155.94
402.63	120.94
402.854	91.94
403.078	78.94
403.302	95.94
403.526	87.94
403.75	110.94
403.974	78.94
404.198	85.94
404.422	77.94
404.645	88.94
404.869	82.94
405.093	99.94
405.317	106.94
405.541	106.94
405.765	90.94
405.988	104.94
406.212	180.94
406.436	213.94
406.66	139.94
406.883	107.94
407.107	96.94
407.331	90.94
407.555	94.94
407.778	97.94
408.002	103.94
408.226	87.94
408.449	91.94
408.673	75.94
408.896	75.94
409.12	117.94
409.344	85.94
409.567	86.94
409.791	93.94
410.014	99.94
410.238	99.94
410.461	91.94
410.685	88.94
410.908	100.94
411.132	109.94
411.355	100.94
411.578	84.94
411.802	86.94
412.025	88.94
412.249	85.94
412.472	87.94
412.695	107.94
412.919	87.94
413.142	91.94
413.365	78.94
413.589	72.94
413.812	88.94
414.035	89.94
414.258	75.94
414.482	94.94
414.705	91.94
414.928	87.94
415.151	96.94
415.374	87.94
415.597	105.94
415.821	84.94
416.044	98.94
416.267	92.94
416.49	91.94
416.713	87.94
416.936	83.94
417.159	97.94
417.382	86.94
417.605	83.94
417.828	93.94
418.051	92.94
418.274	85.94
418.497	77.94
418.72	93.94
418.943	91.94
419.166	90.94
419.389	96.94
419.611	100.94
419.834	101.94
420.057	87.94
420.28	76.94
420.503	91.94
420.726	72.94
420.948	94.94
421.171	96.94
421.394	94.94
421.617	86.94
421.839	104.94
422.062	86.94
422.285	99.94
422.507	97.94
422.73	98.94
422.953	92.94
423.175	80.94
423.398	80.94
423.621	92.94
423.843	78.94
424.066	80.94
424.288	98.94
424.511	90.94
424.733	99.94
424.956	118.94
425.178	105.94
425.401	104.94
425.623	90.94
425.846	93.94
426.068	102.94
426.291	101.94
426.513	86.94
426.735	106.94
426.958	95.94
427.18	109.94
427.402	132.94
427.625	149.94
427.847	156.94
428.069	119.94
428.292	103.94
428.514	80.94
428.736	90.94
428.958	82.94
429.181	80.94
429.403	87.94
429.625	97.94
429.847	93.94
430.069	88.94
430.292	89.94
430.514	79.94
430.736	82.94
430.958	89.94
431.18	76.94
431.402	71.94
431.624	88.94
431.846	86.94
432.068	87.94
432.29	82.94
432.512	92.94
432.734	80.94
432.956	99.94
433.178	107.94
433.4	93.94
433.622	93.94
433.844	89.94
434.066	94.94
434.287	82.94
434.509	95.94
434.731	88.94
434.953	86.94
435.175	103.94
435.397	91.94
435.618	95.94
435.84	91.94
436.062	135.94
436.284	97.94
436.505	78.94
436.727	103.94
436.949	103.94
437.17	84.94
437.392	100.94
437.614	80.94
437.835	99.94
438.057	116.94
438.278	122.94
438.5	103.94
438.721	112.94
438.943	96.94
439.165	75.94
439.386	83.94
439.608	94.94
439.829	96.94
440.05	109.94
440.272	150.94
440.493	101.94
440.715	94.94
440.936	76.94
441.158	83.94
441.379	92.94
441.6	109.94
441.822	82.94
442.043	97.94
442.264	107.94
442.486	107.94
442.707	89.94
442.928	95.94
443.149	127.94
443.371	126.94
443.592	111.94
443.813	100.94
444.034	114.94
444.255	95.94
444.476	85.94
444.698	83.94
444.919	100.94
445.14	142.94
445.361	134.94
445.582	117.94
445.803	127.94
446.024	139.94
446.245	133.94
446.466	117.94
446.687	90.94
446.908	105.94
447.129	88.94
447.35	86.94
447.571	73.94
447.792	98.94
448.013	102.94
448.234	101.94
448.455	123.94
448.675	111.94
448.896	130.94
449.117	94.94
449.338	105.94
449.559	122.94
449.779	129.94
450	90.94
450.221	80.94
450.442	77.94
450.662	97.94
450.883	103.94
451.104	108.94
451.324	85.94
451.545	86.94
451.766	77.94
451.986	79.94
452.207	83.94
452.428	76.94
452.648	94.94
452.869	111.94
453.089	103.94
453.31	120.94
453.53	90.94
453.751	95.94
453.971	93.94
454.192	110.94
454.412	94.94
454.633	93.94
454.853	89.94
455.073	82.94
455.294	78.94
455.514	96.94
455.734	84.94
455.955	76.94
456.175	89.94
456.395	88.94
456.616	94.94
456.836	87.94
457.056	79.94
457.276	88.94
457.497	80.94
457.717	82.94
457.937	93.94
458.157	90.94
458.377	94.94
458.598	110.94
458.818	136.94
459.038	148.94
459.258	115.94
459.478	80.94
459.698	90.94
459.918	86.94
460.138	76.94
460.358	102.94
460.578	85.94
460.798	85.94
461.018	88.94
461.238	92.94
461.458	75.94
461.678	78.94
461.898	95.94
462.118	75.94
462.338	80.94
462.558	90.94
462.777	84.94
462.997	84.94
463.217	90.94
463.437	104.94
463.657	91.94
463.876	94.94
464.096	107.94
464.316	95.94
464.536	106.94
464.755	91.94
464.975	104.94
465.195	160.94
465.414	152.94
465.634	102.94
465.854	94.94
466.073	92.94
466.293	98.94
466.512	84.94
466.732	79.94
466.951	94.94
467.171	100.94
467.391	91.94
467.61	86.94
467.829	109.94
468.049	155.94
468.268	198.94
468.488	101.94
468.707	87.94
468.927	82.94
469.146	98.94
469.365	91.94
469.585	85.94
469.804	89.94
470.023	91.94
470.243	74.94
470.462	100.94
470.681	112.94
470.901	98.94
471.12	97.94
471.339	88.94
471.558	84.94
471.777	95.94
471.997	115.94
472.216	278.94
472.435	489.94
472.654	170.94
472.873	94.94
473.092	100.94
473.311	79.94
473.53	74.94
473.749	79.94
473.968	100.94
474.187	87.94
474.406	94.94
474.625	89.94
474.844	79.94
475.063	86.94
475.282	80.94
475.501	75.94
475.72	79.94
475.939	94.94
476.158	89.94
476.377	84.94
476.596	75.94
476.814	77.94
477.033	82.94
477.252	95.94
477.471	82.94
477.69	86.94
477.908	93.94
478.127	94.94
478.346	88.94
478.564	100.94
478.783	89.94
479.002	92.94
479.22	92.94
479.439	92.94
479.658	96.94
479.876	91.94
480.095	99.94
480.313	95.94
480.532	107.94
480.751	124.94
480.969	270.94
481.188	822.94
481.406	519.94
481.624	136.94
481.843	106.94
482.061	93.94
482.28	84.94
482.498	101.94
482.717	92.94
482.935	90.94
483.153	84.94
483.372	72.94
483.59	83.94
483.808	79.94
484.027	72.94
484.245	79.94
484.463	99.94
484.681	100.94
484.9	94.94
485.118	108.94
485.336	103.94
485.554	100.94
485.772	98.94
485.99	95.94
486.209	96.94
486.427	102.94
486.645	109.94
486.863	110.94
487.081	108.94
487.299	85.94
487.517	86.94
487.735	100.94
487.953	101.94
488.171	95.94
488.389	105.94
488.607	106.94
488.825	86.94
489.043	113.94
489.261	102.94
489.479	79.94
489.696	88.94
489.914	81.94
490.132	90.94
490.35	81.94
490.568	90.94
490.786	102.94
491.003	89.94
491.221	88.94
491.439	89.94
491.657	83.94
491.874	108.94
492.092	101.94
492.31	98.94
492.527	83.94
492.745	92.94
492.963	90.94
493.18	93.94
493.398	85.94
493.615	101.94
493.833	99.94
494.05	94.94
494.268	94.94
494.485	79.94
494.703	78.94
494.92	91.94
495.138	76.94
495.355	82.94
495.573	94.94
495.79	71.94
496.008	91.94
496.225	98.94
496.442	104.94
496.66	98.94
496.877	85.94
497.094	105.94
497.312	101.94
497.529	102.94
497.746	88.94
497.963	92.94
498.181	102.94
498.398	98.94
498.615	91.94
498.832	116.94
499.049	91.94
499.267	89.94
499.484	98.94
499.701	86.94
499.918	96.94
500.135	101.94
500.352	90.94
500.569	89.94
500.786	101.94
501.003	91.94
501.22	88.94
501.437	92.94
501.654	91.94
501.871	110.94
502.088	94.94
502.305	59.94
502.522	85.94
502.739	98.94
502.956	111.94
503.172	104.94
503.389	98.94
503.606	105.94
503.823	91.94
504.04	80.94
504.256	96.94
504.473	82.94
504.69	83.94
504.907	96.94
505.123	80.94
505.34	88.94
505.557	84.94
505.773	94.94
505.99	78.94
506.207	88.94
506.423	90.94
506.64	86.94
506.856	85.94
507.073	84.94
507.289	92.94
507.506	98.94
507.722	96.94
507.939	106.94
508.155	92.94
508.372	82.94
508.588	80.94
508.805	86.94
509.021	81.94
509.238	100.94
509.454	86.94
509.67	93.94
509.887	116.94
510.103	123.94
510.319	201.94
510.536	692.94
510.752	2143.94
510.968	622.94
511.184	168.94
511.401	109.94
511.617	112.94
511.833	95.94
512.049	88.94
512.265	100.94
512.481	88.94
512.698	95.94
512.914	80.94
513.13	83.94
513.346	93.94
513.562	95.94
513.778	95.94
513.994	90.94
514.21	100.94
514.426	123.94
514.642	151.94
514.858	122.94
515.074	164.94
515.29	396.94
515.506	1386.94
515.721	524.94
515.937	149.94
516.153	106.94
516.369	105.94
516.585	97.94
516.801	75.94
517.016	86.94
517.232	86.94
517.448	93.94
517.664	100.94
517.879	95.94
518.095	90.94
518.311	107.94
518.527	88.94
518.742	84.94
518.958	96.94
519.173	93.94
519.389	107.94
519.605	102.94
519.82	87.94
520.036	104.94
520.251	125.94
520.467	123.94
520.682	109.94
520.898	102.94
521.113	108.94
521.329	134.94
521.544	189.94
521.76	534.94
521.975	2293.94
522.19	1399.94
522.406	302.94
522.621	128.94
522.836	106.94
523.052	96.94
523.267	103.94
523.482	85.94
523.698	92.94
523.913	135.94
524.128	110.94
524.343	78.94
524.559	91.94
524.774	89.94
524.989	105.94
525.204	117.94
525.419	102.94
525.634	87.94
525.849	97.94
526.064	84.94
526.28	87.94
526.495	77.94
526.71	107.94
526.925	98.94
527.14	106.94
527.355	88.94
527.57	88.94
527.785	98.94
527.999	92.94
528.214	100.94
528.429	86.94
528.644	85.94
528.859	106.94
529.074	87.94
529.289	114.94
529.503	185.94
529.718	110.94
529.933	94.94
530.148	98.94
530.363	90.94
530.577	80.94
530.792	99.94
531.007	88.94
531.221	88.94
531.436	88.94
531.651	82.94
531.865	99.94
532.08	97.94
532.295	88.94
532.509	96.94
532.724	85.94
532.938	82.94
533.153	93.94
533.367	93.94
533.582	97.94
533.796	96.94
534.011	93.94
534.225	91.94
534.44	77.94
534.654	81.94
534.868	100.94
535.083	99.94
535.297	93.94
535.511	105.94
535.726	100.94
535.94	97.94
536.154	95.94
536.369	95.94
536.583	85.94
536.797	102.94
537.011	85.94
537.225	100.94
537.44	94.94
537.654	92.94
537.868	91.94
538.082	84.94
538.296	96.94
538.51	98.94
538.724	89.94
538.938	91.94
539.153	95.94
539.367	110.94
539.581	110.94
539.795	97.94
540.009	91.94
540.222	79.94
540.436	106.94
540.65	83.94
540.864	88.94
541.078	93.94
541.292	94.94
541.506	84.94
541.72	85.94
541.934	92.94
542.147	98.94
542.361	100.94
542.575	99.94
542.789	92.94
543.002	98.94
543.216	75.94
543.43	89.94
543.644	99.94
543.857	88.94
544.071	94.94
544.285	98.94
544.498	81.94
544.712	92.94
544.925	94.94
545.139	92.94
545.352	72.94
545.566	86.94
545.779	89.94
545.993	82.94
546.206	98.94
546.42	95.94
546.633	80.94
546.847	87.94
547.06	97.94
547.274	92.94
547.487	77.94
547.7	93.94
547.914	80.94
548.127	91.94
548.34	90.94
548.554	92.94
548.767	85.94
548.98	78.94
549.193	95.94
549.407	95.94
549.62	90.94
549.833	72.94
550.046	86.94
550.259	91.94
550.473	100.94
550.686	92.94
550.899	84.94
551.112	100.94
551.325	82.94
551.538	83.94
551.751	98.94
551.964	100.94
552.177	85.94
552.39	74.94
552.603	100.94
552.816	91.94
553.029	87.94
553.242	85.94
553.455	97.94
553.667	102.94
553.88	109.94
554.093	108.94
554.306	97.94
554.519	99.94
554.732	88.94
554.944	91.94
555.157	86.94
555.37	86.94
555.583	79.94
555.795	100.94
556.008	92.94
556.221	90.94
556.433	94.94
556.646	92.94
556.859	88.94
557.071	84.94
557.284	91.94
557.496	89.94
557.709	87.94
557.921	96.94
558.134	74.94
558.346	79.94
558.559	80.94
558.771	96.94
558.984	89.94
559.196	98.94
559.409	94.94
559.621	91.94
559.833	79.94
560.046	93.94
560.258	90.94
560.47	98.94
560.683	90.94
560.895	85.94
561.107	92.94
561.32	77.94
561.532	61.94
561.744	91.94
561.956	99.94
562.168	103.94
562.381	89.94
562.593	89.94
562.805	97.94
563.017	95.94
563.229	88.94
563.441	87.94
563.653	95.94
563.865	91.94
564.077	76.94
564.289	104.94
564.501	102.94
564.713	98.94
564.925	91.94
565.137	98.94
565.349	87.94
565.561	88.94
565.773	108.94
565.985	88.94
566.197	83.94
566.408	75.94
566.62	83.94
566.832	79.94
567.044	81.94
567.255	90.94
567.467	104.94
567.679	87.94
567.891	86.94
568.102	91.94
568.314	103.94
568.526	91.94
568.737	85.94
568.949	92.94
569.161	84.94
569.372	79.94
569.584	86.94
569.795	91.94
570.007	108.94
570.218	232.94
570.43	130.94
570.641	78.94
570.853	83.94
571.064	91.94
571.276	83.94
571.487	95.94
571.698	88.94
571.91	85.94
572.121	101.94
572.333	100.94
572.544	89.94
572.755	94.94
572.966	89.94
573.178	90.94
573.389	89.94
573.6	88.94
573.811	103.94
574.023	77.94
574.234	90.94
574.445	79.94
574.656	83.94
574.867	84.94
575.078	94.94
575.289	92.94
575.501	85.94
575.712	81.94
575.923	91.94
576.134	86.94
576.345	78.94
576.556	101.94
576.767	89.94
576.978	91.94
577.188	93.94
577.399	98.94
577.61	95.94
577.821	99.94
578.032	121.94
578.243	235.94
578.454	669.94
578.665	206.94
578.875	98.94
579.086	86.94
579.297	69.94
579.508	84.94
579.718	83.94
579.929	86.94
580.14	91.94
580.35	84.94
580.561	88.94
580.772	85.94
580.982	67.94
581.193	85.94
581.403	81.94
581.614	79.94
581.825	79.94
582.035	84.94
582.246	89.94
582.456	92.94
582.667	86.94
582.877	81.94
583.087	82.94
583.298	101.94
583.508	91.94
583.719	84.94
583.929	90.94
584.139	89.94
584.35	86.94
584.56	95.94
584.77	99.94
584.981	89.94
585.191	80.94
585.401	86.94
585.611	94.94
585.821	100.94
586.032	77.94
586.242	82.94
586.452	89.94
586.662	89.94
586.872	88.94
587.082	92.94
587.292	77.94
587.502	98.94
587.713	80.94
587.923	85.94
588.133	90.94
588.343	90.94
588.553	85.94
588.762	83.94
588.972	86.94
589.182	138.94
589.392	105.94
589.602	99.94
589.812	114.94
590.022	88.94
590.232	89.94
590.441	92.94
590.651	91.94
590.861	85.94
591.071	83.94
591.281	87.94
591.49	85.94
591.7	93.94
591.91	94.94
592.119	82.94
592.329	84.94
592.539	93.94
592.748	76.94
592.958	80.94
593.167	72.94
593.377	83.94
593.587	94.94
593.796	86.94
594.006	90.94
594.215	100.94
594.424	96.94
594.634	96.94
594.843	97.94
595.053	90.94
595.262	93.94
595.472	91.94
595.681	93.94
595.89	83.94
596.1	91.94
596.309	86.94
596.518	79.94
596.727	90.94
596.937	84.94
597.146	70.94
597.355	82.94
597.564	83.94
597.774	83.94
597.983	91.94
598.192	87.94
598.401	90.94
598.61	91.94
598.819	96.94
599.028	91.94
599.237	90.94
599.446	88.94
599.655	85.94
599.864	84.94
600.073	82.94
600.282	79.94
600.491	97.94
600.7	93.94
600.909	100.94
601.118	82.94
601.327	87.94
601.536	101.94
601.745	73.94
601.953	98.94
602.162	83.94
602.371	98.94
602.58	80.94
602.789	89.94
602.997	87.94
603.206	101.94
603.415	92.94
603.623	80.94
603.832	79.94
604.041	72.94
604.249	83.94
604.458	84.94
604.666	90.94
604.875	86.94
605.084	93.94
605.292	82.94
605.501	89.94
605.709	83.94
605.918	84.94
606.126	85.94
606.334	98.94
606.543	72.94
606.751	76.94
606.96	83.94
607.168	82.94
607.376	81.94
607.585	88.94
607.793	82.94
608.001	87.94
608.21	83.94
608.418	79.94
608.626	71.94
608.834	84.94
609.043	84.94
609.251	75.94
609.459	77.94
609.667	100.94
609.875	76.94
610.083	84.94
610.291	86.94
610.499	78.94
610.707	85.94
610.916	81.94
611.124	82.94
611.332	100.94
611.54	88.94
611.748	73.94
611.955	92.94
612.163	81.94
612.371	82.94
612.579	94.94
612.787	86.94
612.995	87.94
613.203	86.94
613.411	90.94
613.618	87.94
613.826	88.94
614.034	74.94
614.242	79.94
614.449	88.94
614.657	94.94
614.865	82.94
615.072	88.94
615.28	83.94
615.488	84.94
615.695	71.94
615.903	93.94
616.111	94.94
616.318	105.94
616.526	90.94
616.733	87.94
616.941	89.94
617.148	101.94
617.356	89.94
617.563	75.94
617.771	104.94
617.978	84.94
618.185	95.94
618.393	87.94
618.6	88.94
618.807	87.94
619.015	79.94
619.222	84.94
619.429	79.94
619.637	87.94
619.844	86.94
620.051	80.94
620.258	82.94
620.466	75.94
620.673	98.94
620.88	73.94
621.087	83.94
621.294	80.94
621.501	86.94
621.708	87.94
621.915	81.94
622.122	79.94
622.329	84.94
622.536	84.94
622.743	91.94
622.95	73.94
623.157	89.94
623.364	84.94
623.571	86.94
623.778	78.94
623.985	102.94
624.192	85.94
624.399	79.94
624.606	87.94
624.812	91.94
625.019	90.94
625.226	69.94
625.433	84.94
625.639	73.94
625.846	86.94
626.053	73.94
626.259	96.94
626.466	73.94
626.673	95.94
626.879	82.94
627.086	80.94
627.293	87.94
627.499	92.94
627.706	75.94
627.912	86.94
628.119	76.94
628.325	76.94
628.532	88.94
628.738	80.94
628.945	87.94
629.151	90.94
629.357	81.94
629.564	72.94
629.77	82.94
629.976	83.94
630.183	89.94
630.389	98.94
630.595	88.94
630.802	86.94
631.008	80.94
631.214	79.94
631.42	106.94
631.627	99.94
631.833	72.94
632.039	77.94
632.245	86.94
632.451	80.94
632.657	74.94
632.863	95.94
633.069	84.94
633.275	75.94
633.481	73.94
633.688	69.94
633.893	90.94
634.099	89.94
634.305	81.94
634.511	93.94
634.717	83.94
634.923	94.94
635.129	97.94
635.335	83.94
635.541	71.94
635.747	79.94
635.952	91.94
636.158	81.94
636.364	124.94
636.57	126.94
636.775	84.94
636.981	75.94
637.187	87.94
637.392	91.94
637.598	79.94
637.804	74.94
638.009	77.94
638.215	91.94
638.421	63.94
638.626	75.94
638.832	80.94
639.037	86.94
639.243	84.94
639.448	89.94
639.654	83.94
639.859	84.94
640.065	81.94
640.27	89.94
640.475	84.94
640.681	99.94
640.886	83.94
641.091	70.94
641.297	86.94
641.502	89.94
641.707	80.94
641.913	89.94
642.118	90.94
642.323	71.94
642.528	86.94
642.733	85.94
642.939	93.94
643.144	88.94
643.349	97.94
643.554	78.94
643.759	87.94
643.964	88.94
644.169	81.94
644.374	82.94
644.579	88.94
644.784	82.94
644.989	84.94
645.194	90.94
645.399	85.94
645.604	79.94
645.809	87.94
646.014	80.94
646.219	90.94
646.423	82.94
646.628	94.94
646.833	91.94
647.038	83.94
647.243	85.94
647.447	81.94
647.652	90.94
647.857	77.94
648.062	84.94
648.266	74.94
648.471	89.94
648.676	88.94
648.88	77.94
649.085	86.94
649.289	93.94
649.494	106.94
649.698	130.94
649.903	94.94
650.107	84.94
650.312	90.94
650.516	91.94
650.721	107.94
650.925	77.94
651.13	92.94
651.334	95.94
651.539	86.94
651.743	80.94
651.947	93.94
652.152	79.94
652.356	80.94
652.56	97.94
652.764	88.94
652.969	84.94
653.173	73.94
653.377	82.94
653.581	75.94
653.785	71.94
653.99	75.94
654.194	76.94
654.398	82.94
654.602	90.94
654.806	85.94
655.01	87.94
655.214	80.94
655.418	76.94
655.622	82.94
655.826	95.94
656.03	85.94
656.234	84.94
656.438	91.94
656.642	83.94
656.846	90.94
657.049	77.94
657.253	92.94
657.457	75.94
657.661	83.94
657.865	78.94
658.068	70.94
658.272	85.94
658.476	96.94
658.68	102.94
658.883	90.94
659.087	94.94
659.291	76.94
659.494	75.94
659.698	88.94
659.901	80.94
660.105	80.94
660.309	82.94
660.512	87.94
660.716	69.94
660.919	74.94
661.123	85.94
661.326	69.94
661.53	77.94
661.733	74.94
661.936	72.94
662.14	87.94
662.343	78.94
662.546	72.94
662.75	78.94
662.953	88.94
663.156	83.94
663.36	87.94
663.563	80.94
663.766	85.94
663.969	74.94
664.173	82.94
664.376	90.94
664.579	76.94
664.782	80.94
664.985	72.94
665.188	90.94
665.391	79.94
665.594	76.94
665.797	80.94
666	71.94
666.203	84.94
666.406	74.94
666.609	74.94
666.812	68.94
667.015	75.94
667.218	79.94
667.421	76.94
667.624	83.94
667.827	81.94
668.03	82.94
668.232	71.94
668.435	82.94
668.638	60.94
668.841	73.94
669.043	77.94
669.246	78.94
669.449	86.94
669.651	74.94
669.854	86.94
670.057	85.94
670.259	90.94
670.462	87.94
670.665	78.94
670.867	82.94
671.07	92.94
671.272	78.94
671.475	95.94
671.677	73.94
671.88	84.94
672.082	75.94
672.284	81.94
672.487	76.94
672.689	74.94
672.892	75.94
