Data from Circ_2010_H10_HRD10591_00027.txt Node
Date: Wed Jan 03 10:09:46 EST 2024
User: Yrep
Spectrometer: HR+D1059
Trigger mode: 1
Integration Time (sec): 1.000000E-1
Scans to average: 1
Electric dark correction enabled: true
Nonlinearity correction enabled: false
Boxcar width: 0
XAxis mode: Wavelengths
Number of Pixels in Spectrum: 2048
>>>>>Begin Spectral Data<<<<<
223.165	-20.25
223.4	-20.25
223.635	-20.25
223.869	-33.25
224.104	-20.25
224.338	-15.25
224.573	-20.25
224.808	-9.25
225.042	6.75
225.277	-0.25
225.511	10.75
225.746	-3.25
225.98	-0.25
226.215	6.75
226.449	31.75
226.683	3.75
226.918	27.75
227.152	34.75
227.387	36.75
227.621	37.75
227.856	39.75
228.09	44.75
228.324	61.75
228.559	68.75
228.793	66.75
229.027	60.75
229.262	73.75
229.496	74.75
229.73	84.75
229.964	79.75
230.199	74.75
230.433	76.75
230.667	80.75
230.901	77.75
231.136	81.75
231.37	73.75
231.604	85.75
231.838	74.75
232.072	78.75
232.306	82.75
232.541	94.75
232.775	88.75
233.009	88.75
233.243	89.75
233.477	78.75
233.711	73.75
233.945	88.75
234.179	72.75
234.413	75.75
234.647	74.75
234.881	63.75
235.115	75.75
235.349	83.75
235.583	77.75
235.817	81.75
236.051	86.75
236.285	73.75
236.519	79.75
236.753	90.75
236.987	86.75
237.221	83.75
237.455	80.75
237.689	69.75
237.922	76.75
238.156	90.75
238.39	74.75
238.624	77.75
238.858	86.75
239.091	70.75
239.325	90.75
239.559	75.75
239.793	70.75
240.027	74.75
240.26	78.75
240.494	70.75
240.728	83.75
240.961	82.75
241.195	82.75
241.429	79.75
241.662	67.75
241.896	81.75
242.13	73.75
242.363	88.75
242.597	87.75
242.83	80.75
243.064	71.75
243.298	82.75
243.531	75.75
243.765	74.75
243.998	81.75
244.232	84.75
244.465	90.75
244.699	89.75
244.932	91.75
245.166	73.75
245.399	65.75
245.633	72.75
245.866	72.75
246.099	81.75
246.333	71.75
246.566	89.75
246.8	79.75
247.033	81.75
247.266	81.75
247.5	88.75
247.733	82.75
247.966	94.75
248.2	89.75
248.433	79.75
248.666	84.75
248.899	77.75
249.133	88.75
249.366	99.75
249.599	86.75
249.832	68.75
250.066	77.75
250.299	71.75
250.532	66.75
250.765	70.75
250.998	89.75
251.231	87.75
251.465	81.75
251.698	76.75
251.931	84.75
252.164	91.75
252.397	72.75
252.63	86.75
252.863	83.75
253.096	88.75
253.329	81.75
253.562	71.75
253.795	87.75
254.028	82.75
254.261	79.75
254.494	77.75
254.727	81.75
254.96	81.75
255.193	89.75
255.426	80.75
255.659	78.75
255.892	84.75
256.124	87.75
256.357	84.75
256.59	84.75
256.823	92.75
257.056	91.75
257.289	83.75
257.521	81.75
257.754	79.75
257.987	75.75
258.22	94.75
258.452	76.75
258.685	75.75
258.918	77.75
259.151	84.75
259.383	95.75
259.616	80.75
259.849	78.75
260.081	90.75
260.314	89.75
260.547	88.75
260.779	87.75
261.012	79.75
261.244	89.75
261.477	90.75
261.71	99.75
261.942	112.75
262.175	108.75
262.407	75.75
262.64	81.75
262.872	93.75
263.105	84.75
263.337	82.75
263.57	96.75
263.802	72.75
264.035	58.75
264.267	80.75
264.499	94.75
264.732	93.75
264.964	88.75
265.197	82.75
265.429	92.75
265.661	83.75
265.894	93.75
266.126	86.75
266.358	74.75
266.591	76.75
266.823	83.75
267.055	81.75
267.287	83.75
267.52	78.75
267.752	81.75
267.984	80.75
268.216	94.75
268.448	91.75
268.681	86.75
268.913	85.75
269.145	103.75
269.377	78.75
269.609	84.75
269.841	89.75
270.073	87.75
270.306	64.75
270.538	85.75
270.77	97.75
271.002	80.75
271.234	89.75
271.466	81.75
271.698	86.75
271.93	95.75
272.162	89.75
272.394	92.75
272.626	88.75
272.858	80.75
273.09	82.75
273.322	91.75
273.553	87.75
273.785	95.75
274.017	78.75
274.249	85.75
274.481	88.75
274.713	81.75
274.945	87.75
275.176	89.75
275.408	74.75
275.64	82.75
275.872	79.75
276.104	83.75
276.335	95.75
276.567	95.75
276.799	89.75
277.031	105.75
277.262	84.75
277.494	94.75
277.726	84.75
277.957	90.75
278.189	92.75
278.421	91.75
278.652	88.75
278.884	68.75
279.115	81.75
279.347	73.75
279.579	88.75
279.81	76.75
280.042	90.75
280.273	105.75
280.505	104.75
280.736	84.75
280.968	84.75
281.199	86.75
281.431	87.75
281.662	94.75
281.894	95.75
282.125	95.75
282.356	104.75
282.588	116.75
282.819	114.75
283.051	79.75
283.282	98.75
283.513	89.75
283.745	90.75
283.976	78.75
284.207	94.75
284.439	73.75
284.67	83.75
284.901	92.75
285.132	97.75
285.364	93.75
285.595	95.75
285.826	73.75
286.057	93.75
286.288	75.75
286.52	90.75
286.751	97.75
286.982	98.75
287.213	90.75
287.444	84.75
287.675	80.75
287.906	87.75
288.138	84.75
288.369	89.75
288.6	96.75
288.831	100.75
289.062	88.75
289.293	91.75
289.524	86.75
289.755	72.75
289.986	84.75
290.217	83.75
290.448	91.75
290.679	90.75
290.91	92.75
291.141	90.75
291.371	87.75
291.602	86.75
291.833	86.75
292.064	75.75
292.295	82.75
292.526	91.75
292.757	98.75
292.987	90.75
293.218	98.75
293.449	93.75
293.68	87.75
293.91	96.75
294.141	86.75
294.372	68.75
294.603	91.75
294.833	107.75
295.064	96.75
295.295	89.75
295.525	100.75
295.756	108.75
295.987	104.75
296.217	121.75
296.448	105.75
296.679	84.75
296.909	95.75
297.14	80.75
297.37	89.75
297.601	81.75
297.831	82.75
298.062	86.75
298.292	100.75
298.523	97.75
298.753	84.75
298.984	89.75
299.214	88.75
299.445	80.75
299.675	82.75
299.905	100.75
300.136	82.75
300.366	90.75
300.597	96.75
300.827	94.75
301.057	102.75
301.288	100.75
301.518	91.75
301.748	74.75
301.979	111.75
302.209	102.75
302.439	86.75
302.669	92.75
302.9	73.75
303.13	97.75
303.36	89.75
303.59	84.75
303.82	95.75
304.051	94.75
304.281	89.75
304.511	108.75
304.741	91.75
304.971	98.75
305.201	82.75
305.431	95.75
305.661	84.75
305.891	99.75
306.121	96.75
306.352	102.75
306.582	90.75
306.812	88.75
307.042	96.75
307.272	98.75
307.502	97.75
307.731	107.75
307.961	92.75
308.191	95.75
308.421	95.75
308.651	83.75
308.881	93.75
309.111	95.75
309.341	107.75
309.571	102.75
309.8	103.75
310.03	98.75
310.26	96.75
310.49	112.75
310.72	84.75
310.949	98.75
311.179	100.75
311.409	108.75
311.639	91.75
311.868	97.75
312.098	97.75
312.328	92.75
312.557	97.75
312.787	82.75
313.017	105.75
313.246	87.75
313.476	94.75
313.706	84.75
313.935	94.75
314.165	101.75
314.394	101.75
314.624	109.75
314.853	108.75
315.083	91.75
315.312	88.75
315.542	78.75
315.771	95.75
316.001	104.75
316.23	101.75
316.46	81.75
316.689	92.75
316.919	80.75
317.148	93.75
317.377	112.75
317.607	106.75
317.836	97.75
318.065	106.75
318.295	102.75
318.524	88.75
318.753	90.75
318.983	92.75
319.212	98.75
319.441	94.75
319.67	98.75
319.9	89.75
320.129	106.75
320.358	99.75
320.587	95.75
320.816	83.75
321.046	108.75
321.275	98.75
321.504	100.75
321.733	105.75
321.962	94.75
322.191	94.75
322.42	114.75
322.649	100.75
322.878	111.75
323.108	94.75
323.337	108.75
323.566	125.75
323.795	136.75
324.024	189.75
324.253	316.75
324.482	659.75
324.71	1265.75
324.939	1610.75
325.168	626.75
325.397	190.75
325.626	138.75
325.855	111.75
326.084	115.75
326.313	119.75
326.542	152.75
326.77	208.75
326.999	379.75
327.228	732.75
327.457	1335.75
327.686	1027.75
327.914	299.75
328.143	179.75
328.372	166.75
328.6	123.75
328.829	122.75
329.058	113.75
329.287	119.75
329.515	128.75
329.744	112.75
329.972	134.75
330.201	167.75
330.43	189.75
330.658	153.75
330.887	124.75
331.115	107.75
331.344	103.75
331.572	97.75
331.801	118.75
332.03	100.75
332.258	110.75
332.486	105.75
332.715	96.75
332.943	76.75
333.172	87.75
333.4	89.75
333.629	98.75
333.857	102.75
334.085	123.75
334.314	159.75
334.542	212.75
334.771	198.75
334.999	116.75
335.227	97.75
335.455	87.75
335.684	89.75
335.912	94.75
336.14	103.75
336.369	98.75
336.597	115.75
336.825	95.75
337.053	86.75
337.281	105.75
337.51	96.75
337.738	89.75
337.966	109.75
338.194	101.75
338.422	96.75
338.65	102.75
338.878	96.75
339.106	90.75
339.334	89.75
339.562	91.75
339.79	87.75
340.018	102.75
340.246	94.75
340.474	82.75
340.702	91.75
340.93	101.75
341.158	88.75
341.386	96.75
341.614	100.75
341.842	96.75
342.07	92.75
342.298	87.75
342.526	92.75
342.754	101.75
342.981	88.75
343.209	84.75
343.437	94.75
343.665	87.75
343.893	93.75
344.12	94.75
344.348	78.75
344.576	92.75
344.804	100.75
345.031	98.75
345.259	86.75
345.487	98.75
345.714	94.75
345.942	110.75
346.17	104.75
346.397	90.75
346.625	96.75
346.853	82.75
347.08	99.75
347.308	92.75
347.535	89.75
347.763	94.75
347.99	96.75
348.218	83.75
348.445	96.75
348.673	95.75
348.9	88.75
349.128	98.75
349.355	91.75
349.583	100.75
349.81	91.75
350.037	88.75
350.265	89.75
350.492	91.75
350.72	91.75
350.947	100.75
351.174	104.75
351.402	96.75
351.629	97.75
351.856	107.75
352.083	104.75
352.311	100.75
352.538	99.75
352.765	97.75
352.992	99.75
353.22	119.75
353.447	88.75
353.674	104.75
353.901	107.75
354.128	91.75
354.355	107.75
354.583	99.75
354.81	99.75
355.037	98.75
355.264	103.75
355.491	104.75
355.718	94.75
355.945	89.75
356.172	83.75
356.399	93.75
356.626	79.75
356.853	108.75
357.08	83.75
357.307	81.75
357.534	95.75
357.761	96.75
357.988	108.75
358.215	105.75
358.441	87.75
358.668	93.75
358.895	103.75
359.122	96.75
359.349	84.75
359.576	98.75
359.802	93.75
360.029	102.75
360.256	100.75
360.483	96.75
360.709	93.75
360.936	106.75
361.163	81.75
361.39	88.75
361.616	90.75
361.843	90.75
362.07	104.75
362.296	107.75
362.523	77.75
362.749	99.75
362.976	88.75
363.203	92.75
363.429	105.75
363.656	104.75
363.882	89.75
364.109	86.75
364.335	101.75
364.562	89.75
364.788	98.75
365.015	94.75
365.241	84.75
365.468	118.75
365.694	102.75
365.92	96.75
366.147	83.75
366.373	95.75
366.599	90.75
366.826	75.75
367.052	93.75
367.278	88.75
367.505	90.75
367.731	102.75
367.957	86.75
368.184	88.75
368.41	98.75
368.636	97.75
368.862	109.75
369.089	96.75
369.315	87.75
369.541	102.75
369.767	92.75
369.993	103.75
370.219	85.75
370.445	94.75
370.672	103.75
370.898	83.75
371.124	83.75
371.35	92.75
371.576	93.75
371.802	104.75
372.028	86.75
372.254	90.75
372.48	79.75
372.706	89.75
372.932	80.75
373.158	93.75
373.384	87.75
373.61	90.75
373.835	87.75
374.061	69.75
374.287	95.75
374.513	82.75
374.739	85.75
374.965	100.75
375.191	86.75
375.416	94.75
375.642	97.75
375.868	92.75
376.094	92.75
376.319	100.75
376.545	85.75
376.771	87.75
376.997	105.75
377.222	83.75
377.448	100.75
377.674	91.75
377.899	84.75
378.125	88.75
378.35	89.75
378.576	95.75
378.802	88.75
379.027	105.75
379.253	99.75
379.478	95.75
379.704	104.75
379.929	94.75
380.155	88.75
380.38	95.75
380.606	96.75
380.831	90.75
381.057	94.75
381.282	96.75
381.507	106.75
381.733	105.75
381.958	100.75
382.184	111.75
382.409	97.75
382.634	107.75
382.86	108.75
383.085	100.75
383.31	93.75
383.535	93.75
383.761	110.75
383.986	106.75
384.211	97.75
384.436	97.75
384.662	111.75
384.887	110.75
385.112	93.75
385.337	115.75
385.562	100.75
385.787	95.75
386.013	111.75
386.238	95.75
386.463	95.75
386.688	107.75
386.913	107.75
387.138	119.75
387.363	88.75
387.588	86.75
387.813	99.75
388.038	111.75
388.263	124.75
388.488	104.75
388.713	106.75
388.938	103.75
389.163	97.75
389.387	101.75
389.612	98.75
389.837	89.75
390.062	96.75
390.287	92.75
390.512	94.75
390.736	95.75
390.961	82.75
391.186	99.75
391.411	103.75
391.636	100.75
391.86	106.75
392.085	79.75
392.31	95.75
392.534	74.75
392.759	92.75
392.984	91.75
393.208	88.75
393.433	111.75
393.658	105.75
393.882	98.75
394.107	92.75
394.331	84.75
394.556	92.75
394.78	72.75
395.005	98.75
395.229	94.75
395.454	88.75
395.678	89.75
395.903	92.75
396.127	92.75
396.352	96.75
396.576	94.75
396.801	96.75
397.025	99.75
397.249	88.75
397.474	90.75
397.698	99.75
397.922	96.75
398.147	90.75
398.371	99.75
398.595	92.75
398.82	82.75
399.044	81.75
399.268	96.75
399.492	90.75
399.717	109.75
399.941	96.75
400.165	93.75
400.389	104.75
400.613	83.75
400.837	84.75
401.062	103.75
401.286	90.75
401.51	96.75
401.734	99.75
401.958	91.75
402.182	122.75
402.406	145.75
402.63	97.75
402.854	92.75
403.078	90.75
403.302	90.75
403.526	88.75
403.75	96.75
403.974	91.75
404.198	90.75
404.422	96.75
404.645	94.75
404.869	97.75
405.093	107.75
405.317	108.75
405.541	97.75
405.765	97.75
405.988	106.75
406.212	141.75
406.436	176.75
406.66	124.75
406.883	99.75
407.107	85.75
407.331	100.75
407.555	117.75
407.778	94.75
408.002	100.75
408.226	82.75
408.449	94.75
408.673	99.75
408.896	92.75
409.12	100.75
409.344	101.75
409.567	102.75
409.791	106.75
410.014	92.75
410.238	106.75
410.461	93.75
410.685	94.75
410.908	111.75
411.132	103.75
411.355	104.75
411.578	95.75
411.802	85.75
412.025	105.75
412.249	98.75
412.472	83.75
412.695	105.75
412.919	99.75
413.142	91.75
413.365	85.75
413.589	92.75
413.812	99.75
414.035	95.75
414.258	101.75
414.482	73.75
414.705	94.75
414.928	77.75
415.151	79.75
415.374	94.75
415.597	84.75
415.821	88.75
416.044	79.75
416.267	78.75
416.49	89.75
416.713	105.75
416.936	82.75
417.159	92.75
417.382	84.75
417.605	98.75
417.828	90.75
418.051	83.75
418.274	95.75
418.497	100.75
418.72	96.75
418.943	94.75
419.166	103.75
419.389	97.75
419.611	87.75
419.834	95.75
420.057	107.75
420.28	85.75
420.503	90.75
420.726	96.75
420.948	87.75
421.171	80.75
421.394	84.75
421.617	99.75
421.839	85.75
422.062	81.75
422.285	89.75
422.507	80.75
422.73	104.75
422.953	109.75
423.175	84.75
423.398	83.75
423.621	109.75
423.843	94.75
424.066	100.75
424.288	102.75
424.511	91.75
424.733	86.75
424.956	91.75
425.178	82.75
425.401	100.75
425.623	102.75
425.846	94.75
426.068	89.75
426.291	108.75
426.513	93.75
426.735	92.75
426.958	93.75
427.18	83.75
427.402	127.75
427.625	134.75
427.847	114.75
428.069	110.75
428.292	82.75
428.514	91.75
428.736	74.75
428.958	81.75
429.181	80.75
429.403	63.75
429.625	82.75
429.847	105.75
430.069	102.75
430.292	97.75
430.514	91.75
430.736	108.75
430.958	91.75
431.18	93.75
431.402	87.75
431.624	102.75
431.846	98.75
432.068	94.75
432.29	86.75
432.512	91.75
432.734	95.75
432.956	111.75
433.178	99.75
433.4	107.75
433.622	96.75
433.844	88.75
434.066	94.75
434.287	95.75
434.509	84.75
434.731	88.75
434.953	90.75
435.175	88.75
435.397	88.75
435.618	91.75
435.84	111.75
436.062	104.75
436.284	109.75
436.505	89.75
436.727	110.75
436.949	96.75
437.17	96.75
437.392	87.75
437.614	91.75
437.835	93.75
438.057	98.75
438.278	92.75
438.5	98.75
438.721	104.75
438.943	103.75
439.165	110.75
439.386	102.75
439.608	82.75
439.829	105.75
440.05	110.75
440.272	127.75
440.493	90.75
440.715	80.75
440.936	90.75
441.158	91.75
441.379	91.75
441.6	94.75
441.822	86.75
442.043	97.75
442.264	99.75
442.486	95.75
442.707	88.75
442.928	94.75
443.149	115.75
443.371	111.75
443.592	109.75
443.813	103.75
444.034	92.75
444.255	99.75
444.476	90.75
444.698	99.75
444.919	96.75
445.14	134.75
445.361	122.75
445.582	116.75
445.803	109.75
446.024	125.75
446.245	113.75
446.466	104.75
446.687	94.75
446.908	68.75
447.129	81.75
447.35	85.75
447.571	97.75
447.792	95.75
448.013	95.75
448.234	107.75
448.455	107.75
448.675	99.75
448.896	117.75
449.117	101.75
449.338	90.75
449.559	104.75
449.779	119.75
450	104.75
450.221	93.75
450.442	92.75
450.662	89.75
450.883	105.75
451.104	110.75
451.324	96.75
451.545	89.75
451.766	92.75
451.986	89.75
452.207	95.75
452.428	97.75
452.648	102.75
452.869	97.75
453.089	96.75
453.31	87.75
453.53	94.75
453.751	83.75
453.971	95.75
454.192	113.75
454.412	91.75
454.633	93.75
454.853	85.75
455.073	83.75
455.294	79.75
455.514	89.75
455.734	90.75
455.955	90.75
456.175	93.75
456.395	90.75
456.616	76.75
456.836	69.75
457.056	100.75
457.276	88.75
457.497	88.75
457.717	92.75
457.937	94.75
458.157	85.75
458.377	92.75
458.598	94.75
458.818	117.75
459.038	124.75
459.258	112.75
459.478	104.75
459.698	95.75
459.918	87.75
460.138	85.75
460.358	84.75
460.578	100.75
460.798	102.75
461.018	90.75
461.238	88.75
461.458	92.75
461.678	84.75
461.898	83.75
462.118	92.75
462.338	79.75
462.558	92.75
462.777	94.75
462.997	82.75
463.217	87.75
463.437	82.75
463.657	86.75
463.876	80.75
464.096	92.75
464.316	100.75
464.536	89.75
464.755	99.75
464.975	106.75
465.195	142.75
465.414	129.75
465.634	92.75
465.854	93.75
466.073	95.75
466.293	79.75
466.512	74.75
466.732	82.75
466.951	80.75
467.171	93.75
467.391	97.75
467.61	106.75
467.829	100.75
468.049	118.75
468.268	134.75
468.488	108.75
468.707	82.75
468.927	89.75
469.146	92.75
469.365	79.75
469.585	84.75
469.804	89.75
470.023	92.75
470.243	90.75
470.462	100.75
470.681	92.75
470.901	97.75
471.12	96.75
471.339	84.75
471.558	103.75
471.777	100.75
471.997	109.75
472.216	178.75
472.435	256.75
472.654	114.75
472.873	103.75
473.092	96.75
473.311	98.75
473.53	99.75
473.749	89.75
473.968	100.75
474.187	92.75
474.406	95.75
474.625	99.75
474.844	92.75
475.063	93.75
475.282	96.75
475.501	101.75
475.72	84.75
475.939	93.75
476.158	91.75
476.377	79.75
476.596	86.75
476.814	94.75
477.033	88.75
477.252	88.75
477.471	89.75
477.69	75.75
477.908	83.75
478.127	95.75
478.346	77.75
478.564	92.75
478.783	84.75
479.002	79.75
479.22	85.75
479.439	94.75
479.658	107.75
479.876	99.75
480.095	89.75
480.313	103.75
480.532	96.75
480.751	96.75
480.969	168.75
481.188	415.75
481.406	267.75
481.624	91.75
481.843	102.75
482.061	90.75
482.28	91.75
482.498	79.75
482.717	82.75
482.935	88.75
483.153	78.75
483.372	85.75
483.59	88.75
483.808	95.75
484.027	95.75
484.245	84.75
484.463	89.75
484.681	108.75
484.9	94.75
485.118	111.75
485.336	94.75
485.554	101.75
485.772	100.75
485.99	110.75
486.209	100.75
486.427	103.75
486.645	101.75
486.863	119.75
487.081	103.75
487.299	89.75
487.517	108.75
487.735	102.75
487.953	98.75
488.171	87.75
488.389	92.75
488.607	102.75
488.825	107.75
489.043	95.75
489.261	95.75
489.479	87.75
489.696	92.75
489.914	101.75
490.132	92.75
490.35	87.75
490.568	99.75
490.786	105.75
491.003	78.75
491.221	88.75
491.439	82.75
491.657	94.75
491.874	101.75
492.092	95.75
492.31	86.75
492.527	95.75
492.745	90.75
492.963	103.75
493.18	83.75
493.398	107.75
493.615	105.75
493.833	84.75
494.05	95.75
494.268	92.75
494.485	84.75
494.703	101.75
494.92	93.75
495.138	84.75
495.355	85.75
495.573	90.75
495.79	99.75
496.008	95.75
496.225	92.75
496.442	110.75
496.66	77.75
496.877	89.75
497.094	90.75
497.312	74.75
497.529	88.75
497.746	95.75
497.963	97.75
498.181	84.75
498.398	98.75
498.615	96.75
498.832	104.75
499.049	101.75
499.267	105.75
499.484	95.75
499.701	98.75
499.918	96.75
500.135	95.75
500.352	75.75
500.569	83.75
500.786	98.75
501.003	79.75
501.22	92.75
501.437	90.75
501.654	95.75
501.871	88.75
502.088	83.75
502.305	85.75
502.522	76.75
502.739	95.75
502.956	89.75
503.172	93.75
503.389	95.75
503.606	85.75
503.823	98.75
504.04	98.75
504.256	90.75
504.473	75.75
504.69	75.75
504.907	86.75
505.123	84.75
505.34	109.75
505.557	94.75
505.773	92.75
505.99	92.75
506.207	96.75
506.423	87.75
506.64	79.75
506.856	89.75
507.073	96.75
507.289	97.75
507.506	96.75
507.722	103.75
507.939	113.75
508.155	85.75
508.372	79.75
508.588	88.75
508.805	107.75
509.021	96.75
509.238	109.75
509.454	97.75
509.67	82.75
509.887	106.75
510.103	119.75
510.319	179.75
510.536	604.75
510.752	1794.75
510.968	527.75
511.184	150.75
511.401	111.75
511.617	101.75
511.833	115.75
512.049	88.75
512.265	91.75
512.481	94.75
512.698	97.75
512.914	94.75
513.13	82.75
513.346	113.75
513.562	92.75
513.778	94.75
513.994	100.75
514.21	104.75
514.426	110.75
514.642	126.75
514.858	119.75
515.074	149.75
515.29	326.75
515.506	1064.75
515.721	434.75
515.937	158.75
516.153	110.75
516.369	92.75
516.585	96.75
516.801	99.75
517.016	93.75
517.232	101.75
517.448	95.75
517.664	83.75
517.879	79.75
518.095	92.75
518.311	104.75
518.527	83.75
518.742	94.75
518.958	76.75
519.173	88.75
519.389	113.75
519.605	92.75
519.82	87.75
520.036	97.75
520.251	120.75
520.467	108.75
520.682	93.75
520.898	110.75
521.113	109.75
521.329	123.75
521.544	174.75
521.76	419.75
521.975	1714.75
522.19	1096.75
522.406	240.75
522.621	120.75
522.836	97.75
523.052	96.75
523.267	86.75
523.482	90.75
523.698	94.75
523.913	114.75
524.128	100.75
524.343	103.75
524.559	96.75
524.774	102.75
524.989	110.75
525.204	101.75
525.419	93.75
525.634	87.75
525.849	92.75
526.064	93.75
526.28	107.75
526.495	83.75
526.71	87.75
526.925	76.75
527.14	96.75
527.355	102.75
527.57	97.75
527.785	89.75
527.999	74.75
528.214	91.75
528.429	82.75
528.644	106.75
528.859	80.75
529.074	102.75
529.289	114.75
529.503	147.75
529.718	99.75
529.933	82.75
530.148	93.75
530.363	108.75
530.577	96.75
530.792	78.75
531.007	90.75
531.221	82.75
531.436	95.75
531.651	86.75
531.865	83.75
532.08	83.75
532.295	79.75
532.509	88.75
532.724	95.75
532.938	82.75
533.153	102.75
533.367	99.75
533.582	82.75
533.796	95.75
534.011	98.75
534.225	99.75
534.44	92.75
534.654	114.75
534.868	95.75
535.083	82.75
535.297	96.75
535.511	110.75
535.726	89.75
535.94	88.75
536.154	96.75
536.369	92.75
536.583	82.75
536.797	96.75
537.011	98.75
537.225	96.75
537.44	88.75
537.654	92.75
537.868	79.75
538.082	94.75
538.296	76.75
538.51	91.75
538.724	87.75
538.938	99.75
539.153	99.75
539.367	97.75
539.581	89.75
539.795	98.75
540.009	93.75
540.222	86.75
540.436	99.75
540.65	97.75
540.864	91.75
541.078	90.75
541.292	103.75
541.506	102.75
541.72	91.75
541.934	92.75
542.147	90.75
542.361	82.75
542.575	92.75
542.789	95.75
543.002	96.75
543.216	94.75
543.43	92.75
543.644	92.75
543.857	101.75
544.071	96.75
544.285	110.75
544.498	91.75
544.712	80.75
544.925	87.75
545.139	91.75
545.352	68.75
545.566	96.75
545.779	86.75
545.993	118.75
546.206	99.75
546.42	79.75
546.633	86.75
546.847	103.75
547.06	102.75
547.274	94.75
547.487	85.75
547.7	103.75
547.914	92.75
548.127	96.75
548.34	84.75
548.554	87.75
548.767	114.75
548.98	102.75
549.193	86.75
549.407	84.75
549.62	87.75
549.833	95.75
550.046	93.75
550.259	93.75
550.473	93.75
550.686	92.75
550.899	92.75
551.112	84.75
551.325	91.75
551.538	97.75
551.751	100.75
551.964	99.75
552.177	81.75
552.39	86.75
552.603	80.75
552.816	86.75
553.029	92.75
553.242	100.75
553.455	93.75
553.667	115.75
553.88	100.75
554.093	83.75
554.306	100.75
554.519	82.75
554.732	109.75
554.944	95.75
555.157	84.75
555.37	78.75
555.583	88.75
555.795	94.75
556.008	102.75
556.221	94.75
556.433	102.75
556.646	95.75
556.859	113.75
557.071	88.75
557.284	88.75
557.496	79.75
557.709	95.75
557.921	102.75
558.134	91.75
558.346	105.75
558.559	94.75
558.771	95.75
558.984	84.75
559.196	104.75
559.409	101.75
559.621	93.75
559.833	97.75
560.046	90.75
560.258	95.75
560.47	98.75
560.683	87.75
560.895	91.75
561.107	75.75
561.32	82.75
561.532	85.75
561.744	93.75
561.956	87.75
562.168	91.75
562.381	92.75
562.593	100.75
562.805	91.75
563.017	96.75
563.229	100.75
563.441	79.75
563.653	78.75
563.865	105.75
564.077	105.75
564.289	97.75
564.501	80.75
564.713	74.75
564.925	77.75
565.137	93.75
565.349	94.75
565.561	79.75
565.773	87.75
565.985	104.75
566.197	88.75
566.408	82.75
566.62	87.75
566.832	81.75
567.044	96.75
567.255	91.75
567.467	83.75
567.679	88.75
567.891	86.75
568.102	93.75
568.314	100.75
568.526	84.75
568.737	88.75
568.949	97.75
569.161	83.75
569.372	96.75
569.584	83.75
569.795	97.75
570.007	121.75
570.218	198.75
570.43	134.75
570.641	97.75
570.853	90.75
571.064	79.75
571.276	78.75
571.487	79.75
571.698	69.75
571.91	81.75
572.121	89.75
572.333	86.75
572.544	95.75
572.755	101.75
572.966	99.75
573.178	104.75
573.389	100.75
573.6	94.75
573.811	90.75
574.023	85.75
574.234	94.75
574.445	97.75
574.656	82.75
574.867	94.75
575.078	84.75
575.289	88.75
575.501	97.75
575.712	92.75
575.923	94.75
576.134	90.75
576.345	101.75
576.556	93.75
576.767	86.75
576.978	84.75
577.188	95.75
577.399	92.75
577.61	87.75
577.821	89.75
578.032	113.75
578.243	230.75
578.454	558.75
578.665	176.75
578.875	108.75
579.086	94.75
579.297	92.75
579.508	88.75
579.718	82.75
579.929	87.75
580.14	92.75
580.35	75.75
580.561	92.75
580.772	99.75
580.982	84.75
581.193	82.75
581.403	79.75
581.614	81.75
581.825	96.75
582.035	94.75
582.246	83.75
582.456	92.75
582.667	91.75
582.877	88.75
583.087	84.75
583.298	98.75
583.508	88.75
583.719	105.75
583.929	87.75
584.139	85.75
584.35	89.75
584.56	97.75
584.77	86.75
584.981	92.75
585.191	87.75
585.401	87.75
585.611	74.75
585.821	77.75
586.032	94.75
586.242	87.75
586.452	89.75
586.662	79.75
586.872	89.75
587.082	86.75
587.292	82.75
587.502	90.75
587.713	100.75
587.923	104.75
588.133	92.75
588.343	70.75
588.553	109.75
588.762	92.75
588.972	103.75
589.182	148.75
589.392	108.75
589.602	96.75
589.812	115.75
590.022	90.75
590.232	93.75
590.441	74.75
590.651	98.75
590.861	82.75
591.071	96.75
591.281	82.75
591.49	99.75
591.7	87.75
591.91	75.75
592.119	82.75
592.329	86.75
592.539	87.75
592.748	104.75
592.958	79.75
593.167	81.75
593.377	83.75
593.587	93.75
593.796	81.75
594.006	96.75
594.215	91.75
594.424	104.75
594.634	80.75
594.843	103.75
595.053	88.75
595.262	88.75
595.472	82.75
595.681	78.75
595.89	86.75
596.1	103.75
596.309	99.75
596.518	75.75
596.727	89.75
596.937	93.75
597.146	92.75
597.355	83.75
597.564	91.75
597.774	85.75
597.983	88.75
598.192	93.75
598.401	79.75
598.61	83.75
598.819	90.75
599.028	82.75
599.237	83.75
599.446	94.75
599.655	87.75
599.864	93.75
600.073	76.75
600.282	97.75
600.491	88.75
600.7	91.75
600.909	86.75
601.118	83.75
601.327	78.75
601.536	102.75
601.745	79.75
601.953	74.75
602.162	102.75
602.371	100.75
602.58	76.75
602.789	95.75
602.997	106.75
603.206	86.75
603.415	91.75
603.623	77.75
603.832	88.75
604.041	106.75
604.249	98.75
604.458	79.75
604.666	90.75
604.875	79.75
605.084	94.75
605.292	90.75
605.501	88.75
605.709	89.75
605.918	84.75
606.126	103.75
606.334	83.75
606.543	92.75
606.751	89.75
606.96	72.75
607.168	82.75
607.376	89.75
607.585	78.75
607.793	96.75
608.001	91.75
608.21	69.75
608.418	81.75
608.626	88.75
608.834	79.75
609.043	86.75
609.251	86.75
609.459	85.75
609.667	80.75
609.875	86.75
610.083	77.75
610.291	92.75
610.499	91.75
610.707	76.75
610.916	89.75
611.124	78.75
611.332	81.75
611.54	75.75
611.748	69.75
611.955	81.75
612.163	76.75
612.371	82.75
612.579	82.75
612.787	90.75
612.995	101.75
613.203	78.75
613.411	86.75
613.618	76.75
613.826	90.75
614.034	94.75
614.242	82.75
614.449	94.75
614.657	81.75
614.865	92.75
615.072	91.75
615.28	90.75
615.488	94.75
615.695	84.75
615.903	94.75
616.111	85.75
616.318	107.75
616.526	83.75
616.733	95.75
616.941	97.75
617.148	90.75
617.356	84.75
617.563	80.75
617.771	95.75
617.978	98.75
618.185	67.75
618.393	90.75
618.6	78.75
618.807	94.75
619.015	68.75
619.222	93.75
619.429	78.75
619.637	95.75
619.844	80.75
620.051	88.75
620.258	90.75
620.466	97.75
620.673	73.75
620.88	81.75
621.087	91.75
621.294	81.75
621.501	86.75
621.708	84.75
621.915	83.75
622.122	83.75
622.329	87.75
622.536	81.75
622.743	91.75
622.95	93.75
623.157	73.75
623.364	77.75
623.571	89.75
623.778	82.75
623.985	92.75
624.192	78.75
624.399	93.75
624.606	80.75
624.812	80.75
625.019	83.75
625.226	98.75
625.433	98.75
625.639	79.75
625.846	85.75
626.053	91.75
626.259	80.75
626.466	88.75
626.673	97.75
626.879	94.75
627.086	102.75
627.293	81.75
627.499	95.75
627.706	70.75
627.912	78.75
628.119	77.75
628.325	80.75
628.532	91.75
628.738	80.75
628.945	84.75
629.151	91.75
629.357	80.75
629.564	94.75
629.77	94.75
629.976	96.75
630.183	83.75
630.389	66.75
630.595	71.75
630.802	82.75
631.008	97.75
631.214	87.75
631.42	91.75
631.627	84.75
631.833	79.75
632.039	87.75
632.245	93.75
632.451	97.75
632.657	88.75
632.863	94.75
633.069	79.75
633.275	83.75
633.481	95.75
633.688	93.75
633.893	75.75
634.099	86.75
634.305	89.75
634.511	85.75
634.717	90.75
634.923	94.75
635.129	88.75
635.335	91.75
635.541	80.75
635.747	75.75
635.952	95.75
636.158	80.75
636.364	98.75
636.57	79.75
636.775	85.75
636.981	87.75
637.187	78.75
637.392	98.75
637.598	88.75
637.804	91.75
638.009	78.75
638.215	80.75
638.421	74.75
638.626	76.75
638.832	89.75
639.037	87.75
639.243	94.75
639.448	91.75
639.654	90.75
639.859	89.75
640.065	96.75
640.27	95.75
640.475	86.75
640.681	75.75
640.886	85.75
641.091	81.75
641.297	87.75
641.502	91.75
641.707	100.75
641.913	87.75
642.118	85.75
642.323	95.75
642.528	88.75
642.733	87.75
642.939	93.75
643.144	82.75
643.349	98.75
643.554	83.75
643.759	83.75
643.964	91.75
644.169	94.75
644.374	75.75
644.579	76.75
644.784	82.75
644.989	90.75
645.194	86.75
645.399	90.75
645.604	72.75
645.809	93.75
646.014	90.75
646.219	98.75
646.423	85.75
646.628	92.75
646.833	105.75
647.038	84.75
647.243	100.75
647.447	78.75
647.652	67.75
647.857	79.75
648.062	67.75
648.266	98.75
648.471	93.75
648.676	93.75
648.88	94.75
649.085	96.75
649.289	98.75
649.494	80.75
649.698	115.75
649.903	96.75
650.107	90.75
650.312	83.75
650.516	76.75
650.721	68.75
650.925	91.75
651.13	83.75
651.334	90.75
651.539	101.75
651.743	95.75
651.947	82.75
652.152	95.75
652.356	81.75
652.56	97.75
652.764	84.75
652.969	84.75
653.173	78.75
653.377	87.75
653.581	90.75
653.785	87.75
653.99	92.75
654.194	81.75
654.398	60.75
654.602	74.75
654.806	92.75
655.01	89.75
655.214	85.75
655.418	93.75
655.622	88.75
655.826	73.75
656.03	82.75
656.234	86.75
656.438	88.75
656.642	93.75
656.846	91.75
657.049	88.75
657.253	99.75
657.457	80.75
657.661	86.75
657.865	86.75
658.068	90.75
658.272	75.75
658.476	84.75
658.68	84.75
658.883	78.75
659.087	90.75
659.291	74.75
659.494	81.75
659.698	89.75
659.901	94.75
660.105	86.75
660.309	87.75
660.512	86.75
660.716	90.75
660.919	74.75
661.123	88.75
661.326	83.75
661.53	80.75
661.733	86.75
661.936	89.75
662.14	74.75
662.343	92.75
662.546	78.75
662.75	89.75
662.953	86.75
663.156	82.75
663.36	87.75
663.563	90.75
663.766	84.75
663.969	94.75
664.173	70.75
664.376	86.75
664.579	91.75
664.782	81.75
664.985	89.75
665.188	70.75
665.391	87.75
665.594	79.75
665.797	94.75
666	94.75
666.203	98.75
666.406	83.75
666.609	76.75
666.812	90.75
667.015	77.75
667.218	76.75
667.421	92.75
667.624	84.75
667.827	86.75
668.03	83.75
668.232	83.75
668.435	95.75
668.638	77.75
668.841	82.75
669.043	76.75
669.246	90.75
669.449	84.75
669.651	83.75
669.854	82.75
670.057	80.75
670.259	82.75
670.462	87.75
670.665	86.75
670.867	77.75
671.07	92.75
671.272	93.75
671.475	77.75
671.677	83.75
671.88	80.75
672.082	78.75
672.284	87.75
672.487	82.75
672.689	86.75
672.892	91.75
