Data from Circ_2010_H10_HRD10591_00004.txt Node
Date: Wed Jan 03 10:09:42 EST 2024
User: Yrep
Spectrometer: HR+D1059
Trigger mode: 1
Integration Time (sec): 1.000000E-1
Scans to average: 1
Electric dark correction enabled: true
Nonlinearity correction enabled: false
Boxcar width: 0
XAxis mode: Wavelengths
Number of Pixels in Spectrum: 2048
>>>>>Begin Spectral Data<<<<<
223.165	-36.06
223.4	-36.06
223.635	-36.06
223.869	-18.06
224.104	-27.06
224.338	-18.06
224.573	-21.06
224.808	-10.06
225.042	-5.06
225.277	-6.06
225.511	-2.06
225.746	-3.06
225.98	8.94
226.215	21.94
226.449	24.94
226.683	27.94
226.918	33.94
227.152	28.94
227.387	38.94
227.621	36.94
227.856	44.94
228.09	46.94
228.324	52.94
228.559	60.94
228.793	60.94
229.027	68.94
229.262	73.94
229.496	76.94
229.73	74.94
229.964	78.94
230.199	75.94
230.433	70.94
230.667	85.94
230.901	79.94
231.136	90.94
231.37	86.94
231.604	60.94
231.838	69.94
232.072	69.94
232.306	71.94
232.541	81.94
232.775	76.94
233.009	70.94
233.243	87.94
233.477	77.94
233.711	91.94
233.945	73.94
234.179	84.94
234.413	76.94
234.647	79.94
234.881	76.94
235.115	79.94
235.349	71.94
235.583	84.94
235.817	72.94
236.051	86.94
236.285	75.94
236.519	88.94
236.753	87.94
236.987	73.94
237.221	86.94
237.455	64.94
237.689	76.94
237.922	74.94
238.156	89.94
238.39	86.94
238.624	60.94
238.858	71.94
239.091	78.94
239.325	80.94
239.559	83.94
239.793	81.94
240.027	86.94
240.26	77.94
240.494	85.94
240.728	74.94
240.961	77.94
241.195	81.94
241.429	88.94
241.662	70.94
241.896	66.94
242.13	72.94
242.363	79.94
242.597	73.94
242.83	82.94
243.064	69.94
243.298	90.94
243.531	91.94
243.765	56.94
243.998	75.94
244.232	79.94
244.465	77.94
244.699	73.94
244.932	67.94
245.166	78.94
245.399	85.94
245.633	78.94
245.866	66.94
246.099	70.94
246.333	76.94
246.566	98.94
246.8	70.94
247.033	91.94
247.266	88.94
247.5	98.94
247.733	81.94
247.966	76.94
248.2	74.94
248.433	93.94
248.666	80.94
248.899	64.94
249.133	93.94
249.366	91.94
249.599	98.94
249.832	93.94
250.066	89.94
250.299	84.94
250.532	74.94
250.765	70.94
250.998	96.94
251.231	81.94
251.465	68.94
251.698	74.94
251.931	85.94
252.164	81.94
252.397	79.94
252.63	78.94
252.863	89.94
253.096	70.94
253.329	63.94
253.562	74.94
253.795	74.94
254.028	73.94
254.261	92.94
254.494	98.94
254.727	96.94
254.96	86.94
255.193	86.94
255.426	78.94
255.659	82.94
255.892	70.94
256.124	73.94
256.357	95.94
256.59	67.94
256.823	81.94
257.056	85.94
257.289	81.94
257.521	76.94
257.754	90.94
257.987	81.94
258.22	59.94
258.452	75.94
258.685	72.94
258.918	77.94
259.151	89.94
259.383	67.94
259.616	84.94
259.849	81.94
260.081	80.94
260.314	75.94
260.547	85.94
260.779	84.94
261.012	85.94
261.244	81.94
261.477	82.94
261.71	110.94
261.942	103.94
262.175	125.94
262.407	87.94
262.64	89.94
262.872	85.94
263.105	85.94
263.337	83.94
263.57	69.94
263.802	82.94
264.035	79.94
264.267	74.94
264.499	86.94
264.732	77.94
264.964	75.94
265.197	82.94
265.429	86.94
265.661	80.94
265.894	74.94
266.126	80.94
266.358	91.94
266.591	82.94
266.823	81.94
267.055	88.94
267.287	92.94
267.52	64.94
267.752	74.94
267.984	82.94
268.216	74.94
268.448	89.94
268.681	89.94
268.913	83.94
269.145	90.94
269.377	83.94
269.609	84.94
269.841	88.94
270.073	82.94
270.306	82.94
270.538	89.94
270.77	79.94
271.002	85.94
271.234	89.94
271.466	80.94
271.698	79.94
271.93	97.94
272.162	90.94
272.394	96.94
272.626	87.94
272.858	85.94
273.09	78.94
273.322	76.94
273.553	73.94
273.785	80.94
274.017	92.94
274.249	99.94
274.481	87.94
274.713	81.94
274.945	81.94
275.176	78.94
275.408	89.94
275.64	88.94
275.872	82.94
276.104	91.94
276.335	80.94
276.567	97.94
276.799	100.94
277.031	90.94
277.262	88.94
277.494	94.94
277.726	85.94
277.957	80.94
278.189	94.94
278.421	88.94
278.652	78.94
278.884	73.94
279.115	81.94
279.347	103.94
279.579	89.94
279.81	86.94
280.042	86.94
280.273	78.94
280.505	91.94
280.736	102.94
280.968	97.94
281.199	92.94
281.431	91.94
281.662	81.94
281.894	100.94
282.125	102.94
282.356	120.94
282.588	125.94
282.819	115.94
283.051	84.94
283.282	88.94
283.513	82.94
283.745	80.94
283.976	97.94
284.207	93.94
284.439	79.94
284.67	90.94
284.901	95.94
285.132	98.94
285.364	95.94
285.595	96.94
285.826	81.94
286.057	100.94
286.288	83.94
286.52	78.94
286.751	84.94
286.982	77.94
287.213	80.94
287.444	75.94
287.675	89.94
287.906	90.94
288.138	83.94
288.369	102.94
288.6	93.94
288.831	95.94
289.062	95.94
289.293	77.94
289.524	89.94
289.755	87.94
289.986	86.94
290.217	94.94
290.448	96.94
290.679	81.94
290.91	86.94
291.141	101.94
291.371	80.94
291.602	91.94
291.833	84.94
292.064	86.94
292.295	93.94
292.526	95.94
292.757	93.94
292.987	80.94
293.218	97.94
293.449	86.94
293.68	80.94
293.91	98.94
294.141	90.94
294.372	82.94
294.603	92.94
294.833	88.94
295.064	101.94
295.295	85.94
295.525	87.94
295.756	85.94
295.987	96.94
296.217	136.94
296.448	121.94
296.679	107.94
296.909	96.94
297.14	68.94
297.37	86.94
297.601	90.94
297.831	83.94
298.062	87.94
298.292	94.94
298.523	92.94
298.753	87.94
298.984	116.94
299.214	91.94
299.445	91.94
299.675	104.94
299.905	100.94
300.136	80.94
300.366	104.94
300.597	88.94
300.827	90.94
301.057	99.94
301.288	97.94
301.518	82.94
301.748	84.94
301.979	105.94
302.209	90.94
302.439	83.94
302.669	80.94
302.9	93.94
303.13	92.94
303.36	102.94
303.59	100.94
303.82	98.94
304.051	102.94
304.281	85.94
304.511	89.94
304.741	97.94
304.971	93.94
305.201	85.94
305.431	89.94
305.661	72.94
305.891	94.94
306.121	100.94
306.352	113.94
306.582	108.94
306.812	100.94
307.042	100.94
307.272	104.94
307.502	105.94
307.731	109.94
307.961	89.94
308.191	92.94
308.421	90.94
308.651	94.94
308.881	89.94
309.111	98.94
309.341	97.94
309.571	106.94
309.8	91.94
310.03	91.94
310.26	117.94
310.49	92.94
310.72	106.94
310.949	112.94
311.179	87.94
311.409	88.94
311.639	88.94
311.868	102.94
312.098	90.94
312.328	106.94
312.557	106.94
312.787	119.94
313.017	102.94
313.246	92.94
313.476	94.94
313.706	90.94
313.935	84.94
314.165	104.94
314.394	96.94
314.624	96.94
314.853	112.94
315.083	100.94
315.312	82.94
315.542	83.94
315.771	91.94
316.001	88.94
316.23	101.94
316.46	101.94
316.689	91.94
316.919	100.94
317.148	87.94
317.377	104.94
317.607	94.94
317.836	95.94
318.065	103.94
318.295	81.94
318.524	82.94
318.753	84.94
318.983	100.94
319.212	85.94
319.441	106.94
319.67	101.94
319.9	89.94
320.129	100.94
320.358	96.94
320.587	92.94
320.816	92.94
321.046	102.94
321.275	85.94
321.504	83.94
321.733	94.94
321.962	120.94
322.191	99.94
322.42	116.94
322.649	87.94
322.878	95.94
323.108	121.94
323.337	104.94
323.566	113.94
323.795	145.94
324.024	198.94
324.253	360.94
324.482	720.94
324.71	1466.94
324.939	1902.94
325.168	732.94
325.397	235.94
325.626	136.94
325.855	121.94
326.084	119.94
326.313	121.94
326.542	163.94
326.77	204.94
326.999	413.94
327.228	817.94
327.457	1466.94
327.686	1156.94
327.914	340.94
328.143	192.94
328.372	150.94
328.6	124.94
328.829	106.94
329.058	128.94
329.287	112.94
329.515	97.94
329.744	110.94
329.972	127.94
330.201	148.94
330.43	163.94
330.658	132.94
330.887	119.94
331.115	110.94
331.344	90.94
331.572	88.94
331.801	108.94
332.03	96.94
332.258	96.94
332.486	95.94
332.715	103.94
332.943	92.94
333.172	98.94
333.4	97.94
333.629	94.94
333.857	109.94
334.085	116.94
334.314	140.94
334.542	184.94
334.771	171.94
334.999	108.94
335.227	98.94
335.455	101.94
335.684	84.94
335.912	100.94
336.14	93.94
336.369	107.94
336.597	82.94
336.825	91.94
337.053	90.94
337.281	91.94
337.51	86.94
337.738	89.94
337.966	100.94
338.194	85.94
338.422	99.94
338.65	87.94
338.878	96.94
339.106	96.94
339.334	82.94
339.562	90.94
339.79	98.94
340.018	101.94
340.246	92.94
340.474	97.94
340.702	91.94
340.93	100.94
341.158	88.94
341.386	81.94
341.614	87.94
341.842	82.94
342.07	97.94
342.298	91.94
342.526	88.94
342.754	86.94
342.981	93.94
343.209	89.94
343.437	91.94
343.665	94.94
343.893	80.94
344.12	95.94
344.348	94.94
344.576	100.94
344.804	84.94
345.031	92.94
345.259	82.94
345.487	86.94
345.714	76.94
345.942	93.94
346.17	96.94
346.397	97.94
346.625	85.94
346.853	94.94
347.08	93.94
347.308	89.94
347.535	110.94
347.763	101.94
347.99	99.94
348.218	88.94
348.445	104.94
348.673	110.94
348.9	110.94
349.128	84.94
349.355	99.94
349.583	87.94
349.81	101.94
350.037	91.94
350.265	112.94
350.492	96.94
350.72	100.94
350.947	95.94
351.174	105.94
351.402	111.94
351.629	96.94
351.856	94.94
352.083	94.94
352.311	104.94
352.538	113.94
352.765	101.94
352.992	107.94
353.22	93.94
353.447	105.94
353.674	98.94
353.901	80.94
354.128	98.94
354.355	86.94
354.583	91.94
354.81	93.94
355.037	99.94
355.264	100.94
355.491	86.94
355.718	101.94
355.945	88.94
356.172	86.94
356.399	105.94
356.626	92.94
356.853	93.94
357.08	105.94
357.307	89.94
357.534	96.94
357.761	89.94
357.988	87.94
358.215	107.94
358.441	100.94
358.668	90.94
358.895	98.94
359.122	105.94
359.349	92.94
359.576	94.94
359.802	94.94
360.029	118.94
360.256	92.94
360.483	97.94
360.709	90.94
360.936	88.94
361.163	100.94
361.39	83.94
361.616	88.94
361.843	98.94
362.07	88.94
362.296	82.94
362.523	101.94
362.749	92.94
362.976	90.94
363.203	92.94
363.429	81.94
363.656	109.94
363.882	80.94
364.109	94.94
364.335	76.94
364.562	94.94
364.788	97.94
365.015	94.94
365.241	101.94
365.468	98.94
365.694	96.94
365.92	93.94
366.147	88.94
366.373	98.94
366.599	90.94
366.826	96.94
367.052	95.94
367.278	87.94
367.505	81.94
367.731	94.94
367.957	89.94
368.184	89.94
368.41	108.94
368.636	102.94
368.862	108.94
369.089	96.94
369.315	92.94
369.541	94.94
369.767	112.94
369.993	91.94
370.219	99.94
370.445	85.94
370.672	66.94
370.898	81.94
371.124	101.94
371.35	85.94
371.576	80.94
371.802	80.94
372.028	95.94
372.254	91.94
372.48	82.94
372.706	97.94
372.932	86.94
373.158	83.94
373.384	86.94
373.61	86.94
373.835	81.94
374.061	83.94
374.287	86.94
374.513	78.94
374.739	92.94
374.965	97.94
375.191	76.94
375.416	92.94
375.642	80.94
375.868	78.94
376.094	77.94
376.319	78.94
376.545	84.94
376.771	90.94
376.997	80.94
377.222	98.94
377.448	98.94
377.674	102.94
377.899	74.94
378.125	90.94
378.35	93.94
378.576	100.94
378.802	101.94
379.027	96.94
379.253	93.94
379.478	96.94
379.704	97.94
379.929	85.94
380.155	102.94
380.38	92.94
380.606	91.94
380.831	103.94
381.057	94.94
381.282	81.94
381.507	97.94
381.733	101.94
381.958	84.94
382.184	93.94
382.409	95.94
382.634	98.94
382.86	74.94
383.085	104.94
383.31	98.94
383.535	93.94
383.761	105.94
383.986	95.94
384.211	107.94
384.436	81.94
384.662	90.94
384.887	90.94
385.112	104.94
385.337	102.94
385.562	94.94
385.787	104.94
386.013	105.94
386.238	101.94
386.463	119.94
386.688	100.94
386.913	101.94
387.138	114.94
387.363	106.94
387.588	91.94
387.813	102.94
388.038	123.94
388.263	110.94
388.488	112.94
388.713	95.94
388.938	98.94
389.163	100.94
389.387	102.94
389.612	91.94
389.837	88.94
390.062	72.94
390.287	84.94
390.512	81.94
390.736	101.94
390.961	95.94
391.186	93.94
391.411	102.94
391.636	79.94
391.86	90.94
392.085	87.94
392.31	87.94
392.534	92.94
392.759	96.94
392.984	93.94
393.208	86.94
393.433	120.94
393.658	109.94
393.882	96.94
394.107	86.94
394.331	102.94
394.556	96.94
394.78	84.94
395.005	95.94
395.229	79.94
395.454	92.94
395.678	87.94
395.903	106.94
396.127	101.94
396.352	95.94
396.576	91.94
396.801	96.94
397.025	111.94
397.249	104.94
397.474	87.94
397.698	97.94
397.922	72.94
398.147	96.94
398.371	77.94
398.595	91.94
398.82	84.94
399.044	76.94
399.268	90.94
399.492	78.94
399.717	92.94
399.941	90.94
400.165	100.94
400.389	95.94
400.613	89.94
400.837	85.94
401.062	98.94
401.286	85.94
401.51	90.94
401.734	94.94
401.958	98.94
402.182	110.94
402.406	158.94
402.63	111.94
402.854	84.94
403.078	87.94
403.302	81.94
403.526	91.94
403.75	77.94
403.974	80.94
404.198	85.94
404.422	86.94
404.645	88.94
404.869	89.94
405.093	96.94
405.317	109.94
405.541	97.94
405.765	93.94
405.988	98.94
406.212	150.94
406.436	214.94
406.66	151.94
406.883	101.94
407.107	97.94
407.331	99.94
407.555	109.94
407.778	94.94
408.002	100.94
408.226	88.94
408.449	97.94
408.673	83.94
408.896	77.94
409.12	88.94
409.344	76.94
409.567	84.94
409.791	95.94
410.014	88.94
410.238	86.94
410.461	95.94
410.685	102.94
410.908	96.94
411.132	94.94
411.355	89.94
411.578	94.94
411.802	93.94
412.025	101.94
412.249	95.94
412.472	96.94
412.695	105.94
412.919	92.94
413.142	95.94
413.365	87.94
413.589	95.94
413.812	86.94
414.035	96.94
414.258	84.94
414.482	85.94
414.705	100.94
414.928	93.94
415.151	82.94
415.374	81.94
415.597	100.94
415.821	88.94
416.044	95.94
416.267	88.94
416.49	84.94
416.713	91.94
416.936	94.94
417.159	78.94
417.382	90.94
417.605	91.94
417.828	95.94
418.051	87.94
418.274	86.94
418.497	88.94
418.72	93.94
418.943	80.94
419.166	94.94
419.389	92.94
419.611	92.94
419.834	92.94
420.057	73.94
420.28	100.94
420.503	90.94
420.726	100.94
420.948	107.94
421.171	96.94
421.394	101.94
421.617	98.94
421.839	91.94
422.062	86.94
422.285	90.94
422.507	92.94
422.73	107.94
422.953	95.94
423.175	88.94
423.398	78.94
423.621	91.94
423.843	70.94
424.066	89.94
424.288	95.94
424.511	104.94
424.733	102.94
424.956	104.94
425.178	103.94
425.401	80.94
425.623	97.94
425.846	96.94
426.068	95.94
426.291	73.94
426.513	90.94
426.735	96.94
426.958	100.94
427.18	108.94
427.402	135.94
427.625	144.94
427.847	138.94
428.069	104.94
428.292	92.94
428.514	88.94
428.736	101.94
428.958	82.94
429.181	88.94
429.403	76.94
429.625	74.94
429.847	91.94
430.069	78.94
430.292	90.94
430.514	79.94
430.736	78.94
430.958	86.94
431.18	81.94
431.402	74.94
431.624	82.94
431.846	92.94
432.068	81.94
432.29	85.94
432.512	90.94
432.734	88.94
432.956	101.94
433.178	105.94
433.4	87.94
433.622	87.94
433.844	88.94
434.066	79.94
434.287	92.94
434.509	106.94
434.731	96.94
434.953	86.94
435.175	80.94
435.397	88.94
435.618	89.94
435.84	109.94
436.062	108.94
436.284	93.94
436.505	96.94
436.727	107.94
436.949	97.94
437.17	91.94
437.392	90.94
437.614	80.94
437.835	110.94
438.057	107.94
438.278	102.94
438.5	102.94
438.721	111.94
438.943	88.94
439.165	79.94
439.386	93.94
439.608	82.94
439.829	99.94
440.05	110.94
440.272	108.94
440.493	101.94
440.715	90.94
440.936	79.94
441.158	85.94
441.379	90.94
441.6	93.94
441.822	98.94
442.043	91.94
442.264	104.94
442.486	106.94
442.707	93.94
442.928	98.94
443.149	117.94
443.371	141.94
443.592	107.94
443.813	109.94
444.034	105.94
444.255	96.94
444.476	102.94
444.698	91.94
444.919	82.94
445.14	148.94
445.361	118.94
445.582	112.94
445.803	134.94
446.024	128.94
446.245	117.94
446.466	119.94
446.687	100.94
446.908	73.94
447.129	86.94
447.35	76.94
447.571	89.94
447.792	98.94
448.013	106.94
448.234	100.94
448.455	91.94
448.675	101.94
448.896	111.94
449.117	93.94
449.338	116.94
449.559	125.94
449.779	112.94
450	98.94
450.221	102.94
450.442	89.94
450.662	104.94
450.883	109.94
451.104	106.94
451.324	90.94
451.545	85.94
451.766	92.94
451.986	107.94
452.207	89.94
452.428	87.94
452.648	94.94
452.869	96.94
453.089	103.94
453.31	96.94
453.53	97.94
453.751	89.94
453.971	90.94
454.192	94.94
454.412	89.94
454.633	94.94
454.853	89.94
455.073	95.94
455.294	86.94
455.514	96.94
455.734	95.94
455.955	81.94
456.175	90.94
456.395	88.94
456.616	74.94
456.836	79.94
457.056	77.94
457.276	97.94
457.497	88.94
457.717	89.94
457.937	75.94
458.157	82.94
458.377	88.94
458.598	93.94
458.818	146.94
459.038	146.94
459.258	119.94
459.478	80.94
459.698	73.94
459.918	82.94
460.138	76.94
460.358	77.94
460.578	87.94
460.798	87.94
461.018	97.94
461.238	94.94
461.458	90.94
461.678	94.94
461.898	94.94
462.118	78.94
462.338	100.94
462.558	77.94
462.777	83.94
462.997	78.94
463.217	95.94
463.437	92.94
463.657	85.94
463.876	93.94
464.096	87.94
464.316	98.94
464.536	96.94
464.755	101.94
464.975	94.94
465.195	159.94
465.414	150.94
465.634	95.94
465.854	87.94
466.073	85.94
466.293	85.94
466.512	100.94
466.732	90.94
466.951	80.94
467.171	92.94
467.391	99.94
467.61	104.94
467.829	91.94
468.049	120.94
468.268	116.94
468.488	98.94
468.707	91.94
468.927	68.94
469.146	88.94
469.365	79.94
469.585	90.94
469.804	100.94
470.023	87.94
470.243	93.94
470.462	96.94
470.681	104.94
470.901	92.94
471.12	88.94
471.339	94.94
471.558	99.94
471.777	86.94
471.997	101.94
472.216	139.94
472.435	214.94
472.654	100.94
472.873	89.94
473.092	82.94
473.311	95.94
473.53	88.94
473.749	90.94
473.968	97.94
474.187	101.94
474.406	84.94
474.625	94.94
474.844	83.94
475.063	74.94
475.282	77.94
475.501	74.94
475.72	94.94
475.939	97.94
476.158	76.94
476.377	80.94
476.596	98.94
476.814	89.94
477.033	102.94
477.252	95.94
477.471	96.94
477.69	87.94
477.908	107.94
478.127	81.94
478.346	94.94
478.564	84.94
478.783	96.94
479.002	94.94
479.22	91.94
479.439	87.94
479.658	105.94
479.876	89.94
480.095	94.94
480.313	106.94
480.532	99.94
480.751	94.94
480.969	137.94
481.188	290.94
481.406	202.94
481.624	101.94
481.843	91.94
482.061	86.94
482.28	92.94
482.498	97.94
482.717	101.94
482.935	81.94
483.153	86.94
483.372	84.94
483.59	93.94
483.808	110.94
484.027	85.94
484.245	91.94
484.463	95.94
484.681	99.94
484.9	78.94
485.118	87.94
485.336	86.94
485.554	95.94
485.772	112.94
485.99	119.94
486.209	100.94
486.427	97.94
486.645	103.94
486.863	105.94
487.081	110.94
487.299	103.94
487.517	103.94
487.735	90.94
487.953	96.94
488.171	81.94
488.389	92.94
488.607	111.94
488.825	85.94
489.043	92.94
489.261	94.94
489.479	92.94
489.696	98.94
489.914	84.94
490.132	91.94
490.35	72.94
490.568	102.94
490.786	77.94
491.003	86.94
491.221	88.94
491.439	89.94
491.657	99.94
491.874	100.94
492.092	98.94
492.31	85.94
492.527	111.94
492.745	89.94
492.963	92.94
493.18	93.94
493.398	98.94
493.615	107.94
493.833	97.94
494.05	95.94
494.268	77.94
494.485	74.94
494.703	77.94
494.92	89.94
495.138	88.94
495.355	86.94
495.573	94.94
495.79	90.94
496.008	97.94
496.225	88.94
496.442	101.94
496.66	90.94
496.877	72.94
497.094	90.94
497.312	93.94
497.529	96.94
497.746	98.94
497.963	81.94
498.181	93.94
498.398	97.94
498.615	96.94
498.832	102.94
499.049	89.94
499.267	86.94
499.484	100.94
499.701	80.94
499.918	93.94
500.135	86.94
500.352	78.94
500.569	93.94
500.786	95.94
501.003	79.94
501.22	103.94
501.437	90.94
501.654	103.94
501.871	109.94
502.088	89.94
502.305	89.94
502.522	89.94
502.739	85.94
502.956	97.94
503.172	106.94
503.389	101.94
503.606	92.94
503.823	105.94
504.04	100.94
504.256	101.94
504.473	96.94
504.69	87.94
504.907	88.94
505.123	94.94
505.34	98.94
505.557	89.94
505.773	104.94
505.99	90.94
506.207	80.94
506.423	85.94
506.64	102.94
506.856	97.94
507.073	86.94
507.289	90.94
507.506	92.94
507.722	95.94
507.939	95.94
508.155	100.94
508.372	100.94
508.588	108.94
508.805	94.94
509.021	96.94
509.238	99.94
509.454	97.94
509.67	94.94
509.887	112.94
510.103	118.94
510.319	198.94
510.536	705.94
510.752	2217.94
510.968	650.94
511.184	163.94
511.401	117.94
511.617	101.94
511.833	100.94
512.049	93.94
512.265	90.94
512.481	86.94
512.698	94.94
512.914	88.94
513.13	99.94
513.346	91.94
513.562	95.94
513.778	97.94
513.994	87.94
514.21	85.94
514.426	125.94
514.642	116.94
514.858	106.94
515.074	160.94
515.29	424.94
515.506	1358.94
515.721	524.94
515.937	145.94
516.153	119.94
516.369	109.94
516.585	98.94
516.801	109.94
517.016	97.94
517.232	95.94
517.448	96.94
517.664	94.94
517.879	103.94
518.095	87.94
518.311	95.94
518.527	92.94
518.742	93.94
518.958	96.94
519.173	89.94
519.389	97.94
519.605	90.94
519.82	101.94
520.036	117.94
520.251	128.94
520.467	106.94
520.682	94.94
520.898	103.94
521.113	111.94
521.329	124.94
521.544	166.94
521.76	521.94
521.975	2261.94
522.19	1399.94
522.406	301.94
522.621	124.94
522.836	97.94
523.052	115.94
523.267	97.94
523.482	95.94
523.698	93.94
523.913	119.94
524.128	110.94
524.343	97.94
524.559	88.94
524.774	80.94
524.989	98.94
525.204	102.94
525.419	109.94
525.634	93.94
525.849	93.94
526.064	81.94
526.28	85.94
526.495	88.94
526.71	72.94
526.925	90.94
527.14	98.94
527.355	98.94
527.57	74.94
527.785	72.94
527.999	96.94
528.214	95.94
528.429	92.94
528.644	88.94
528.859	105.94
529.074	96.94
529.289	139.94
529.503	168.94
529.718	108.94
529.933	95.94
530.148	82.94
530.363	82.94
530.577	97.94
530.792	83.94
531.007	94.94
531.221	96.94
531.436	84.94
531.651	82.94
531.865	79.94
532.08	83.94
532.295	82.94
532.509	84.94
532.724	93.94
532.938	99.94
533.153	110.94
533.367	102.94
533.582	94.94
533.796	91.94
534.011	100.94
534.225	88.94
534.44	83.94
534.654	96.94
534.868	91.94
535.083	95.94
535.297	100.94
535.511	102.94
535.726	106.94
535.94	104.94
536.154	94.94
536.369	96.94
536.583	93.94
536.797	94.94
537.011	94.94
537.225	92.94
537.44	96.94
537.654	75.94
537.868	81.94
538.082	94.94
538.296	78.94
538.51	103.94
538.724	81.94
538.938	96.94
539.153	100.94
539.367	101.94
539.581	86.94
539.795	94.94
540.009	91.94
540.222	100.94
540.436	97.94
540.65	93.94
540.864	88.94
541.078	84.94
541.292	94.94
541.506	99.94
541.72	93.94
541.934	98.94
542.147	96.94
542.361	88.94
542.575	76.94
542.789	95.94
543.002	87.94
543.216	109.94
543.43	94.94
543.644	82.94
543.857	101.94
544.071	84.94
544.285	95.94
544.498	99.94
544.712	101.94
544.925	89.94
545.139	91.94
545.352	101.94
545.566	99.94
545.779	81.94
545.993	93.94
546.206	97.94
546.42	81.94
546.633	88.94
546.847	93.94
547.06	110.94
547.274	80.94
547.487	91.94
547.7	88.94
547.914	88.94
548.127	71.94
548.34	82.94
548.554	75.94
548.767	92.94
548.98	84.94
549.193	96.94
549.407	81.94
549.62	88.94
549.833	103.94
550.046	89.94
550.259	92.94
550.473	88.94
550.686	85.94
550.899	77.94
551.112	91.94
551.325	81.94
551.538	86.94
551.751	92.94
551.964	75.94
552.177	96.94
552.39	88.94
552.603	74.94
552.816	88.94
553.029	85.94
553.242	89.94
553.455	89.94
553.667	93.94
553.88	105.94
554.093	90.94
554.306	88.94
554.519	90.94
554.732	97.94
554.944	98.94
555.157	82.94
555.37	92.94
555.583	94.94
555.795	75.94
556.008	81.94
556.221	90.94
556.433	94.94
556.646	89.94
556.859	96.94
557.071	75.94
557.284	90.94
557.496	99.94
557.709	103.94
557.921	91.94
558.134	100.94
558.346	98.94
558.559	98.94
558.771	92.94
558.984	87.94
559.196	89.94
559.409	94.94
559.621	91.94
559.833	93.94
560.046	92.94
560.258	86.94
560.47	90.94
560.683	88.94
560.895	98.94
561.107	87.94
561.32	87.94
561.532	81.94
561.744	82.94
561.956	88.94
562.168	79.94
562.381	84.94
562.593	90.94
562.805	92.94
563.017	78.94
563.229	82.94
563.441	87.94
563.653	88.94
563.865	101.94
564.077	96.94
564.289	86.94
564.501	91.94
564.713	88.94
564.925	93.94
565.137	92.94
565.349	97.94
565.561	88.94
565.773	96.94
565.985	88.94
566.197	96.94
566.408	95.94
566.62	69.94
566.832	87.94
567.044	81.94
567.255	88.94
567.467	87.94
567.679	88.94
567.891	85.94
568.102	82.94
568.314	89.94
568.526	79.94
568.737	80.94
568.949	88.94
569.161	79.94
569.372	86.94
569.584	82.94
569.795	97.94
570.007	105.94
570.218	233.94
570.43	136.94
570.641	94.94
570.853	84.94
571.064	82.94
571.276	73.94
571.487	100.94
571.698	91.94
571.91	78.94
572.121	89.94
572.333	105.94
572.544	94.94
572.755	98.94
572.966	90.94
573.178	76.94
573.389	97.94
573.6	85.94
573.811	87.94
574.023	87.94
574.234	68.94
574.445	81.94
574.656	76.94
574.867	88.94
575.078	93.94
575.289	84.94
575.501	82.94
575.712	85.94
575.923	84.94
576.134	93.94
576.345	94.94
576.556	92.94
576.767	94.94
576.978	105.94
577.188	88.94
577.399	81.94
577.61	98.94
577.821	101.94
578.032	94.94
578.243	244.94
578.454	681.94
578.665	201.94
578.875	107.94
579.086	89.94
579.297	87.94
579.508	99.94
579.718	86.94
579.929	93.94
580.14	89.94
580.35	83.94
580.561	84.94
580.772	88.94
580.982	92.94
581.193	87.94
581.403	81.94
581.614	87.94
581.825	99.94
582.035	100.94
582.246	106.94
582.456	90.94
582.667	77.94
582.877	79.94
583.087	93.94
583.298	86.94
583.508	89.94
583.719	93.94
583.929	78.94
584.139	98.94
584.35	95.94
584.56	92.94
584.77	90.94
584.981	82.94
585.191	95.94
585.401	97.94
585.611	97.94
585.821	77.94
586.032	90.94
586.242	92.94
586.452	86.94
586.662	78.94
586.872	75.94
587.082	88.94
587.292	100.94
587.502	79.94
587.713	95.94
587.923	89.94
588.133	81.94
588.343	79.94
588.553	86.94
588.762	90.94
588.972	102.94
589.182	164.94
589.392	111.94
589.602	103.94
589.812	130.94
590.022	97.94
590.232	87.94
590.441	79.94
590.651	86.94
590.861	90.94
591.071	97.94
591.281	80.94
591.49	79.94
591.7	76.94
591.91	86.94
592.119	77.94
592.329	102.94
592.539	95.94
592.748	96.94
592.958	75.94
593.167	89.94
593.377	82.94
593.587	90.94
593.796	96.94
594.006	89.94
594.215	102.94
594.424	104.94
594.634	97.94
594.843	80.94
595.053	84.94
595.262	96.94
595.472	86.94
595.681	90.94
595.89	80.94
596.1	79.94
596.309	93.94
596.518	97.94
596.727	93.94
596.937	88.94
597.146	83.94
597.355	89.94
597.564	82.94
597.774	87.94
597.983	89.94
598.192	88.94
598.401	89.94
598.61	82.94
598.819	87.94
599.028	86.94
599.237	79.94
599.446	84.94
599.655	93.94
599.864	84.94
600.073	92.94
600.282	89.94
600.491	81.94
600.7	85.94
600.909	81.94
601.118	78.94
601.327	93.94
601.536	85.94
601.745	95.94
601.953	92.94
602.162	87.94
602.371	92.94
602.58	95.94
602.789	90.94
602.997	78.94
603.206	90.94
603.415	84.94
603.623	82.94
603.832	89.94
604.041	78.94
604.249	90.94
604.458	92.94
604.666	82.94
604.875	88.94
605.084	73.94
605.292	86.94
605.501	81.94
605.709	81.94
605.918	92.94
606.126	89.94
606.334	98.94
606.543	97.94
606.751	82.94
606.96	93.94
607.168	81.94
607.376	84.94
607.585	81.94
607.793	100.94
608.001	84.94
608.21	84.94
608.418	96.94
608.626	88.94
608.834	98.94
609.043	89.94
609.251	87.94
609.459	79.94
609.667	86.94
609.875	79.94
610.083	79.94
610.291	79.94
610.499	75.94
610.707	82.94
610.916	86.94
611.124	82.94
611.332	69.94
611.54	95.94
611.748	93.94
611.955	84.94
612.163	85.94
612.371	76.94
612.579	79.94
612.787	82.94
612.995	86.94
613.203	87.94
613.411	96.94
613.618	103.94
613.826	84.94
614.034	91.94
614.242	86.94
614.449	82.94
614.657	84.94
614.865	93.94
615.072	79.94
615.28	94.94
615.488	76.94
615.695	91.94
615.903	93.94
616.111	107.94
616.318	90.94
616.526	78.94
616.733	93.94
616.941	104.94
617.148	108.94
617.356	91.94
617.563	96.94
617.771	95.94
617.978	77.94
618.185	81.94
618.393	79.94
618.6	82.94
618.807	85.94
619.015	87.94
619.222	74.94
619.429	90.94
619.637	88.94
619.844	82.94
620.051	78.94
620.258	86.94
620.466	86.94
620.673	80.94
620.88	72.94
621.087	77.94
621.294	87.94
621.501	88.94
621.708	68.94
621.915	75.94
622.122	75.94
622.329	90.94
622.536	81.94
622.743	95.94
622.95	87.94
623.157	95.94
623.364	89.94
623.571	74.94
623.778	93.94
623.985	79.94
624.192	77.94
624.399	94.94
624.606	96.94
624.812	75.94
625.019	75.94
625.226	84.94
625.433	96.94
625.639	82.94
625.846	87.94
626.053	77.94
626.259	87.94
626.466	87.94
626.673	76.94
626.879	88.94
627.086	82.94
627.293	90.94
627.499	89.94
627.706	89.94
627.912	84.94
628.119	95.94
628.325	82.94
628.532	85.94
628.738	85.94
628.945	79.94
629.151	84.94
629.357	74.94
629.564	90.94
629.77	82.94
629.976	87.94
630.183	87.94
630.389	77.94
630.595	82.94
630.802	78.94
631.008	74.94
631.214	85.94
631.42	90.94
631.627	88.94
631.833	86.94
632.039	108.94
632.245	82.94
632.451	87.94
632.657	76.94
632.863	81.94
633.069	86.94
633.275	91.94
633.481	80.94
633.688	92.94
633.893	93.94
634.099	92.94
634.305	83.94
634.511	96.94
634.717	77.94
634.923	93.94
635.129	100.94
635.335	83.94
635.541	81.94
635.747	79.94
635.952	89.94
636.158	68.94
636.364	95.94
636.57	92.94
636.775	77.94
636.981	89.94
637.187	98.94
637.392	74.94
637.598	78.94
637.804	85.94
638.009	95.94
638.215	71.94
638.421	70.94
638.626	88.94
638.832	82.94
639.037	88.94
639.243	95.94
639.448	81.94
639.654	82.94
639.859	89.94
640.065	81.94
640.27	78.94
640.475	85.94
640.681	86.94
640.886	92.94
641.091	82.94
641.297	66.94
641.502	82.94
641.707	81.94
641.913	87.94
642.118	92.94
642.323	87.94
642.528	83.94
642.733	100.94
642.939	89.94
643.144	82.94
643.349	83.94
643.554	86.94
643.759	59.94
643.964	89.94
644.169	70.94
644.374	88.94
644.579	93.94
644.784	85.94
644.989	77.94
645.194	85.94
645.399	93.94
645.604	84.94
645.809	89.94
646.014	101.94
646.219	91.94
646.423	94.94
646.628	83.94
646.833	87.94
647.038	72.94
647.243	72.94
647.447	88.94
647.652	75.94
647.857	100.94
648.062	92.94
648.266	97.94
648.471	84.94
648.676	96.94
648.88	90.94
649.085	92.94
649.289	72.94
649.494	100.94
649.698	119.94
649.903	94.94
650.107	92.94
650.312	90.94
650.516	81.94
650.721	102.94
650.925	77.94
651.13	84.94
651.334	81.94
651.539	80.94
651.743	91.94
651.947	93.94
652.152	69.94
652.356	70.94
652.56	68.94
652.764	90.94
652.969	80.94
653.173	93.94
653.377	85.94
653.581	86.94
653.785	63.94
653.99	77.94
654.194	74.94
654.398	89.94
654.602	78.94
654.806	76.94
655.01	110.94
655.214	91.94
655.418	77.94
655.622	80.94
655.826	90.94
656.03	88.94
656.234	90.94
656.438	103.94
656.642	86.94
656.846	93.94
657.049	95.94
657.253	111.94
657.457	93.94
657.661	84.94
657.865	78.94
658.068	79.94
658.272	85.94
658.476	81.94
658.68	68.94
658.883	77.94
659.087	72.94
659.291	86.94
659.494	87.94
659.698	92.94
659.901	82.94
660.105	89.94
660.309	82.94
660.512	96.94
660.716	80.94
660.919	80.94
661.123	84.94
661.326	78.94
661.53	86.94
661.733	88.94
661.936	86.94
662.14	84.94
662.343	87.94
662.546	77.94
662.75	78.94
662.953	85.94
663.156	82.94
663.36	92.94
663.563	80.94
663.766	80.94
663.969	80.94
664.173	76.94
664.376	76.94
664.579	93.94
664.782	74.94
664.985	82.94
665.188	89.94
665.391	79.94
665.594	81.94
665.797	93.94
666	89.94
666.203	66.94
666.406	70.94
666.609	80.94
666.812	88.94
667.015	82.94
667.218	69.94
667.421	83.94
667.624	96.94
667.827	85.94
668.03	79.94
668.232	87.94
668.435	63.94
668.638	73.94
668.841	91.94
669.043	78.94
669.246	93.94
669.449	91.94
669.651	85.94
669.854	90.94
670.057	82.94
670.259	79.94
670.462	85.94
670.665	92.94
670.867	93.94
671.07	92.94
671.272	68.94
671.475	72.94
671.677	83.94
671.88	100.94
672.082	69.94
672.284	91.94
672.487	77.94
672.689	75.94
672.892	83.94
