Data from Circ_2010_H10_HRD10591_00095.txt Node
Date: Wed Jan 03 10:10:00 EST 2024
User: Yrep
Spectrometer: HR+D1059
Trigger mode: 1
Integration Time (sec): 1.000000E-1
Scans to average: 1
Electric dark correction enabled: true
Nonlinearity correction enabled: false
Boxcar width: 0
XAxis mode: Wavelengths
Number of Pixels in Spectrum: 2048
>>>>>Begin Spectral Data<<<<<
223.165	-28.94
223.4	-28.94
223.635	-28.94
223.869	-18.94
224.104	-16.94
224.338	-18.94
224.573	-19.94
224.808	-12.94
225.042	-13.94
225.277	-10.94
225.511	8.06
225.746	-0.94
225.98	12.06
226.215	13.06
226.449	22.06
226.683	26.06
226.918	34.06
227.152	27.06
227.387	35.06
227.621	43.06
227.856	43.06
228.09	46.06
228.324	55.06
228.559	49.06
228.793	55.06
229.027	67.06
229.262	66.06
229.496	86.06
229.73	78.06
229.964	79.06
230.199	78.06
230.433	68.06
230.667	97.06
230.901	70.06
231.136	82.06
231.37	76.06
231.604	84.06
231.838	90.06
232.072	90.06
232.306	68.06
232.541	81.06
232.775	86.06
233.009	84.06
233.243	85.06
233.477	94.06
233.711	91.06
233.945	90.06
234.179	83.06
234.413	81.06
234.647	70.06
234.881	74.06
235.115	78.06
235.349	86.06
235.583	79.06
235.817	84.06
236.051	78.06
236.285	88.06
236.519	68.06
236.753	94.06
236.987	77.06
237.221	85.06
237.455	75.06
237.689	87.06
237.922	73.06
238.156	79.06
238.39	78.06
238.624	82.06
238.858	81.06
239.091	78.06
239.325	78.06
239.559	78.06
239.793	74.06
240.027	71.06
240.26	79.06
240.494	79.06
240.728	70.06
240.961	83.06
241.195	86.06
241.429	73.06
241.662	78.06
241.896	75.06
242.13	86.06
242.363	87.06
242.597	86.06
242.83	75.06
243.064	82.06
243.298	87.06
243.531	86.06
243.765	86.06
243.998	68.06
244.232	77.06
244.465	67.06
244.699	75.06
244.932	78.06
245.166	81.06
245.399	78.06
245.633	70.06
245.866	68.06
246.099	70.06
246.333	80.06
246.566	68.06
246.8	80.06
247.033	74.06
247.266	59.06
247.5	72.06
247.733	75.06
247.966	80.06
248.2	72.06
248.433	75.06
248.666	69.06
248.899	72.06
249.133	103.06
249.366	95.06
249.599	101.06
249.832	81.06
250.066	86.06
250.299	69.06
250.532	88.06
250.765	65.06
250.998	78.06
251.231	70.06
251.465	77.06
251.698	84.06
251.931	78.06
252.164	73.06
252.397	63.06
252.63	84.06
252.863	83.06
253.096	88.06
253.329	94.06
253.562	76.06
253.795	79.06
254.028	70.06
254.261	81.06
254.494	82.06
254.727	76.06
254.96	78.06
255.193	86.06
255.426	85.06
255.659	72.06
255.892	85.06
256.124	75.06
256.357	77.06
256.59	86.06
256.823	77.06
257.056	72.06
257.289	75.06
257.521	79.06
257.754	90.06
257.987	70.06
258.22	88.06
258.452	89.06
258.685	86.06
258.918	74.06
259.151	77.06
259.383	68.06
259.616	81.06
259.849	69.06
260.081	88.06
260.314	83.06
260.547	82.06
260.779	79.06
261.012	73.06
261.244	92.06
261.477	81.06
261.71	91.06
261.942	119.06
262.175	118.06
262.407	92.06
262.64	77.06
262.872	83.06
263.105	83.06
263.337	87.06
263.57	74.06
263.802	77.06
264.035	74.06
264.267	73.06
264.499	77.06
264.732	79.06
264.964	77.06
265.197	82.06
265.429	88.06
265.661	79.06
265.894	89.06
266.126	74.06
266.358	85.06
266.591	76.06
266.823	83.06
267.055	78.06
267.287	85.06
267.52	76.06
267.752	80.06
267.984	71.06
268.216	75.06
268.448	80.06
268.681	85.06
268.913	75.06
269.145	87.06
269.377	95.06
269.609	78.06
269.841	71.06
270.073	86.06
270.306	79.06
270.538	74.06
270.77	83.06
271.002	93.06
271.234	78.06
271.466	89.06
271.698	102.06
271.93	77.06
272.162	84.06
272.394	77.06
272.626	68.06
272.858	89.06
273.09	88.06
273.322	82.06
273.553	95.06
273.785	96.06
274.017	91.06
274.249	86.06
274.481	70.06
274.713	80.06
274.945	88.06
275.176	95.06
275.408	95.06
275.64	90.06
275.872	67.06
276.104	80.06
276.335	101.06
276.567	94.06
276.799	103.06
277.031	105.06
277.262	116.06
277.494	105.06
277.726	83.06
277.957	89.06
278.189	84.06
278.421	83.06
278.652	75.06
278.884	80.06
279.115	99.06
279.347	88.06
279.579	98.06
279.81	89.06
280.042	104.06
280.273	132.06
280.505	102.06
280.736	101.06
280.968	86.06
281.199	73.06
281.431	87.06
281.662	70.06
281.894	85.06
282.125	87.06
282.356	112.06
282.588	153.06
282.819	120.06
283.051	89.06
283.282	90.06
283.513	86.06
283.745	82.06
283.976	89.06
284.207	77.06
284.439	91.06
284.67	77.06
284.901	82.06
285.132	83.06
285.364	93.06
285.595	86.06
285.826	95.06
286.057	101.06
286.288	82.06
286.52	85.06
286.751	79.06
286.982	94.06
287.213	79.06
287.444	76.06
287.675	83.06
287.906	103.06
288.138	95.06
288.369	89.06
288.6	79.06
288.831	91.06
289.062	98.06
289.293	90.06
289.524	87.06
289.755	76.06
289.986	79.06
290.217	85.06
290.448	75.06
290.679	80.06
290.91	83.06
291.141	80.06
291.371	79.06
291.602	90.06
291.833	88.06
292.064	79.06
292.295	82.06
292.526	84.06
292.757	90.06
292.987	102.06
293.218	98.06
293.449	67.06
293.68	83.06
293.91	77.06
294.141	87.06
294.372	75.06
294.603	87.06
294.833	100.06
295.064	85.06
295.295	102.06
295.525	89.06
295.756	95.06
295.987	99.06
296.217	136.06
296.448	123.06
296.679	103.06
296.909	83.06
297.14	83.06
297.37	83.06
297.601	90.06
297.831	89.06
298.062	89.06
298.292	85.06
298.523	93.06
298.753	101.06
298.984	86.06
299.214	79.06
299.445	99.06
299.675	86.06
299.905	86.06
300.136	77.06
300.366	91.06
300.597	83.06
300.827	92.06
301.057	91.06
301.288	99.06
301.518	84.06
301.748	91.06
301.979	104.06
302.209	93.06
302.439	92.06
302.669	86.06
302.9	84.06
303.13	86.06
303.36	101.06
303.59	119.06
303.82	107.06
304.051	80.06
304.281	83.06
304.511	95.06
304.741	93.06
304.971	81.06
305.201	91.06
305.431	95.06
305.661	94.06
305.891	89.06
306.121	99.06
306.352	94.06
306.582	98.06
306.812	93.06
307.042	103.06
307.272	110.06
307.502	103.06
307.731	119.06
307.961	100.06
308.191	83.06
308.421	91.06
308.651	76.06
308.881	88.06
309.111	91.06
309.341	84.06
309.571	88.06
309.8	94.06
310.03	85.06
310.26	89.06
310.49	88.06
310.72	106.06
310.949	91.06
311.179	89.06
311.409	101.06
311.639	103.06
311.868	91.06
312.098	85.06
312.328	109.06
312.557	91.06
312.787	116.06
313.017	107.06
313.246	97.06
313.476	83.06
313.706	82.06
313.935	79.06
314.165	104.06
314.394	93.06
314.624	96.06
314.853	94.06
315.083	88.06
315.312	90.06
315.542	104.06
315.771	82.06
316.001	93.06
316.23	93.06
316.46	83.06
316.689	104.06
316.919	89.06
317.148	80.06
317.377	104.06
317.607	90.06
317.836	89.06
318.065	106.06
318.295	88.06
318.524	94.06
318.753	93.06
318.983	99.06
319.212	98.06
319.441	118.06
319.67	116.06
319.9	95.06
320.129	84.06
320.358	92.06
320.587	95.06
320.816	96.06
321.046	83.06
321.275	95.06
321.504	94.06
321.733	101.06
321.962	103.06
322.191	97.06
322.42	114.06
322.649	110.06
322.878	125.06
323.108	117.06
323.337	131.06
323.566	141.06
323.795	165.06
324.024	208.06
324.253	426.06
324.482	938.06
324.71	1972.06
324.939	2544.06
325.168	904.06
325.397	276.06
325.626	158.06
325.855	142.06
326.084	121.06
326.313	142.06
326.542	158.06
326.77	277.06
326.999	508.06
327.228	1093.06
327.457	1948.06
327.686	1532.06
327.914	441.06
328.143	271.06
328.372	272.06
328.6	179.06
328.829	154.06
329.058	139.06
329.287	145.06
329.515	120.06
329.744	138.06
329.972	188.06
330.201	334.06
330.43	476.06
330.658	258.06
330.887	175.06
331.115	130.06
331.344	99.06
331.572	96.06
331.801	101.06
332.03	101.06
332.258	94.06
332.486	111.06
332.715	90.06
332.943	99.06
333.172	101.06
333.4	95.06
333.629	119.06
333.857	142.06
334.085	190.06
334.314	343.06
334.542	574.06
334.771	555.06
334.999	192.06
335.227	109.06
335.455	87.06
335.684	94.06
335.912	99.06
336.14	93.06
336.369	92.06
336.597	95.06
336.825	87.06
337.053	87.06
337.281	90.06
337.51	85.06
337.738	100.06
337.966	83.06
338.194	98.06
338.422	101.06
338.65	93.06
338.878	101.06
339.106	95.06
339.334	83.06
339.562	93.06
339.79	90.06
340.018	90.06
340.246	95.06
340.474	102.06
340.702	104.06
340.93	84.06
341.158	94.06
341.386	97.06
341.614	94.06
341.842	79.06
342.07	83.06
342.298	108.06
342.526	92.06
342.754	93.06
342.981	102.06
343.209	84.06
343.437	100.06
343.665	90.06
343.893	92.06
344.12	98.06
344.348	88.06
344.576	100.06
344.804	76.06
345.031	102.06
345.259	95.06
345.487	92.06
345.714	83.06
345.942	82.06
346.17	101.06
346.397	92.06
346.625	86.06
346.853	92.06
347.08	93.06
347.308	80.06
347.535	91.06
347.763	94.06
347.99	95.06
348.218	93.06
348.445	106.06
348.673	94.06
348.9	96.06
349.128	110.06
349.355	94.06
349.583	101.06
349.81	94.06
350.037	85.06
350.265	100.06
350.492	86.06
350.72	100.06
350.947	102.06
351.174	106.06
351.402	107.06
351.629	91.06
351.856	94.06
352.083	92.06
352.311	106.06
352.538	107.06
352.765	115.06
352.992	108.06
353.22	99.06
353.447	103.06
353.674	86.06
353.901	75.06
354.128	92.06
354.355	103.06
354.583	101.06
354.81	92.06
355.037	86.06
355.264	81.06
355.491	87.06
355.718	95.06
355.945	100.06
356.172	88.06
356.399	96.06
356.626	103.06
356.853	93.06
357.08	94.06
357.307	92.06
357.534	94.06
357.761	94.06
357.988	91.06
358.215	100.06
358.441	82.06
358.668	70.06
358.895	73.06
359.122	83.06
359.349	79.06
359.576	97.06
359.802	99.06
360.029	121.06
360.256	118.06
360.483	109.06
360.709	92.06
360.936	84.06
361.163	98.06
361.39	86.06
361.616	85.06
361.843	88.06
362.07	94.06
362.296	84.06
362.523	76.06
362.749	90.06
362.976	91.06
363.203	96.06
363.429	97.06
363.656	97.06
363.882	91.06
364.109	91.06
364.335	87.06
364.562	87.06
364.788	87.06
365.015	84.06
365.241	86.06
365.468	103.06
365.694	107.06
365.92	87.06
366.147	80.06
366.373	87.06
366.599	83.06
366.826	86.06
367.052	90.06
367.278	76.06
367.505	92.06
367.731	93.06
367.957	91.06
368.184	94.06
368.41	92.06
368.636	111.06
368.862	134.06
369.089	112.06
369.315	92.06
369.541	82.06
369.767	87.06
369.993	89.06
370.219	85.06
370.445	99.06
370.672	81.06
370.898	94.06
371.124	86.06
371.35	72.06
371.576	90.06
371.802	70.06
372.028	95.06
372.254	83.06
372.48	79.06
372.706	87.06
372.932	87.06
373.158	92.06
373.384	90.06
373.61	94.06
373.835	90.06
374.061	92.06
374.287	91.06
374.513	80.06
374.739	89.06
374.965	80.06
375.191	101.06
375.416	94.06
375.642	80.06
375.868	92.06
376.094	84.06
376.319	88.06
376.545	82.06
376.771	80.06
376.997	87.06
377.222	86.06
377.448	90.06
377.674	93.06
377.899	80.06
378.125	87.06
378.35	88.06
378.576	84.06
378.802	74.06
379.027	94.06
379.253	90.06
379.478	94.06
379.704	93.06
379.929	86.06
380.155	95.06
380.38	92.06
380.606	86.06
380.831	78.06
381.057	87.06
381.282	79.06
381.507	103.06
381.733	96.06
381.958	99.06
382.184	94.06
382.409	81.06
382.634	99.06
382.86	79.06
383.085	96.06
383.31	77.06
383.535	104.06
383.761	86.06
383.986	99.06
384.211	111.06
384.436	85.06
384.662	104.06
384.887	100.06
385.112	100.06
385.337	99.06
385.562	97.06
385.787	92.06
386.013	109.06
386.238	101.06
386.463	106.06
386.688	102.06
386.913	108.06
387.138	99.06
387.363	100.06
387.588	94.06
387.813	78.06
388.038	84.06
388.263	97.06
388.488	98.06
388.713	105.06
388.938	95.06
389.163	95.06
389.387	94.06
389.612	91.06
389.837	85.06
390.062	87.06
390.287	93.06
390.512	81.06
390.736	82.06
390.961	90.06
391.186	91.06
391.411	103.06
391.636	108.06
391.86	87.06
392.085	93.06
392.31	102.06
392.534	82.06
392.759	98.06
392.984	101.06
393.208	97.06
393.433	92.06
393.658	93.06
393.882	94.06
394.107	88.06
394.331	85.06
394.556	83.06
394.78	93.06
395.005	84.06
395.229	81.06
395.454	95.06
395.678	87.06
395.903	83.06
396.127	88.06
396.352	76.06
396.576	96.06
396.801	86.06
397.025	85.06
397.249	83.06
397.474	81.06
397.698	75.06
397.922	91.06
398.147	78.06
398.371	84.06
398.595	91.06
398.82	91.06
399.044	76.06
399.268	102.06
399.492	86.06
399.717	79.06
399.941	107.06
400.165	98.06
400.389	87.06
400.613	100.06
400.837	80.06
401.062	89.06
401.286	93.06
401.51	80.06
401.734	89.06
401.958	97.06
402.182	129.06
402.406	165.06
402.63	134.06
402.854	85.06
403.078	87.06
403.302	86.06
403.526	85.06
403.75	91.06
403.974	86.06
404.198	100.06
404.422	63.06
404.645	83.06
404.869	86.06
405.093	102.06
405.317	106.06
405.541	110.06
405.765	99.06
405.988	115.06
406.212	171.06
406.436	226.06
406.66	159.06
406.883	102.06
407.107	94.06
407.331	95.06
407.555	112.06
407.778	76.06
408.002	94.06
408.226	108.06
408.449	99.06
408.673	76.06
408.896	85.06
409.12	95.06
409.344	97.06
409.567	82.06
409.791	92.06
410.014	89.06
410.238	91.06
410.461	95.06
410.685	98.06
410.908	103.06
411.132	95.06
411.355	92.06
411.578	100.06
411.802	84.06
412.025	76.06
412.249	107.06
412.472	105.06
412.695	102.06
412.919	107.06
413.142	83.06
413.365	77.06
413.589	80.06
413.812	80.06
414.035	96.06
414.258	89.06
414.482	87.06
414.705	71.06
414.928	94.06
415.151	99.06
415.374	96.06
415.597	99.06
415.821	90.06
416.044	107.06
416.267	82.06
416.49	88.06
416.713	92.06
416.936	84.06
417.159	75.06
417.382	78.06
417.605	86.06
417.828	87.06
418.051	96.06
418.274	92.06
418.497	86.06
418.72	83.06
418.943	82.06
419.166	89.06
419.389	79.06
419.611	87.06
419.834	98.06
420.057	101.06
420.28	106.06
420.503	90.06
420.726	93.06
420.948	79.06
421.171	87.06
421.394	93.06
421.617	86.06
421.839	98.06
422.062	91.06
422.285	88.06
422.507	90.06
422.73	104.06
422.953	95.06
423.175	70.06
423.398	87.06
423.621	97.06
423.843	93.06
424.066	83.06
424.288	99.06
424.511	79.06
424.733	106.06
424.956	108.06
425.178	100.06
425.401	105.06
425.623	105.06
425.846	93.06
426.068	107.06
426.291	92.06
426.513	100.06
426.735	83.06
426.958	88.06
427.18	126.06
427.402	147.06
427.625	201.06
427.847	170.06
428.069	157.06
428.292	109.06
428.514	103.06
428.736	79.06
428.958	80.06
429.181	75.06
429.403	78.06
429.625	88.06
429.847	101.06
430.069	93.06
430.292	90.06
430.514	73.06
430.736	83.06
430.958	77.06
431.18	71.06
431.402	95.06
431.624	85.06
431.846	75.06
432.068	72.06
432.29	87.06
432.512	91.06
432.734	90.06
432.956	77.06
433.178	106.06
433.4	84.06
433.622	93.06
433.844	86.06
434.066	77.06
434.287	93.06
434.509	76.06
434.731	90.06
434.953	81.06
435.175	74.06
435.397	90.06
435.618	83.06
435.84	102.06
436.062	132.06
436.284	109.06
436.505	101.06
436.727	106.06
436.949	90.06
437.17	103.06
437.392	75.06
437.614	98.06
437.835	112.06
438.057	134.06
438.278	116.06
438.5	108.06
438.721	122.06
438.943	95.06
439.165	81.06
439.386	81.06
439.608	104.06
439.829	88.06
440.05	117.06
440.272	161.06
440.493	107.06
440.715	98.06
440.936	91.06
441.158	89.06
441.379	98.06
441.6	80.06
441.822	100.06
442.043	101.06
442.264	103.06
442.486	101.06
442.707	88.06
442.928	112.06
443.149	164.06
443.371	154.06
443.592	114.06
443.813	115.06
444.034	90.06
444.255	80.06
444.476	74.06
444.698	96.06
444.919	95.06
445.14	137.06
445.361	126.06
445.582	118.06
445.803	165.06
446.024	163.06
446.245	147.06
446.466	124.06
446.687	106.06
446.908	77.06
447.129	85.06
447.35	83.06
447.571	102.06
447.792	86.06
448.013	103.06
448.234	107.06
448.455	123.06
448.675	130.06
448.896	125.06
449.117	113.06
449.338	110.06
449.559	126.06
449.779	139.06
450	77.06
450.221	80.06
450.442	91.06
450.662	91.06
450.883	95.06
451.104	114.06
451.324	109.06
451.545	86.06
451.766	93.06
451.986	91.06
452.207	87.06
452.428	100.06
452.648	91.06
452.869	109.06
453.089	116.06
453.31	104.06
453.53	87.06
453.751	95.06
453.971	96.06
454.192	109.06
454.412	86.06
454.633	81.06
454.853	83.06
455.073	80.06
455.294	92.06
455.514	118.06
455.734	92.06
455.955	78.06
456.175	75.06
456.395	84.06
456.616	72.06
456.836	85.06
457.056	66.06
457.276	80.06
457.497	70.06
457.717	78.06
457.937	68.06
458.157	87.06
458.377	83.06
458.598	118.06
458.818	158.06
459.038	174.06
459.258	122.06
459.478	88.06
459.698	80.06
459.918	76.06
460.138	85.06
460.358	75.06
460.578	84.06
460.798	96.06
461.018	94.06
461.238	85.06
461.458	79.06
461.678	89.06
461.898	86.06
462.118	78.06
462.338	90.06
462.558	100.06
462.777	83.06
462.997	75.06
463.217	101.06
463.437	77.06
463.657	87.06
463.876	112.06
464.096	94.06
464.316	90.06
464.536	86.06
464.755	89.06
464.975	106.06
465.195	173.06
465.414	181.06
465.634	88.06
465.854	84.06
466.073	98.06
466.293	81.06
466.512	80.06
466.732	95.06
466.951	86.06
467.171	83.06
467.391	90.06
467.61	101.06
467.829	121.06
468.049	213.06
468.268	271.06
468.488	122.06
468.707	100.06
468.927	89.06
469.146	80.06
469.365	98.06
469.585	99.06
469.804	86.06
470.023	95.06
470.243	92.06
470.462	92.06
470.681	106.06
470.901	93.06
471.12	75.06
471.339	88.06
471.558	105.06
471.777	91.06
471.997	147.06
472.216	360.06
472.435	710.06
472.654	221.06
472.873	107.06
473.092	87.06
473.311	60.06
473.53	69.06
473.749	85.06
473.968	95.06
474.187	102.06
474.406	95.06
474.625	87.06
474.844	79.06
475.063	78.06
475.282	91.06
475.501	83.06
475.72	88.06
475.939	101.06
476.158	91.06
476.377	78.06
476.596	85.06
476.814	90.06
477.033	88.06
477.252	91.06
477.471	86.06
477.69	88.06
477.908	84.06
478.127	103.06
478.346	92.06
478.564	90.06
478.783	85.06
479.002	102.06
479.22	94.06
479.439	95.06
479.658	119.06
479.876	94.06
480.095	99.06
480.313	78.06
480.532	106.06
480.751	136.06
480.969	354.06
481.188	1244.06
481.406	780.06
481.624	165.06
481.843	107.06
482.061	92.06
482.28	102.06
482.498	99.06
482.717	93.06
482.935	85.06
483.153	75.06
483.372	81.06
483.59	90.06
483.808	84.06
484.027	93.06
484.245	87.06
484.463	107.06
484.681	99.06
484.9	86.06
485.118	85.06
485.336	94.06
485.554	104.06
485.772	101.06
485.99	92.06
486.209	102.06
486.427	102.06
486.645	120.06
486.863	115.06
487.081	97.06
487.299	94.06
487.517	98.06
487.735	93.06
487.953	86.06
488.171	91.06
488.389	89.06
488.607	84.06
488.825	105.06
489.043	90.06
489.261	93.06
489.479	89.06
489.696	96.06
489.914	87.06
490.132	97.06
490.35	90.06
490.568	75.06
490.786	101.06
491.003	80.06
491.221	92.06
491.439	93.06
491.657	85.06
491.874	84.06
492.092	102.06
492.31	84.06
492.527	87.06
492.745	94.06
492.963	86.06
493.18	92.06
493.398	103.06
493.615	88.06
493.833	84.06
494.05	82.06
494.268	93.06
494.485	99.06
494.703	91.06
494.92	85.06
495.138	90.06
495.355	93.06
495.573	90.06
495.79	97.06
496.008	96.06
496.225	89.06
496.442	91.06
496.66	93.06
496.877	102.06
497.094	100.06
497.312	96.06
497.529	103.06
497.746	83.06
497.963	91.06
498.181	77.06
498.398	84.06
498.615	98.06
498.832	92.06
499.049	78.06
499.267	84.06
499.484	86.06
499.701	95.06
499.918	90.06
500.135	97.06
500.352	81.06
500.569	78.06
500.786	85.06
501.003	93.06
501.22	93.06
501.437	102.06
501.654	92.06
501.871	107.06
502.088	99.06
502.305	97.06
502.522	91.06
502.739	91.06
502.956	98.06
503.172	80.06
503.389	95.06
503.606	101.06
503.823	101.06
504.04	81.06
504.256	102.06
504.473	80.06
504.69	95.06
504.907	72.06
505.123	90.06
505.34	103.06
505.557	88.06
505.773	74.06
505.99	90.06
506.207	91.06
506.423	93.06
506.64	84.06
506.856	88.06
507.073	94.06
507.289	87.06
507.506	90.06
507.722	115.06
507.939	120.06
508.155	109.06
508.372	103.06
508.588	79.06
508.805	106.06
509.021	98.06
509.238	100.06
509.454	108.06
509.67	100.06
509.887	99.06
510.103	118.06
510.319	222.06
510.536	719.06
510.752	2397.06
510.968	679.06
511.184	143.06
511.401	118.06
511.617	90.06
511.833	80.06
512.049	92.06
512.265	102.06
512.481	96.06
512.698	88.06
512.914	84.06
513.13	91.06
513.346	87.06
513.562	96.06
513.778	110.06
513.994	100.06
514.21	133.06
514.426	117.06
514.642	139.06
514.858	133.06
515.074	167.06
515.29	476.06
515.506	1675.06
515.721	646.06
515.937	170.06
516.153	122.06
516.369	86.06
516.585	102.06
516.801	114.06
517.016	86.06
517.232	66.06
517.448	93.06
517.664	89.06
517.879	90.06
518.095	99.06
518.311	96.06
518.527	105.06
518.742	93.06
518.958	80.06
519.173	91.06
519.389	101.06
519.605	100.06
519.82	97.06
520.036	107.06
520.251	138.06
520.467	120.06
520.682	91.06
520.898	98.06
521.113	121.06
521.329	143.06
521.544	217.06
521.76	637.06
521.975	2743.06
522.19	1701.06
522.406	365.06
522.621	136.06
522.836	111.06
523.052	102.06
523.267	94.06
523.482	100.06
523.698	104.06
523.913	121.06
524.128	107.06
524.343	88.06
524.559	82.06
524.774	100.06
524.989	94.06
525.204	106.06
525.419	101.06
525.634	95.06
525.849	87.06
526.064	88.06
526.28	88.06
526.495	84.06
526.71	74.06
526.925	77.06
527.14	94.06
527.355	95.06
527.57	106.06
527.785	101.06
527.999	90.06
528.214	101.06
528.429	88.06
528.644	104.06
528.859	89.06
529.074	91.06
529.289	149.06
529.503	210.06
529.718	108.06
529.933	105.06
530.148	88.06
530.363	86.06
530.577	93.06
530.792	94.06
531.007	89.06
531.221	102.06
531.436	78.06
531.651	81.06
531.865	99.06
532.08	87.06
532.295	90.06
532.509	82.06
532.724	89.06
532.938	85.06
533.153	99.06
533.367	90.06
533.582	80.06
533.796	100.06
534.011	86.06
534.225	91.06
534.44	92.06
534.654	95.06
534.868	88.06
535.083	90.06
535.297	101.06
535.511	109.06
535.726	95.06
535.94	98.06
536.154	91.06
536.369	88.06
536.583	88.06
536.797	88.06
537.011	96.06
537.225	97.06
537.44	103.06
537.654	86.06
537.868	97.06
538.082	85.06
538.296	101.06
538.51	100.06
538.724	83.06
538.938	85.06
539.153	92.06
539.367	109.06
539.581	104.06
539.795	106.06
540.009	93.06
540.222	91.06
540.436	88.06
540.65	93.06
540.864	90.06
541.078	93.06
541.292	93.06
541.506	86.06
541.72	80.06
541.934	82.06
542.147	86.06
542.361	92.06
542.575	76.06
542.789	80.06
543.002	76.06
543.216	97.06
543.43	103.06
543.644	93.06
543.857	93.06
544.071	86.06
544.285	97.06
544.498	80.06
544.712	106.06
544.925	86.06
545.139	80.06
545.352	73.06
545.566	93.06
545.779	79.06
545.993	81.06
546.206	95.06
546.42	78.06
546.633	78.06
546.847	88.06
547.06	90.06
547.274	91.06
547.487	79.06
547.7	85.06
547.914	88.06
548.127	90.06
548.34	85.06
548.554	99.06
548.767	87.06
548.98	94.06
549.193	85.06
549.407	88.06
549.62	84.06
549.833	91.06
550.046	83.06
550.259	82.06
550.473	92.06
550.686	89.06
550.899	81.06
551.112	95.06
551.325	78.06
551.538	95.06
551.751	98.06
551.964	85.06
552.177	87.06
552.39	80.06
552.603	74.06
552.816	80.06
553.029	81.06
553.242	80.06
553.455	89.06
553.667	109.06
553.88	101.06
554.093	97.06
554.306	96.06
554.519	98.06
554.732	83.06
554.944	109.06
555.157	99.06
555.37	96.06
555.583	104.06
555.795	84.06
556.008	78.06
556.221	79.06
556.433	78.06
556.646	90.06
556.859	92.06
557.071	91.06
557.284	86.06
557.496	84.06
557.709	84.06
557.921	86.06
558.134	83.06
558.346	79.06
558.559	90.06
558.771	88.06
558.984	97.06
559.196	99.06
559.409	79.06
559.621	83.06
559.833	86.06
560.046	96.06
560.258	88.06
560.47	108.06
560.683	90.06
560.895	109.06
561.107	97.06
561.32	99.06
561.532	87.06
561.744	81.06
561.956	92.06
562.168	86.06
562.381	86.06
562.593	87.06
562.805	94.06
563.017	98.06
563.229	95.06
563.441	97.06
563.653	90.06
563.865	90.06
564.077	76.06
564.289	88.06
564.501	91.06
564.713	103.06
564.925	93.06
565.137	107.06
565.349	104.06
565.561	88.06
565.773	89.06
565.985	93.06
566.197	82.06
566.408	92.06
566.62	78.06
566.832	92.06
567.044	77.06
567.255	80.06
567.467	85.06
567.679	74.06
567.891	84.06
568.102	85.06
568.314	67.06
568.526	94.06
568.737	83.06
568.949	89.06
569.161	79.06
569.372	83.06
569.584	87.06
569.795	85.06
570.007	140.06
570.218	240.06
570.43	125.06
570.641	98.06
570.853	78.06
571.064	76.06
571.276	87.06
571.487	87.06
571.698	87.06
571.91	95.06
572.121	88.06
572.333	92.06
572.544	94.06
572.755	93.06
572.966	78.06
573.178	101.06
573.389	91.06
573.6	93.06
573.811	84.06
574.023	87.06
574.234	68.06
574.445	88.06
574.656	83.06
574.867	81.06
575.078	93.06
575.289	91.06
575.501	91.06
575.712	87.06
575.923	79.06
576.134	90.06
576.345	89.06
576.556	86.06
576.767	82.06
576.978	89.06
577.188	98.06
577.399	91.06
577.61	93.06
577.821	82.06
578.032	121.06
578.243	243.06
578.454	768.06
578.665	224.06
578.875	106.06
579.086	93.06
579.297	89.06
579.508	85.06
579.718	76.06
579.929	72.06
580.14	84.06
580.35	93.06
580.561	76.06
580.772	83.06
580.982	96.06
581.193	86.06
581.403	89.06
581.614	80.06
581.825	79.06
582.035	88.06
582.246	86.06
582.456	73.06
582.667	82.06
582.877	100.06
583.087	85.06
583.298	80.06
583.508	80.06
583.719	82.06
583.929	89.06
584.139	92.06
584.35	90.06
584.56	85.06
584.77	89.06
584.981	85.06
585.191	98.06
585.401	94.06
585.611	89.06
585.821	99.06
586.032	82.06
586.242	84.06
586.452	70.06
586.662	84.06
586.872	79.06
587.082	80.06
587.292	86.06
587.502	93.06
587.713	80.06
587.923	75.06
588.133	84.06
588.343	86.06
588.553	70.06
588.762	95.06
588.972	102.06
589.182	171.06
589.392	119.06
589.602	99.06
589.812	125.06
590.022	101.06
590.232	87.06
590.441	108.06
590.651	86.06
590.861	92.06
591.071	87.06
591.281	95.06
591.49	97.06
591.7	88.06
591.91	82.06
592.119	87.06
592.329	73.06
592.539	91.06
592.748	101.06
592.958	78.06
593.167	93.06
593.377	89.06
593.587	116.06
593.796	88.06
594.006	85.06
594.215	84.06
594.424	76.06
594.634	76.06
594.843	76.06
595.053	83.06
595.262	75.06
595.472	86.06
595.681	77.06
595.89	86.06
596.1	90.06
596.309	94.06
596.518	91.06
596.727	88.06
596.937	84.06
597.146	92.06
597.355	82.06
597.564	90.06
597.774	82.06
597.983	82.06
598.192	88.06
598.401	85.06
598.61	88.06
598.819	79.06
599.028	94.06
599.237	90.06
599.446	78.06
599.655	88.06
599.864	97.06
600.073	96.06
600.282	86.06
600.491	83.06
600.7	85.06
600.909	93.06
601.118	99.06
601.327	98.06
601.536	93.06
601.745	83.06
601.953	86.06
602.162	88.06
602.371	98.06
602.58	91.06
602.789	88.06
602.997	75.06
603.206	83.06
603.415	90.06
603.623	91.06
603.832	91.06
604.041	71.06
604.249	78.06
604.458	92.06
604.666	71.06
604.875	82.06
605.084	82.06
605.292	88.06
605.501	86.06
605.709	72.06
605.918	88.06
606.126	88.06
606.334	85.06
606.543	79.06
606.751	84.06
606.96	77.06
607.168	88.06
607.376	79.06
607.585	73.06
607.793	82.06
608.001	90.06
608.21	67.06
608.418	80.06
608.626	81.06
608.834	85.06
609.043	78.06
609.251	76.06
609.459	87.06
609.667	83.06
609.875	73.06
610.083	78.06
610.291	86.06
610.499	85.06
610.707	79.06
610.916	86.06
611.124	82.06
611.332	73.06
611.54	92.06
611.748	83.06
611.955	88.06
612.163	91.06
612.371	79.06
612.579	90.06
612.787	97.06
612.995	99.06
613.203	81.06
613.411	88.06
613.618	92.06
613.826	83.06
614.034	87.06
614.242	91.06
614.449	90.06
614.657	83.06
614.865	83.06
615.072	86.06
615.28	77.06
615.488	94.06
615.695	104.06
615.903	85.06
616.111	104.06
616.318	96.06
616.526	97.06
616.733	91.06
616.941	98.06
617.148	85.06
617.356	77.06
617.563	92.06
617.771	94.06
617.978	75.06
618.185	84.06
618.393	89.06
618.6	93.06
618.807	90.06
619.015	89.06
619.222	83.06
619.429	74.06
619.637	79.06
619.844	82.06
620.051	91.06
620.258	89.06
620.466	96.06
620.673	92.06
620.88	89.06
621.087	86.06
621.294	90.06
621.501	86.06
621.708	90.06
621.915	101.06
622.122	83.06
622.329	87.06
622.536	79.06
622.743	86.06
622.95	69.06
623.157	90.06
623.364	93.06
623.571	67.06
623.778	89.06
623.985	99.06
624.192	78.06
624.399	88.06
624.606	98.06
624.812	75.06
625.019	78.06
625.226	86.06
625.433	90.06
625.639	84.06
625.846	73.06
626.053	87.06
626.259	83.06
626.466	89.06
626.673	106.06
626.879	83.06
627.086	96.06
627.293	84.06
627.499	86.06
627.706	82.06
627.912	73.06
628.119	84.06
628.325	78.06
628.532	83.06
628.738	78.06
628.945	76.06
629.151	84.06
629.357	77.06
629.564	90.06
629.77	84.06
629.976	81.06
630.183	82.06
630.389	79.06
630.595	82.06
630.802	79.06
631.008	87.06
631.214	93.06
631.42	80.06
631.627	90.06
631.833	69.06
632.039	87.06
632.245	82.06
632.451	82.06
632.657	91.06
632.863	83.06
633.069	80.06
633.275	79.06
633.481	71.06
633.688	64.06
633.893	83.06
634.099	95.06
634.305	85.06
634.511	86.06
634.717	83.06
634.923	77.06
635.129	65.06
635.335	90.06
635.541	78.06
635.747	76.06
635.952	80.06
636.158	95.06
636.364	166.06
636.57	134.06
636.775	80.06
636.981	75.06
637.187	91.06
637.392	83.06
637.598	79.06
637.804	90.06
638.009	78.06
638.215	77.06
638.421	88.06
638.626	98.06
638.832	83.06
639.037	94.06
639.243	84.06
639.448	75.06
639.654	83.06
639.859	80.06
640.065	80.06
640.27	103.06
640.475	91.06
640.681	78.06
640.886	84.06
641.091	72.06
641.297	82.06
641.502	87.06
641.707	93.06
641.913	78.06
642.118	75.06
642.323	87.06
642.528	79.06
642.733	89.06
642.939	95.06
643.144	85.06
643.349	79.06
643.554	94.06
643.759	72.06
643.964	90.06
644.169	94.06
644.374	92.06
644.579	87.06
644.784	90.06
644.989	71.06
645.194	68.06
645.399	83.06
645.604	86.06
645.809	67.06
646.014	83.06
646.219	75.06
646.423	83.06
646.628	96.06
646.833	79.06
647.038	95.06
647.243	92.06
647.447	87.06
647.652	78.06
647.857	79.06
648.062	86.06
648.266	90.06
648.471	81.06
648.676	97.06
648.88	91.06
649.085	84.06
649.289	88.06
649.494	93.06
649.698	135.06
649.903	106.06
650.107	88.06
650.312	85.06
650.516	86.06
650.721	73.06
650.925	93.06
651.13	83.06
651.334	76.06
651.539	77.06
651.743	84.06
651.947	76.06
652.152	73.06
652.356	92.06
652.56	85.06
652.764	88.06
652.969	89.06
653.173	80.06
653.377	80.06
653.581	80.06
653.785	80.06
653.99	83.06
654.194	86.06
654.398	82.06
654.602	84.06
654.806	95.06
655.01	106.06
655.214	88.06
655.418	78.06
655.622	74.06
655.826	89.06
656.03	88.06
656.234	93.06
656.438	93.06
656.642	93.06
656.846	85.06
657.049	80.06
657.253	77.06
657.457	82.06
657.661	79.06
657.865	86.06
658.068	84.06
658.272	77.06
658.476	76.06
658.68	77.06
658.883	77.06
659.087	75.06
659.291	82.06
659.494	85.06
659.698	80.06
659.901	88.06
660.105	85.06
660.309	79.06
660.512	85.06
660.716	84.06
660.919	91.06
661.123	84.06
661.326	73.06
661.53	85.06
661.733	76.06
661.936	85.06
662.14	78.06
662.343	78.06
662.546	74.06
662.75	77.06
662.953	78.06
663.156	80.06
663.36	91.06
663.563	80.06
663.766	77.06
663.969	79.06
664.173	94.06
664.376	60.06
664.579	85.06
664.782	75.06
664.985	75.06
665.188	78.06
665.391	79.06
665.594	79.06
665.797	77.06
666	70.06
666.203	89.06
666.406	73.06
666.609	63.06
666.812	69.06
667.015	83.06
667.218	82.06
667.421	77.06
667.624	86.06
667.827	78.06
668.03	78.06
668.232	72.06
668.435	90.06
668.638	77.06
668.841	78.06
669.043	88.06
669.246	66.06
669.449	82.06
669.651	83.06
669.854	80.06
670.057	77.06
670.259	89.06
670.462	85.06
670.665	72.06
670.867	75.06
671.07	68.06
671.272	83.06
671.475	74.06
671.677	83.06
671.88	86.06
672.082	73.06
672.284	76.06
672.487	92.06
672.689	69.06
672.892	72.06
