Data from Dry_Prop_25_3_HRD10591_00014.txt Node
Date: Wed Dec 03 14:41:38 EST 2025
User: Yrep
Spectrometer: HR+D1059
Trigger mode: 1
Integration Time (sec): 1.000000E-1
Scans to average: 1
Electric dark correction enabled: true
Nonlinearity correction enabled: false
Boxcar width: 0
XAxis mode: Wavelengths
Number of Pixels in Spectrum: 2048
>>>>>Begin Spectral Data<<<<<
223.165	-18.75
223.4	-18.75
223.635	-18.75
223.869	-17.75
224.104	-25.75
224.338	-17.75
224.573	-14.75
224.808	-9.75
225.042	-11.75
225.277	-9.75
225.511	-3.75
225.746	-0.75
225.98	9.25
226.215	15.25
226.449	18.25
226.683	30.25
226.918	24.25
227.152	33.25
227.387	18.25
227.621	42.25
227.856	32.25
228.09	29.25
228.324	41.25
228.559	55.25
228.793	68.25
229.027	56.25
229.262	68.25
229.496	75.25
229.73	66.25
229.964	79.25
230.199	83.25
230.433	77.25
230.667	106.25
230.901	68.25
231.136	87.25
231.37	71.25
231.604	94.25
231.838	92.25
232.072	87.25
232.306	89.25
232.541	81.25
232.775	90.25
233.009	81.25
233.243	87.25
233.477	80.25
233.711	93.25
233.945	92.25
234.179	75.25
234.413	83.25
234.647	74.25
234.881	67.25
235.115	78.25
235.349	93.25
235.583	81.25
235.817	80.25
236.051	82.25
236.285	87.25
236.519	83.25
236.753	71.25
236.987	79.25
237.221	67.25
237.455	58.25
237.689	76.25
237.922	75.25
238.156	67.25
238.39	70.25
238.624	81.25
238.858	79.25
239.091	67.25
239.325	71.25
239.559	79.25
239.793	79.25
240.027	70.25
240.26	78.25
240.494	75.25
240.728	72.25
240.961	61.25
241.195	68.25
241.429	71.25
241.662	67.25
241.896	84.25
242.13	85.25
242.363	84.25
242.597	87.25
242.83	91.25
243.064	86.25
243.298	69.25
243.531	67.25
243.765	75.25
243.998	82.25
244.232	68.25
244.465	75.25
244.699	87.25
244.932	74.25
245.166	78.25
245.399	83.25
245.633	90.25
245.866	70.25
246.099	75.25
246.333	80.25
246.566	81.25
246.8	72.25
247.033	71.25
247.266	69.25
247.5	95.25
247.733	81.25
247.966	78.25
248.2	83.25
248.433	83.25
248.666	80.25
248.899	84.25
249.133	67.25
249.366	82.25
249.599	73.25
249.832	84.25
250.066	78.25
250.299	71.25
250.532	74.25
250.765	78.25
250.998	75.25
251.231	82.25
251.465	85.25
251.698	78.25
251.931	93.25
252.164	78.25
252.397	81.25
252.63	85.25
252.863	93.25
253.096	72.25
253.329	87.25
253.562	83.25
253.795	78.25
254.028	76.25
254.261	75.25
254.494	76.25
254.727	82.25
254.96	82.25
255.193	81.25
255.426	78.25
255.659	71.25
255.892	97.25
256.124	83.25
256.357	67.25
256.59	75.25
256.823	80.25
257.056	75.25
257.289	83.25
257.521	99.25
257.754	87.25
257.987	58.25
258.22	63.25
258.452	66.25
258.685	80.25
258.918	75.25
259.151	63.25
259.383	76.25
259.616	81.25
259.849	69.25
260.081	72.25
260.314	84.25
260.547	69.25
260.779	82.25
261.012	84.25
261.244	84.25
261.477	82.25
261.71	83.25
261.942	72.25
262.175	83.25
262.407	78.25
262.64	76.25
262.872	86.25
263.105	74.25
263.337	88.25
263.57	85.25
263.802	81.25
264.035	83.25
264.267	69.25
264.499	79.25
264.732	87.25
264.964	71.25
265.197	74.25
265.429	82.25
265.661	84.25
265.894	78.25
266.126	83.25
266.358	86.25
266.591	92.25
266.823	91.25
267.055	65.25
267.287	63.25
267.52	88.25
267.752	77.25
267.984	78.25
268.216	88.25
268.448	74.25
268.681	83.25
268.913	99.25
269.145	85.25
269.377	78.25
269.609	81.25
269.841	85.25
270.073	78.25
270.306	82.25
270.538	82.25
270.77	84.25
271.002	90.25
271.234	95.25
271.466	92.25
271.698	88.25
271.93	88.25
272.162	64.25
272.394	77.25
272.626	77.25
272.858	81.25
273.09	75.25
273.322	98.25
273.553	62.25
273.785	91.25
274.017	81.25
274.249	84.25
274.481	88.25
274.713	78.25
274.945	68.25
275.176	84.25
275.408	76.25
275.64	83.25
275.872	73.25
276.104	87.25
276.335	79.25
276.567	71.25
276.799	80.25
277.031	89.25
277.262	83.25
277.494	85.25
277.726	93.25
277.957	93.25
278.189	82.25
278.421	86.25
278.652	84.25
278.884	78.25
279.115	91.25
279.347	86.25
279.579	94.25
279.81	85.25
280.042	94.25
280.273	82.25
280.505	68.25
280.736	83.25
280.968	84.25
281.199	85.25
281.431	77.25
281.662	93.25
281.894	93.25
282.125	79.25
282.356	83.25
282.588	83.25
282.819	80.25
283.051	86.25
283.282	84.25
283.513	79.25
283.745	98.25
283.976	72.25
284.207	79.25
284.439	88.25
284.67	90.25
284.901	75.25
285.132	79.25
285.364	74.25
285.595	87.25
285.826	84.25
286.057	87.25
286.288	94.25
286.52	87.25
286.751	76.25
286.982	97.25
287.213	74.25
287.444	71.25
287.675	82.25
287.906	90.25
288.138	74.25
288.369	90.25
288.6	75.25
288.831	80.25
289.062	84.25
289.293	74.25
289.524	101.25
289.755	86.25
289.986	90.25
290.217	91.25
290.448	74.25
290.679	90.25
290.91	83.25
291.141	87.25
291.371	86.25
291.602	88.25
291.833	75.25
292.064	87.25
292.295	85.25
292.526	82.25
292.757	80.25
292.987	77.25
293.218	86.25
293.449	80.25
293.68	76.25
293.91	84.25
294.141	77.25
294.372	78.25
294.603	85.25
294.833	80.25
295.064	83.25
295.295	82.25
295.525	55.25
295.756	98.25
295.987	84.25
296.217	92.25
296.448	83.25
296.679	85.25
296.909	79.25
297.14	87.25
297.37	92.25
297.601	87.25
297.831	83.25
298.062	94.25
298.292	80.25
298.523	81.25
298.753	87.25
298.984	80.25
299.214	78.25
299.445	70.25
299.675	79.25
299.905	84.25
300.136	82.25
300.366	83.25
300.597	82.25
300.827	77.25
301.057	78.25
301.288	96.25
301.518	103.25
301.748	88.25
301.979	95.25
302.209	89.25
302.439	98.25
302.669	91.25
302.9	70.25
303.13	87.25
303.36	82.25
303.59	87.25
303.82	89.25
304.051	97.25
304.281	80.25
304.511	85.25
304.741	82.25
304.971	92.25
305.201	100.25
305.431	78.25
305.661	81.25
305.891	74.25
306.121	85.25
306.352	79.25
306.582	87.25
306.812	80.25
307.042	78.25
307.272	92.25
307.502	88.25
307.731	88.25
307.961	93.25
308.191	92.25
308.421	78.25
308.651	76.25
308.881	84.25
309.111	78.25
309.341	62.25
309.571	74.25
309.8	78.25
310.03	75.25
310.26	94.25
310.49	71.25
310.72	84.25
310.949	83.25
311.179	70.25
311.409	85.25
311.639	91.25
311.868	87.25
312.098	84.25
312.328	100.25
312.557	87.25
312.787	78.25
313.017	91.25
313.246	93.25
313.476	84.25
313.706	93.25
313.935	100.25
314.165	82.25
314.394	92.25
314.624	98.25
314.853	81.25
315.083	86.25
315.312	83.25
315.542	92.25
315.771	85.25
316.001	87.25
316.23	88.25
316.46	81.25
316.689	80.25
316.919	88.25
317.148	101.25
317.377	90.25
317.607	93.25
317.836	80.25
318.065	84.25
318.295	86.25
318.524	79.25
318.753	70.25
318.983	78.25
319.212	76.25
319.441	90.25
319.67	87.25
319.9	85.25
320.129	99.25
320.358	71.25
320.587	87.25
320.816	81.25
321.046	81.25
321.275	83.25
321.504	74.25
321.733	91.25
321.962	83.25
322.191	81.25
322.42	90.25
322.649	90.25
322.878	86.25
323.108	67.25
323.337	72.25
323.566	71.25
323.795	91.25
324.024	90.25
324.253	91.25
324.482	85.25
324.71	76.25
324.939	94.25
325.168	86.25
325.397	98.25
325.626	87.25
325.855	71.25
326.084	82.25
326.313	92.25
326.542	84.25
326.77	80.25
326.999	96.25
327.228	80.25
327.457	91.25
327.686	84.25
327.914	84.25
328.143	78.25
328.372	94.25
328.6	76.25
328.829	81.25
329.058	94.25
329.287	73.25
329.515	86.25
329.744	75.25
329.972	71.25
330.201	90.25
330.43	79.25
330.658	75.25
330.887	81.25
331.115	81.25
331.344	71.25
331.572	92.25
331.801	74.25
332.03	85.25
332.258	78.25
332.486	93.25
332.715	78.25
332.943	80.25
333.172	78.25
333.4	83.25
333.629	78.25
333.857	76.25
334.085	88.25
334.314	99.25
334.542	96.25
334.771	83.25
334.999	92.25
335.227	76.25
335.455	73.25
335.684	82.25
335.912	86.25
336.14	81.25
336.369	68.25
336.597	67.25
336.825	83.25
337.053	82.25
337.281	86.25
337.51	87.25
337.738	91.25
337.966	76.25
338.194	77.25
338.422	84.25
338.65	80.25
338.878	71.25
339.106	86.25
339.334	86.25
339.562	88.25
339.79	83.25
340.018	82.25
340.246	85.25
340.474	92.25
340.702	86.25
340.93	79.25
341.158	67.25
341.386	92.25
341.614	77.25
341.842	73.25
342.07	93.25
342.298	74.25
342.526	95.25
342.754	85.25
342.981	79.25
343.209	90.25
343.437	101.25
343.665	92.25
343.893	79.25
344.12	86.25
344.348	95.25
344.576	82.25
344.804	92.25
345.031	93.25
345.259	87.25
345.487	94.25
345.714	76.25
345.942	81.25
346.17	92.25
346.397	90.25
346.625	72.25
346.853	80.25
347.08	71.25
347.308	65.25
347.535	77.25
347.763	79.25
347.99	94.25
348.218	74.25
348.445	70.25
348.673	100.25
348.9	82.25
349.128	79.25
349.355	87.25
349.583	76.25
349.81	77.25
350.037	90.25
350.265	74.25
350.492	84.25
350.72	98.25
350.947	84.25
351.174	86.25
351.402	87.25
351.629	80.25
351.856	92.25
352.083	86.25
352.311	70.25
352.538	81.25
352.765	78.25
352.992	95.25
353.22	88.25
353.447	83.25
353.674	82.25
353.901	81.25
354.128	80.25
354.355	82.25
354.583	85.25
354.81	89.25
355.037	85.25
355.264	86.25
355.491	75.25
355.718	66.25
355.945	92.25
356.172	82.25
356.399	90.25
356.626	90.25
356.853	78.25
357.08	91.25
357.307	87.25
357.534	79.25
357.761	85.25
357.988	81.25
358.215	80.25
358.441	94.25
358.668	71.25
358.895	94.25
359.122	82.25
359.349	71.25
359.576	75.25
359.802	93.25
360.029	92.25
360.256	79.25
360.483	91.25
360.709	86.25
360.936	91.25
361.163	77.25
361.39	87.25
361.616	83.25
361.843	87.25
362.07	82.25
362.296	82.25
362.523	83.25
362.749	83.25
362.976	85.25
363.203	94.25
363.429	82.25
363.656	100.25
363.882	83.25
364.109	76.25
364.335	83.25
364.562	85.25
364.788	72.25
365.015	78.25
365.241	85.25
365.468	86.25
365.694	70.25
365.92	83.25
366.147	78.25
366.373	77.25
366.599	80.25
366.826	69.25
367.052	83.25
367.278	86.25
367.505	84.25
367.731	85.25
367.957	87.25
368.184	91.25
368.41	66.25
368.636	79.25
368.862	90.25
369.089	90.25
369.315	70.25
369.541	87.25
369.767	77.25
369.993	73.25
370.219	72.25
370.445	78.25
370.672	88.25
370.898	76.25
371.124	70.25
371.35	84.25
371.576	76.25
371.802	82.25
372.028	78.25
372.254	82.25
372.48	90.25
372.706	87.25
372.932	77.25
373.158	80.25
373.384	71.25
373.61	90.25
373.835	87.25
374.061	83.25
374.287	80.25
374.513	91.25
374.739	80.25
374.965	76.25
375.191	69.25
375.416	80.25
375.642	82.25
375.868	92.25
376.094	84.25
376.319	80.25
376.545	81.25
376.771	76.25
376.997	79.25
377.222	83.25
377.448	93.25
377.674	70.25
377.899	84.25
378.125	81.25
378.35	85.25
378.576	78.25
378.802	71.25
379.027	66.25
379.253	74.25
379.478	90.25
379.704	72.25
379.929	72.25
380.155	69.25
380.38	83.25
380.606	81.25
380.831	87.25
381.057	80.25
381.282	83.25
381.507	83.25
381.733	77.25
381.958	82.25
382.184	95.25
382.409	74.25
382.634	92.25
382.86	94.25
383.085	90.25
383.31	76.25
383.535	92.25
383.761	76.25
383.986	92.25
384.211	74.25
384.436	86.25
384.662	66.25
384.887	80.25
385.112	75.25
385.337	71.25
385.562	86.25
385.787	86.25
386.013	78.25
386.238	76.25
386.463	70.25
386.688	94.25
386.913	82.25
387.138	64.25
387.363	80.25
387.588	79.25
387.813	80.25
388.038	102.25
388.263	84.25
388.488	70.25
388.713	77.25
388.938	69.25
389.163	78.25
389.387	81.25
389.612	80.25
389.837	94.25
390.062	75.25
390.287	76.25
390.512	86.25
390.736	84.25
390.961	89.25
391.186	80.25
391.411	78.25
391.636	77.25
391.86	77.25
392.085	83.25
392.31	77.25
392.534	94.25
392.759	74.25
392.984	87.25
393.208	75.25
393.433	77.25
393.658	83.25
393.882	88.25
394.107	80.25
394.331	91.25
394.556	82.25
394.78	84.25
395.005	73.25
395.229	90.25
395.454	80.25
395.678	84.25
395.903	88.25
396.127	77.25
396.352	87.25
396.576	82.25
396.801	84.25
397.025	76.25
397.249	70.25
397.474	92.25
397.698	78.25
397.922	88.25
398.147	74.25
398.371	95.25
398.595	92.25
398.82	78.25
399.044	77.25
399.268	81.25
399.492	78.25
399.717	86.25
399.941	75.25
400.165	88.25
400.389	83.25
400.613	84.25
400.837	83.25
401.062	65.25
401.286	76.25
401.51	81.25
401.734	82.25
401.958	96.25
402.182	75.25
402.406	87.25
402.63	79.25
402.854	90.25
403.078	81.25
403.302	66.25
403.526	86.25
403.75	81.25
403.974	73.25
404.198	76.25
404.422	76.25
404.645	90.25
404.869	91.25
405.093	76.25
405.317	76.25
405.541	79.25
405.765	80.25
405.988	90.25
406.212	92.25
406.436	100.25
406.66	84.25
406.883	82.25
407.107	70.25
407.331	71.25
407.555	84.25
407.778	86.25
408.002	86.25
408.226	93.25
408.449	70.25
408.673	65.25
408.896	82.25
409.12	86.25
409.344	75.25
409.567	79.25
409.791	78.25
410.014	74.25
410.238	85.25
410.461	84.25
410.685	76.25
410.908	79.25
411.132	78.25
411.355	74.25
411.578	79.25
411.802	82.25
412.025	78.25
412.249	65.25
412.472	80.25
412.695	83.25
412.919	83.25
413.142	87.25
413.365	86.25
413.589	80.25
413.812	70.25
414.035	80.25
414.258	74.25
414.482	96.25
414.705	80.25
414.928	86.25
415.151	91.25
415.374	76.25
415.597	90.25
415.821	88.25
416.044	87.25
416.267	96.25
416.49	84.25
416.713	74.25
416.936	87.25
417.159	92.25
417.382	85.25
417.605	86.25
417.828	78.25
418.051	70.25
418.274	87.25
418.497	83.25
418.72	84.25
418.943	73.25
419.166	82.25
419.389	78.25
419.611	77.25
419.834	72.25
420.057	81.25
420.28	78.25
420.503	79.25
420.726	79.25
420.948	83.25
421.171	83.25
421.394	85.25
421.617	82.25
421.839	73.25
422.062	85.25
422.285	77.25
422.507	92.25
422.73	64.25
422.953	75.25
423.175	76.25
423.398	82.25
423.621	75.25
423.843	70.25
424.066	76.25
424.288	74.25
424.511	68.25
424.733	80.25
424.956	83.25
425.178	76.25
425.401	60.25
425.623	90.25
425.846	76.25
426.068	71.25
426.291	76.25
426.513	62.25
426.735	71.25
426.958	76.25
427.18	98.25
427.402	79.25
427.625	72.25
427.847	74.25
428.069	78.25
428.292	81.25
428.514	73.25
428.736	79.25
428.958	73.25
429.181	78.25
429.403	94.25
429.625	82.25
429.847	76.25
430.069	82.25
430.292	82.25
430.514	69.25
430.736	84.25
430.958	82.25
431.18	80.25
431.402	75.25
431.624	82.25
431.846	68.25
432.068	81.25
432.29	74.25
432.512	75.25
432.734	68.25
432.956	93.25
433.178	84.25
433.4	86.25
433.622	92.25
433.844	94.25
434.066	70.25
434.287	78.25
434.509	84.25
434.731	71.25
434.953	79.25
435.175	76.25
435.397	84.25
435.618	90.25
435.84	72.25
436.062	73.25
436.284	74.25
436.505	87.25
436.727	78.25
436.949	95.25
437.17	94.25
437.392	78.25
437.614	85.25
437.835	79.25
438.057	69.25
438.278	84.25
438.5	71.25
438.721	88.25
438.943	78.25
439.165	67.25
439.386	88.25
439.608	93.25
439.829	78.25
440.05	80.25
440.272	84.25
440.493	75.25
440.715	96.25
440.936	92.25
441.158	87.25
441.379	68.25
441.6	76.25
441.822	85.25
442.043	90.25
442.264	90.25
442.486	82.25
442.707	74.25
442.928	98.25
443.149	94.25
443.371	73.25
443.592	86.25
443.813	85.25
444.034	82.25
444.255	77.25
444.476	69.25
444.698	82.25
444.919	81.25
445.14	151.25
445.361	119.25
445.582	81.25
445.803	92.25
446.024	85.25
446.245	81.25
446.466	68.25
446.687	81.25
446.908	79.25
447.129	95.25
447.35	90.25
447.571	82.25
447.792	86.25
448.013	90.25
448.234	85.25
448.455	82.25
448.675	88.25
448.896	81.25
449.117	92.25
449.338	87.25
449.559	85.25
449.779	76.25
450	94.25
450.221	79.25
450.442	81.25
450.662	85.25
450.883	85.25
451.104	78.25
451.324	85.25
451.545	88.25
451.766	65.25
451.986	90.25
452.207	82.25
452.428	91.25
452.648	76.25
452.869	90.25
453.089	81.25
453.31	76.25
453.53	71.25
453.751	84.25
453.971	86.25
454.192	74.25
454.412	86.25
454.633	83.25
454.853	78.25
455.073	83.25
455.294	86.25
455.514	84.25
455.734	85.25
455.955	95.25
456.175	77.25
456.395	89.25
456.616	82.25
456.836	82.25
457.056	96.25
457.276	90.25
457.497	77.25
457.717	70.25
457.937	86.25
458.157	79.25
458.377	76.25
458.598	74.25
458.818	79.25
459.038	96.25
459.258	82.25
459.478	79.25
459.698	91.25
459.918	84.25
460.138	76.25
460.358	74.25
460.578	103.25
460.798	84.25
461.018	83.25
461.238	82.25
461.458	91.25
461.678	66.25
461.898	78.25
462.118	91.25
462.338	82.25
462.558	98.25
462.777	75.25
462.997	77.25
463.217	84.25
463.437	74.25
463.657	92.25
463.876	91.25
464.096	80.25
464.316	80.25
464.536	79.25
464.755	88.25
464.975	93.25
465.195	84.25
465.414	70.25
465.634	79.25
465.854	88.25
466.073	81.25
466.293	88.25
466.512	82.25
466.732	88.25
466.951	89.25
467.171	100.25
467.391	77.25
467.61	84.25
467.829	74.25
468.049	79.25
468.268	76.25
468.488	77.25
468.707	96.25
468.927	90.25
469.146	83.25
469.365	69.25
469.585	72.25
469.804	79.25
470.023	73.25
470.243	78.25
470.462	85.25
470.681	74.25
470.901	75.25
471.12	74.25
471.339	76.25
471.558	79.25
471.777	81.25
471.997	82.25
472.216	77.25
472.435	99.25
472.654	82.25
472.873	95.25
473.092	78.25
473.311	74.25
473.53	72.25
473.749	72.25
473.968	93.25
474.187	71.25
474.406	92.25
474.625	74.25
474.844	95.25
475.063	76.25
475.282	68.25
475.501	84.25
475.72	87.25
475.939	78.25
476.158	83.25
476.377	85.25
476.596	83.25
476.814	82.25
477.033	84.25
477.252	71.25
477.471	83.25
477.69	100.25
477.908	79.25
478.127	86.25
478.346	92.25
478.564	73.25
478.783	81.25
479.002	85.25
479.22	79.25
479.439	85.25
479.658	84.25
479.876	87.25
480.095	81.25
480.313	85.25
480.532	102.25
480.751	96.25
480.969	79.25
481.188	88.25
481.406	74.25
481.624	98.25
481.843	78.25
482.061	74.25
482.28	79.25
482.498	68.25
482.717	95.25
482.935	88.25
483.153	80.25
483.372	86.25
483.59	74.25
483.808	82.25
484.027	92.25
484.245	79.25
484.463	81.25
484.681	79.25
484.9	84.25
485.118	92.25
485.336	72.25
485.554	75.25
485.772	83.25
485.99	76.25
486.209	65.25
486.427	83.25
486.645	68.25
486.863	72.25
487.081	91.25
487.299	90.25
487.517	82.25
487.735	80.25
487.953	98.25
488.171	95.25
488.389	78.25
488.607	68.25
488.825	87.25
489.043	87.25
489.261	86.25
489.479	96.25
489.696	97.25
489.914	82.25
490.132	71.25
490.35	80.25
490.568	75.25
490.786	79.25
491.003	86.25
491.221	82.25
491.439	84.25
491.657	69.25
491.874	85.25
492.092	75.25
492.31	92.25
492.527	76.25
492.745	85.25
492.963	83.25
493.18	75.25
493.398	94.25
493.615	86.25
493.833	80.25
494.05	94.25
494.268	83.25
494.485	99.25
494.703	81.25
494.92	71.25
495.138	77.25
495.355	83.25
495.573	81.25
495.79	86.25
496.008	79.25
496.225	80.25
496.442	86.25
496.66	86.25
496.877	83.25
497.094	99.25
497.312	82.25
497.529	87.25
497.746	79.25
497.963	93.25
498.181	78.25
498.398	79.25
498.615	82.25
498.832	93.25
499.049	82.25
499.267	88.25
499.484	92.25
499.701	84.25
499.918	82.25
500.135	74.25
500.352	69.25
500.569	82.25
500.786	86.25
501.003	86.25
501.22	89.25
501.437	72.25
501.654	89.25
501.871	80.25
502.088	81.25
502.305	80.25
502.522	90.25
502.739	84.25
502.956	87.25
503.172	76.25
503.389	79.25
503.606	85.25
503.823	94.25
504.04	100.25
504.256	86.25
504.473	71.25
504.69	94.25
504.907	92.25
505.123	94.25
505.34	92.25
505.557	108.25
505.773	81.25
505.99	73.25
506.207	84.25
506.423	80.25
506.64	90.25
506.856	87.25
507.073	94.25
507.289	83.25
507.506	82.25
507.722	86.25
507.939	83.25
508.155	87.25
508.372	80.25
508.588	78.25
508.805	93.25
509.021	87.25
509.238	86.25
509.454	72.25
509.67	64.25
509.887	79.25
510.103	73.25
510.319	83.25
510.536	91.25
510.752	85.25
510.968	76.25
511.184	83.25
511.401	94.25
511.617	81.25
511.833	84.25
512.049	71.25
512.265	82.25
512.481	92.25
512.698	98.25
512.914	81.25
513.13	82.25
513.346	88.25
513.562	88.25
513.778	85.25
513.994	81.25
514.21	73.25
514.426	87.25
514.642	88.25
514.858	97.25
515.074	84.25
515.29	66.25
515.506	76.25
515.721	74.25
515.937	77.25
516.153	76.25
516.369	80.25
516.585	80.25
516.801	72.25
517.016	80.25
517.232	80.25
517.448	81.25
517.664	84.25
517.879	90.25
518.095	83.25
518.311	86.25
518.527	100.25
518.742	95.25
518.958	82.25
519.173	90.25
519.389	87.25
519.605	94.25
519.82	89.25
520.036	91.25
520.251	97.25
520.467	80.25
520.682	83.25
520.898	86.25
521.113	89.25
521.329	101.25
521.544	81.25
521.76	90.25
521.975	95.25
522.19	84.25
522.406	80.25
522.621	72.25
522.836	87.25
523.052	70.25
523.267	83.25
523.482	91.25
523.698	93.25
523.913	91.25
524.128	84.25
524.343	82.25
524.559	80.25
524.774	81.25
524.989	79.25
525.204	86.25
525.419	83.25
525.634	83.25
525.849	85.25
526.064	91.25
526.28	98.25
526.495	78.25
526.71	83.25
526.925	80.25
527.14	94.25
527.355	77.25
527.57	81.25
527.785	82.25
527.999	78.25
528.214	80.25
528.429	91.25
528.644	80.25
528.859	85.25
529.074	76.25
529.289	83.25
529.503	88.25
529.718	87.25
529.933	77.25
530.148	92.25
530.363	80.25
530.577	96.25
530.792	75.25
531.007	86.25
531.221	91.25
531.436	94.25
531.651	78.25
531.865	94.25
532.08	83.25
532.295	87.25
532.509	96.25
532.724	90.25
532.938	73.25
533.153	80.25
533.367	78.25
533.582	87.25
533.796	86.25
534.011	66.25
534.225	85.25
534.44	99.25
534.654	85.25
534.868	83.25
535.083	93.25
535.297	82.25
535.511	87.25
535.726	82.25
535.94	81.25
536.154	76.25
536.369	94.25
536.583	76.25
536.797	86.25
537.011	92.25
537.225	90.25
537.44	91.25
537.654	95.25
537.868	91.25
538.082	84.25
538.296	74.25
538.51	83.25
538.724	87.25
538.938	96.25
539.153	90.25
539.367	92.25
539.581	71.25
539.795	77.25
540.009	76.25
540.222	77.25
540.436	85.25
540.65	74.25
540.864	93.25
541.078	83.25
541.292	82.25
541.506	85.25
541.72	72.25
541.934	78.25
542.147	94.25
542.361	83.25
542.575	78.25
542.789	84.25
543.002	85.25
543.216	81.25
543.43	77.25
543.644	79.25
543.857	79.25
544.071	76.25
544.285	90.25
544.498	82.25
544.712	99.25
544.925	91.25
545.139	82.25
545.352	88.25
545.566	70.25
545.779	67.25
545.993	85.25
546.206	100.25
546.42	74.25
546.633	82.25
546.847	82.25
547.06	88.25
547.274	91.25
547.487	83.25
547.7	82.25
547.914	83.25
548.127	97.25
548.34	80.25
548.554	94.25
548.767	84.25
548.98	90.25
549.193	92.25
549.407	82.25
549.62	92.25
549.833	79.25
550.046	85.25
550.259	77.25
550.473	81.25
550.686	79.25
550.899	70.25
551.112	102.25
551.325	64.25
551.538	85.25
551.751	86.25
551.964	83.25
552.177	99.25
552.39	75.25
552.603	74.25
552.816	86.25
553.029	78.25
553.242	87.25
553.455	74.25
553.667	94.25
553.88	78.25
554.093	97.25
554.306	92.25
554.519	74.25
554.732	84.25
554.944	81.25
555.157	85.25
555.37	85.25
555.583	80.25
555.795	71.25
556.008	86.25
556.221	92.25
556.433	81.25
556.646	76.25
556.859	96.25
557.071	90.25
557.284	82.25
557.496	86.25
557.709	85.25
557.921	90.25
558.134	86.25
558.346	82.25
558.559	94.25
558.771	90.25
558.984	85.25
559.196	72.25
559.409	91.25
559.621	92.25
559.833	84.25
560.046	71.25
560.258	88.25
560.47	81.25
560.683	98.25
560.895	91.25
561.107	76.25
561.32	84.25
561.532	87.25
561.744	94.25
561.956	69.25
562.168	86.25
562.381	91.25
562.593	92.25
562.805	75.25
563.017	82.25
563.229	79.25
563.441	82.25
563.653	92.25
563.865	77.25
564.077	82.25
564.289	79.25
564.501	81.25
564.713	86.25
564.925	74.25
565.137	84.25
565.349	93.25
565.561	82.25
565.773	88.25
565.985	80.25
566.197	64.25
566.408	77.25
566.62	85.25
566.832	87.25
567.044	93.25
567.255	83.25
567.467	87.25
567.679	85.25
567.891	73.25
568.102	80.25
568.314	104.25
568.526	85.25
568.737	77.25
568.949	83.25
569.161	90.25
569.372	76.25
569.584	95.25
569.795	84.25
570.007	85.25
570.218	78.25
570.43	62.25
570.641	92.25
570.853	82.25
571.064	84.25
571.276	88.25
571.487	92.25
571.698	82.25
571.91	67.25
572.121	86.25
572.333	71.25
572.544	78.25
572.755	76.25
572.966	70.25
573.178	86.25
573.389	79.25
573.6	95.25
573.811	83.25
574.023	87.25
574.234	74.25
574.445	87.25
574.656	74.25
574.867	82.25
575.078	82.25
575.289	95.25
575.501	76.25
575.712	86.25
575.923	92.25
576.134	81.25
576.345	79.25
576.556	87.25
576.767	93.25
576.978	90.25
577.188	94.25
577.399	76.25
577.61	71.25
577.821	76.25
578.032	85.25
578.243	92.25
578.454	81.25
578.665	98.25
578.875	82.25
579.086	77.25
579.297	74.25
579.508	78.25
579.718	83.25
579.929	98.25
580.14	77.25
580.35	87.25
580.561	90.25
580.772	81.25
580.982	90.25
581.193	79.25
581.403	74.25
581.614	65.25
581.825	83.25
582.035	88.25
582.246	94.25
582.456	80.25
582.667	90.25
582.877	77.25
583.087	80.25
583.298	94.25
583.508	95.25
583.719	75.25
583.929	85.25
584.139	70.25
584.35	84.25
584.56	85.25
584.77	74.25
584.981	81.25
585.191	87.25
585.401	84.25
585.611	92.25
585.821	86.25
586.032	88.25
586.242	84.25
586.452	97.25
586.662	79.25
586.872	84.25
587.082	85.25
587.292	86.25
587.502	102.25
587.713	95.25
587.923	83.25
588.133	94.25
588.343	72.25
588.553	80.25
588.762	103.25
588.972	118.25
589.182	141.25
589.392	118.25
589.602	104.25
589.812	135.25
590.022	124.25
590.232	93.25
590.441	99.25
590.651	93.25
590.861	87.25
591.071	79.25
591.281	89.25
591.49	84.25
591.7	88.25
591.91	85.25
592.119	59.25
592.329	89.25
592.539	96.25
592.748	93.25
592.958	85.25
593.167	86.25
593.377	81.25
593.587	82.25
593.796	87.25
594.006	101.25
594.215	82.25
594.424	91.25
594.634	79.25
594.843	78.25
595.053	101.25
595.262	94.25
595.472	86.25
595.681	94.25
595.89	96.25
596.1	79.25
596.309	81.25
596.518	85.25
596.727	77.25
596.937	70.25
597.146	84.25
597.355	94.25
597.564	76.25
597.774	76.25
597.983	87.25
598.192	80.25
598.401	96.25
598.61	96.25
598.819	89.25
599.028	81.25
599.237	78.25
599.446	81.25
599.655	85.25
599.864	94.25
600.073	83.25
600.282	78.25
600.491	90.25
600.7	76.25
600.909	79.25
601.118	80.25
601.327	91.25
601.536	81.25
601.745	87.25
601.953	98.25
602.162	84.25
602.371	98.25
602.58	83.25
602.789	96.25
602.997	83.25
603.206	82.25
603.415	73.25
603.623	79.25
603.832	87.25
604.041	88.25
604.249	70.25
604.458	79.25
604.666	92.25
604.875	84.25
605.084	80.25
605.292	78.25
605.501	88.25
605.709	74.25
605.918	77.25
606.126	85.25
606.334	91.25
606.543	84.25
606.751	87.25
606.96	78.25
607.168	75.25
607.376	79.25
607.585	86.25
607.793	90.25
608.001	73.25
608.21	82.25
608.418	82.25
608.626	78.25
608.834	76.25
609.043	91.25
609.251	74.25
609.459	83.25
609.667	89.25
609.875	80.25
610.083	79.25
610.291	77.25
610.499	86.25
610.707	80.25
610.916	84.25
611.124	77.25
611.332	86.25
611.54	81.25
611.748	98.25
611.955	93.25
612.163	79.25
612.371	103.25
612.579	85.25
612.787	82.25
612.995	92.25
613.203	84.25
613.411	87.25
613.618	80.25
613.826	94.25
614.034	87.25
614.242	80.25
614.449	80.25
614.657	82.25
614.865	93.25
615.072	94.25
615.28	88.25
615.488	95.25
615.695	75.25
615.903	82.25
616.111	93.25
616.318	84.25
616.526	87.25
616.733	98.25
616.941	78.25
617.148	87.25
617.356	90.25
617.563	91.25
617.771	79.25
617.978	85.25
618.185	91.25
618.393	82.25
618.6	85.25
618.807	91.25
619.015	81.25
619.222	85.25
619.429	90.25
619.637	86.25
619.844	96.25
620.051	98.25
620.258	82.25
620.466	87.25
620.673	91.25
620.88	86.25
621.087	92.25
621.294	84.25
621.501	71.25
621.708	94.25
621.915	87.25
622.122	76.25
622.329	100.25
622.536	92.25
622.743	81.25
622.95	83.25
623.157	81.25
623.364	83.25
623.571	80.25
623.778	87.25
623.985	87.25
624.192	78.25
624.399	84.25
624.606	83.25
624.812	80.25
625.019	92.25
625.226	92.25
625.433	81.25
625.639	89.25
625.846	95.25
626.053	85.25
626.259	81.25
626.466	75.25
626.673	83.25
626.879	86.25
627.086	78.25
627.293	77.25
627.499	87.25
627.706	90.25
627.912	94.25
628.119	83.25
628.325	85.25
628.532	87.25
628.738	95.25
628.945	80.25
629.151	72.25
629.357	96.25
629.564	86.25
629.77	95.25
629.976	85.25
630.183	84.25
630.389	71.25
630.595	74.25
630.802	76.25
631.008	91.25
631.214	91.25
631.42	82.25
631.627	66.25
631.833	72.25
632.039	80.25
632.245	79.25
632.451	75.25
632.657	88.25
632.863	85.25
633.069	97.25
633.275	87.25
633.481	84.25
633.688	75.25
633.893	75.25
634.099	80.25
634.305	78.25
634.511	96.25
634.717	76.25
634.923	86.25
635.129	87.25
635.335	90.25
635.541	76.25
635.747	79.25
635.952	82.25
636.158	66.25
636.364	79.25
636.57	95.25
636.775	80.25
636.981	91.25
637.187	99.25
637.392	101.25
637.598	85.25
637.804	84.25
638.009	92.25
638.215	65.25
638.421	96.25
638.626	87.25
638.832	82.25
639.037	81.25
639.243	80.25
639.448	78.25
639.654	76.25
639.859	91.25
640.065	83.25
640.27	86.25
640.475	77.25
640.681	84.25
640.886	74.25
641.091	96.25
641.297	83.25
641.502	78.25
641.707	79.25
641.913	87.25
642.118	81.25
642.323	74.25
642.528	95.25
642.733	88.25
642.939	96.25
643.144	93.25
643.349	85.25
643.554	79.25
643.759	87.25
643.964	74.25
644.169	82.25
644.374	76.25
644.579	79.25
644.784	94.25
644.989	98.25
645.194	104.25
645.399	100.25
645.604	91.25
645.809	72.25
646.014	80.25
646.219	75.25
646.423	88.25
646.628	84.25
646.833	86.25
647.038	83.25
647.243	73.25
647.447	85.25
647.652	83.25
647.857	70.25
648.062	90.25
648.266	85.25
648.471	82.25
648.676	78.25
648.88	69.25
649.085	77.25
649.289	85.25
649.494	75.25
649.698	79.25
649.903	88.25
650.107	92.25
650.312	75.25
650.516	80.25
650.721	86.25
650.925	85.25
651.13	83.25
651.334	85.25
651.539	92.25
651.743	85.25
651.947	80.25
652.152	79.25
652.356	76.25
652.56	77.25
652.764	67.25
652.969	95.25
653.173	85.25
653.377	79.25
653.581	82.25
653.785	84.25
653.99	76.25
654.194	82.25
654.398	80.25
654.602	79.25
654.806	90.25
655.01	67.25
655.214	84.25
655.418	77.25
655.622	79.25
655.826	77.25
656.03	82.25
656.234	90.25
656.438	89.25
656.642	73.25
656.846	74.25
657.049	63.25
657.253	83.25
657.457	83.25
657.661	73.25
657.865	69.25
658.068	83.25
658.272	80.25
658.476	74.25
658.68	83.25
658.883	93.25
659.087	58.25
659.291	88.25
659.494	68.25
659.698	85.25
659.901	84.25
660.105	80.25
660.309	69.25
660.512	82.25
660.716	84.25
660.919	84.25
661.123	81.25
661.326	84.25
661.53	95.25
661.733	81.25
661.936	76.25
662.14	84.25
662.343	93.25
662.546	80.25
662.75	76.25
662.953	79.25
663.156	71.25
663.36	84.25
663.563	92.25
663.766	76.25
663.969	76.25
664.173	81.25
664.376	72.25
664.579	77.25
664.782	85.25
664.985	79.25
665.188	98.25
665.391	90.25
665.594	75.25
665.797	76.25
666	88.25
666.203	74.25
666.406	91.25
666.609	82.25
666.812	88.25
667.015	94.25
667.218	80.25
667.421	74.25
667.624	85.25
667.827	74.25
668.03	77.25
668.232	79.25
668.435	81.25
668.638	91.25
668.841	87.25
669.043	76.25
669.246	88.25
669.449	70.25
669.651	87.25
669.854	86.25
670.057	97.25
670.259	84.25
670.462	78.25
670.665	83.25
670.867	83.25
671.07	83.25
671.272	82.25
671.475	85.25
671.677	72.25
671.88	74.25
672.082	87.25
672.284	83.25
672.487	82.25
672.689	85.25
672.892	80.25
